##TITLE=3D-Fillies_PLA-Rainbow_Turquoise_Filament_r2_ATR-Corrected
##JCAMP-DX=5.01  $$ Nicolet v. 1
##DATATYPE=INFRARED SPECTRUM
##ORIGIN=Curtin University
##OWNER=Nicolet
##LONGDATE=2024/07/18
##TIME=14:26:06
##SPECTROMETER/DATA SYSTEM=Nicolet iS50
##DATA PROCESSING=
Ratio against background
%Transmittance->Absorbance
ATR Correction
Truncated
ElementMultiply or ElementDivide
##COMMENTS=
Number of sample scans: 32
Collection length: 47.28 sec
Sample gain: 1.0
Background collected on: Thu Jul 18 14:24:45 2024 (GMT+08:00);
Number of background scans: 32
Background gain: 1.0
Sample spacing:  1.000
Number of scan points: 16672
Resolution points: 8192
Number of FFT points: 65536
Apodization: N-B strong;
Phase correction: Mertz;
Laser frequency: 15798.3 cm-1
Number of rejected sample scans: 0
Number of rejected background scans: 0
Bench serial number: AUP1200105;
##RESOLUTION=4.000
##XUNITS=1/CM
##YUNITS=ABSORBANCE
##FIRSTX=400.163452
##LASTX=4000.187744
##FIRSTY=0.056962
##MAXX=4000.187744
##MINX=400.163452
##MAXY=0.918227
##MINY=-0.024024
##XFACTOR=1.000000
##YFACTOR=1.000000E-009
##NPOINTS=7468
##DELTAX=0.482125
##ZPD=8192
##XYDATA=(X++(Y..Y))
400.163 56962212 55782160 54638476 53575616 52626948 51820688 51161868 
403.538 50618668 50123544 49584660 48912180 48047156 46981060 45760264 
406.913 44471448 43214084 42070968 41088116 40272248 39602232 39049840 
410.288 38597120 38244160 38005148 37894232 37909568 38021976 38172064 
413.663 38278808 38255852 38031688 37567616 36870476 35992492 35022152 
417.038 34064060 33216116 32546430 32077358 31781766 31594202 31433676 
420.412 31232542 30960486 30635528 30316430 30080428 29991806 30075786 
423.787 30302858 30593212 30836906 30927142 30792898 30420824 29860842 
427.162 29212874 28598940 28130594 27878688 27857280 28022364 28287874 
430.537 28551430 28724958 28757706 28648870 28442150 28214882 28045390 
433.912 27989720 28062870 28235626 28446018 28622898 28711428 28692540 
437.286 28588376 28450884 28340606 28302056 28346870 28449704 28557856 
440.661 28609922 28555360 28368066 28049826 27624002 27124280 26584350 
444.036 26032486 25492466 24989364 24554168 24223472 24035194 24017120 
447.411 24176890 24494830 24924578 25401426 25855228 26224780 26468870 
450.786 26571324 26540880 26405198 26203182 25976240 25761292 25585538 
454.161 25464038 25399056 25381562 25393996 25414908 25424714 25410922 
457.535 25372022 25318930 25271594 25252368 25277718 25350282 25455194 
460.910 25561342 25628440 25619050 25508988 25297486 25003616 24673212 
464.285 24356610 24099622 23932008 23862640 23880288 23960112 24071968 
467.660 24187556 24284708 24347584 24364946 24329200 24236516 24089662 
471.035 23900316 23689932 23486090 23315778 23196990 23132850 23110598 
474.409 23106414 23094678 23057054 22987832 22893412 22785828 22675002 
477.784 22561504 22435552 22281132 22084728 21844014 21572516 21298944 
481.159 21060356 20892926 20822580 20858910 20993500 21202304 21450440 
484.534 21698222 21907484 22047246 22098748 22058996 21941976 21776258 
487.909 21599106 21448124 21353500 21331426 21383586 21499204 21661088 
491.284 21850918 22053114 22255006 22445824 22615376 22754504 22857108 
494.658 22928896 22984798 23048840 23147918 23302692 23519284 23785208 
498.033 24072296 24344118 24566708 24717108 24786066 24776088 24695236 
501.408 24550994 24348156 24090542 23785112 23446828 23098670 22767912 
504.783 22479040 22246986 22073946 21950520 21861512 21792760 21734752 
508.158 21683512 21636798 21589836 21532736 21452670 21339114 21190736 
511.532 21018874 20846420 20700572 20603212 20562178 20568154 20597804 
514.907 20622292 20616838 20568442 20477098 20352848 20208634 20054874 
518.282 19896264 19733268 19566292 19399650 19242764 19108290 19006878 
521.657 18942526 18909574 18894078 18877872 18845034 18786594 18702632 
525.032 18599612 18490640 18387006 18295758 18218602 18152806 18093218 
528.406 18034766 17974270 17910474 17843542 17773888 17700250 17619592 
531.781 17526612 17415366 17280884 17122216 16944362 16759422 16584994 
535.156 16441021 16344631 16304944 16319377 16373193 16441945 16497497 
538.531 16513735 16473155 16368991 16206140 15998160 15764324 15525771 
541.906 15302924 15113290 14970351 14882148 14849789 14866586 14918703 
545.281 14987449 15053396 15101009 15122652 15120338 15103976 15087818 
548.655 15085129 15103698 15143728 15197841 15253955 15299038 15322320 
552.030 15317485 15282491 15219265 15132166 15027523 14913333 14799321 
555.405 14696989 14617737 14573444 14571296 14612629 14691639 14796500 
558.780 14911851 15022554 15117314 15190789 15244743 15285469 15321410 
562.155 15359276 15401431 15445234 15483623 15508340 15512906 15495301 
565.529 15459248 15414348 15373505 15350856 15357967 15400982 15478898 
568.904 15582976 15697822 15804747 15885836 15928870 15931001 15900832 
572.279 15856666 15821967 15818467 15859323 15944317 16059771 16182669 
575.654 16288724 16360343 16393187 16397156 16392732 16403574 16447948 
579.029 16533358 16654951 16797970 16943882 17076034 17184184 17265638 
582.404 17323504 17364444 17396074 17425972 17461332 17509070 17574936 
585.778 17661680 17766828 17881062 17989300 18073342 18117734 18114284 
589.153 18065154 17983280 17888414 17802474 17742990 17720396 17735742 
592.528 17782706 17850598 17927464 18003686 18073128 18134516 18190356 
595.903 18246356 18308792 18382542 18468154 18560810 18649892 18721394 
599.278 18762058 18763462 18725222 18656028 18571204 18488310 18421976 
602.652 18380274 18364026 18368466 18387174 18416118 18455814 18511660 
606.027 18591190 18701412 18845490 19021728 19223080 19439076 19657890 
609.402 19868124 20061108 20232642 20383750 20521574 20657890 20806822 
612.777 20980264 21183804 21413318 21654616 21886946 22088772 22244784 
616.152 22351540 22419072 22468330 22525476 22614416 22751772 22943226 
619.527 23184642 23464790 23768588 24080148 24383916 24665556 24912266 
622.901 25114832 25269086 25379100 25456904 25521184 25593258 25691760 
626.276 25828362 26006202 26220690 26463462 26726292 27004156 27295244 
629.651 27598546 27910476 28222118 28518294 28780906 28993206 29145348 
633.026 29237260 29280072 29292496 29296420 29310658 29346930 29408408 
636.401 29490314 29583828 29679988 29773830 29865958 29962470 30072364 
639.775 30204324 30363182 30547856 30751654 30963990 31174020 31373624 
643.150 31560190 31736616 31909782 32087918 32277584 32482232 32701246 
646.525 32931798 33170592 33415310 33665404 33921708 34185220 34456248 
649.900 34734444 35018988 35309976 35609128 35919256 36242620 36578376 
653.275 36920148 37255572 37566176 37831176 38031044 38151548 38187380 
656.650 38143232 38033260 37878724 37704472 37535116 37391560 37288524 
660.024 37233420 37226032 37260200 37325984 37412224 37509604 37611860 
663.399 37716628 37824868 37939332 38063564 38200444 38352040 38519800 
666.774 38705172 38909512 39133968 39378484 39640736 39915472 40194440 
670.149 40468024 40726760 40964096 41178164 41373132 41558392 41746888 
673.524 41951392 42181044 42438448 42718092 43007300 43289248 43547252 
676.898 43769244 43950988 44097044 44218364 44328816 44441176 44562364 
680.273 44693404 44830400 44966764 45097272 45220056 45337184 45453688 
683.648 45574992 45704992 45844844 45993320 46148548 46309948 46479396 
687.023 46661324 46861444 47084608 47332500 47602316 47886956 48176212 
690.398 48459296 48727760 48977768 49211572 49437420 49667100 49913496 
693.773 50187016 50492788 50829424 51190196 51565672 51947048 52329268 
697.147 52712844 53103280 53508988 53938144 54396700 54886924 55407936 
700.522 55956796 56529308 57120288 57722616 58326064 58917200 59480520 
703.897 60001684 60470708 60885040 61250056 61577168 61879596 62168216 
707.272 62448720 62721572 62983388 63231072 63463800 63684248 63896716 
710.647 64105316 64311004 64511508 64702100 64879068 65042132 65196648 
714.021 65353492 65527716 65737180 66001416 66343592 66792628 67386136 
717.396 68173880 69218736 70597560 72400576 74730736 77701976 81435336 
720.771 86051192 91656792 98328688 106091464 114897528 124610960 134999904 
724.146 145743088 156449504 166693040 176055584 184172784 190772256 
727.039 195696448 198904208 200455792 200485072 199169040 196700704 
729.931 193270272 189053280 184204688 178856624 173119008 167080064 
732.824 160809952 154364160 147788736 141125872 134419232 127717320 
735.717 121076096 114558400 108231848 102165064 96423128 91063880 86134544 
739.091 81669744 77691296 74207520 71213744 68691688 66611372 64931184 
742.466 63601896 62571144 61788488 61210696 60804672 60548516 60429104 
745.841 60439364 60573964 60826516 61187816 61645356 62183560 62785296 
749.216 63432544 64108016 64796688 65487280 66172688 66849828 67516496 
752.591 68168192 68794376 69376232 69887552 70298768 70583000 70722248 
755.966 70710832 70555392 70270672 69873344 69376072 68784176 68096592 
759.340 67309504 66421464 65437564 64370440 63238852 62063368 60862352 
762.715 59649324 58432156 57214896 55999888 54789676 53588468 52402676 
766.090 51239992 50110324 49024732 47994952 47031656 46141720 45324992 
769.465 44572452 43866300 43183724 42502664 41807908 41095848 40375384 
772.840 39664072 38981540 38341828 37748976 37195884 36667624 36148288 
776.214 35627240 35103672 34587044 34093292 33638712 33233374 32877442 
779.589 32559544 32259360 31952600 31616434 31234380 30799518 30315076 
782.964 29792726 29250282 28707906 28184480 27695178 27249542 26851300 
786.339 26498914 26187566 25911084 25665042 25448558 25265292 25122528 
789.714 25029576 24993884 25016884 25091100 25198668 25313190 25404218 
793.089 25443072 25409736 25296544 25108982 24862882 24578936 24276776 
796.463 23971104 23670342 23379008 23100916 22843402 22617726 22437920 
799.838 22316936 22262612 22274210 22343102 22454406 22590752 22735868 
803.213 22877438 23006150 23115134 23198450 23251810 23272352 23260416 
806.588 23219810 23156512 23077174 22985736 22882430 22764204 22627136 
809.963 22469784 22296082 22115912 21943172 21792430 21674254 21593792 
813.337 21549882 21537228 21549012 21579018 21621992 21673542 21728470 
816.712 21780844 21825196 21858042 21880760 21898962 21921820 21958316 
820.087 22013318 22085904 22169280 22254288 22333570 22404846 22472210 
823.462 22544072 22628928 22731314 22849586 22976354 23102588 23221912 
826.837 23334590 23448080 23574982 23728114 23914914 24134164 24375018 
830.212 24619660 24849120 25048346 25211654 25345056 25464834 25593390 
833.586 25753550 25962030 26224554 26534136 26873350 27219632 27553238 
836.961 27863806 28155134 28444738 28759740 29129002 29575150 30109122 
840.336 30727800 31417296 32157618 32928612 33714080 34502744 35286592 
843.711 36057732 36806316 37519664 38184300 38788016 39323204 39787360 
847.086 40182948 40516472 40796556 41034640 41244568 41444344 41656040 
850.460 41905008 42217196 42617292 43126440 43762860 44542588 45480968 
853.835 46593092 47891924 49383996 51066436 52923672 54928604 57046828 
857.210 59242388 61484272 63749320 66022224 68290936 70542456 72758656 
860.585 74916616 76991912 78964176 80822552 82567304 84207952 85758288 
863.960 87230120 88629384 89954520 91199456 92357768 93426960 94410464 
867.335 95317064 96159304 96949112 97695296 98400512 99059176 99655736 
870.709 100162896 100541856 100743320 100713344 100400320 99764008 98782632 
874.084 97457016 95809304 93877184 91706848 89345720 86837752 84222320 
877.459 81535232 78810504 76081968 73382760 70743776 68192176 65749704 
880.834 63433012 61254396 59223140 57346848 55631628 54082592 52702624 
884.209 51492496 50450800 49573500 48853280 48279652 47837324 47506516 
887.583 47263980 47085272 46948936 46839828 46751076 46684740 46648200 
890.958 46650116 46695652 46783096 46903852 47043832 47186924 47318768 
894.333 47428088 47507768 47553444 47562184 47532032 47462136 47353824 
897.708 47211628 47043608 46859732 46670744 46485384 46309868 46147732 
901.083 46001108 45872168 45764124 45680800 45625432 45599052 45599128 
904.458 45619576 45652420 45689616 45725496 45758268 45790136 45826232 
907.832 45873632 45939232 46028120 46143340 46284644 46448832 46630096 
911.207 46821204 47015464 47208844 47402160 47601624 47818016 48063080 
914.582 48345732 48667392 49020040 49386428 49743792 50069708 50347968 
917.957 50573096 50750756 50896160 51029508 51169708 51330492 51518356 
921.332 51732540 51967480 52216440 52473040 52733916 52998036 53265556 
924.706 53537316 53813812 54094804 54379664 54669316 54965888 55274124 
928.081 55600384 55952312 56336832 56758156 57215736 57703372 58208840 
931.456 58715484 59205092 59661016 60071428 60430888 60739900 61003380 
934.831 61227176 61415472 61569460 61687604 61768644 61813512 61828456 
938.206 61824648 61817040 61819640 61842384 61888584 61954328 62031664 
941.581 62112620 62192684 62274400 62366692 62482564 62635488 62836216 
944.955 63090272 63398592 63759132 64169400 64627780 65134100 65689012 
948.330 66291556 66938692 67624640 68342304 69084616 69845448 70619664 
951.705 71401208 72180544 72942080 73663616 74316624 74869912 75293040 
955.080 75559960 75651984 75558232 75275256 74806200 74158600 73345360 
958.455 72383400 71294232 70103192 68839136 67532256 66212976 64910664 
961.829 63652284 62462040 61360564 60364924 59487368 58735580 58112232 
965.204 57615640 57240488 56978100 56816936 56742116 56735912 56776992 
968.579 56842924 56912016 56967536 57000356 57011276 57009992 57012540 
971.954 57035704 57092776 57189824 57325424 57491420 57677692 57874664 
975.329 58076856 58283424 58496700 58720948 58959984 59215496 59487316 
978.703 59772932 60068572 60369020 60668448 60961036 61241352 61506480 
982.078 61756224 61994380 62227836 62464896 62713476 62978752 63262640 
985.453 63564144 63880720 64210296 64552336 64908808 65283760 65680908 
988.828 66103952 66555672 67037724 67551136 68096232 68672296 69277432 
992.203 69908032 70559424 71226952 71907544 72601552 73312784 74047848 
995.578 74815064 75621552 76473016 77372760 78323120 79325864 80382984 
998.952 81495720 82662120 83875176 85122264 86385672 87646136 88887952 
1002.327 90104336 91300024 92493304 93713168 94995472 96378784 97899656 
1005.702 99590136 101476696 103579752 105915104 108494696 111329160 
1008.595 114430664 117816728 121514464 125564144 130020872 134952400 
1011.487 140432976 146532960 153303984 160762832 168873968 177534896 
1014.380 186566336 195710992 204644352 212999424 220405280 226535072 
1017.273 231154912 234162432 235604672 235671168 234660656 232934896 
1020.166 230866736 228795168 226994192 225659648 224909536 224795952 
1023.058 225322016 226458928 228159728 230369088 233028752 236079888 
1025.951 239465632 243133552 247039488 251152128 255455344 259948336 
1028.844 264642864 269557440 274710272 280113760 285770080 291671392 
1031.737 297801504 304139584 310664192 317354016 324187936 331143296 
1034.630 338191232 345294176 352403744 359460160 366394976 373134880 
1037.523 379606816 385744032 391490048 396802304 401650176 406013504 
1040.417 409876928 413226912 416048288 418324736 420040992 421185824 
1043.310 421753824 421745984 421168640 420033760 418359008 416172576 
1046.203 413516384 410450656 407053216 403414208 399627968 395781696 
1049.096 391946976 388177024 384506688 380959040 377552992 374307616 
1051.989 371243872 368381280 365733088 363300768 361072832 359027296 
1054.882 357138816 355387584 353769184 352299520 351017728 349982496 
1057.775 349267552 348955040 349128416 349868736 351251264 353344128 
1060.668 356207296 359893088 364444096 369893536 376263328 383564576 
1063.561 391796864 400949312 411000736 421921792 433675424 446218784 
1066.454 459503744 473478272 488086208 503268768 518965120 535113504 
1069.347 551653952 568530176 585688704 603078720 620647296 638336192 
1072.240 656077760 673795328 691406720 708828992 725983488 742798080 
1075.133 759204160 775132480 790511168 805267392 819333888 832657088 
1078.026 845203904 856956544 867900224 878005760 887213184 895430528 
1080.919 902540224 908423808 912981760 916149696 917898560 918227008 
1083.813 917146624 914674496 910836864 905680384 899281472 891753024 
1086.706 883236736 873892160 863878528 853347648 842438848 831281472 
1089.599 819995456 808688064 797444864 786320896 775334784 764472576 
1092.492 753699264 742977472 732282048 721609664 710975616 700406336 
1095.385 689924544 679541504 669253056 659042624 648887616 638764416 
1098.278 628651392 618527680 608371136 598157888 587865024 577476032 
1101.171 566985728 556402880 545750208 535060000 524368096 513711616 
1104.064 503127744 492656992 482347584 472257568 462455424 453017600 
1106.957 444024160 435555328 427686912 420491136 414033696 408372800 
1109.850 403553888 399605408 396531648 394308864 392885216 392184704 
1112.743 392114240 392574240 393467616 394706560 396215168 397929664 
1115.636 399794624 401761664 403786784 405831232 407862816 409857888 
1118.529 411803456 413696960 415546048 417366336 419177664 420999552 
1121.422 422844544 424713216 426588032 428431520 430186752 431782464 
1124.315 433140800 434186112 434852992 435091136 434867520 434164032 
1127.208 432976032 431309216 429177664 426602912 423613504 420243072 
1130.102 416527552 412500224 408188480 403609472 398768608 393659904 
1132.995 388268448 382574944 376559424 370206528 363507872 356464864 
1135.888 349089408 341403552 333438560 325234048 316835520 308293664 
1138.781 299662112 290996384 282352192 273785440 265350576 257101088 
1141.674 249088256 241361056 233965440 226943360 220331792 214161904 
1144.567 208458384 203239152 198514848 194288208 190554288 187301520 
1147.460 184512640 182167088 180244032 178723968 177590000 176827888 
1150.353 176424448 176365632 176634528 177210272 178067744 179178544 
1153.246 180511824 182036080 183719648 185532912 187448896 189445136 
1156.139 191504784 193617600 195779248 197989952 200253152 202572816 
1159.032 204951984 207393056 209898832 212474480 215129136 217876656 
1161.925 220734832 223723904 226864720 230177136 233681328 237399600 
1164.818 241358752 245593056 250145376 255066208 260412544 266244448 
1167.711 272623968 279614400 287280448 295690336 304914848 315026528 
1170.604 326095392 338183488 351338944 365590112 380941504 397370784 
1173.498 414827520 433229536 452458304 472351776 492696288 513218528 
1176.391 533583712 553400448 572235840 589642432 605188928 618495936 
1179.284 629264320 637294848 642499008 644895168 644597824 641800576 
1182.177 636755456 629751296 621092544 611085504 600024000 588185024 
1185.070 575823616 563171584 550433472 537783552 525364096 513283136 
1187.963 501617440 490417376 479712352 469519008 459843808 450687104 
1190.856 442043808 433904064 426255264 419082912 412373824 406117248 
1193.749 400304960 394929408 389981248 385447552 381311584 377553760 
1196.642 374154432 371097344 368369824 365962176 363865248 362066752 
1199.535 360549344 359290528 358264768 357447072 356814944 356350816 
1202.428 356039360 355865312 355809440 355846816 355946944 356076096 
1205.321 356200320 356288800 356316128 356261280 356107616 355839712 
1208.214 355442624 354901824 354205056 353343424 352313632 351118176 
1211.107 349765504 348267840 346638752 344891008 343034496 341074816 
1214.000 339014336 336853440 334593600 332240320 329806016 327309952 
1216.894 324777504 322235584 319709376 317217344 314770208 312370112 
1219.787 310013888 307696544 305415168 303170272 300966368 298809856 
1222.680 296706656 294659008 292664224 290714656 288799104 286906048 
1225.573 285026784 283158144 281303776 279473376 277680320 275938240 
1228.466 274257216 272641920 271091680 269602688 268172656 266805088 
1231.359 265511664 264312720 263233456 262299296 261531376 260942960 
1234.252 260539264 260320448 260286064 260437488 260779552 261319184 
1237.145 262062288 263009664 264154768 265482512 266970784 268593504 
1240.038 270322464 272129440 273986080 275863136 277730176 279554560 
1242.931 281303232 282942592 284441408 285771264 286908960 287838016 
1245.824 288550240 289048288 289346464 289470656 289455264 289338848 
1248.717 289159040 288948576 288733728 288535520 288371808 288260512 
1251.610 288219904 288267200 288414560 288666368 289016960 289452608 
1254.503 289955392 290509632 291105376 291741088 292421472 293154656 
1257.396 293947488 294803552 295722112 296699168 297729504 298805952 
1260.290 299920576 301061952 302215072 303361472 304482368 305560224 
1263.183 306580608 307531424 308399296 309165568 309802624 310272608 
1266.076 310532480 310537664 310248736 309635968 308679968 307370432 
1268.969 305703648 303680704 301305856 298588768 295545824 292199200 
1271.862 288576576 284707456 280620480 276342080 271896320 267306960 
1274.755 262598848 257799360 252936928 248038032 243125456 238216480 
1277.648 233323760 228457616 223628704 218850112 214137984 209509280 
1280.541 204980336 200564528 196271424 192107280 188077024 184185840 
1283.434 180439920 176846896 173413584 170145968 167046848 164116432 
1286.327 161351824 158748480 156300400 154000752 151842688 149819680 
1289.220 147927184 146162128 144524336 143015152 141636224 140386272 
1292.113 139258800 138241296 137314768 136457680 135649232 134873360 
1295.006 134122256 133396152 132701952 132049712 131449208 130906328 
1297.899 130422648 129994736 129616048 129278672 128973768 128693208 
1300.792 128428968 128174112 127922968 127672360 127421696 127173128 
1303.686 126930016 126694512 126465696 126237288 125997840 125731688 
1306.579 125422720 125057144 124627024 124131056 123573552 122962480 
1309.472 122305120 121605304 120861536 120067136 119212584 118288640 
1312.365 117289648 116216416 115077360 113887328 112666080 111435328 
1315.258 110216728 109029760 107891096 106813648 105807160 104878056 
1318.151 104029728 103261784 102570448 101947440 101381464 100858040 
1321.044 100361192 99875320 99387696 98890368 98382016 97868016 97359752 
1324.419 96872520 96423080 96026056 95692616 95429216 95237584 95117552 
1327.794 95068112 95089688 95185368 95360584 95622856 95980504 96441352 
1331.170 97011816 97696384 98496480 99409800 100430536 101547960 102746280 
1334.545 104005128 105300736 106607080 107898944 109152528 110348392 
1337.438 111470904 112509192 113456296 114308968 115067672 115737088 
1340.331 116326144 116846968 117315168 117747928 118162936 118578096 
1343.224 119010840 119478800 120000432 120593520 121275168 122059176 
1346.117 122954720 123965096 125087768 126315552 127638952 129048120 
1349.010 130534064 132089032 133704960 135371664 137075568 138798752 
1351.903 140519904 142215872 143864240 145445200 146943520 148348816 
1354.796 149655360 150860704 151965072 152968672 153871936 154674560 
1357.689 155376128 155977456 156482816 156900976 157245792 157536304 
1360.583 157793840 158039488 158290864 158558848 158846880 159150352 
1363.476 159457200 159749616 160004688 160196368 160295776 160271488 
1366.369 160091696 159724448 159139824 158312000 157221872 155860256 
1369.262 154231584 152357776 150280640 148064128 145792208 143565488 
1372.155 141494208 139690784 138261216 137296512 136867168 137016608 
1375.048 137758912 139076192 140919616 143212368 145854112 148728640 
1377.941 151711360 154679824 157520544 160135904 162446240 164389648 
1380.834 165919200 166999472 167605200 167720560 167339824 166467776 
1383.727 165119600 163318672 161095120 158484368 155527600 152271792 
1386.620 148769248 145075600 141245616 137327728 133359896 129368976 
1389.513 125372064 121381640 117409864 113472488 109588880 105780640 
1392.406 102067888 98467552 94992280 91652704 88459440 85425440 82566800 
1395.781 79900408 77441424 75199976 73179152 71375336 69780128 68383200 
1399.157 67176104 66153108 65312140 64654284 64181672 63896776 63802108 
1402.532 63900536 64194852 64688168 65380872 66267564 67332552 68545152 
1405.907 69857472 71203816 72504280 73669832 74611360 75247856 75515496 
1409.282 75374264 74812688 73848552 72526496 70912088 69084448 67127016 
1412.658 65120064 63134028 61225380 59434792 57786948 56291948 54947948 
1416.033 53744624 52666412 51696876 50820924 50027452 49310496 48668604 
1419.408 48103344 47617140 47211836 46886748 46639348 46464624 46356828 
1422.783 46309432 46314760 46364000 46447048 46552700 46669932 46790556 
1426.159 46910608 47032424 47163772 47317328 47508564 47753064 48065900 
1429.534 48460804 48950768 49548908 50267540 51119356 52114876 53261580 
1432.909 54564032 56023584 57640040 59412964 61342768 63430920 65680356 
1436.284 68095944 70686216 73464576 76451648 79673672 83160416 86939496 
1439.660 91031504 95444256 100170512 105189736 110469904 115971768 121652056 
1443.035 127462432 133349296 139252208 145104720 150837344 156381280 
1445.928 161674240 166662064 171300224 175554000 179397648 182815248 
1448.821 185801472 188360704 190506128 192255200 193625264 194630064 
1451.714 195278592 195574640 195518768 195108720 194338752 193198896 
1454.607 191674592 189748480 187406736 184643920 181469840 177909888 
1457.500 174002768 169792064 165321072 160627680 155745504 150706416 
1460.393 145544032 140295936 135001312 129698064 124420064 119194544 
1463.286 114044648 108991760 104057712 99265904 94640120 90202424 85971184 
1466.662 81960536 78181168 74641792 71348328 68304000 65506572 62947280 
1470.037 60610256 58474100 56514364 54708260 53035804 51481644 50033792 
1473.412 48682560 47418384 46231636 45112260 44050700 43037832 42065988 
1476.787 41128884 40221120 39338952 38479968 37643164 36828408 36035600 
1480.163 35263064 34507476 33763376 33025514 32289994 31557072 30831274 
1483.538 30120728 29434240 28779222 28158530 27571128 27013304 26480748 
1486.913 25971640 25487158 25031534 24609652 24224494 23876748 23563980 
1490.288 23282188 23028120 22800252 22599746 22429062 22290716 22185834 
1493.664 22113936 22072564 22058784 22070000 22104648 22162704 22246398 
1497.039 22359568 22509496 22707038 22966166 23303636 23735100 24271562 
1500.414 24915084 25654548 26465186 27308874 28137854 28898586 29538450 
1503.789 30009554 30274518 30310852 30114510 29701610 29107526 28382124 
1507.165 27581702 26760686 25962858 25217398 24538350 23927272 23379222 
1510.540 22887104 22445712 22053592 21711838 21422448 21185956 20999876 
1513.915 20857586 20749256 20662834 20586052 20508090 20421686 20323990 
1517.290 20217016 20106986 20002502 19912482 19842756 19795502 19767996 
1520.666 19753292 19743354 19730802 19712012 19687280 19660814 19638230 
1524.041 19624574 19622302 19630638 19644968 19659144 19666556 19661198 
1527.416 19639362 19599622 19542956 19472332 19391810 19305606 19217532 
1530.791 19130508 19045942 18964618 18887016 18813864 18746314 18685524 
1534.167 18631750 18583698 18537810 18489698 18435174 18372246 18302788 
1537.542 18232714 18170148 18123830 18099280 18097614 18114500 18142092 
1540.917 18171272 18194172 18206528 18207336 18197586 18180050 18156980 
1544.292 18130320 18101646 18071840 18041284 18009864 17975580 17935216 
1547.667 17885614 17825024 17754338 17679032 17608002 17551328 17517396 
1551.043 17509394 17524966 17556484 17593882 17627656 17651676 17664812 
1554.418 17668602 17666470 17660680 17651020 17635582 17611978 17579354 
1557.793 17540302 17500216 17467102 17448278 17449326 17472490 17516464 
1561.168 17577984 17652554 17735356 17821666 17906710 17985590 18053982 
1564.544 18108790 18149148 18176530 18195128 18210486 18229212 18257118 
1567.919 18299502 18360062 18441434 18545300 18671426 18819154 18986096 
1571.294 19170152 19369366 19583548 19813476 20061170 20327950 20612946 
1574.669 20911512 21215384 21512840 21790322 22034792 22234476 22380536 
1578.045 22466254 22487170 22442140 22333336 22167710 21957088 21717264 
1581.420 21465914 21218938 20988226 20780744 20598824 20442304 20311188 
1584.795 20205694 20127146 20074896 20045068 20029350 20016542 19994678 
1588.170 19954922 19894178 19815900 19728252 19640238 19558904 19486584 
1591.546 19421598 19360048 19299498 19241682 19192678 19162110 19159158 
1594.921 19189996 19255256 19350406 19467542 19598478 19737572 19884238 
1598.296 20041640 20216350 20414994 20642964 20902338 21191592 21506902 
1601.671 21842738 22194498 22559088 22935548 23324624 23728222 24147140 
1605.047 24580484 25023336 25467052 25900422 26310138 26683926 27011386 
1608.422 27286806 27508040 27676152 27793886 27864282 27889126 27869028 
1611.797 27803842 27692998 27537580 27340644 27108072 26848766 26574010 
1615.172 26296200 26028002 25778246 25552370 25349818 25166646 24996522 
1618.548 24834950 24680930 24537908 24412664 24312818 24242782 24202118 
1621.923 24184620 24180574 24179188 24172848 24159366 24141978 24127756 
1625.298 24124160 24136388 24165572 24208208 24257954 24307562 24351168 
1628.673 24385524 24410900 24430310 24449056 24473288 24509056 24560734 
1632.049 24630584 24717780 24818372 24926314 25034330 25136196 25226678 
1635.424 25302900 25364112 25409970 25440948 25457046 25458582 25446722 
1638.799 25424218 25394714 25362996 25332556 25305698 25282708 25263144 
1642.174 25246606 25234448 25230180 25238430 25263384 25307322 25368954 
1645.550 25445144 25530366 25620056 25710366 25799548 25887088 25971570 
1648.925 26051404 26124480 26189892 26249104 26306984 26371828 26452720 
1652.300 26557978 26691550 26852686 27036412 27235376 27443096 27655442 
1655.675 27870982 28090186 28314598 28545656 28783488 29027638 29277510 
1659.051 29531088 29787184 30044316 30301676 30560012 30821910 31092732 
1662.426 31379032 31686794 32019802 32377634 32755002 33144604 33539194 
1665.801 33934964 34333424 34740256 35164172 35612364 36088432 36590372 
1669.176 37112372 37646676 38185692 38724808 39260236 39789608 40309528 
1672.552 40815848 41304076 41773036 42226916 42675900 43135352 43622164 
1675.927 44149904 44725148 45345080 45999372 46672488 47348552 48014488 
1679.302 48663776 49296180 49917420 50536716 51164196 51807748 52471656 
1682.677 53154868 53853300 54560628 55271792 55984972 56703196 57433620 
1686.052 58183888 58960816 59767228 60602100 61463084 62349660 63266000 
1689.428 64222148 65232284 66311076 67469952 68714192 70043544 71455776 
1692.803 72951760 74539968 76238280 78071656 80067520 82250560 84637800 
1696.178 87238688 90058928 93107288 96399408 99963136 103834688 108056160 
1699.553 112669208 117711592 123217744 129221696 135763184 142892208 
1702.447 150670864 159169920 168463344 178621344 189703328 201755792 
1705.340 214810304 228883456 243977248 260076256 277144224 295122336 
1708.233 313929792 333467776 353626432 374288096 395324928 416591232 
1711.126 437911104 459071264 479821824 499888288 518993504 536877696 
1714.019 553319552 568147072 581246656 592571648 602149568 610086272 
1716.912 616557440 621784192 625995904 629391168 632112832 634244224 
1719.805 635824256 636874048 637419136 637498560 637160192 636446912 
1722.698 635388608 634001408 632299776 630312960 628095296 625724096 
1725.591 623285056 620851904 618469632 616149440 613878336 611635200 
1728.484 609406976 607197952 605025344 602910464 600868032 598904320 
1731.377 597022720 595235136 593570560 592078336 590821440 589863744 
1734.270 589258368 589043584 589248320 589902784 591049664 592748288 
1737.163 595068288 598079360 601837632 606378112 611717824 617863296 
1740.056 624822464 632608960 641238720 650717504 661024256 672100992 
1742.949 683850240 696144448 708838720 721782144 734821248 747796096 
1745.843 760530560 772832000 784496576 795326144 805145984 813818624 
1748.736 821242752 827342848 832056512 835325568 837098368 837337344 
1751.629 836030848 833190848 828846208 823027968 815757568 807049344 
1754.522 796920896 785412480 772600768 758602560 743564480 727644608 
1757.415 710994688 693750976 676036608 657969088 639667904 621259904 
1760.308 602873088 584628800 566631744 548968640 531708256 514907584 
1763.201 498615904 482875456 467717952 453158304 439194048 425805376 
1766.094 412964800 400646048 388832992 377520864 366711648 356404128 
1768.987 346583840 337217760 328257152 319644480 311325024 303254560 
1771.880 295404032 287754016 280288544 272986784 265818272 258744896 
1774.773 251725856 244724368 237714336 230680592 223618272 216529168 
1777.666 209417824 202290512 195156704 188031264 180936144 173899952 
1780.559 166955344 160133056 153459424 146953184 140625744 134484944 
1783.452 128535968 122785632 117239568 111904240 106784960 101887520 
1786.345 97219624 92791376 88616808 84709352 81077368 77719480 74622288 
1789.721 71760944 69106008 66630124 64314484 62150436 60136596 58274236 
1793.096 56560580 54985396 53531976 52181596 50917696 49729568 48613008 
1796.471 47566936 46589796 45678032 44824152 44019940 43257960 42534680 
1799.846 41848056 41197960 40582504 39996992 39436660 38896708 38376424 
1803.222 37877852 37404848 36959324 36538196 36133364 35733156 35327744 
1806.597 34912388 34490148 34069292 33659260 33265982 32887946 32518394 
1809.972 32148070 31770606 31385380 30997462 30613840 30238188 29867886 
1813.347 29494320 29107894 28705550 28295978 27901546 27554388 27286936 
1816.723 27121596 27062370 27092048 27175984 27272130 27340880 27354056 
1820.098 27298380 27173372 26987444 26753516 26483826 26190558 25883320 
1823.473 25572246 25267678 24979156 24715858 24483324 24283916 24114706 
1826.848 23967718 23830908 23688308 23523816 23323894 23080922 22795598 
1830.224 22477290 22141606 21806138 21486220 21190270 20919146 20667482 
1833.599 20427486 20191860 19956430 19721758 19490458 19265834 19047886 
1836.974 18833248 18615752 18387858 18144266 17884176 17612382 17338980 
1840.349 17076494 16836568 16625864 16442951 16278045 16114708 15935369 
1843.725 15728440 15493235 15242964 15002606 14801564 14663693 14598732 
1847.100 14598867 14638897 14685745 14706044 14677251 14590837 14451777 
1850.475 14272975 14068092 13847305 13616538 13378670 13139247 12908135 
1853.850 12698682 12524308 12392441 12302342 12243859 12201769 12160407 
1857.226 12108719 12042386 11962214 11872256 11777449 11682853 11596284 
1860.601 11528187 11491896 11499503 11555923 11653947 11772760 11882439 
1863.976 11953642 11968207 11926715 11848701 11766012 11709575 11698104 
1867.351 11731694 11792302 11853258 11889302 11886587 11845964 11778035 
1870.727 11695234 11605419 11505563 11387300 11240873 11064385 10867273 
1874.102 10669729 10496921 10370745 10303113 10292543 10326859 10386452 
1877.477 10451368 10506933 10544305 10561958 10563784 10556463 10547495 
1880.852 10542433 10544252 10550871 10556985 10556530 10543241 10517365 
1884.228 10484644 10455070 10439777 10445232 10467525 10495147 10510179 
1887.603 10497914 10452250 10381343 10304131 10242797 10212376 10213458 
1890.978 10228560 10228440 10183889 10078001 9915382 9725861 9553108 9445379 
1894.835 9435716 9533023 9715299 9935349 10134193 10254508 10258133 10134280 
1898.693 9900674 9599341 9282816 9001768 8793162 8674951 8645700 8691580 
1902.550 8792337 8931398 9096249 9278629 9470076 9655341 9813587 9918829 
1906.408 9949146 9891174 9746973 9531234 9264993 8967886 8649003 8308542 
1910.265 7942169 7551498 7153405 6781867 6483099 6301258 6262226 6365769 
1914.123 6578933 6853338 7137698 7396362 7619418 7819826 8021408 8243222 
1917.980 8484592 8721974 8914878 9022284 9018764 8905777 8714605 8497013 
1921.837 8310751 8203164 8200203 8301368 8483012 8707819 8931444 9114931 
1925.695 9224812 9238091 9138430 8916944 8572995 8115737 7566225 6962084 
1929.552 6352151 5794964 5348198 5058227 4951464 5028297 5260177 5598155 
1933.410 5982629 6358818 6684453 6941918 7134272 7282509 7411170 7541855 
1937.267 7680526 7816049 7923199 7967188 7917476 7757537 7492279 7152655 
1941.125 6789531 6466313 6238994 6140760 6173153 6299693 6460452 6592752 
1944.982 6646994 6615380 6532743 6461381 6475267 6625254 6917503 7309157 
1948.839 7711611 8021993 8143463 8015459 7618801 6976355 6142622 5189091 
1952.697 4192209 3227189 2364045 1656902 1141218 826445 685468 670913 723241 
1957.036 797729 877130 974372 1125277 1358319 1670961 2020257 2330202 
1960.894 2530735 2594583 2557472 2518387 2599759 2896021 3429505 4125491 
1964.751 4839014 5397058 5667410 5603945 5261368 4776719 4318973 4036293 
1968.609 4018540 4286478 4796355 5473098 6225609 6954525 7568356 7975362 
1972.466 8106149 7926676 7460329 6800638 6096003 5510266 5188446 5188395 
1976.323 5484316 5964802 6481234 6901448 7152131 7226530 7176644 7075151 
1980.181 6989097 6964732 7028501 7194589 7462268 7811752 8199755 8551942 
1984.038 8779916 8803506 8578571 8121664 7515950 6878391 6332044 5950527 
1987.896 5736923 5623789 5503254 5278090 4903681 4408946 3894443 3487503 
1991.753 3304964 3409335 3795423 4400154 5127853 5874875 6553710 7092502 
1995.611 7436597 7532053 7335577 6828419 6035490 5041328 3990419 3058975 
1999.468 2409638 2143208 2259875 2651006 3135001 3497623 3568209 3265013 
2003.325 2626105 1791878 964298 353375 112156 299430 876793 1719849 2675520 
2007.665 3611859 4447862 5172255 5819591 6431493 7029077 7573799 7980522 
2011.522 8123486 7881290 7175045 6003734 4458134 2718319 1015274 -411001 
2015.380 -1360605 -1718764 -1469441 -692139 445657 1742951 2998368 4049533 
2019.237 4788462 5159614 5151689 4760860 3984270 2818973 1265432 -630241 
2023.095 -2758774 -4934648 -6907728 -8401618 -9187449 -9136771 -8275301 
2026.470 -6781381 -4955366 -3149445 -1688806 -800728 -579596 -979646 
2029.845 -1847940 -2983801 -4184573 -5301801 -6242904 -6970640 -7486055 
2033.220 -7794708 -7901875 -7797870 -7473304 -6930923 -6200977 -5341208 
2036.596 -4445817 -3608917 -2922302 -2437878 -2160368 -2044484 -2000202 
2039.971 -1922512 -1715709 -1316820 -713283 55341 911224 1756131 2491911 
2043.828 3039729 3353685 3433162 3325134 3126462 2976648 3027292 3416033 
2047.686 4220783 5417838 6874567 8365002 9635019 10478059 10793920 10618457 
2051.543 10100177 9449948 8881621 8546721 8501402 8696958 9001212 9257069 
2055.401 9336864 9183850 8826405 8350199 7866390 7460994 7178226 7009393 
2059.258 6910644 6825404 6705402 6527861 6290780 6011497 5710509 5409414 
2063.115 5126910 4876191 4666741 4502269 4378936 4285128 4205178 4128431 
2066.973 4054612 3996315 3977220 4016489 4121953 4283278 4473998 4670086 
2070.830 4866307 5084540 5374879 5790787 6365382 7083148 7872720 8620260 
2074.688 9202706 9529428 9574246 9384680 9063705 8733730 8489536 8369815 
2078.545 8348264 8348671 8284200 8089593 7751358 7312303 6854149 6473128 
2082.403 6244434 6202451 6330804 6567583 6827352 7022851 7086030 6988770 
2086.260 6744945 6405954 6046604 5741386 5545831 5477209 5513292 5599620 
2090.117 5671290 5676431 5596664 5456210 5313064 5240789 5299540 5517625 
2093.975 5879767 6332777 6804682 7223929 7540697 7731478 7792464 7732863 
2097.832 7562283 7288003 6926301 6502647 6063380 5668864 5380753 5248242 
2101.690 5292028 5500488 5836546 6250755 6696723 7141846 7568335 7967636 
2105.547 8331035 8644449 8889533 9050187 9121159 9116261 9062257 8994116 
2109.405 8940557 8912883 8904612 8893370 8854643 8773165 8647003 8491831 
2113.262 8326301 8166731 8017289 7867948 7699196 7493790 7241131 6948923 
2117.119 6637176 6333588 6065070 5848216 5686557 5568231 5472264 5372377 
2120.977 5243055 5062732 4815010 4491768 4091058 3623875 3111740 2588999 
2124.834 2100681 1688515 1385744 1198826 1101101 1029448 892705 593200 49512 
2129.174 -775451 -1853457 -3093337 -4351161 -5460103 -6275473 -6702754 
2132.549 -6728330 -6422778 -5918653 -5385133 -4974169 -4794526 -4887108 
2135.924 -5229992 -5758847 -6390095 -7045375 -7662979 -8204893 -8648731 
2139.300 -8992745 -9251785 -9455699 -9654257 -9895679 -10223268 -10647514 
2142.675 -11141068 -11641807 -12064965 -12337972 -12425097 -12337559 
2145.568 -12141711 -11920527 -11750669 -11671963 -11675356 -11716913 
2148.461 -11748505 -11746430 -11738587 -11791020 -11991969 -12411061 
2151.354 -13066356 -13921485 -14887888 -15867833 -16783142 -17608764 
2154.247 -18367896 -19125006 -19940566 -20840522 -21800186 -22729874 
2157.140 -23503366 -23977480 -24024306 -23560902 -22555508 -21047836 
2160.033 -19148874 -17012742 -14853278 -12891457 -11335337 -10339452 
2162.926 -9949011 -10089377 -10567295 -11117260 -11488825 -11517038 
2165.819 -11173761 -10565868 -9881933 -9319635 -9006547 -8969841 -9145197 
2169.195 -9425060 -9726308 -10040827 -10435545 -11012517 -11843867 -12900272 
2172.570 -14026965 -14965962 -15431458 -15220640 -14280087 -12761061 
2175.463 -10974541 -9292351 -8038431 -7385191 -7319896 -7683609 -8235175 
2178.838 -8746898 -9065351 -9125440 -8932694 -8513426 -7887183 -7042649 
2182.213 -5964155 -4663842 -3220241 -1784342 -555604 265894 541905 226391 
2186.071 -615233 -1829945 -3219432 -4586007 -5767646 -6656915 -7202835 
2189.446 -7407135 -7301057 -6948051 -6428798 -5833048 -5256375 -4778769 
2192.821 -4448315 -4278722 -4235813 -4248975 -4232824 -4100436 -3792127 
2196.197 -3280343 -2578196 -1731794 -811299 100144 918942 1568960 1989638 
2200.054 2143480 2027553 1669170 1137456 532439 -32691 -449941 -644632 
2203.911 -594129 -338537 21623 357956 538271 471247 134031 -420857 -1072704 
2208.251 -1661584 -2034739 -2081856 -1764621 -1128661 -285463 610597 1408519 
2212.108 1988639 2295082 2340638 2204413 2009999 1895009 1978370 2329943 
2215.966 2954983 3788216 4719961 5621826 6381779 6939275 7288349 7475325 
2219.823 7571308 7639759 7716328 7794269 7837890 7802774 7659930 7409188 
2223.681 7081433 6720924 6373897 6067869 5814921 5622091 5502888 5490277 
2227.538 5633168 5978897 6551597 7324287 8218454 9111294 9864233 10359921 
2231.396 10532402 10376657 9949576 9348894 8682994 8052489 7528877 7152999 
2235.253 6939326 6882855 6972019 7190006 7515617 7924965 8380210 8830996 
2239.110 9214928 9461596 9514222 9339745 8949607 8404533 7807935 7285254 
2242.968 6949054 6868801 7049539 7430582 7906337 8361592 8707107 8903489 
2246.825 8962045 8926095 8845341 8751026 8644730 8512613 8341589 8144662 
2250.683 7966258 7871117 7924244 8158564 8561752 9078060 9624644 10121584 
2254.540 10517049 10792946 10962479 11048728 11068101 11025848 10915658 
2257.915 10737889 10508570 10262872 10046925 9898399 9832731 9837022 9875371 
2261.773 9907375 9905173 9863892 9801766 9748027 9725555 9741645 9789046 
2265.630 9849889 9914097 9981446 10067723 10190023 10358940 10569435 
2269.005 10800583 11024582 11219515 11376821 11505596 11625987 11757867 
2272.381 11914739 12098000 12303488 12524441 12758661 13006018 13265534 
2275.756 13530653 13784635 14007339 14181431 14305244 14392436 14472703 
2279.131 14579215 14734153 14941098 15182007 15427146 15647944 15829086 
2282.506 15976368 16112350 16264327 16456090 16694224 16966398 17247002 
2285.882 17501054 17697668 17813632 17836368 17767122 17616588 17404506 
2289.257 17155412 16894550 16644681 16420307 16227836 16065720 15929956 
2292.632 15817072 15728312 15667776 15638562 15638066 15652552 15660552 
2296.007 15637878 15567970 15448570 15294040 15128957 14979291 14861358 
2299.383 14777333 14715470 14660005 14602667 14545378 14505865 14506275 
2302.758 14565435 14689207 14868046 15082641 15309697 15531387 15736768 
2306.133 15919061 16069697 16172329 16206557 16153056 16004480 15773637 
2309.508 15494336 15214765 14982472 14832118 14775055 14800761 14885023 
2312.884 15001606 15133424 15275351 15433241 15617626 15835159 16085884 
2316.259 16363835 16656885 16952402 17237346 17500680 17735416 17942300 
2319.634 18134830 18341800 18601918 18952630 19410008 19952606 20511494 
2323.009 20979374 21233628 21170800 20737386 19945878 18874470 17647610 
2326.385 16405836 15276448 14347984 13658245 13196802 12921125 12774513 
2329.760 12705477 12677618 12671093 12678405 12697144 12725981 12763047 
2333.135 12806237 12854532 12906848 12959652 13006603 13038056 13045136 
2336.510 13024384 12980642 12928962 12887380 12873167 12892934 12941512 
2339.885 13001343 13050676 13069704 13047961 12985104 12890316 12776554 
2343.261 12657409 12544204 12446613 12373522 12333991 12336054 12381393 
2346.636 12463743 12566835 12667933 12743399 12775722 12759350 12701117 
2350.011 12618113 12530033 12452568 12395187 12359000 12338893 12329588 
2353.386 12324853 12322248 12318296 12310317 12293251 12263773 12219829 
2356.762 12164800 12105330 12049392 12003552 11966316 11930089 11881118 
2360.137 11803412 11685806 11525211 11327387 11105946 10879559 10665467 
2363.512 10478075 10327269 10217726 10151041 10126040 10138871 10183855 
2366.887 10252380 10333061 10413621 10482010 10527991 10546391 10536165 
2370.263 10503081 10458242 10416163 10393118 10401901 10449040 10532025 
2373.638 10638651 10750094 10845933 10910643 10936405 10928282 10900656 
2377.013 10873977 10868222 10900283 10977598 11100357 11260480 11444288 
2380.388 11634263 11810550 11954765 12052990 12099350 12099883 12071573 
2383.764 12039016 12026747 12052041 12116361 12206306 12296451 12359113 
2387.139 12375776 12343050 12276446 12202608 12151333 12144334 12187883 
2390.514 12273369 12380221 12486001 12574024 12637938 12683341 12722260 
2393.889 12767058 12824885 12893581 12960702 13007438 13013110 12961212 
2397.265 12845365 12672227 12463423 12248224 12060808 11928354 11865118 
2400.640 11867742 11916394 11981244 12032679 12050395 12029295 11981362 
2404.015 11929623 11899623 11913131 11980576 12102240 12266804 12456069 
2407.390 12648026 12818449 12943402 13002477 12981883 12881982 12716575 
2410.766 12514264 12311589 12142985 12030202 11976734 11967481 11977151 
2414.141 11980759 11967857 11944186 11930704 11952111 12025684 12148705 
2417.516 12299262 12440818 12535902 12559001 12506180 12394599 12257103 
2420.891 12128821 12037099 11992666 11989857 12011731 12037754 12052008 
2424.267 12048962 12031530 12010761 12001036 12014397 12058911 12137201 
2427.642 12245962 12376181 12515100 12646760 12753307 12816306 12819909 
2431.017 12755193 12619685 12423480 12185328 11931401 11689825 11484650 
2434.392 11329650 11226384 11163043 11120722 11078630 11021919 10945198 
2437.768 10855639 10766461 10694396 10652591 10649716 10685794 10758971 
2441.143 10865276 11000323 11159804 11335813 11515847 11683620 11821106 
2444.518 11915331 11960857 11965100 11943773 11916536 11899699 11900651 
2447.893 11915955 11935938 11949614 11949092 11934291 11911845 11890703 
2451.269 11878343 11877310 11885974 11900062 11915222 11930307 11945479 
2454.644 11960574 11973535 11977448 11965071 11929640 11869664 11788921 
2458.019 11695638 11600351 11511125 11432331 11365048 11310179 11269878 
2461.394 11247609 11248078 11271473 11312684 11356885 11386499 11384517 
2464.770 11341269 11259043 11151201 11038786 10943593 10881404 10860569 
2468.145 10879542 10930750 11005696 11093576 11185627 11272097 11341648 
2471.520 11383418 11387296 11348534 11270346 11161745 11037539 10912473 
2474.895 10798057 10699593 10615683 10540692 10466923 10388153 10299992 
2478.271 10203517 10104358 10013957 9949568 9929855 9971438 10081491 
2481.646 10252774 10461682 10672784 10849859 10966007 11016193 11018249 
2485.021 11007079 11019447 11078919 11181032 11296352 11377327 11378535 
2488.396 11274762 11073398 10814431 10555921 10355602 10252547 10254865 
2491.771 10344198 10483846 10638078 10783547 10914733 11041062 11174214 
2495.147 11322806 11480082 11630749 11754323 11837303 11878571 11888649 
2498.522 11887762 11893239 11913533 11944889 11972743 11978067 11949455 
2501.897 11884714 11796984 11707132 11638544 11607080 11615186 11650135 
2505.272 11687030 11695571 11648216 11528660 11336878 11091508 10826706 
2508.648 10585284 10411387 10337250 10377774 10524888 10748112 11000549 
2512.023 11230772 11393666 11462657 11433467 11325069 11170934 11008430 
2515.398 10871309 10776662 10728043 10715613 10721792 10730501 10731629 
2518.773 10722561 10709609 10703060 10716408 10762146 10849071 10981183 
2522.149 11154133 11356479 11567809 11764385 11921082 12021450 12060964 
2525.524 12049391 12008707 11963610 11934489 11928979 11940230 11951484 
2528.899 11943938 11908685 11849271 11783143 11735214 11724819 11759864 
2532.274 11832237 11919909 11999391 12053022 12075942 12076966 12072301 
2535.650 12075190 12091335 12114621 12133412 12136313 12121018 12097983 
2539.025 12085395 12104022 12166733 12273214 12410141 12554714 12683769 
2542.400 12779824 12836454 12856708 12849594 12824567 12789297 12747955 
2545.775 12702077 12653453 12605835 12562810 12531380 12515819 12521178 
2549.151 12551392 12609561 12699030 12817945 12961122 13116002 13266085 
2552.526 13392956 13482387 13530753 13544099 13537491 13527620 13527686 
2555.901 13540013 13554912 13554895 13520572 13439913 13311448 13148719 
2559.276 12974798 12817998 12703031 12647071 12654258 12719136 12825175 
2562.652 12952395 13082511 13201858 13306904 13402969 13501743 13616395 
2566.027 13754596 13915424 14084690 14242583 14365736 14437053 14452523 
2569.402 14420138 14359190 14292874 14240341 14213157 14213321 14238773 
2572.777 14285903 14354040 14445269 14559954 14693532 14829683 14945146 
2576.153 15012475 15009575 14927578 14775806 14579348 14374539 14197902 
2579.528 14078869 14033026 14062488 14157340 14302042 14478794 14672107 
2582.903 14868214 15056790 15227588 15371827 15480102 15543526 15555977 
2586.278 15515262 15423791 15291796 15137000 14981646 14849111 14759915 
2589.654 14723543 14739672 14794424 14868158 14939575 14992050 15018252 
2593.029 15019133 15000589 14970805 14933866 14894298 14855418 14822968 
2596.404 14808903 14826732 14888166 14996991 15145822 15314717 15479155 
2599.779 15615727 15710698 15764987 15789932 15804661 15825426 15859229 
2603.155 15902752 15943753 15968058 15964188 15928978 15868014 15791094 
2606.530 15711527 15640866 15588403 15561586 15565075 15601343 15669355 
2609.905 15762035 15868085 15971107 16055668 16111294 16135160 16134277 
2613.280 16122410 16115813 16127482 16163934 16225189 16303785 16391827 
2616.656 16480867 16565990 16644288 16715394 16778610 16833922 16880360 
2620.031 16918884 16951168 16981344 17014268 17056636 17113402 17187828 
2623.406 17280464 17387094 17498796 17603314 17685256 17731974 17736470 
2626.781 17701364 17639194 17570016 17515498 17492004 17505030 17546906 
2630.156 17600826 17648132 17673766 17675852 17663150 17652924 17661292 
2633.532 17697138 17756660 17824716 17880740 17907160 17895092 17848588 
2636.907 17782726 17717468 17671002 17654704 17671512 17716302 17780476 
2640.282 17854710 17931736 18005408 18072090 18126796 18164346 18179226 
2643.657 18166882 18125782 18057080 17966096 17860394 17749236 17640894 
2647.033 17543036 17461176 17398084 17353324 17323426 17303324 17286060 
2650.408 17266298 17240286 17207574 17169324 17128382 17087250 17046190 
2653.783 17004936 16963404 16921320 16881274 16845594 16816682 16793832 
2657.158 16771870 16741231 16691551 16612630 16499637 16354706 16186593 
2660.534 16009327 15837295 15683997 15556946 15458737 15386610 15334130 
2663.909 15293261 15256763 15218279 15175131 15127049 15077605 15030654 
2667.284 14991563 14962665 14942085 14922931 14894276 14844821 14766587 
2670.659 14657956 14527336 14390142 14267790 14180367 14142673 14159926 
2674.035 14227953 14333502 14459021 14585584 14697121 14781313 14830688 
2677.410 14841804 14815901 14756734 14671032 14567600 14457304 14350486 
2680.785 14256495 14182351 14131748 14105325 14101474 14116514 14146500 
2684.160 14185591 14229735 14273630 14313304 14345693 14369086 14383743 
2687.536 14390378 14390346 14385262 14376840 14367058 14358173 14353077 
2690.911 14353573 14359216 14366301 14366436 14349591 14305548 14228243 
2694.286 14119652 13991064 13860729 13750600 13681026 13663042 13697760 
2697.661 13775180 13877776 13985393 14081021 14153421 14198417 14216891 
2701.037 14213269 14192432 14159809 14119653 14077758 14040474 14015961 
2704.412 14010118 14026040 14062377 14111698 14164672 14210674 14242622 
2707.787 14257963 14259773 14254228 14247680 14245125 14247208 14252014 
2711.162 14254368 14250537 14238517 14218580 14192540 14163217 14131786 
2714.538 14098614 14062613 14023410 13981918 13940412 13903080 13874576 
2717.913 13857265 13852342 13857990 13870837 13887066 13903845 13919991 
2721.288 13936690 13955857 13980691 14012468 14051926 14097429 14144954 
2724.663 14188572 14222242 14239471 14237789 14216899 14182105 14141719 
2728.039 14106624 14086156 14086906 14110536 14153120 14208445 14269196 
2731.414 14330976 14392597 14455985 14523886 14597594 14674995 14750409 
2734.789 14815582 14863249 14888542 14890888 14872944 14838376 14791026 
2738.164 14731906 14662570 14585035 14504449 14429992 14374079 14348298 
2741.540 14359002 14404654 14475706 14556261 14630043 14684429 14716011 
2744.915 14728262 14730755 14733437 14741457 14754091 14763960 14761666 
2748.290 14739734 14696218 14637384 14573732 14519099 14484562 14476490 
2751.665 14495271 14536113 14592295 14656812 14723659 14789055 14849582 
2755.041 14902920 14945742 14975539 14991105 14993174 14985434 14972326 
2758.416 14958193 14946091 14936391 14927149 14915035 14897912 14874946 
2761.791 14847993 14820748 14796926 14779579 14769086 14764061 14761906 
2765.166 14760491 14758336 14756362 14756615 14760671 14768813 14779835 
2768.542 14791137 14799939 14804651 14804720 14802372 14798255 14793116 
2771.917 14784439 14768317 14739826 14696623 14640851 14579103 14522363 
2775.292 14482545 14468212 14482827 14523146 14580335 14643883 14704936 
2778.667 14757626 14802880 14842925 14881778 14922410 14964833 15008205 
2782.042 15050096 15090978 15132525 15178009 15229960 15286970 15344376 
2785.418 15394514 15428871 15441827 15433836 15410785 15383610 15364283 
2788.793 15362917 15384478 15429168 15493072 15570017 15653927 15740490 
2792.168 15825026 15903695 15971417 16022196 16049443 16049583 16021295 
2795.543 15969155 15902169 15832257 15773211 15737621 15734792 15770001 
2798.919 15842991 15948618 16077226 16215570 16348902 16464418 16552690 
2802.294 16610600 16641982 16656425 16667672 16687965 16726067 16783594 
2805.669 16855752 16931332 16997796 17044664 17066552 17065236 17048352 
2809.044 17027210 17013614 17016348 17039568 17081404 17137420 17201488 
2812.420 17268232 17333862 17397250 17457634 17514634 17566832 17611856 
2815.795 17648566 17677906 17704698 17735948 17780662 17845380 17932394 
2819.170 18038020 18153648 18268752 18373944 18465424 18545074 18619442 
2822.545 18696492 18782218 18878048 18980282 19081800 19175654 19256994 
2825.921 19325244 19382574 19432698 19478172 19519760 19556128 19586982 
2829.296 19613558 19640814 19675604 19725562 19795742 19886354 19993598 
2832.671 20109850 20226538 20336114 20433034 20513672 20576376 20619140 
2836.046 20640322 20640390 20622202 20590814 20555020 20522076 20498498 
2839.422 20487822 20489198 20501954 20528022 20572952 20647294 20763128 
2842.797 20929684 21149604 21415740 21712234 22020986 22324924 22615596 
2846.172 22894038 23170520 23458018 23767122 24100078 24448826 24796344 
2849.547 25122586 25409404 25644610 25825920 25958398 26051278 26115520 
2852.923 26159904 26191744 26217320 26244064 26281924 26343182 26440612 
2856.298 26583130 26773786 27006126 27266946 27537394 27799266 28038706 
2859.673 28248902 28431084 28592110 28740494 28885268 29032714 29189448 
2863.048 29361510 29558126 29791388 30070846 30402688 30783196 31199084 
2866.424 31628984 32049916 32444600 32809396 33154600 33504114 33885588 
2869.799 34322908 34827704 35396176 36011712 36651056 37290936 37915268 
2873.174 38516736 39094132 39648688 40179472 40681624 41146020 41563064 
2876.549 41926668 42235268 42493352 42708740 42890672 43045548 43176980 
2879.925 43284964 43364624 43408836 43408500 43353284 43234700 43047860 
2883.300 42795056 42487760 42146432 41797476 41469752 41187052 40965492 
2886.675 40809388 40714128 40667464 40655468 40663644 40681008 40699560 
2890.050 40712988 40720072 40722220 40725544 40741536 40783572 40863840 
2893.426 40989104 41158400 41361172 41581488 41802304 42010732 42202192 
2896.801 42378548 42547944 42716512 42887140 43056856 43217596 43359620 
2900.176 43475036 43558960 43611284 43633752 43627768 43595392 43537316 
2903.551 43455632 43355092 43244180 43133028 43032908 42952688 42899240 
2906.927 42876760 42889060 42938428 43027704 43157288 43324436 43521100 
2910.302 43736412 43958828 44180840 44402664 44631700 44880832 45162616 
2913.677 45483160 45839332 46217952 46600904 46970972 47317176 47639312 
2917.052 47944368 48245064 48552356 48871584 49201632 49536016 49867456 
2920.427 50190628 50504624 50813644 51124368 51443212 51773936 52118280 
2923.803 52475840 52845432 53226556 53618632 54022180 54437308 54863748 
2927.178 55303012 55758172 56237168 56751988 57317536 57950152 58662972 
2930.553 59464732 60357444 61336568 62392972 63513480 64686240 65899840 
2933.928 67149096 68433304 69760088 71142240 72596936 74142120 75791568 
2937.304 77550576 79414288 81365640 83378048 85421024 87462768 89476120 
2940.679 91440112 93339136 95160320 96889248 98507520 99992616 101317608 
2944.054 102456992 103390184 104105304 104601384 104888416 104984536 
2946.947 104911624 104693928 104352952 103907480 103373056 102761728 
2949.840 102084456 101350096 100566840 99742304 98884352 98001448 97103600 
2953.216 96202728 95312424 94446712 93618368 92837896 92111296 91438520 
2956.591 90816040 90234456 89681640 89144104 88608112 88063248 87502496 
2959.966 86925536 86338272 85751000 85175664 84621144 84089424 83572648 
2963.341 83055384 82515136 81933176 81296784 80605816 79873912 79122872 
2966.717 78379024 77662616 76986168 76348264 75738216 75139000 74533312 
2970.092 73909808 73264520 72602992 71937256 71282248 70653480 70062992 
2973.467 69518640 69020824 68565424 68144648 67749432 67374040 67018808 
2976.842 66691072 66405988 66181420 66034488 65976532 66009024 66125160 
2980.218 66311180 66553204 66840708 67172040 67552272 67992848 68506520 
2983.593 69104272 69792304 70572808 71445664 72410144 73465160 74610432 
2986.968 75843192 77155976 78535056 79959816 81405144 82841512 84239344 
2990.343 85570168 86807544 87928312 88912800 89746648 90419672 90928160 
2993.719 91273480 91459832 91492880 91378568 91120936 90723112 90189480 
2997.094 89525504 88741720 87849872 86861512 85787960 84635424 83406824 
3000.469 82102560 80723912 79275776 77768240 76215672 74635280 73042888 
3003.844 71450552 69866400 68293456 66733852 65190300 63666812 62170012 
3007.219 60704652 59273736 57874788 56500208 55139972 53783640 52425276 
3010.595 51066564 49717124 48393196 47113144 45895436 44751316 43684536 
3013.970 42689368 41753428 40858668 39986800 39122140 38254896 37382504 
3017.345 36510628 35651076 34818424 34026580 33285554 32598146 31958558 
3020.720 31356912 30778808 30212880 29652128 29097890 28558356 28045168 
3024.096 27570702 27141266 26756430 26407692 26080718 25759448 25430386 
3027.471 25087188 24730792 24370386 24018756 23690106 23393616 23135016 
3030.846 22912448 22720092 22551108 22398946 22260658 22135520 22023744 
3034.221 21925332 21836810 21751438 21661846 21561292 21447422 21324418 
3037.597 21201086 21089076 20998108 20930036 20880050 20837110 20789248 
3040.972 20728882 20656324 20580158 20513904 20469236 20450972 20454214 
3044.347 20466160 20472576 20464140 20440218 20410864 20391536 20395890 
3047.722 20428962 20484706 20546932 20597382 20622598 20618882 20594626 
3051.098 20564924 20544456 20541028 20553722 20571658 20583126 20579802 
3054.473 20560642 20533770 20511102 20503030 20513668 20538812 20567772 
3057.848 20588506 20591856 20573902 20538232 20492668 20445446 20405416 
3061.223 20376910 20362814 20363546 20376646 20397784 20419446 20433070 
3064.599 20429996 20407226 20367116 20321326 20285836 20278604 20310378 
3067.974 20381482 20480696 20586034 20672924 20719150 20712588 20651772 
3071.349 20546298 20412276 20268406 20132052 20017062 19931300 19879322 
3074.724 19859488 19866218 19890020 19918588 19941472 19951634 19947720 
3078.100 19933870 19919184 19911640 19916106 19932068 19952694 19966594 
3081.475 19963502 19935218 19877492 19790720 19677494 19542466 19390716 
3084.850 19229608 19067944 18917040 18789018 18693220 18634842 18612130 
3088.225 18615246 18629876 18641294 18636314 18609118 18559902 18495096 
3091.601 18425388 18363142 18319264 18302070 18314482 18354644 18414360 
3094.976 18480020 18536550 18569494 18571138 18541366 18489732 18432362 
3098.351 18384966 18359100 18356858 18369290 18382664 18381358 18356612 
3101.726 18309984 18252612 18202202 18176374 18185034 18229556 18299536 
3105.102 18379862 18454168 18509928 18542226 18551366 18541616 18515368 
3108.477 18471150 18402902 18302056 18162338 17982904 17773256 17551982 
3111.852 17343630 17172630 17058516 17007888 17015116 17061430 17121758 
3115.227 17171342 17192820 17179062 17135500 17076022 17017470 16974806 
3118.603 16958178 16968860 17004032 17055650 17117336 17182186 17245382 
3121.978 17302314 17347734 17376198 17383700 17368560 17333288 17284684 
3125.353 17231978 17182614 17141730 17108392 17077452 17043360 17002116 
3128.728 16955086 16908154 16870966 16852356 16856002 16878448 16909308 
3132.104 16934396 16942784 16926788 16891130 16845684 16804010 16778518 
3135.479 16773000 16782416 16793204 16787892 16752167 16681280 16580692 
3138.854 16467135 16362285 16286679 16253805 16266514 16316829 16388336 
3142.229 16462605 16522571 16557150 16561376 16536711 16489260 16429355 
3145.604 16367424 16314657 16279601 16267110 16276041 16300594 16331064 
3148.980 16358063 16376406 16386837 16398324 16421858 16467171 16536063 
3152.355 16619468 16698986 16752936 16763538 16724631 16643919 16542239 
3155.730 16445400 16376266 16346486 16355650 16389700 16430218 16459206 
3159.105 16465003 16445264 16405499 16355544 16305262 16261958 16229769 
3162.481 16208498 16195700 16187353 16180377 16172552 16164621 16159549 
3165.856 16162861 16180819 16217785 16273031 16339973 16407683 16463730 
3169.231 16499281 16512424 16509194 16501285 16501032 16517576 16550936 
3172.606 16595367 16639385 16672246 16686061 16677525 16645774 16591333 
3175.982 16514830 16419565 16312988 16211605 16138000 16117757 16167728 
3179.357 16288485 16459828 16642546 16789178 16859792 16834390 16720189 
3182.732 16548010 16361076 16200254 16090635 16036177 16024085 16034413 
3186.107 16050402 16065862 16086452 16124144 16189102 16284218 16402252 
3189.483 16529422 16649149 16748382 16818544 16857796 16866446 16846830 
3192.858 16802474 16739905 16667783 16597681 16541483 16507447 16497079 
3196.233 16503748 16516421 16523413 16517114 16496124 16465470 16432453 
3199.608 16403284 16381189 16368635 16367558 16384084 16426485 16502507 
3202.984 16614530 16754095 16902094 17034358 17129474 17176454 17180006 
3206.359 17157638 17131606 17117830 17118252 17119856 17098966 17034154 
3209.734 16915718 16752584 16570363 16402215 16278069 16213432 16205853 
3213.109 16238442 16288273 16333815 16365360 16384302 16400665 16427597 
3216.485 16473733 16540911 16621921 16704578 16773773 16816548 16823600 
3219.860 16793404 16730592 16647566 16562793 16497226 16470201 16494816 
3223.235 16574007 16700024 16853770 17010496 17145760 17238230 17275108 
3226.610 17252798 17176252 17056606 16910630 16757801 16618371 16509118 
3229.986 16442610 16421780 16440693 16484855 16535962 16577873 16602458 
3233.361 16611544 16615758 16629728 16663766 16719183 16788830 16856878 
3236.736 16907252 16929634 16924124 16900040 16871824 16852178 16845778 
3240.111 16847308 16843404 16819722 16767118 16688088 16595453 16511599 
3243.487 16458711 16453655 16500473 16589733 16701872 16810568 16892310 
3246.862 16928568 16912026 16846584 16744420 16624374 16505063 16402392 
3250.237 16325952 16275749 16245585 16223472 16197540 16161134 16115451 
3253.612 16070521 16042259 16047038 16095337 16186310 16307436 16436134 
3256.988 16547196 16620299 16644163 16621396 16563004 16485695 16403235 
3260.363 16323375 16247761 16173545 16097998 16022982 15955599 15906349 
3263.738 15885079 15897922 15943153 16014872 16104011 16204024 16312059 
3267.113 16429555 16557822 16696768 16841250 16980850 17103624 17199024 
3270.489 17260786 17287906 17282662 17246916 17180868 17083634 16953674 
3273.864 16794596 16616287 16434541 16268240 16131552 16032485 15969519 
3277.239 15935415 15922165 15926266 15950797 16001923 16085049 16196446 
3280.614 16322402 16438505 16519120 16546302 16516162 16441125 16345708 
3283.990 16257752 16198725 16177544 16189938 16223475 16264509 16303249 
3287.365 16337587 16370283 16406409 16445737 16485525 16520577 16546266 
3290.740 16562039 16573178 16588628 16615996 16659264 16715685 16778524 
3294.115 16839732 16892670 16934910 16966670 16989262 17002472 17005952 
3297.490 16999372 16985164 16970504 16966238 16980776 17016668 17064858 
3300.866 17104536 17108584 17053294 16926690 16736180 16508993 16285760 
3304.241 16108222 16009148 16001411 16076729 16209237 16362075 16501226 
3307.616 16601410 16651616 16655374 16626969 16586019 16551714 16538261 
3310.991 16551210 16588138 16639061 16689667 16723191 16727401 16695069 
3314.367 16627956 16535496 16434129 16341625 16274661 16243795 16253047 
3317.742 16297989 16369851 16456643 16547799 16634759 16713405 16781054 
3321.117 16837150 16880570 16909522 16920332 16910198 16876666 16820396 
3324.492 16745498 16660558 16575146 16500641 16447410 16422812 16430100 
3327.868 16466269 16522419 16584497 16634764 16657151 16639918 16582049 
3331.243 16494023 16397491 16320473 16287996 16316487 16405419 16537508 
3334.618 16683171 16806866 16881186 16892464 16844128 16753951 16646191 
3337.993 16543329 16458457 16395938 16350638 16316516 16289435 16269850 
3341.369 16261224 16265027 16278123 16289543 16286515 16258055 16200792 
3344.744 16123792 16045652 15989795 15976071 16013350 16096167 16206039 
3348.119 16316736 16402787 16444314 16432988 16371708 16271794 16150191 
3351.494 16025083 15914209 15831606 15786042 15781686 15814846 15876442 
3354.870 15952216 16023967 16074836 16090974 16063934 15993482 15885219 
3358.245 15751403 15608335 15473565 15364192 15292820 15264861 15278755 
3361.620 15325739 15391991 15465017 15535479 15600781 15664978 15734039 
3364.995 15812930 15900185 15986457 16057307 16097730 16098004 16059693 
3368.371 15995199 15925834 15875977 15866060 15907498 15999421 16132254 
3371.746 16287277 16444620 16585294 16695276 16765837 16794694 16785898 
3375.121 16747009 16689336 16623499 16559117 16502077 16454978 16417488 
3378.496 16389608 16371569 16366094 16376356 16404515 16450014 16506173 
3381.872 16563484 16610840 16639395 16646300 16633932 16611356 16589561 
3385.247 16579108 16585894 16611742 16653828 16706821 16765844 16826822 
3388.622 16887360 16946442 17003952 17059886 17111638 17155670 17186872 
3391.997 17198868 17185730 17145072 17078920 16993414 16900268 16812788 
3395.373 16741335 16691137 16660847 16641358 16621180 16590524 16546080 
3398.748 16490351 16433928 16389901 16369104 16377462 16414650 16475102 
3402.123 16551524 16636755 16726801 16821212 16920902 17027698 17143438 
3405.498 17267664 17399694 17535778 17670650 17796434 17902944 17982174 
3408.874 18028962 18044888 18038518 18024490 18018228 18029930 18061768 
3412.249 18104146 18141388 18156884 18138614 18085752 18007112 17920440 
3415.624 17842448 17786318 17756292 17749288 17757066 17771832 17789932 
3418.999 17812960 17847462 17901816 17982794 18093858 18233768 18395878 
3422.375 18568962 18739238 18891432 19012204 19092218 19129044 19127596 
3425.750 19098442 19053760 19003084 18950902 18896288 18836368 18769766 
3429.125 18701072 18642720 18610012 18617116 18668886 18760042 18873224 
3432.500 18986448 19078970 19137766 19160620 19154318 19131074 19102630 
3435.875 19077524 19060250 19052198 19052106 19058122 19065990 19068432 
3439.251 19055984 19019182 18953968 18865536 18770274 18690574 18650470 
3442.626 18664862 18732968 18838306 18952454 19043414 19085730 19067474 
3446.001 18990934 18868584 18718918 18560202 18408748 18277968 18179892 
3449.376 18123902 18115098 18149796 18213436 18282188 18329428 18331756 
3452.752 18281280 18186324 18071766 17971090 17915334 17924204 18001792 
3456.127 18136884 18309934 18498012 18681174 18843648 18973566 19062330 
3459.502 19104342 19099458 19055326 18987372 18917084 18864200 18842548 
3462.877 18853304 18884746 18917126 18929408 18909606 18857014 18782784 
3466.253 18703300 18635780 18590454 18568496 18564796 18573658 18592184 
3469.628 18623746 18678132 18768164 18903288 19086338 19311634 19562552 
3473.003 19815444 20042792 20219372 20327884 20363730 20337614 20272734 
3476.378 20200602 20152622 20149464 20196982 20284576 20390888 20493152 
3479.754 20576162 20638510 20693044 20758464 20852332 20981202 21137968 
3483.129 21302982 21452490 21566340 21635140 21660738 21654598 21633812 
3486.504 21613720 21605692 21615478 21644372 21690862 21752024 21822936 
3489.879 21898562 21976092 22054934 22139554 22238054 22359718 22508788 
3493.255 22682118 22865146 23037314 23178744 23278834 23343320 23393002 
3496.630 23458466 23568548 23738344 23964010 24220152 24471228 24679044 
3500.005 24818108 24878818 24870570 24816924 24745928 24684350 24652714 
3503.380 24660826 24710944 24797186 24907536 25027368 25142514 25242464 
3506.756 25324020 25391304 25456246 25531842 25626968 25741398 25862726 
3510.131 25970614 26040672 26051942 25992914 25863214 25672066 25435676 
3513.506 25173344 24904118 24645046 24411268 24213554 24055694 23933424 
3516.881 23832078 23732132 23612278 23460200 23275786 23073818 22878928 
3520.257 22715850 22603176 22544588 22531332 22547090 22574220 22602542 
3523.632 22627202 22649020 22666696 22673354 22657484 22606758 22517242 
3527.007 22395930 22261668 22139118 22049044 21999512 21984128 21984642 
3530.382 21980762 21959914 21922796 21882820 21858148 21862436 21896888 
3533.758 21950352 22003472 22037126 22042864 22022938 21991592 21964754 
3537.133 21953606 21960044 21974928 21985652 21979726 21951320 21903150 
3540.508 21844142 21786548 21740244 21714286 21713430 21741266 21800312 
3543.883 21889736 22006830 22143860 22287728 22424500 22541168 22627228 
3547.259 22677534 22691350 22669264 22613282 22528058 22418106 22295604 
3550.634 22175590 22076432 22013300 21995042 22017724 22067048 22120800 
3554.009 22156530 22156312 22112718 22025618 21901694 21748946 21574544 
3557.384 21384216 21185022 20986868 20803866 20653466 20550842 20505576 
3560.760 20517794 20577006 20666258 20764864 20853812 20919574 20954000 
3564.135 20957318 20934412 20896296 20858534 20838720 20852198 20907842 
3567.510 21004354 21127628 21253574 21353432 21402718 21386060 21302480 
3570.885 21163226 20987490 20796608 20607860 20433480 20283654 20165956 
3574.260 20088420 20058494 20080400 20148874 20248940 20358764 20451090 
3577.636 20504414 20506936 20460682 20379216 20282708 20192192 20121002 
3581.011 20075398 20052138 20040770 20027480 19996624 19934256 19829542 
3584.386 19676214 19478360 19248010 19007286 18783014 18601402 18483988 
3587.761 18440046 18468264 18557862 18691770 18852210 19021378 19182058 
3591.137 19314610 19400334 19422218 19369870 19246038 19067102 18862346 
3594.512 18666480 18508554 18406044 18359690 18358536 18386438 18429788 
3597.887 18485572 18555848 18645576 18752346 18863014 18957300 19014542 
3601.262 19024456 18994874 18951872 18931090 18962020 19054836 19194222 
3604.638 19342722 19452940 19487596 19430804 19296336 19120588 18949532 
3608.013 18822244 18759422 18758658 18800380 18859298 18913636 18954184 
3611.388 18981420 19004182 19032280 19070564 19120974 19181338 19249840 
3614.763 19325884 19409466 19499260 19591390 19678086 19751462 19808228 
3618.139 19852990 19896556 19957496 20051372 20187550 20364362 20568716 
3621.514 20780926 20978630 21142952 21261104 21326966 21339540 21302700 
3624.889 21224702 21119178 21001092 20890896 20806002 20759206 20754172 
3628.264 20784946 20837168 20895862 20948604 20989782 21020486 21044612 
3631.640 21064478 21078860 21083246 21075308 21058584 21045636 21057950 
3635.015 21118108 21241400 21428228 21661784 21913032 22147272 22337230 
3638.390 22469308 22546148 22580816 22591634 22593404 22594928 22599510 
3641.765 22610584 22633038 22676804 22749970 22854512 22979914 23103638 
3645.141 23196890 23235382 23208910 23129352 23026844 22941112 22906870 
3648.516 22941416 23039510 23176040 23318384 23440280 23532136 23600812 
3651.891 23665458 23746086 23849716 23969232 24082024 24163016 24193744 
3655.266 24171236 24111092 24039002 23979568 23947424 23938774 23934668 
3658.642 23909518 23840062 23717910 23550074 23357722 23167556 23001490 
3662.017 22871948 22779310 22713124 22662310 22618010 22579364 22552160 
3665.392 22543674 22559696 22598764 22649794 22695044 22713686 22687084 
3668.767 22603514 22460500 22268262 22043204 21808870 21588930 21402258 
3672.143 21260680 21166062 21111864 21081334 21056720 21018282 20950966 
3675.518 20846004 20702892 20528546 20333808 20132756 19938580 19764616 
3678.893 19620610 19513228 19447290 19420460 19426954 19456540 19496006 
3682.268 19533508 19559906 19572224 19571206 19561656 19548520 19533900 
3685.644 19514082 19480414 19420526 19322046 19175820 18980972 18746658 
3689.019 18492902 18249008 18047626 17920890 17890094 17962184 18123612 
3692.394 18340656 18566202 18748878 18846918 18837858 18723896 18531754 
3695.769 18301810 18076674 17889400 17755986 17673696 17626820 17596288 
3699.145 17565744 17527762 17481712 17431434 17380902 17329610 17276824 
3702.520 17219060 17157064 17093574 17032546 16975470 16920124 16860540 
3705.895 16790278 16710691 16631087 16572069 16558461 16610021 16732983 
3709.270 16913860 17122380 17320416 17471054 17552006 17560006 17508202 
3712.646 17420948 17322856 17233326 17164918 17124486 17116380 17146222 
3716.021 17218256 17332004 17478656 17639800 17788670 17899850 17957238 
3719.396 17958446 17916282 17854170 17794786 17754086 17735690 17732126 
3722.771 17730434 17720758 17700100 17674204 17652286 17642594 17645126 
3726.146 17650278 17642204 17604414 17527286 17411440 17270348 17125114 
3729.522 16999334 16911990 16872590 16878142 16917426 16971712 17022516 
3732.897 17057338 17072664 17076620 17084700 17114794 17181168 17287962 
3736.272 17425196 17573116 17705062 17796614 17834346 17817486 17758916 
3739.647 17677780 17594374 17521852 17465098 17421240 17384384 17350782 
3743.023 17321808 17303856 17305084 17329880 17376004 17435814 17497896 
3746.398 17551212 17590740 17616348 17631798 17642350 17649014 17650656 
3749.773 17642250 17620280 17584228 17540634 17499292 17474398 17478278 
3753.148 17518732 17597164 17707682 17838732 17974986 18100334 18200810 
3756.524 18268218 18303166 18316086 18325112 18350886 18407524 18497940 
3759.899 18606650 18703426 18749054 18708474 18561990 18314002 17993006 
3763.274 17646028 17327390 17083968 16945500 16921202 16997620 17148456 
3766.649 17340836 17542746 17727322 17876372 17978508 18029796 18032986 
3770.025 17994882 17928476 17846898 17762398 17683818 17617348 17564386 
3773.400 17527836 17513014 17527384 17579306 17673594 17809772 17974834 
3776.775 18147546 18302098 18412398 18461080 18443306 18366266 18247548 
3780.150 18109566 17974214 17856318 17764744 17700886 17659822 17635340 
3783.526 17624284 17625390 17642970 17685274 17760930 17874524 18023920 
3786.901 18194804 18364608 18503120 18584304 18589972 18519202 18387978 
3790.276 18225114 18066034 17939438 17862850 17838196 17853804 17891010 
3793.651 17929878 17955666 17959602 17937096 17886742 17807520 17700944 
3797.027 17571970 17431782 17298058 17192412 17134692 17138266 17204556 
3800.402 17323160 17474640 17636478 17786278 17907986 17989734 18024500 
3803.777 18008820 17944078 17839314 17713884 17600030 17535856 17558216 
3807.152 17688058 17921868 18227850 18551698 18831138 19012644 19066380 
3810.528 18993062 18821518 18598990 18374652 18186934 18056024 17982440 
3813.903 17954566 17957220 17978400 18015684 18070876 18149472 18251618 
3817.278 18370930 18493732 18601228 18676506 18705996 18686600 18624572 
3820.653 18534376 18434426 18344064 18277620 18241254 18235106 18251878 
3824.029 18281336 18314516 18344886 18370652 18391678 18408610 18418624 
3827.404 18416456 18394668 18346710 18271548 18174446 18067698 17965290 
3830.779 17880184 17818408 17779464 17757316 17746462 17746768 17765430 
3834.154 17816458 17913342 18064072 18263422 18492784 18723394 18923490 
3837.530 19067456 19141368 19144930 19089442 18989290 18860038 18712368 
3840.905 18555018 18394686 18239604 18101356 17991914 17919260 17886368 
3844.280 17887582 17910554 17940360 17961410 17963662 17942470 17898336 
3847.655 17837832 17770996 17710978 17673760 17675458 17728980 17841442 
3851.031 18008882 18216756 18439932 18648610 18816438 18924926 18969912 
3854.406 18959368 18909816 18839966 18765066 18694930 18634210 18585236 
3857.781 18550728 18534950 18542180 18575136 18632154 18706904 18789178 
3861.156 18865782 18925070 18957198 18956588 18920510 18849860 18747864 
3864.531 18621766 18481410 18338950 18209424 18103954 18032782 18000580 
3867.907 18005672 18044450 18108374 18188774 18274900 18357938 18428422 
3871.282 18479738 18509536 18518844 18511550 18493746 18467242 18432034 
3874.657 18381508 18306824 18203310 18073426 17928590 17791914 17687534 
3878.032 17636240 17646092 17709846 17808038 17914058 18003866 18063548 
3881.408 18090488 18091564 18076912 18055358 18030162 18003138 17975194 
3884.783 17953752 17950386 17977466 18044506 18148528 18275368 18399382 
3888.158 18492700 18534722 18516696 18445380 18341346 18229604 18132176 
3891.533 18065354 18033836 18035288 18060986 18102860 18152046 18201508 
3894.909 18245372 18279462 18302342 18315958 18326842 18342422 18369102 
3898.284 18410026 18458526 18505086 18535850 18541930 18521096 18482226 
3901.659 18441904 18419090 18428294 18475544 18553400 18645796 18729584 
3905.034 18782524 18787460 18736916 18633360 18491314 18332624 18184250 
3908.410 18072362 18018310 18031398 18108904 18232656 18376620 18508840 
3911.785 18602710 18643138 18629182 18574984 18504124 18442034 18410742 
3915.160 18418648 18463538 18526934 18584710 18609432 18579966 18485670 
3918.535 18331638 18136900 17932820 17753646 17629962 17582648 17615262 
3921.911 17717740 17867388 18037710 18204410 18349088 18462010 18539466 
3925.286 18582240 18593070 18575496 18536612 18487192 18443026 18422004 
3928.661 18441896 18512460 18633186 18792660 18967062 19129276 19253080 
3932.036 19321186 19325530 19272024 19174482 19052940 18928208 18817032 
3935.412 18728774 18665018 18619182 18579662 18536044 18482794 18422666 
3938.787 18366752 18331006 18328102 18362676 18425760 18496520 18547498 
3942.162 18555968 18512686 18425414 18318182 18224932 18174588 18184606 
3945.537 18255134 18367834 18495242 18608410 18686314 18718744 18708994 
3948.913 18668822 18615544 18567018 18539648 18546274 18596316 18692822 
3952.288 18833976 19008410 19201444 19392828 19564664 19701036 19791986 
3955.663 19832450 19821610 19759444 19648596 19493040 19301648 19090606 
3959.038 18882188 18701726 18574560 18518858 18543798 18645426 18808662 
3962.414 19007792 19210974 19384084 19493760 19513134 19427162 19236612 
3965.789 18962340 18643946 18333498 18085732 17945126 17936016 18057378 
3969.164 18281112 18562094 18847708 19090872 19258962 19339006 19338828 
3972.539 19282478 19202422 19134736 19108700 19141510 19234918 19375104 
3975.915 19533458 19675200 19767814 19788340 19729682 19601292 19424484 
3979.290 19228320 19039996 18880580 18763136 18693936 18672596 18697266 
3982.665 18762354 18860416 18979854 19107470 19225382 19320364 19379322 
3986.040 19395954 19368114 19297522 19190580 19059440 18919062 18792016 
3989.416 18704502 18680838 18738556 18879166 19087872 19333966 19577344 
3992.791 19781204 19916884 19972158 19949002 19859838 19721118 19549310 
3996.166 19359936 19170540 19000260 18871330 18804512 18813876 18898920 
3999.541 19046820 19232420 19426932 
##END=
