##TITLE=3D-Fillies_PLA-Rainbow_Turquoise_Filament_r1_ATR-Corrected
##JCAMP-DX=5.01  $$ Nicolet v. 1
##DATATYPE=INFRARED SPECTRUM
##ORIGIN=Curtin University
##OWNER=Nicolet
##LONGDATE=2024/07/18
##TIME=14:22:17
##SPECTROMETER/DATA SYSTEM=Nicolet iS50
##DATA PROCESSING=
Ratio against background
%Transmittance->Absorbance
ATR Correction
Truncated
ElementMultiply or ElementDivide
##COMMENTS=
Number of sample scans: 32
Collection length: 47.28 sec
Sample gain: 1.0
Background collected on: Thu Jul 18 14:20:44 2024 (GMT+08:00);
Number of background scans: 32
Background gain: 1.0
Sample spacing:  1.000
Number of scan points: 16672
Resolution points: 8192
Number of FFT points: 65536
Apodization: N-B strong;
Phase correction: Mertz;
Laser frequency: 15798.3 cm-1
Number of rejected sample scans: 0
Number of rejected background scans: 0
Bench serial number: AUP1200105;
##RESOLUTION=4.000
##XUNITS=1/CM
##YUNITS=ABSORBANCE
##FIRSTX=400.163452
##LASTX=4000.187744
##FIRSTY=0.055296
##MAXX=4000.187744
##MINX=400.163452
##MAXY=0.787462
##MINY=-0.025995
##XFACTOR=1.000000
##YFACTOR=1.000000E-009
##NPOINTS=7468
##DELTAX=0.482125
##ZPD=8192
##XYDATA=(X++(Y..Y))
400.163 55296432 54051308 52653116 51249756 49997140 49034208 48442572 
403.538 48224648 48304856 48549168 48800040 48911212 48779140 48356140 
406.913 47651220 46712756 45607948 44402296 43147600 41880976 40632900 
410.288 39434956 38326868 37352012 36545440 35916460 35435720 35034196 
413.663 34618916 34100928 33431210 32622542 31753738 30947548 30331900 
417.038 29998108 29969520 30192324 30553684 30917604 31170334 31254218 
420.412 31175726 30989428 30765462 30555770 30375204 30199320 29982050 
423.787 29678774 29269570 28770790 28232452 27723832 27314662 27055858 
427.162 26969230 27043708 27239086 27494482 27740342 27911494 27961358 
430.537 27873348 27666618 27391712 27118082 26912980 26827862 26879388 
433.912 27049132 27289016 27537838 27736590 27842280 27833508 27709608 
437.286 27485474 27186122 26842430 26488748 26161044 25892728 25709114 
440.661 25621226 25621072 25683722 25772970 25852790 25896860 25895468 
444.036 25855352 25794688 25734774 25694742 25687052 25718388 25790066 
447.411 25897954 26030190 26164478 26267442 26300140 26228020 26034132 
450.786 25728402 25349614 24956258 24608914 24350208 24192144 24112452 
454.161 24066832 24007802 23904848 23756422 23589226 23446650 23370326 
457.535 23383380 23482748 23641010 23818584 23976266 24086154 24134346 
460.910 24118458 24041558 23908226 23724010 23498996 23247834 22999818 
464.285 22785110 22628622 22540194 22509026 22504568 22486732 22419292 
467.660 22283122 22082556 21842908 21599378 21383572 21212168 21082454 
471.035 20977694 20877044 20767600 20652220 20549368 20486252 20487166 
474.409 20563182 20706484 20891672 21082558 21242778 21344348 21374084 
477.784 21334224 21239694 21113334 20980778 20865802 20787212 20755162 
481.159 20769908 20820122 20885104 20938430 20954970 20918402 20827400 
484.534 20697610 20558806 20446728 20393186 20416054 20514960 20670866 
487.909 20853440 21029754 21174810 21278156 21346262 21399696 21465984 
491.284 21570676 21728684 21938460 22180940 22423128 22625776 22751946 
494.658 22782546 22717922 22581502 22414072 22263352 22170682 22159216 
498.033 22228030 22353186 22496426 22617498 22685852 22688146 22628770 
501.408 22524546 22396076 22260424 22126486 21996286 21867744 21739980 
504.783 21615116 21498496 21395716 21309360 21237332 21173936 21112320 
508.158 21048154 20981292 20915200 20853430 20796474 20738878 20670944 
511.532 20581252 20461598 20310744 20134566 19943828 19749230 19557130 
514.907 19368348 19179460 18987834 18796290 18615996 18464942 18362170 
518.282 18320182 18338530 18400820 18477858 18535410 18543674 18486200 
521.657 18363362 18190924 17993588 17796190 17616856 17463236 17334374 
525.032 17223276 17127632 17049150 16994716 16972104 16984446 17025178 
528.406 17076918 17115310 17116474 17065404 16961642 16819330 16662082 
531.781 16513206 16386697 16281929 16184509 16073106 15929854 15748641 
535.156 15539202 15324284 15131094 14981281 14882993 14827876 14795988 
538.531 14763456 14712155 14636227 14542776 14447621 14368455 14317249 
541.906 14297349 14303214 14325010 14353382 14383002 14413697 14447570 
545.281 14485286 14523317 14553141 14564016 14547771 14503181 14438276 
548.655 14369051 14314106 14288304 14296524 14330980 14373407 14401392 
552.030 14396327 14351228 14273446 14183038 14105494 14062589 14064041 
555.405 14104062 14162200 14214322 14239281 14228421 14188771 14140337 
558.780 14108196 14112377 14160492 14244733 14344924 14436482 14499065 
562.155 14522996 14512260 14481674 14451853 14442964 14469557 14538225 
565.529 14646817 14785223 14937055 15081274 15195390 15259525 15260878 
568.904 15198253 15083664 14940584 14798262 14684309 14617730 14605651 
572.279 14643926 14722600 14831885 14966620 15126669 15313249 15523255 
575.654 15744904 15957087 16134953 16257558 16316418 16319185 16288340 
579.029 16253648 16242195 16269833 16337527 16433181 16537970 16634200 
582.404 16711101 16766556 16804796 16832348 16853596 16868964 16875828 
585.778 16871064 16853732 16827298 16798916 16778198 16774565 16795126 
589.153 16843302 16918042 17013816 17121044 17227362 17319846 17388446 
592.528 17428802 17444058 17444416 17443574 17453048 17476738 17507600 
595.903 17528938 17519758 17462598 17350974 17193122 17010600 16831656 
599.278 16682416 16579606 16526219 16513744 16528102 16557159 16596384 
602.652 16650654 16730260 16845086 16997532 17178698 17369660 17546418 
606.027 17688312 17785210 17841584 17875852 17915262 17987430 18112630 
609.402 18298416 18538258 18814776 19104454 19384808 19638208 19854726 
612.777 20031496 20170626 20277094 20357286 20418250 20469098 20520404 
616.152 20583916 20669996 20785264 20929576 21095988 21272192 21444474 
619.527 21602166 21741098 21864812 21983060 22107986 22250308 22416230 
622.901 22607572 22821936 23055616 23304794 23566224 23836190 24109192 
626.276 24377772 24633714 24870670 25087310 25288938 25486692 25693872 
629.651 25920840 26170152 26434042 26695388 26932062 27123224 27255466 
633.026 27326208 27344540 27328298 27299732 27280614 27288002 27331992 
636.401 27415092 27533192 27677290 27835974 27998446 28156624 28307158 
639.775 28451704 28596108 28747608 28911996 29090806 29280170 29472188 
643.150 29656934 29827000 29979572 30118448 30252832 30394414 30554614 
646.525 30741068 30956722 31199860 31465888 31749078 32044168 32346890 
649.900 32654070 32962952 33271204 33577016 33879572 34179104 34476472 
653.275 34771884 35063420 35344992 35605600 35830504 36003204 36109256 
656.650 36139912 36095008 35984400 35826552 35645740 35467616 35314852 
660.024 35203620 35142028 35130288 35162868 35231568 35327500 35443504 
663.399 35574040 35714804 35861420 36008904 36151868 36285792 36408620 
666.774 36522284 36633544 36752536 36890960 37058888 37262928 37503964 
670.149 37777808 38076048 38387740 38701400 39005724 39290264 39546412 
673.524 39767284 39949392 40093744 40206788 40300100 40388800 40488036 
676.898 40609004 40756364 40926236 41108344 41289948 41460316 41615264 
680.273 41758588 41900864 42054524 42228580 42423900 42631828 42836308 
683.648 43019128 43166480 43273800 43347604 43403756 43462528 43543024 
687.023 43658412 43813592 44005848 44227268 44467276 44715748 44963772 
690.398 45204028 45431668 45644480 45844032 46036392 46231632 46441656 
693.773 46677032 46943764 47241376 47563980 47902984 48251916 48609768 
697.147 48982052 49378516 49808764 50277696 50782088 51311300 51850844 
700.522 52387284 52913264 53428584 53938820 54451088 54969324 55491180 
703.897 56008136 56508144 56979848 57416400 57816768 58184972 58527392 
707.272 58849268 59153140 59438260 59701564 59940180 60152720 60340380 
710.647 60506532 60656424 60796396 60932804 61071924 61219176 61379352 
714.021 61556788 61756996 61988876 62267320 62615840 63067280 63663460 
717.396 64453492 65492072 66840144 68566984 70755648 73506336 76936528 
720.771 81173600 86339376 92526944 99773864 108037832 117180048 126961272 
724.146 137053968 147069248 156595568 165242784 172683488 178683328 
727.039 183115616 185957552 187273248 187189280 185869568 183493488 
729.931 180240192 176276848 171751376 166787824 161485024 155917888 
732.824 150142000 144200400 138130608 131970896 125764680 119562160 
735.717 113419104 107395608 101553152 95952216 90650136 85698520 81141328 
739.091 77011968 73331576 70107112 67331048 64982348 63029148 61432028 
742.466 60148896 59138592 58364628 57797052 57411760 57189564 57113392 
745.841 57166316 57330156 57584996 57910948 58289500 58705744 59149660 
749.216 59617156 60109100 60630388 61187236 61784016 62420240 63087532 
752.591 63768132 64435324 65056116 65595748 66022992 66314860 66458628 
755.966 66452176 66300632 66012592 65596336 65058156 64403044 63637384 
759.340 62771848 61823568 60815768 59774352 58723324 57680040 56651560 
762.715 55634348 54616784 53584108 52523640 51429560 50305016 49162944 
766.090 48022604 46906844 45837612 44832344 43901456 43046868 42262448 
769.465 41535288 40848280 40183488 39525748 38865332 38199580 37533176 
772.840 36875968 36239812 35634768 35066160 34532984 34027760 33539518 
776.214 33056412 32570024 32077908 31584744 31101140 30641062 30217690 
779.589 29839682 29508590 29218196 28955346 28702470 28441018 28154220 
782.964 27829812 27461310 27048788 26598704 26123218 25639412 25167140 
786.339 24727008 24337202 24010814 23754124 23565880 23438884 23362412 
789.714 23325394 23318620 23335736 23371962 23422478 23479452 23530722 
793.089 23559696 23547552 23476506 23334082 23116554 22831786 22498808 
796.463 22146094 21807412 21515578 21296964 21165942 21122402 21151982 
799.838 21230348 21328910 21422792 21495642 21543110 21571220 21591430 
803.213 21616404 21653038 21700018 21748296 21783982 21792426 21762292 
806.588 21688378 21571916 21420422 21246506 21065842 20895662 20751960 
809.963 20646762 20584644 20561198 20563078 20571532 20567484 20538154 
813.337 20481590 20407068 20332270 20276432 20252930 20264766 20302828 
816.712 20350678 20390100 20408618 20403052 20380200 20353088 20336566 
820.087 20342114 20375464 20437156 20523712 20629734 20749292 20875504 
823.462 21000680 21116322 21215098 21292850 21351332 21398310 21446228 
826.837 21508302 21594430 21707664 21844374 21996364 22154638 22313474 
830.212 22472008 22633026 22801140 22978988 23166008 23359254 23555954 
833.586 23755790 23963614 24188026 24438752 24722904 25042156 25392728 
836.961 25766324 26154284 26551122 26955734 27372370 27807760 28269466 
840.336 28763590 29293936 29862470 30469936 31115342 31795752 32504134 
843.711 33228654 33952808 34656940 35321808 35931696 36476480 36952696 
847.086 37362008 37709192 38000400 38242816 38445968 38623604 38795976 
850.460 38989996 39237872 39573248 40027912 40627336 41389500 42323984 
853.835 43434160 44718384 46171764 47786264 49550240 51447072 53455068 
857.210 55547532 57694748 59866276 62033964 64173392 66264980 68293640 
860.585 70247992 72120104 73904856 75601000 77211224 78741584 80200016 
863.960 81593488 82925600 84194576 85394240 86516568 87555928 88513296 
867.335 89398520 90228912 91024728 91801840 92564296 93299728 93977672 
870.709 94552744 94971616 95180720 95133648 94795664 94146264 93178456 
874.084 91897688 90320616 88473856 86393536 84123352 81711528 79206216 
877.459 76651304 74081992 71523936 68994688 66507192 64074272 61711320 
880.834 59437484 57274224 55242520 53360004 51639564 50089064 48712484 
884.209 47510816 46483456 45627220 44935756 44398696 44001140 43724656 
887.583 43548504 43451568 43414400 43420256 43456028 43512864 43586420 
890.958 43675980 43783948 43912640 44061688 44224528 44386848 44527112 
894.333 44620432 44643988 44583664 44437652 44218676 43951236 43665784 
897.708 43391844 43152812 42961604 42821152 42726200 42666764 42631680 
901.083 42610688 42596348 42583812 42570756 42557612 42546436 42540700 
904.458 42543884 42558980 42587040 42626900 42675664 42729408 42784264 
907.832 42836740 42884340 42925916 42961312 42992564 43024424 43064812 
911.207 43124376 43214592 43345268 43521408 43741752 43999100 44282572 
914.582 44581092 44887184 45198064 45515852 45844120 46184952 46536412 
917.957 46891464 47239720 47569936 47873328 48144992 48384952 48596132 
921.332 48784804 48957888 49123732 49291396 49470440 49669204 49893428 
924.706 50144444 50419132 50711116 51013560 51322680 51639320 51968388 
928.081 52316476 52688336 53083536 53495940 53915416 54331268 54736476 
931.456 55128644 55509796 55882360 56246200 56595224 56917728 57199440 
934.831 57427332 57593920 57698940 57749080 57755248 57729844 57684680 
938.206 57629932 57574356 57525876 57490844 57473192 57473484 57488656 
941.581 57513944 57545516 57584244 57637080 57717184 57839976 58019640 
944.955 58263916 58573264 58941008 59357228 59812124 60298812 60814364 
948.330 61358192 61930432 62530876 63158868 63814684 64501008 65221712 
951.705 65979100 66768764 67574912 68367816 69105360 69738664 70220200 
955.080 70512496 70593616 70458752 70117840 69590568 68899904 68069200 
958.455 67119312 66070148 64941272 63754140 62533372 61305696 60098900 
961.829 58939768 57851808 56853108 55954596 55160112 54467096 53869056 
965.204 53358240 52928120 52575092 52298764 52099364 51976052 51924236 
968.579 51935244 51996696 52095372 52219720 52361048 52513852 52674732 
971.954 52840640 53007552 53171520 53330160 53484612 53640692 53807032 
975.329 53992632 54203080 54437064 54686976 54940940 55186836 55417040 
978.703 55630408 55831812 56029572 56231676 56442372 56661532 56886732 
982.078 57115064 57346912 57586424 57840248 58115104 58414580 58737272 
985.453 59077008 59424888 59772264 60113908 60449228 60783444 61123900 
988.828 61480516 61861884 62274360 62720812 63200832 63711128 64247592 
992.203 64806400 65385960 65987884 66615932 67275352 67970152 68701992 
995.578 69469152 70268712 71098904 71961760 72864360 73818024 74833224 
998.952 75914864 77057104 78242312 79443536 80630816 81779944 82879480 
1002.327 83935272 84968568 86012216 87103376 88276824 89561304 90978992 
1005.702 92547000 94280312 96194584 98306904 100635328 103198272 106014448 
1009.077 109103528 112489112 116201760 120281880 124780784 129757720 
1011.970 135273440 141378800 148099808 155419744 163262144 171478256 
1014.862 179842608 188061088 195795104 202698016 208462144 212864800 
1017.755 215803600 217311920 217552192 216784816 215328016 213513264 
1020.648 211645872 209979040 208699616 207926496 207717808 208083712 
1023.540 209001136 210427360 212311920 214603632 217254096 220219088 
1026.433 223457616 226931936 230608992 234462448 238475552 242643568 
1029.326 246973152 251480496 256185952 261108480 266260144 271643680 
1032.219 277249760 283059552 289045984 295177440 301419776 307738624 
1035.113 314098752 320463680 326793312 333041088 339152224 345063360 
1038.006 350704608 356005216 360900224 365338240 369285760 372728512 
1040.899 375669248 378120320 380096704 381609408 382661984 383249760 
1043.792 383361792 382985728 382112608 380741728 378886176 376575584 
1046.685 373858784 370802592 367487968 364002848 360434496 356860736 
1049.578 353344384 349930592 346648032 343512000 340529472 337701984 
1052.471 335029056 332508512 330137312 327912288 325831296 323895424 
1055.364 322110816 320489472 319051456 317822816 316837088 316134880 
1058.257 315765440 315786624 316265824 317277120 318897120 321199456 
1061.150 324249056 328096064 332774304 338299840 344673888 351884736 
1064.043 359910208 368720544 378279424 388546272 399478368 411033216 
1066.936 423171168 435854432 449046272 462706784 476788096 491231712 
1069.829 505967392 520915936 535993024 551114304 566198400 581169216 
1072.722 595955648 610491840 624717504 638579840 652033600 665041472 
1075.615 677573056 689601920 701103552 712054080 722428352 732201152 
1078.509 741345472 749827584 757604736 764622144 770814528 776111616 
1081.402 780448896 783775808 786060608 787289408 787461696 786584448 
1084.295 784669696 781740736 777839552 773035904 767429376 761144128 
1087.188 754316096 747074176 739527488 731755136 723808064 715713920 
1090.081 707487680 699139904 690683520 682136448 673521856 664867584 
1092.974 656204480 647565312 638981632 630478912 622073792 613768704 
1095.867 605550848 597393792 589262592 581118848 572928576 564665792 
1098.760 556315840 547872256 539334144 530702944 521977952 513156160 
1101.653 504232224 495202816 486070368 476846848 467558144 458243904 
1104.546 448957856 439764832 430737440 421952800 413489376 405425248 
1107.439 397836640 390794080 384360320 378587008 373512032 369157920 
1110.332 365532704 362631072 360437344 358926432 358065056 357809152 
1113.225 358103328 358879008 360056896 361550880 363274272 365147904 
1116.118 367106464 369102080 371103552 373095136 375070592 377030208 
1119.011 378977600 380918048 382857728 384802304 386753984 388707648 
1121.905 390648512 392550176 394376352 396084128 397627936 398962912 
1124.798 400045248 400831296 401275680 401331488 400953536 400105056 
1127.691 398765408 396935776 394640608 391923264 388837312 385436064 
1130.584 381762912 377847200 373702496 369328832 364716864 359851808 
1133.477 354716576 349294016 343570144 337536224 331191168 324543360 
1136.370 317610176 310416896 302994720 295378432 287606400 279721120 
1139.263 271771296 263812688 255907360 248120496 240515776 233149776 
1142.156 226067744 219302704 212876432 206803040 201094464 195763424 
1145.049 190827264 186305984 182220064 178586848 175415344 172705296 
1147.942 170444848 168613760 167186704 166137232 165441936 165081696 
1150.835 165041568 165307824 165864112 166688384 167750000 169012368 
1153.728 170435008 171979872 173616672 175326272 177100544 178939872 
1156.621 180847776 182825616 184869456 186970592 189118128 191304016 
1159.514 193526368 195791152 198110816 200500416 202974032 205542480 
1162.407 208214176 210998480 213909056 216968256 220207264 223664624 
1165.301 227382640 231404400 235771024 240522576 245700288 251349776 
1168.194 257524608 264286960 271706880 279859392 288819456 298656640 
1171.087 309429632 321180608 333931072 347677664 362388896 378004864 
1173.980 394434720 411555680 429210336 447201504 465288480 483182944 
1176.873 500552288 517029824 532235488 545804416 557416896 566824448 
1179.766 573866624 578477056 580677696 580566912 578305664 574102464 
1182.659 568198912 560854912 552336064 542901504 532794368 522235744 
1185.552 511422400 500524096 489684512 479020384 468622176 458554016 
1188.445 448856512 439550624 430644576 422139392 414035008 406334176 
1191.338 399043104 392170624 385724544 379709600 374124416 368961248 
1194.231 364206368 359840800 355842912 352190048 348860288 345834560 
1197.124 343097440 340638592 338451648 336533312 334880128 333486624 
1200.017 332342016 331430528 330731552 330221472 329876832 329676096 
1202.910 329599264 329627328 329739648 329912608 330118752 330326592 
1205.803 330504448 330621696 330652992 330578400 330383936 330060512 
1208.697 329601280 329001248 328255296 327358560 326307104 325099072 
1211.590 323736384 322224768 320573760 318796032 316905344 314915392 
1214.483 312837888 310683392 308462816 306188864 303876960 301546336 
1217.376 299217664 296910560 294639424 292412384 290230240 288088256 
1220.269 285980608 283903136 281855712 279842304 277869760 275944128 
1223.162 274068800 272242336 270460224 268716576 267005920 265324832 
1226.055 263672080 262046960 260448224 258873280 257318672 255782224 
1228.948 254265760 252776928 251329280 249940912 248631888 247420848 
1231.841 246323344 245350800 244511904 243814896 243268944 242884896 
1234.734 242674416 242648176 242812848 243169488 243713120 244434048 
1237.627 245320528 246360608 247543984 248861408 250303152 251856000 
1240.520 253500400 255209984 256951328 258687376 260380800 261997456 
1243.413 263509280 264893888 266133968 267214544 268122288 268844768 
1246.306 269374016 269710144 269865632 269866624 269752864 269571744 
1249.199 269372480 269197984 269079072 269032448 269061792 269161280 
1252.093 269321248 269532288 269788800 270090560 270441632 270848480 
1254.986 271318560 271857664 272468896 273150560 273898080 274703232 
1257.879 275556768 276450560 277379136 278341216 279337888 280370944 
1260.772 281439776 282538336 283654144 284768416 285858080 286897824 
1263.665 287861888 288724288 289458112 290034656 290422816 290591488 
1266.558 290511104 290157440 289512864 288567648 287318176 285764992 
1269.451 283911072 281760576 279319392 276596448 273603808 270357088 
1272.344 266874784 263176288 259281248 255210368 250985808 246632256 
1275.237 242177312 237650064 233078784 228487808 223896448 219318448 
1278.130 214763600 210241216 205762480 201341968 196997744 192749248 
1281.023 188613840 184605040 180731216 176996032 173400320 169944176 
1283.916 166628512 163455488 160428304 157549040 154818368 152234928 
1286.809 149795008 147494560 145329632 143297408 141395392 139621872 
1289.702 137974048 136448304 135039904 133743304 132552984 131462696 
1292.595 130465824 129554552 128719640 127950072 127234176 126560704 
1295.489 125920208 125306472 124716024 124149192 123608608 123098472 
1298.382 122624280 122191592 121805688 121469904 121184720 120946672 
1301.275 120747640 120575912 120417336 120258000 120086512 119895216 
1304.168 119680872 119443400 119184040 118903752 118601624 118274424 
1307.061 117917496 117525056 117091944 116614368 116090160 115518336 
1309.954 114898960 114231256 113512896 112739768 111905288 111002416 
1312.847 110024880 108971736 107848832 106671896 105466000 104262992 
1315.740 103097208 101998776 100989000 100077000 99258968 98522024 97848096 
1319.115 97219584 96622960 96050216 95497840 94964632 94449368 93949528 
1322.490 93461648 92982144 92510576 92049560 91606320 91190640 90813736 
1325.866 90485712 90215040 90006896 89865040 89791768 89789648 89861800 
1329.241 90012744 90247952 90573792 90996304 91520232 92148496 92880712 
1332.616 93713424 94639376 95647704 96724496 97852400 99011472 100180192 
1335.991 101336184 102458376 103529104 104534840 105467144 106322440 
1338.885 107100336 107802408 108431552 108992152 109490768 109937872 
1341.778 110348184 110740728 111137080 111558864 112025768 112553384 
1344.671 113153816 113835208 114604024 115465496 116423312 117479472 
1347.564 118632968 119878936 121209536 122614704 124083520 125605064 
1350.457 127168432 128761304 130369456 131975440 133560184 135104256 
1353.350 136591136 138008096 139347856 140605728 141778896 142863360 
1356.243 143854016 144745648 145534048 146220144 146809360 147312256 
1359.136 147742288 148112080 148432560 148711616 148955344 149169840 
1362.029 149362528 149542064 149715760 149886832 150049904 150190384 
1364.922 150284352 150301248 150207808 149970784 149560032 148949120 
1367.815 148116576 147046960 145733904 144183936 142420432 140486144 
1370.708 138443600 136371568 134359904 132503032 130893720 129617928 
1373.601 128750160 128350168 128458288 129092008 130242496 131872896 
1376.494 133920344 136299104 138907872 141637408 144378272 147027856 
1379.387 149494384 151699792 153579456 155081552 156166432 156805984 
1382.281 156983936 156695376 155946272 154751616 153133168 151118400 
1385.174 148739472 146033264 143041936 139811568 136390704 132827312 
1388.067 129165544 125443368 121691864 117936048 114195616 110486064 
1390.960 106819832 103206664 99655456 96175888 92780472 89486888 86317368 
1394.335 83296728 80448424 77790656 75333880 73080368 71027288 69169728 
1397.710 67503720 66027096 64738148 63633248 62705444 61944080 61337984 
1401.085 60879132 60566500 60408328 60420020 60621204 61028800 61651332 
1404.461 62484300 63506664 64680436 65951668 67252648 68505560 69627432 
1407.836 70535832 71156816 71432024 71325664 70828240 69957568 68755544 
1411.211 67281944 65606512 63801536 61935636 60069288 58252316 56523024 
1414.586 54908464 53424876 52079948 50873844 49802456 48858640 48033812 
1417.962 47318640 46702640 46174820 45723440 45337044 45006680 44726296 
1421.337 44494120 44311484 44181064 44105000 44081508 44104896 44164632 
1424.712 44247580 44341076 44435292 44525872 44614524 44709844 44824604 
1428.087 44975620 45181172 45459204 45826856 46298820 46887044 47599828 
1431.463 48441628 49413080 50512744 51737712 53086428 54560292 56164868 
1434.838 57909364 59805924 61867340 64106048 66532804 69158920 71996632 
1438.213 75061200 78370464 81943360 85795808 89936856 94365216 99066968 
1441.588 104015672 109174216 114496688 119930584 125419664 130903736 
1444.481 136322416 141615696 146725536 151597840 156183024 160436992 
1447.375 164323440 167816768 170904544 173589088 175885648 177816912 
1450.268 179406800 180673568 181626064 182264560 182582048 182569104 
1453.161 182215952 181513232 180450624 179017376 177203136 175002624 
1456.054 172420112 169473120 166190624 162608784 158763200 154684208 
1458.947 150395440 145917760 141275280 136499840 131631896 126717360 
1461.840 121800024 116917368 112096352 107354848 102705712 98160904 93735192 
1465.215 89446064 85312624 81352680 77582112 74014712 70661584 67531784 
1468.590 64631260 61961516 59517900 57289596 55260784 53412808 51726472 
1471.966 50182848 48763680 47451064 46226856 45073812 43976592 42923896 
1475.341 41909492 40931508 39989908 39084372 38212012 37367692 36545476 
1478.716 35741204 34954720 34189492 33451460 32744930 32070306 31421944 
1482.091 30790520 30165802 29540780 28914228 28291018 27679576 27089362 
1485.467 26526648 25993902 25490564 25015008 24567086 24149334 23766380 
1488.842 23422990 23122272 22863222 22641034 22448076 22275968 22117600 
1492.217 21968578 21827784 21696844 21579718 21482538 21411770 21374138 
1495.592 21375550 21419686 21507562 21638834 21812180 22028188 22291252 
1498.968 22609702 22994942 23458282 24006402 24637278 25336688 26077258 
1502.343 26820108 27517924 28120286 28578534 28852220 28913678 28753236 
1505.718 28381206 27827390 27136940 26363182 25559318 24770890 24030772 
1509.093 23359374 22765084 22248700 21805356 21427512 21106276 20831324 
1512.469 20592154 20379332 20185220 20005518 19840076 19690550 19559940 
1515.844 19450692 19362134 19291750 19235454 19188962 19149382 19115468 
1519.219 19086202 19060072 19033872 19002884 18962434 18909450 18845026 
1522.594 18774178 18704846 18646172 18605276 18585812 18587634 18606506 
1525.969 18636306 18670444 18702308 18726226 18737500 18732368 18708212 
1529.345 18664652 18603134 18527294 18442390 18353216 18263212 18174156 
1532.720 18086618 18000654 17917148 17838664 17768546 17710452 17665488 
1536.095 17632834 17608834 17588530 17567790 17544892 17521032 17499986 
1539.470 17486148 17482090 17487460 17498540 17508944 17511850 17501694 
1542.846 17475524 17433122 17376568 17309060 17234588 17156496 17078212 
1546.221 17002772 16933282 16872584 16822530 16784538 16758990 16744582 
1549.596 16739791 16741684 16748205 16756628 16765000 16771475 16775103 
1552.971 16775196 16771963 16766027 16758084 16749445 16741063 16734309 
1556.347 16730404 16730776 16737489 16752459 16776908 16811324 16854764 
1559.722 16905064 16959212 17014348 17068562 17121218 17172316 17222750 
1563.097 17272476 17320480 17364414 17401092 17427682 17442896 17447946 
1566.472 17446824 17445856 17452288 17473006 17513304 17575922 17661626 
1569.848 17769654 17898970 18049486 18222264 18419312 18642762 18893414 
1573.223 19169558 19465766 19773284 20080152 20372768 20637912 20864226 
1576.598 21044416 21175176 21257450 21294152 21289654 21247100 21168680 
1579.973 21055134 20907254 20727678 20522340 20301550 20079674 19873226 
1583.349 19697432 19563254 19473516 19422940 19398706 19382826 19358608 
1586.724 19313992 19244312 19153226 19050086 18946846 18853568 18775936 
1590.099 18714286 18665328 18624194 18587148 18553604 18525946 18508352 
1593.474 18505928 18521888 18557170 18610224 18677428 18754130 18835608 
1596.850 18919100 19004168 19093704 19194510 19316358 19470394 19666862 
1600.225 19911834 20206340 20544794 20916962 21310130 21712180 22114254 
1603.600 22511524 22903374 23291100 23675964 24057682 24433874 24799454 
1606.975 25148042 25472698 25765742 26019790 26227916 26384386 26485964 
1610.351 26532908 26529992 26485090 26408434 26309556 26194930 26067496 
1613.726 25925798 25767290 25589800 25394546 25186300 24973002 24763134 
1617.101 24564132 24380328 24212614 24060484 23922340 23797792 23687344 
1620.476 23592448 23514110 23452506 23406812 23375760 23357696 23351570 
1623.852 23355890 23369000 23388234 23410818 23434746 23459188 23485476 
1627.227 23516736 23555764 23603740 23657988 23713272 23762504 23800370 
1630.602 23825452 23842502 23860900 23892450 23947284 24030812 24141152 
1633.977 24269722 24403544 24528210 24631140 24703888 24743340 24751188 
1637.353 24732360 24694078 24643406 24586526 24527866 24469628 24411524 
1640.728 24351982 24289144 24222896 24155768 24093440 24043356 24013184 
1644.103 24008452 24031444 24080320 24149972 24234560 24328350 24426658 
1647.478 24526502 24625338 24720454 24809126 24889534 24961448 25026724 
1650.854 25089716 25155806 25230324 25317250 25418072 25533096 25663250 
1654.229 25809912 25976236 26165274 26378866 26614622 26866704 27125798 
1657.604 27382160 27627786 27859020 28076094 28282888 28484648 28686230 
1660.979 28891178 29102716 29324124 29560688 29818364 30104250 30423926 
1664.354 30779762 31170688 31591960 32037184 32498978 32970734 33447626 
1667.730 33925496 34401036 34871468 35335196 35792204 36243528 36692340 
1671.105 37142548 37598228 38062324 38537132 39023624 39521640 40030640 
1674.480 40548768 41073476 41601956 42131104 42659852 43188620 43721060 
1677.855 44261964 44816036 45386752 45973728 46573776 47181284 47790628 
1681.231 48398120 49002800 49606032 50210856 50819420 51433716 52054852 
1684.606 52684208 53324636 53980208 54656516 55358924 56092176 56860148 
1687.981 57667368 58520252 59427168 60398532 61443204 62567420 63770928 
1691.356 65049164 66395552 67805992 69283816 70841856 72501096 74286016 
1694.732 76219096 78316032 80584544 83027936 85651784 88471376 91515424 
1698.107 94826296 98453704 102447544 106849688 111689400 116986072 122754816 
1701.482 129016696 135806048 143175136 151190512 159926352 169454656 
1704.375 179838160 191124768 203345376 216514080 230628240 245666560 
1707.268 261587472 278325184 295790848 313876928 332463136 351422144 
1710.161 370620160 389914112 409143168 428122688 446645152 464486624 
1713.054 481420992 497234976 511742400 524794624 536292032 546193856 
1715.948 554529792 561403840 566984256 571479040 575100864 578028864 
1718.841 580386624 582240256 583612928 584510592 584943936 584937920 
1721.734 584528832 583756416 582655488 581255808 579588864 577697088 
1724.627 575637440 573476672 571277376 569084928 566918912 564775552 
1727.520 562642304 560511488 558392000 556310784 554301504 552392960 
1730.413 550597888 548913280 547328640 545840448 544461440 543225472 
1733.306 542180352 541377792 540862656 540670592 540832960 541386496 
1736.199 542380480 543878080 545948608 548655616 552046656 556147136 
1739.092 560965248 566500992 572756992 579740864 587461568 595916544 
1741.985 605077568 614883456 625241216 636034816 647137856 658421376 
1744.878 669754176 680996416 691992576 702570368 712550016 721761472 
1747.771 730061504 737342656 743530816 748572352 752422208 755035968 
1750.664 756374720 756415232 755158848 752630592 748869568 743911744 
1753.557 737778048 730472832 721993536 712350464 701579520 689750016 
1756.450 676959488 663320448 648947648 633950016 618433024 602502592 
1759.344 586271104 569859072 553390592 536985472 520753088 504789472 
1762.237 489176192 473982592 459264320 445061696 431394272 418259776 
1765.130 405635712 393488576 381785536 370505600 359646624 349221920 
1768.023 339251392 329746848 320702368 312089280 303860768 295961792 
1770.916 288340000 280954272 273774784 266779520 259947536 253252176 
1773.809 246659952 240133664 233639616 227151696 220655232 214145328 
1776.702 207621840 201086320 194537856 187975424 181401008 174824304 
1779.595 168265408 161754064 155324704 149010848 142839440 136827728 
1782.488 130983960 125311064 119810608 114487136 109349080 104408648 
1785.381 99680424 95179120 90917032 86903160 83141672 79629848 76358632 
1788.756 73313008 70474824 67826552 65355628 63056512 60928348 58971084 
1792.132 57178588 55535304 54015700 52590084 51233140 49931420 48687056 
1795.507 47515036 46434680 45458860 44586192 43799332 43069524 42366432 
1798.882 41667884 40966464 40269644 39594224 38957864 38371960 37838444 
1802.257 37350608 36897388 36467096 36049588 35637584 35223584 34799964 
1805.633 34359152 33897052 33414126 32918818 32424122 31945332 31494218 
1809.008 31076234 30689678 30327976 29984322 29654526 29337848 29035146 
1812.383 28746224 28465916 28185682 27896250 27592388 27279022 26971344 
1815.758 26694242 26473656 26330620 26272432 26290736 26361924 26453400 
1819.134 26531032 26565684 26537488 26436484 26260892 26014706 25705168 
1822.509 25341094 24933170 24495342 24045190 23604894 23199050 22851960 
1825.884 22582020 22396430 22286172 22225930 22176926 22096130 21945594 
1829.259 21703504 21369928 20966150 20528010 20094424 19696122 19349810 
1832.635 19056326 18807072 18590294 18399202 18234176 18100324 18003056 
1836.010 17941210 17904350 17873448 17825470 17739364 17601280 17406794 
1839.385 17162376 16881976 16584784 16292155 16024999 15800614 15629454 
1842.760 15511897 15436880 15383003 15323742 15235302 15104958 14933692 
1846.135 14735959 14534121 14347743 14188476 14055452 13939206 13828776 
1849.511 13717865 13610775 13519481 13458018 13433954 13442568 13466289 
1852.886 13480032 13460810 13394985 13282659 13136808 12975787 12816027 
1856.261 12667087 12529467 12399424 12272770 12149756 12034509 11933474 
1859.636 11849340 11778743 11711241 11635137 11542671 11435899 11327209 
1863.012 11236878 11184006 11180012 11220297 11287358 11353264 11391182 
1866.387 11382839 11325561 11232311 11126662 11034400 10976053 10960177 
1869.762 10982659 11029145 11080681 11118673 11129583 11107044 11051915 
1873.137 10970778 10875829 10782098 10706961 10665210 10666253 10708483 
1876.513 10776565 10841598 10866445 10815389 10666562 10420453 10106451 
1879.888 9776336 9494025 9317175 9281924 9392019 9618727 9910079 10203070 
1883.745 10442073 10590378 10632184 10571818 10426059 10216971 9966637 
1887.121 9696828 9429183 9186984 8991610 8860967 8801529 8807130 8858634 
1890.978 8931133 8999872 9051283 9084907 9112589 9152779 9220721 9321711 
1894.835 9448544 9581750 9696677 9769456 9783898 9733905 9625554 9474218 
1898.693 9302344 9134873 8995792 8901211 8857957 8860841 8894295 8938786 
1902.550 8978713 9008587 9038926 9087837 9174802 9306307 9467656 9619787 
1906.408 9710090 9687041 9521281 9218100 8820609 8398896 8032883 7787175 
1910.265 7696572 7759156 7941448 8193081 8463669 8712319 8914011 9056942 
1914.123 9136934 9154692 9114658 9027509 8913307 8801184 8725154 8713095 
1917.980 8778606 8912316 9084357 9247578 9351921 9356328 9238588 8997051 
1921.837 8653286 8242015 7805402 7387380 7025086 6743167 6553751 6450993 
1925.695 6417375 6425670 6448635 6465756 6469241 6464486 6465908 6486655 
1929.552 6533441 6599137 6669448 6726060 6758447 6770071 6775763 6795725 
1933.410 6843208 6919788 7014314 7110900 7203018 7302177 7440425 7652582 
1937.267 7962281 8357445 8782255 9148912 9359775 9343581 9085882 8631087 
1941.125 8076828 7532264 7082647 6759488 6536656 6348352 6128594 5847541 
1944.982 5526615 5239897 5082201 5130369 5410556 5881774 6448949 6988727 
1948.839 7393164 7596926 7600564 7461362 7277325 7157456 7194701 7440812 
1952.697 7896841 8503862 9160751 9738105 10108816 10177454 9909184 9338540 
1956.554 8566554 7729780 6968487 6382395 6014725 5845617 5816856 5858499 
1960.412 5923643 5995564 6077538 6167745 6238551 6231502 6075523 5718703 
1964.269 5167569 4491847 3819338 3285821 2990957 2961611 3145028 3430874 
1968.126 3702940 3876609 3934972 3923283 3923587 4017688 4259107 4648012 
1971.984 5145861 5686146 6194180 6601086 6851861 6915587 6797431 6548971 
1975.841 6284503 6166061 6372291 7034698 8182654 9699333 11346035 12823877 
1979.699 13867449 14313932 14146280 13469562 12477968 11386881 10388262 
1983.074 9598454 9060398 8749502 8609959 8584484 8631552 8732082 8884140 
1986.931 9084064 9324865 9586291 9838995 10049690 10182834 10197710 10049260 
1990.789 9685085 9055167 8127251 6908606 5461503 3913289 2446848 1271091 
1994.646 573961 473099 976869 1972681 3235872 4480497 5415642 5820923 
1998.504 5579449 4721262 3397170 1848456 347239 -862006 -1605831 -1803154 
2002.361 -1476007 -717178 327024 1496344 2640624 3634735 4398050 4899050 
2006.219 5161634 5240930 5211748 5135513 5029601 4866229 4581548 4112567 
2010.076 3432308 2572313 1621561 705805 -66060 -630684 -993783 -1214621 
2013.933 -1373286 -1520272 -1658842 -1734947 -1674435 -1425155 -997690 
2017.309 -463067 59502 464336 697633 788194 827900 932553 1175560 1562906 
2021.648 2009079 2385822 2563539 2466879 2094462 1508981 797247 26234 
2025.506 -792076 -1688272 -2718063 -3902137 -5203858 -6510881 -7657774 
2028.881 -8470162 -8821126 -8654017 -8010293 -6998456 -5772573 -4485927 
2032.256 -3266558 -2191725 -1295295 -566361 26824 521259 947148 1320283 
2036.114 1641777 1911942 2131032 2315826 2495803 2709369 2983954 3329429 
2039.971 3723186 4121378 4469439 4733884 4912336 5047281 5202124 5436349 
2043.828 5769297 6171888 6559493 6837975 6933920 6846255 6647798 6470474 
2047.686 6448148 6661180 7085000 7589399 7981459 8080527 7790000 7138412 
2051.543 6269291 5399722 4754951 4498775 4684068 5234265 5960669 6626406 
2055.401 7020003 7027348 6654958 6023030 5315890 4720286 4369624 4314099 
2059.258 4516076 4885466 5308395 5695029 5995240 6203450 6341614 6438770 
2063.115 6512362 6566365 6588361 6570880 6515831 6444078 6387876 6381646 
2066.973 6445970 6579329 6756950 6934617 7064660 7108532 7048807 6896083 
2070.830 6686629 6477059 6327717 6290192 6388413 6612895 6917711 7232675 
2074.688 7478648 7593608 7548004 7357635 7072488 6766913 6511081 6351437 
2078.545 6298886 6332464 6410743 6495521 6564028 6622291 6696217 6822096 
2082.403 7027734 7320401 7680682 8066838 8426706 8709464 8878009 8917049 
2086.260 8834790 8660423 8434006 8200839 7995825 7839414 7727354 7634947 
2090.117 7524140 7357988 7114419 6800910 6454067 6137698 5922009 5869407 
2093.975 6014406 6358493 6869371 7494720 8173827 8848138 9466041 9978763 
2097.832 10338317 10499269 10425924 10106646 9564796 8863294 8094595 7365424 
2101.690 6770133 6373356 6197065 6225006 6410520 6694886 7015869 7318619 
2105.547 7554990 7689284 7697166 7576722 7348891 7064422 6792511 6608525 
2109.405 6571459 6708719 7006339 7415301 7866396 8291866 8639161 8881349 
2113.262 9008945 9022953 8922582 8702776 8356742 7890341 7326572 6712874 
2117.119 6111313 5585470 5180502 4910446 4753961 4665753 4589230 4477591 
2120.977 4304064 4070267 3796325 3514009 3251769 3027812 2843121 2682738 
2124.834 2517227 2309948 2019326 1610731 1060536 367699 -446698 -1337992 
2128.692 -2252190 -3135668 -3955120 -4706461 -5412690 -6111686 -6838023 
2132.067 -7602025 -8379818 -9112948 -9725941 -10148260 -10339399 -10296964 
2135.442 -10059819 -9690571 -9266836 -8862210 -8547530 -8385918 -8436535 
2138.817 -8737047 -9295105 -10063360 -10939541 -11774606 -12411563 -12728481 
2142.193 -12689266 -12360193 -11898710 -11506027 -11361254 -11554294 
2145.086 -12055497 -12721604 -13347300 -13738478 -13785372 -13495373 
2147.979 -12994065 -12479402 -12158419 -12181462 -12616908 -13432652 
2150.872 -14536463 -15805589 -17125650 -18408714 -19612318 -20717576 
2153.765 -21733216 -22670612 -23540872 -24344420 -25061984 -25637460 
2156.658 -25987558 -25995034 -25537032 -24528192 -22959170 -20921844 
2159.551 -18602876 -16224563 -13990469 -12038115 -10436477 -9206821 -8360241 
2162.926 -7908627 -7866178 -8231593 -8962408 -9956392 -11056630 -12071493 
2166.302 -12823855 -13182858 -13097634 -12592419 -11768492 -10758932 
2169.195 -9720592 -8793450 -8097406 -7717086 -7697824 -8030752 -8650988 
2172.570 -9434665 -10216969 -10816741 -11078449 -10911278 -10323554 -9416899 
2175.945 -8375348 -7404019 -6685960 -6325265 -6336844 -6650055 -7139283 
2179.320 -7658272 -8074168 -8285861 -8227241 -7861525 -7174875 -6175508 
2182.696 -4900426 -3417167 -1847093 -341431 928820 1811448 2205668 2089860 
2186.553 1526347 656074 -350870 -1320635 -2126420 -2702147 -3039404 -3173577 
2190.410 -3157567 -3035768 -2839486 -2586805 -2291339 -1968679 -1637279 
2193.786 -1309828 -980305 -617894 -176579 387612 1085397 1883389 2695468 
2197.643 3410159 3925084 4188206 4215323 4089987 3921208 3806844 3782200 
2201.500 3809098 3786274 3592905 3142569 2426167 1522812 587832 -197221 
2205.358 -678419 -775769 -502214 38386 685202 1266008 1644093 1747965 
2209.215 1595320 1287055 982859 861518 1080535 1723681 2782456 4145336 
2213.073 5623731 6996737 8069549 8715832 8910146 8719404 8280874 7755067 
2216.930 7286900 6970521 6846141 6897005 7073262 7309346 7537062 7698783 
2220.788 7756009 7691666 7516383 7264124 6985042 6728321 6526444 6381047 
2224.645 6271068 6162241 6036610 5909529 5836737 5897910 6166688 6669547 
2228.502 7370837 8165063 8914504 9484870 9795552 9836421 9671118 9401453 
2232.360 9130328 8924342 8804400 8748570 8720431 8688319 8640951 8584447 
2236.217 8527846 8468534 8385346 8244631 8021326 7711547 7348214 6992333 
2240.075 6714299 6572236 6593609 6763803 7039065 7359215 7671666 7941559 
2243.932 8162384 8349600 8535056 8747199 9007764 9315097 9644607 9947740 
2247.790 10160336 10218968 10081057 9736318 9221334 8609976 7997383 7476079 
2251.647 7109619 6921073 6894445 6992003 7175803 7424806 7743845 8149004 
2255.504 8653338 9245668 9885806 10509928 11049231 11450160 11691330 
2258.880 11782826 11758065 11659116 11522927 11373967 11229137 11100633 
2262.255 11005293 10962150 10987765 11085751 11247372 11447042 11656556 
2265.630 11854350 12034632 12207191 12390425 12598347 12833578 13078863 
2269.005 13309529 13499103 13635030 13720836 13774337 13818244 13870796 
2272.381 13935361 14005149 14066794 14112571 14143618 14174524 14226778 
2275.756 14319142 14458003 14635831 14828393 15006895 15142812 15220459 
2279.131 15240934 15225749 15208332 15231499 15331734 15532909 15836077 
2282.506 16218793 16639654 17046940 17392486 17643368 17787894 17837286 
2285.882 17815220 17750108 17664534 17570518 17469530 17359254 17238290 
2289.257 17110656 16983988 16865848 16757704 16654467 16544944 16418941 
2292.632 16271435 16110221 15949737 15808439 15697533 15617252 15554016 
2296.007 15487900 15400121 15283799 15146339 15008842 14896116 14828580 
2299.383 14813595 14842610 14893762 14941842 14962308 14940749 14873732 
2302.758 14768669 14641815 14515311 14413163 14360561 14376967 14475068 
2306.133 14654158 14899360 15183836 15472855 15733181 15941065 16086493 
2309.508 16172823 16212910 16224384 16219990 16208429 16191650 16171124 
2312.884 16150586 16138533 16147817 16193572 16288528 16439596 16646834 
2316.259 16902344 17193086 17502074 17811514 18107022 18380278 18633374 
2319.634 18879424 19140364 19439024 19787924 20177972 20571234 20903366 
2323.009 21094584 21069954 20779612 20213252 19405954 18430022 17381564 
2326.385 16360713 15452802 14714320 14167293 13797840 13568806 13430366 
2329.760 13334045 13243794 13139039 13015865 12881311 12749376 12634386 
2333.135 12548243 12499170 12489384 12517178 12577335 12662045 12762232 
2336.510 12868352 12971623 13065218 13142143 13198539 13231331 13240260 
2339.885 13226417 13192300 13141748 13079391 13009544 12936137 12863176 
2343.261 12794825 12736124 12692973 12669940 12670895 12694904 12736711 
2346.636 12784991 12826203 12846326 12835176 12790219 12716874 12628526 
2350.011 12541809 12472561 12430333 12414272 12413503 12408239 12378271 
2353.386 12306149 12187041 12027959 11850446 11682048 11550786 11476095 
2356.762 11464071 11505119 11577625 11654985 11712227 11731697 11707842 
2360.137 11643242 11546663 11427195 11291865 11143208 10982407 10810882 
2363.512 10633304 10457266 10293530 10151832 10038030 9954670 9899304 
2366.887 9868382 9859386 9872086 9910224 9977303 10075010 10200124 10343626 
2370.745 10491332 10626019 10730920 10793622 10807493 10774251 10703570 
2374.120 10612835 10523343 10458147 10435702 10466370 10547083 10662610 
2377.495 10787426 10893118 10956890 10969386 10937111 10882749 10836176 
2380.871 10826893 10871981 10974114 11118340 11279245 11429461 11547809 
2384.246 11624837 11663625 11677013 11682170 11694605 11723201 11770764 
2387.621 11832030 11896047 11950322 11980520 11975731 11928962 11841721 
2390.996 11724565 11596399 11480858 11399821 11368292 11388141 11448813 
2394.372 11530209 11610758 11675537 11720512 11755230 11795986 11860054 
2397.747 11955493 12079111 12214450 12338520 12428376 12468777 12453494 
2401.122 12387242 12280628 12146606 11997409 11845195 11701718 11580591 
2404.497 11495838 11459795 11479660 11553692 11671295 11815814 11970172 
2407.873 12120173 12257822 12380037 12485429 12569456 12623296 12636008 
2411.248 12598913 12511184 12383633 12237528 12096965 11982248 11903498 
2414.623 11857165 11829346 11804027 11770358 11729066 11690997 11673406 
2417.998 11690315 11745477 11829516 11921702 11997876 12036524 12029267 
2421.374 11981270 11910128 11840259 11794395 11786268 11817036 11873243 
2424.749 11929391 11954845 11921375 11811475 11623743 11377195 11107686 
2428.124 10861791 10683239 10605770 10641537 10781429 10995928 11247105 
2431.499 11496159 11714570 11886083 12007466 12082260 12118995 12122620 
2434.875 12098745 12051110 11985501 11909747 11833069 11762980 11703321 
2438.250 11653932 11611879 11572096 11535403 11504828 11488053 11493183 
2441.625 11525221 11585328 11667227 11760620 11851766 11926577 11971685 
2445.000 11976423 11935274 11847151 11720562 11571237 11422284 11299194 
2448.375 11222714 11203690 11240093 11316875 11411414 11501399 11571069 
2451.751 11614404 11635416 11643620 11649440 11659786 11676874 11699808 
2455.126 11727436 11759269 11795395 11834991 11874603 11905834 11919699 
2458.501 11907048 11864400 11796525 11712644 11626260 11550237 11491828 
2461.876 11452854 11429701 11417422 11409512 11401350 11387900 11364956 
2465.252 11327143 11271317 11197885 11111627 11022042 10940354 10874255 
2468.627 10826229 10790165 10756569 10716676 10667674 10616011 10575078 
2472.002 10559111 10578460 10633398 10715428 10811566 10909657 11004894 
2475.377 11098930 11195749 11297252 11394246 11468634 11496255 11458077 
2478.753 11347756 11177643 10978856 10791564 10654867 10595003 10619896 
2482.128 10717143 10861044 11020064 11165198 11275725 11342217 11365302 
2485.503 11354275 11323850 11290831 11268792 11265813 11281742 11306837 
2488.878 11325859 11322722 11287401 11218885 11128255 11034842 10959333 
2492.254 10916577 10911347 10938657 10986174 11042063 11099309 11157580 
2495.629 11224652 11308295 11414214 11542172 11684999 11832085 11972798 
2499.004 12099099 12207204 12296175 12365413 12412635 12432549 12419434 
2502.379 12367403 12276187 12150468 12002154 11849022 11711453 11607747 
2505.755 11550151 11540622 11570126 11621550 11672409 11704303 11707729 
2509.130 11683344 11643062 11601591 11569014 11545254 11519215 11473650 
2512.505 11395264 11282446 11150497 11027937 10946321 10928726 10978383 
2515.880 11078076 11196013 11299257 11365385 11390575 11386854 11375797 
2519.256 11372237 11380151 11387560 11374380 11324311 11231511 11107619 
2522.631 10976433 10865389 10795689 10774697 10797872 10851306 10919294 
2526.006 10989173 11052911 11105002 11139437 11150106 11132430 11089441 
2529.381 11034923 10993087 10991878 11053429 11183717 11368734 11576320 
2532.757 11767397 11906312 11973585 11970174 11914128 11833953 11757316 
2536.132 11705963 11691030 11714405 11771017 11852810 11947990 12043892 
2539.507 12127161 12186644 12216701 12219872 12206608 12192064 12189778 
2542.882 12206827 12239476 12277163 12307703 12324957 12334199 12349414 
2546.258 12390742 12471849 12594565 12746111 12901578 13032434 13116514 
2549.633 13144214 13119853 13059140 12983100 12911911 12862426 12845606 
2553.008 12868311 12932798 13034809 13163247 13301252 13427160 13520639 
2556.383 13569058 13571789 13541758 13497814 13459777 13439232 13435926 
2559.759 13438630 13432232 13405223 13356559 13297483 13247155 13226276 
2563.134 13251110 13327438 13450061 13607234 13781694 13957451 14118574 
2566.509 14252478 14348885 14401472 14409949 14380418 14325955 14263198 
2569.884 14207577 14167289 14143636 14129291 14117100 14103002 14093991 
2573.260 14105094 14156270 14264308 14434001 14655307 14903547 15148384 
2576.635 15361428 15524372 15633184 15695708 15725931 15736062 15731294 
2580.010 15710047 15666511 15595124 15498305 15386890 15279170 15194756 
2583.385 15148313 15144112 15173322 15217907 15257215 15273432 15260732 
2586.760 15225267 15183269 15154206 15153466 15184020 15236674 15290824 
2590.136 15323073 15314355 15257854 15161565 15045662 14934949 14853720 
2593.511 14817387 14831203 14890661 14985952 15105343 15237861 15375854 
2596.886 15511467 15638068 15749112 15839072 15904710 15945043 15962677 
2600.261 15959786 15938973 15901806 15851168 15792290 15735494 15695380 
2603.637 15687002 15720705 15796157 15901493 16012738 16104678 16156277 
2607.012 16159702 16122647 16064275 16008163 15972901 15965505 15981261 
2610.387 16006757 16027696 16034694 16026858 16011382 15998974 15999906 
2613.762 16020337 16061945 16124127 16205326 16303608 16416537 16539365 
2617.138 16662072 16773311 16860914 16916680 16939520 16934886 16912366 
2620.513 16881020 16845612 16805344 16756330 16696900 16631801 16573209 
2623.888 16539123 16546924 16605470 16710462 16844726 16981352 17094628 
2627.263 17166870 17193616 17184658 17160582 17143920 17153080 17196916 
2630.639 17272182 17368722 17470348 17560598 17628386 17667138 17678974 
2634.014 17670686 17653620 17641160 17645540 17675024 17733078 17817066 
2637.389 17920974 18034872 18149710 18257844 18354386 18437108 18504658 
2640.764 18556236 18591282 18608018 18605456 18583132 18542464 18485144 
2644.140 18413998 18332064 18244224 18155290 18072032 18001748 17950512 
2647.515 17922060 17916236 17927788 17948434 17967484 17976548 17969026 
2650.890 17943482 17902132 17848192 17786908 17721770 17654826 17586966 
2654.265 17518640 17450382 17383260 17318446 17257178 17200270 17149602 
2657.641 17105526 17067604 17033600 16997796 16952144 16886086 16790314 
2661.016 16658731 16491875 16297704 16089894 15885180 15698584 15539950 
2664.391 15412323 15312216 15231860 15163381 15101410 15043632 14991831 
2667.766 14947442 14912624 14887463 14870806 14861126 14858345 14862731 
2671.142 14875095 14894458 14916783 14934902 14940738 14925306 14884028 
2674.517 14818138 14733560 14640252 14549339 14470698 14409998 14369123 
2677.892 14346741 14340968 14348041 14365993 14392399 14424571 14458639 
2681.267 14489482 14511702 14521148 14515390 14493965 14460557 14419758 
2684.643 14377499 14340545 14314025 14301998 14306459 14327050 14359188 
2688.018 14396207 14428549 14445931 14439859 14405903 14346670 14270360 
2691.393 14190236 14121191 14075597 14058705 14068537 14095808 14126157 
2694.768 14146216 14145766 14121809 14077140 14019796 13959267 13904691 
2698.144 13862217 13835831 13828351 13842495 13880997 13945860 14036014 
2701.519 14146139 14264558 14376958 14467191 14522366 14537203 14512761 
2704.894 14457736 14384181 14304432 14227386 14157754 14096458 14042767 
2708.269 13997409 13962486 13942625 13942380 13965217 14010506 14073996 
2711.645 14146966 14220417 14284077 14330746 14355956 14358960 14342208 
2715.020 14310796 14271536 14232357 14199630 14179463 14174601 14186228 
2718.395 14211717 14246877 14286700 14324898 14356358 14377333 14386363 
2721.770 14383342 14371192 14354562 14338746 14328682 14328567 14338964 
2725.146 14357950 14381330 14403624 14420435 14428565 14427640 14418570 
2728.521 14403002 14383947 14364337 14347191 14337271 14339804 14360563 
2731.896 14403041 14466249 14543135 14622623 14689942 14731606 14740811 
2735.271 14717899 14671585 14617081 14570178 14542910 14541431 14563462 
2738.646 14600749 14641354 14673339 14687317 14678871 14647435 14598147 
2742.022 14538730 14480765 14435934 14414461 14422882 14461129 14522584 
2745.397 14593917 14659753 14705714 14723593 14712169 14678529 14634646 
2748.772 14592774 14561219 14542838 14533304 14524692 14509428 14482813 
2752.147 14446585 14407299 14376036 14362764 14375804 14416195 14479878 
2755.523 14556065 14631910 14692529 14726819 14728098 14695709 14635458 
2758.898 14558163 14477702 14408136 14361597 14345036 14360316 14403203 
2762.273 14463700 14529228 14587271 14627725 14645020 14639877 14618224 
2765.648 14590723 14567756 14557307 14563089 14581683 14606226 14627710 
2769.024 14638619 14636056 14622255 14604175 14589801 14587046 14599807 
2772.399 14628937 14671378 14724249 14783934 14847175 14911558 14973733 
2775.774 15028480 15069649 15090898 15088953 15065108 15025594 14980849 
2779.149 14942802 14921989 14924860 14952724 15002243 15066805 15138388 
2782.525 15209723 15276414 15335191 15386241 15430203 15469229 15504250 
2785.900 15535168 15560396 15577116 15582711 15577922 15566767 15557106 
2789.275 15559981 15585046 15636811 15710885 15794454 15869057 15916601 
2792.650 15926005 15897436 15843354 15785031 15745450 15741227 15778096 
2796.026 15850455 15943872 16041644 16130630 16205275 16267359 16323172 
2799.401 16377874 16433725 16487151 16531471 16559912 16569722 16562505 
2802.776 16545586 16527908 16519547 16526438 16550567 16589401 16637390 
2806.151 16688414 16735589 16774388 16803488 16825240 16844640 16868950 
2809.527 16904882 16957626 17027576 17110964 17200334 17287570 17365672 
2812.902 17432268 17489156 17541428 17594564 17652172 17714532 17779286 
2816.277 17842542 17902510 17960606 18020996 18089748 18170850 18264116 
2819.652 18365484 18465750 18554392 18623042 18666660 18687698 18693550 
2823.028 18696458 18710578 18748256 18816646 18916330 19038966 19169648 
2826.403 19289726 19381886 19435726 19450746 19438262 19417294 19409270 
2829.778 19430198 19485810 19569176 19663246 19747722 19806202 19831988 
2833.153 19830690 19816318 19806900 19817050 19853354 19913252 19987498 
2836.529 20064828 20135976 20196068 20246432 20292320 20340610 20398202 
2839.904 20471306 20565684 20685654 20833536 21009068 21206616 21417294 
2843.279 21629042 21829572 22012938 22179212 22337114 22499892 22682144 
2846.654 22893884 23136000 23401414 23674860 23940666 24184376 24398654 
2850.030 24582888 24742932 24887142 25023896 25158210 25291514 25421982 
2853.405 25545362 25658464 25759740 25850622 25936230 26024186 26122708 
2856.780 26240806 26383602 26553164 26746698 26957460 27175878 27392370 
2860.155 27600156 27794956 27976466 28148760 28317436 28488230 28667652 
2863.531 28861812 29077436 29320276 29595218 29905718 30250338 30623402 
2866.906 31015488 31415128 31812892 32205440 32596194 32997348 33424832 
2870.281 33894140 34415296 34989092 35605228 36244304 36881568 37493264 
2873.656 38060100 38570916 39023628 39424060 39783520 40113688 40424064 
2877.031 40719052 40994700 41239744 41438084 41571444 41625152 41592672 
2880.407 41478972 41300232 41081616 40849736 40628184 40429080 40254112 
2883.782 40092736 39930524 39752688 39551644 39329644 39098436 38876760 
2887.157 38684156 38537588 38448112 38419500 38449600 38530448 38651820 
2890.532 38800296 38963072 39128280 39285752 39430944 39564712 39692212 
2893.908 39821140 39958536 40107284 40266392 40427648 40580852 40716568 
2897.283 40828456 40915480 40981216 41031692 41074240 41114228 41155412 
2900.658 41199880 41248748 41303680 41365200 41432488 41502584 41570132 
2904.033 41628344 41671264 41695688 41701812 41694108 41680816 41670508 
2907.409 41671548 41691300 41734472 41805044 41905632 42038256 42203128 
2910.784 42399796 42625080 42873228 43138276 43411948 43685976 43953140 
2914.159 44206744 44444184 44666828 44882980 45104832 45348632 45629224 
2917.534 45955964 46327924 46733412 47153308 47565652 47953432 48309788 
2920.910 48639612 48957244 49278784 49615804 49970440 50333564 50690940 
2924.285 51028264 51338932 51629592 51917176 52225004 52575768 52984560 
2927.660 53455012 53979240 54541100 55123764 55712052 56299768 56888356 
2931.035 57488368 58116896 58794672 59542956 60380252 61321648 62375004 
2934.411 63542068 64820744 66204160 67686416 69262384 70929152 72684016 
2937.786 74523360 76438984 78416584 80435816 82469672 84487000 86454968 
2941.161 88341344 90115104 91751296 93231080 94542944 95683296 96654272 
2944.536 97461280 98109088 98599208 98928080 99090784 99084312 98911664 
2947.912 98586552 98132920 97581072 96962568 96304016 95622640 94925080 
2951.287 94210760 93474952 92714728 91932112 91135664 90337976 89554208 
2954.662 88797832 88079112 87403440 86770760 86175512 85609872 85063360 
2958.037 84527376 83994904 83464784 82939328 82424576 81924720 81440472 
2961.413 80965880 80488896 79993976 79467248 78900592 78294352 77657840 
2964.788 77004864 76349944 75703584 75068808 74443632 73820840 73191816 
2968.163 72549264 71889160 71210056 70516344 69813656 69112768 68426896 
2971.538 67771176 67158192 66595928 66085248 65618760 65183716 64767308 
2974.914 64361692 63968600 63599012 63271472 63003228 62807456 62686720 
2978.289 62633992 62634916 62674164 62741308 62832720 62953808 63117168 
2981.664 63335560 63623996 63992024 64448020 64995892 65638272 66373900 
2985.039 67201736 68116848 69112944 70181744 71314376 72502872 73737768 
2988.415 75008528 76304008 77608848 78904984 80171696 81386776 82525816 
2991.790 83564392 84477480 85240264 85830920 86231560 86433296 86436296 
2995.165 86251368 85897608 85398936 84780000 84061408 83257640 82376864 
2998.540 81423664 80400784 79311560 78161464 76957936 75708688 74421392 
3001.916 73100800 71751480 70376168 68976608 67555568 66117012 64665160 
3005.291 63206112 61747204 60297824 58867728 57467196 56103604 54782500 
3008.666 53503844 52263612 51054352 49866340 48690752 47521836 46358260 
3012.041 45204152 44067512 42958544 41888612 40866716 39897612 38982840 
3015.417 38118408 37297772 36513036 35755344 35018488 34297824 33590780 
3018.792 32897014 32216016 31550008 30901344 30273390 29671844 29102636 
3022.167 28570838 28080218 27631876 27222816 26848426 26501218 26173722 
3025.542 25858278 25547910 25237318 24922512 24601750 24275760 23948822 
3028.917 23626152 23314192 23018240 22740550 22481624 22240232 22017710 
3032.293 21816500 21644268 21506730 21407270 21340890 21294006 21246598 
3035.668 21177914 21074970 20938374 20783446 20636972 20526560 20472862 
3039.043 20480716 20538174 20620408 20697560 20746076 20753156 20718770 
3042.418 20652632 20569172 20479440 20391124 20307186 20228348 20156148 
3045.794 20093970 20044996 20012912 19998448 20000282 20014620 20037784 
3049.169 20067210 20100540 20133988 20161492 20174838 20165298 20128648 
3052.544 20069710 20000992 19941502 19911782 19924274 19979516 20065398 
3055.919 20158612 20233868 20270892 20260104 20203634 20114740 20009886 
3059.295 19906030 19815526 19745168 19696920 19669762 19659784 19662980 
3062.670 19674626 19692246 19715436 19747180 19794086 19862242 19955060 
3066.045 20069986 20193820 20307702 20390560 20425248 20405128 20334926 
3069.420 20230114 20111240 19996050 19896534 19815688 19752276 19701862 
3072.796 19662594 19634988 19620708 19620166 19631310 19647930 19663628 
3076.171 19674882 19682930 19693570 19713728 19745384 19783154 19812446 
3079.546 19815138 19774328 19683578 19548164 19387758 19227318 19092748 
3082.921 19002176 18963184 18971228 19014926 19077822 19144780 19201496 
3086.297 19236444 19239552 19204688 19128400 19013906 18871256 18715708 
3089.672 18564800 18434830 18333896 18263460 18215014 18176422 18134494 
3093.047 18080608 18011958 17933004 17852472 17782514 17733532 17714260 
3096.422 17727932 17774674 17848880 17942668 18045444 18147314 18240068 
3099.798 18317862 18377352 18417394 18436298 18432702 18403894 18349856 
3103.173 18273084 18181284 18085914 18001888 17940980 17909984 17909010 
3106.548 17930354 17961408 17991010 18010498 18017782 18014938 18007708 
3109.923 18000686 17997422 17996764 17996522 17992834 17983186 17964338 
3113.299 17933044 17885956 17819198 17729734 17618600 17491444 17358820 
3116.674 17234536 17131976 17057846 17012678 16987684 16969592 16943538 
3120.049 16900206 16837704 16762517 16687732 16629575 16601037 16609048 
3123.424 16652469 16724193 16809574 16894452 16966366 17018376 17050158 
3126.800 17065484 17071470 17073162 17070650 17058162 17024680 16960314 
3130.175 16859600 16727781 16583119 16453136 16367860 16352313 16416712 
3133.550 16554167 16738774 16935758 17109902 17234254 17296882 17302806 
3136.925 17267150 17210112 17149170 17092418 17040078 16985192 16918806 
3140.301 16835344 16735215 16624527 16514024 16415609 16337305 16282897 
3143.676 16248085 16224854 16200457 16164033 16107982 16030820 15938347 
3147.051 15842158 15755549 15691809 15658863 15659047 15688254 15739009 
3150.426 15803503 15875623 15950518 16026491 16100064 16165627 16214825 
3153.802 16237397 16223593 16169593 16076654 15953651 15814014 15674453 
3157.177 15549357 15451638 15389871 15370527 15395524 15464885 15572713 
3160.552 15710024 15861481 16010454 16140727 16240306 16304284 16334137 
3163.927 16335564 16314181 16274013 16215365 16138239 16046867 15951226 
3167.302 15870322 15826127 15839154 15918776 16059188 16237915 16422242 
3170.678 16576983 16674789 16703807 16669115 16587812 16484572 16381204 
3174.053 16295046 16233988 16202392 16200701 16230950 16293686 16387230 
3177.428 16504880 16633125 16753642 16848296 16901820 16909824 16876440 
3180.803 16812752 16732831 16649047 16566951 16487820 16410168 16332705 
3184.179 16256720 16186265 16125830 16077658 16039722 16006369 15971832 
3187.554 15933864 15896957 15870720 15868846 15900856 15967404 16058572 
3190.929 16154695 16233521 16276954 16278876 16245479 16193982 16144825 
3194.304 16114928 16110934 16128894 16157145 16183367 16200596 16210221 
3197.680 16221132 16245771 16291538 16359845 16441902 16524203 16592581 
3201.055 16638013 16660808 16668148 16671946 16683374 16708547 16748235 
3204.430 16799112 16856022 16914026 16970650 17022024 17063412 17085878 
3207.805 17078228 17031726 16943134 16819224 16676774 16537955 16424078 
3211.181 16349144 16313918 16308077 16315477 16319541 16313050 16297290 
3214.556 16284542 16288061 16317882 16374340 16449256 16527647 16594846 
3217.931 16642431 16671363 16689617 16708633 16737154 16776916 16821762 
3221.306 16861116 16883952 16882912 16858854 16819440 16777850 16748251 
3224.682 16742647 16769266 16830828 16922378 17033872 17148762 17246588 
3228.057 17305686 17306752 17240130 17107630 16926582 16724810 16536009 
3231.432 16389962 16306499 16288240 16323069 16387278 16454874 16503517 
3234.807 16522348 16511798 16482584 16449891 16427604 16424842 16443243 
3238.183 16476845 16515994 16548207 16562833 16552372 16514532 16451802 
3241.558 16374821 16296407 16233841 16201040 16208231 16256848 16338972 
3244.933 16440272 16542042 16628176 16687896 16719548 16727911 16721247 
3248.308 16708264 16693318 16676078 16653821 16624149 16589779 16558127 
3251.684 16540743 16549084 16588282 16654976 16735654 16811232 16860866 
3255.059 16871548 16840206 16776003 16695401 16618492 16560022 16527306 
3258.434 16516972 16520400 16523607 16514253 16482813 16424155 16337933 
3261.809 16227091 16098740 15963579 15836593 15735166 15675813 15669271 
3265.185 15716542 15807807 15922312 16034005 16119249 16162798 16162444 
3268.560 16128138 16075853 16023995 15985379 15966365 15966421 15981598 
3271.935 16010376 16053634 16115988 16201291 16309222 16432341 16554954 
3275.310 16656971 16720152 16732166 16691787 16608665 16500473 16388742 
3278.686 16292147 16224211 16189342 16184136 16200479 16227048 16254835 
3282.061 16278341 16296463 16313931 16337015 16372211 16422059 16483592 
3285.436 16548341 16604295 16639009 16645087 16621633 16577894 16528854 
3288.811 16492585 16484311 16513519 16580453 16678629 16795812 16918450 
3292.187 17033736 17132056 17205904 17251384 17266282 17251132 17209678 
3295.562 17148548 17077230 17006230 16945930 16904408 16885986 16893870 
3298.937 16928302 16988742 17073426 17178840 17298452 17421988 17537374 
3302.312 17631866 17695372 17723218 17715166 17676078 17610706 17523820 
3305.688 17417284 17292100 17150262 16998526 16848982 16716039 16615007 
3309.063 16554212 16532665 16539289 16557343 16568631 16560057 16528614 
3312.438 16480064 16425842 16378265 16345780 16330719 16330207 16341137 
3315.813 16361624 16392566 16437741 16499829 16576726 16660098 16738050 
3319.188 16795886 16823360 16816234 16777158 16711801 16625943 16521694 
3322.564 16397718 16251666 16086658 15913494 15752658 15629882 15568662 
3325.939 15583284 15671106 15816346 15992742 16173445 16339837 16485099 
3329.314 16613007 16730253 16839610 16932596 16991218 16992562 16920850 
3332.689 16775168 16574390 16354593 16157661 16020240 15961111 15976602 
3336.065 16044738 16132679 16211482 16263140 16285958 16292673 16300505 
3339.440 16326357 16377958 16451173 16534828 16612910 16671194 16699811 
3342.815 16694939 16658576 16597105 16518695 16434776 16357781 16298147 
3346.190 16263723 16254855 16265273 16281633 16287906 16273197 16234698 
3349.566 16181486 16130505 16103979 16118757 16181372 16283648 16407304 
3352.941 16527856 16622158 16675575 16684042 16652824 16593261 16518841 
3356.316 16442038 16375002 16328873 16316481 16349090 16436065 16577214 
3359.691 16761204 16963400 17150700 17289390 17353520 17334030 17242042 
3363.067 17106070 16962964 16846892 16778268 16757779 16766608 16773749 
3366.442 16748397 16672265 16544094 16385315 16230235 16115751 16069300 
3369.817 16098242 16188832 16309384 16421391 16493557 16509363 16473299 
3373.192 16405243 16332876 16280835 16261796 16273841 16304214 16337872 
3376.568 16363736 16381461 16400320 16434465 16494542 16581697 16685303 
3379.943 16785772 16861694 16897072 16887580 16841254 16773943 16702762 
3383.318 16640859 16591752 16551593 16513349 16471013 16424241 16379723 
3386.693 16345410 16329920 16335309 16356023 16380601 16394855 16387193 
3390.069 16351931 16292809 16219921 16147930 16092166 16064906 16074352 
3393.444 16123010 16208407 16322600 16454121 16589219 16714692 16819044 
3396.819 16896790 16949626 16985968 17017306 17055374 17106332 17168808 
3400.194 17233816 17286190 17313382 17307626 17270848 17213874 17154374 
3403.570 17110370 17094770 17112366 17159644 17227252 17303900 17380922 
3406.945 17452364 17516180 17570758 17613010 17636536 17635486 17603452 
3410.320 17540886 17456000 17364812 17287324 17244814 17252286 17315360 
3413.695 17428810 17579380 17748444 17918150 18073252 18205044 18309146 
3417.071 18386578 18439848 18471456 18485304 18483780 18471588 18452626 
3420.446 18432850 18418004 18412798 18419180 18438080 18468464 18507582 
3423.821 18553494 18603548 18656726 18708996 18758868 18802552 18837274 
3427.196 18861432 18876620 18886750 18899188 18920484 18954332 19000852 
3430.572 19053138 19099920 19128282 19128318 19095988 19036116 18961944 
3433.947 18891898 18845110 18835542 18870114 18945164 19050218 19167996 
3437.322 19280854 19373212 19433518 19456672 19444854 19407634 19361048 
3440.697 19325422 19320508 19362604 19457054 19595214 19756078 19907064 
3444.073 20014274 20050620 20003106 19877146 19694938 19488290 19289366 
3447.448 19124304 19005496 18933988 18902496 18901090 18921440 18958584 
3450.823 19008940 19065676 19117798 19148506 19140056 19079578 18966584 
3454.198 18815208 18652798 18514582 18433362 18430020 18509346 18657810 
3457.573 18849368 19053536 19242812 19399308 19515572 19592154 19634030 
3460.949 19645942 19629742 19585878 19513878 19417456 19303578 19182468 
3464.324 19064360 18956686 18862244 18780342 18707370 18643222 18592546 
3467.699 18565704 18575614 18634974 18749518 18914384 19116342 19334572 
3471.074 19547182 19736222 19891652 20011696 20100412 20163966 20208058 
3474.450 20234898 20244824 20237364 20214728 20182510 20151104 20132416 
3477.825 20138712 20178876 20257250 20371634 20513872 20671474 20828782 
3481.200 20970012 21082516 21158672 21198348 21209356 21205266 21202468 
3484.575 21216524 21257162 21328152 21425630 21541544 21665344 21788016 
3487.951 21902524 22005344 22096822 22180114 22261908 22351594 22457858 
3491.326 22588344 22743064 22912648 23079004 23216392 23300820 23318144 
3494.701 23270094 23177592 23074954 23001456 22988870 23050858 23182754 
3498.076 23363304 23565110 23763114 23945414 24112820 24274632 24441100 
3501.452 24615772 24793454 24959880 25098052 25194140 25243404 25249002 
3504.827 25222254 25177784 25130940 25094952 25081514 25098662 25149024 
3508.202 25228932 25324002 25411178 25462316 25451034 25360862 25192614 
3511.577 24962604 24699686 24436270 24198488 24001948 23851146 23743240 
3514.953 23675768 23650626 23671382 23740890 23853854 23990060 24118380 
3518.328 24202452 24211930 24134102 23979020 23777592 23572580 23404860 
3521.703 23302856 23273822 23303908 23365288 23425984 23457286 23443420 
3525.078 23379742 23273112 23135394 22980920 22818832 22656004 22493264 
3528.454 22329078 22161542 21991008 21820454 21659120 21518522 21410170 
3531.829 21344150 21323332 21345230 21399188 21471088 21546926 21614718 
3535.204 21669218 21709364 21739296 21764484 21791108 21822012 21857922 
3538.579 21894674 21923706 21932998 21908978 21841048 21726578 21572220 
3541.955 21399036 21236178 21115414 21061756 21086048 21178684 21312910 
3545.330 21451466 21558744 21609574 21595114 21523678 21414682 21291960 
3548.705 21173740 21072070 20992070 20936378 20908220 20914038 20963156 
3552.080 21061922 21209404 21394418 21595858 21786748 21940448 22037444 
3555.456 22071146 22046770 21979720 21888750 21790346 21694434 21603520 
3558.831 21513186 21418052 21316436 21213008 21118644 21046986 21007614 
3562.206 21001124 21016410 21031580 21023894 20977306 20889880 20777894 
3565.581 20671400 20603430 20597118 20656788 20765352 20888810 20990500 
3568.957 21043078 21037410 20985700 20912518 20845072 20800998 20784256 
3572.332 20785380 20789870 20786914 20775316 20763838 20764958 20788052 
3575.707 20831434 20881316 20917162 20918780 20874988 20788890 20676700 
3579.082 20563290 20472204 20418958 20407762 20430226 20469168 20504270 
3582.458 20517374 20495598 20435440 20342308 20229298 20115670 20018622 
3585.833 19951880 19917976 19907172 19900218 19873758 19808518 19696906 
3589.208 19545892 19375466 19211516 19079330 18993850 18959060 18968952 
3592.583 19011862 19073700 19143756 19213470 19275970 19322812 19344822 
3595.958 19333664 19286074 19203600 19096738 18981406 18875106 18793398 
3599.334 18747882 18745082 18788034 18874710 18999456 19150338 19309126 
3602.709 19451896 19553376 19594438 19570822 19494958 19396102 19314034 
3606.084 19286136 19336500 19468428 19664794 19891738 20110182 20286074 
3609.459 20396970 20433624 20399026 20303704 20160360 19984876 19791912 
3612.835 19599162 19425656 19290060 19208748 19193124 19246246 19364996 
3616.210 19537404 19746280 19971986 20193774 20393430 20557086 20677912 
3619.585 20759046 20809814 20843584 20872864 20905676 20941658 20973392 
3622.960 20992970 20994794 20980308 20960952 20951326 20967014 21017040 
3626.336 21100806 21209808 21331762 21453876 21568598 21674824 21772428 
3629.711 21862750 21944802 22015904 22074582 22123268 22170506 22226790 
3633.086 22301646 22398014 22507724 22614418 22700252 22751042 22764572 
3636.461 22751088 22728798 22717630 22729076 22766212 22820720 22881854 
3639.837 22940678 22997562 23060704 23141738 23248634 23380544 23524748 
3643.212 23661530 23769436 23835092 23856880 23844462 23817700 23797796 
3646.587 23801678 23837454 23904400 23993824 24092478 24186620 24263238 
3649.962 24312490 24329214 24312160 24264632 24194618 24112788 24029592 
3653.338 23953378 23889192 23837900 23798020 23766862 23743934 23731324 
3656.713 23731260 23744964 23769376 23794654 23807140 23791822 23739080 
3660.088 23648044 23529546 23406958 23308358 23262176 23285062 23377542 
3663.463 23523624 23692190 23844176 23945674 23975702 23932988 23834036 
3666.839 23708800 23588842 23498214 23445552 23421744 23405330 23369662 
3670.214 23293764 23170830 23008016 22824814 22644052 22486222 22361308 
3673.589 22269328 22199796 22138022 22068582 21980110 21863838 21717666 
3676.964 21544424 21349674 21143036 20936868 20744130 20577050 20442548 
3680.340 20342100 20268682 20212048 20159722 20104296 20043422 19982900 
3683.715 19930526 19893214 19871342 19856762 19832036 19777878 19676838 
3687.090 19521246 19316414 19079524 18838776 18622854 18454388 18345750 
3690.465 18296694 18295624 18324732 18365358 18403272 18429684 18442364 
3693.841 18443534 18437150 18426308 18414842 18404980 18399704 18402846 
3697.216 18418506 18448914 18492220 18542854 18592880 18633622 18659490 
3700.591 18672090 18676510 18679936 18687084 18696838 18698158 18677132 
3703.966 18619474 18521080 18388026 18240172 18102600 17998778 17940016 
3707.342 17923844 17933378 17946770 17945374 17924096 17893494 17875928 
3710.717 17896278 17970344 18096166 18250390 18393840 18482092 18479638 
3714.092 18370514 18165034 17898538 17624052 17397332 17266788 17260814 
3717.467 17380076 17601366 17881164 18169056 18417938 18596476 18691658 
3720.843 18710168 18671930 18602752 18524946 18452988 18392870 18342592 
3724.218 18296674 18252112 18207046 18163838 18127360 18100990 18087348 
3727.593 18087938 18102644 18130468 18170672 18221130 18279354 18341844 
3730.968 18405974 18469874 18534294 18599980 18667188 18734414 18795278 
3734.344 18842266 18868110 18869794 18850316 18819436 18789052 18770180 
3737.719 18766714 18775900 18790102 18801424 18805852 18807524 18815468 
3741.094 18839960 18887914 18956952 19037552 19116670 19181254 19224142 
3744.469 19244946 19247300 19232826 19199510 19140564 19049202 18926668 
3747.844 18785394 18651886 18561568 18547498 18626286 18794086 19021662 
3751.220 19264926 19476710 19622642 19688084 19681426 19627564 19558458 
3754.595 19500668 19469428 19465758 19478962 19492548 19489126 19456478 
3757.970 19389676 19289718 19164668 19024472 18879082 18736066 18598062 
3761.345 18465460 18336484 18213790 18103804 18020650 17980976 18001058 
3764.721 18088492 18236626 18424934 18622020 18794438 18917544 18980580 
3768.096 18992104 18971796 18945422 18933314 18943826 18972786 19005168 
3771.471 19024158 19016982 18980214 18919032 18845318 18772978 18712764 
3774.846 18671006 18648214 18639206 18636020 18627896 18604834 18559358 
3778.222 18487666 18396208 18297008 18210828 18157940 18155062 18208046 
3781.597 18310074 18442416 18581144 18702546 18792544 18848328 18877110 
3784.972 18893090 18910466 18936858 18973152 19012754 19047168 19068890 
3788.347 19075000 19068792 19057244 19048240 19045200 19047748 19047886 
3791.723 19034930 18996806 18926640 18825568 18704776 18586626 18497192 
3795.098 18461904 18495404 18594804 18736466 18883272 18990156 19019934 
3798.473 18953732 18798268 18583328 18353976 18155402 18021098 17963030 
3801.848 17970782 18019166 18080808 18135590 18179300 18220472 18276696 
3805.224 18361872 18481886 18629606 18788862 18938856 19062994 19153096 
3808.599 19210666 19243230 19260734 19269812 19272892 19269454 19255538 
3811.974 19229354 19192298 19145904 19094902 19043502 18994778 18951918 
3815.349 18917614 18895072 18885566 18888978 18901596 18916008 18923518 
3818.725 18915542 18887598 18838908 18775360 18704888 18635932 18574392 
3822.100 18523848 18483922 18454106 18433888 18424940 18428930 18447396 
3825.475 18478176 18518444 18562954 18610298 18662270 18726572 18810772 
3828.850 18921684 19058174 19209846 19358114 19479970 19555754 19574274 
3832.226 19536526 19453546 19343824 19226112 19115706 19022368 18950860 
3835.601 18903890 18883514 18893602 18936218 19011642 19113714 19231896 
3838.976 19351018 19456018 19533890 19577800 19583858 19553612 19489484 
3842.351 19397522 19283132 19156226 19025438 18901578 18791738 18700044 
3845.727 18625726 18565564 18516216 18478066 18456408 18459236 18492234 
3849.102 18554512 18635118 18714206 18767766 18778116 18739432 18662018 
3852.477 18570396 18493594 18455118 18464786 18514998 18585374 18651632 
3855.852 18695950 18712760 18710576 18705806 18716936 18757020 18830086 
3859.228 18929548 19043014 19155348 19252060 19322274 19360408 19365542 
3862.603 19342458 19300460 19253152 19214372 19193588 19193262 19206020 
3865.978 19215154 19202648 19153726 19064228 18942182 18806762 18679746 
3869.353 18577856 18508094 18465670 18438148 18413214 18386198 18361900 
3872.729 18355234 18381260 18451020 18564668 18709502 18863858 19005286 
3876.104 19113894 19180186 19203360 19191842 19159012 19119544 19085266 
3879.479 19066448 19067908 19090042 19126616 19167752 19201742 19216098 
3882.854 19204172 19163222 19099748 19024284 18949982 18890108 18855742 
3886.229 18853782 18889068 18960570 19065698 19192750 19324138 19435628 
3889.605 19500614 19496512 19413388 19259314 19059186 18852516 18681674 
3892.980 18580570 18567614 18638916 18773384 18936864 19092304 19207330 
3896.355 19259976 19243164 19165490 19047178 18917094 18805406 18737454 
3899.730 18723962 18761686 18829474 18898718 18940400 18937250 18890036 
3903.106 18816660 18744574 18701244 18698324 18732288 18782096 18821316 
3906.481 18830442 18807768 18768464 18741718 18756338 18831064 18963180 
3909.856 19131762 19303540 19444058 19528510 19546652 19502776 19411028 
3913.231 19291464 19163748 19047420 18961104 18920678 18937702 19014426 
3916.607 19140908 19292498 19437574 19543306 19587210 19562696 19482742 
3919.982 19373214 19264850 19183266 19142264 19142254 19175622 19227534 
3923.357 19286428 19341654 19386640 19414800 19420868 19401414 19356694 
3926.732 19294600 19227748 19171680 19139416 19135974 19155702 19184912 
3930.108 19207940 19212932 19197900 19170880 19145828 19136842 19151316 
3933.483 19187268 19234964 19281220 19314170 19329332 19329852 19322330 
3936.858 19318100 19323762 19344604 19378644 19422592 19468004 19505504 
3940.233 19525058 19515826 19472252 19392212 19282438 19155738 19029802 
3943.609 18921416 18842346 18795230 18774932 18770486 18772380 18775998 
3946.984 18783316 18803066 18843976 18911086 19001500 19104906 19205830 
3950.359 19289838 19346598 19373986 19375554 19358452 19331014 19300254 
3953.734 19270156 19245212 19229670 19229630 19250528 19295822 19364458 
3957.110 19449026 19536670 19614122 19666790 19688426 19677418 19639870 
3960.485 19586518 19528910 19474868 19429178 19388264 19346936 19297502 
3963.860 19237164 19167250 19099318 19048768 19033414 19064962 19146480 
3967.235 19266438 19402116 19523612 19603382 19622390 19577552 19481350 
3970.611 19358790 19240466 19153388 19116326 19134748 19200294 19297808 
3973.986 19404938 19501712 19571608 19606084 19606334 19581794 19549920 
3977.361 19529900 19537066 19578762 19647798 19725786 19786330 19805000 
3980.736 19765778 19671310 19540668 19405604 19301202 19254298 19277848 
3984.112 19367212 19503196 19660588 19814028 19945602 20045154 20109052 
3987.487 20139684 20142386 20125036 20096984 20069194 20053030 20054918 
3990.862 20074998 20103242 20124272 20119878 20079614 20003744 19908044 
3994.237 19819160 19767466 19778288 19864098 20020914 20229894 20463472 
3997.613 20691504 20885972 21028612 21109336 21127842 21090680 21013266 
##END=
