##TITLE=3D-Fillies_PLA-Flex_Black_Filament_r2_ATR-Corrected
##JCAMP-DX=5.01  $$ Nicolet v. 1
##DATATYPE=INFRARED SPECTRUM
##ORIGIN=Curtin University
##OWNER=Nicolet
##LONGDATE=2024/07/18
##TIME=11:20:13
##SPECTROMETER/DATA SYSTEM=Nicolet iS50
##DATA PROCESSING=
Ratio against background
%Transmittance->Absorbance
ATR Correction
Truncated
ElementMultiply or ElementDivide
##COMMENTS=
Number of sample scans: 32
Collection length: 47.29 sec
Sample gain: 1.0
Background collected on: Thu Jul 18 11:18:41 2024 (GMT+08:00);
Number of background scans: 32
Background gain: 1.0
Sample spacing:  1.000
Number of scan points: 16672
Resolution points: 8192
Number of FFT points: 65536
Apodization: N-B strong;
Phase correction: Mertz;
Laser frequency: 15798.3 cm-1
Number of rejected sample scans: 0
Number of rejected background scans: 0
Bench serial number: AUP1200105;
##RESOLUTION=4.000
##XUNITS=1/CM
##YUNITS=ABSORBANCE
##FIRSTX=400.163452
##LASTX=4000.187744
##FIRSTY=0.034424
##MAXX=4000.187744
##MINX=400.163452
##MAXY=1.310534
##MINY=-0.014948
##XFACTOR=1.000000
##YFACTOR=1.000000E-008
##NPOINTS=7468
##DELTAX=0.482125
##ZPD=8192
##XYDATA=(X++(Y..Y))
400.163 3442420 3448296 3424649 3377896 3317377 3252250 3188952 3130241 
404.020 3076154 3025670 2978487 2935712 2899662 2872704 2855673 2847007 
407.877 2842767 2837805 2827504 2809391 2783979 2754332 2724815 2699258 
411.734 2679750 2666058 2656266 2647805 2638842 2628761 2618106 2607672 
415.591 2597657 2587219 2574794 2559189 2540892 2522949 2510799 2510989 
419.448 2529053 2567371 2623797 2691660 2761297 2822418 2866627 2889389 
423.305 2890817 2875373 2850512 2824859 2806343 2800567 2809818 2832684 
427.162 2864301 2897322 2923309 2934554 2925806 2895528 2846324 2784245 
431.019 2717348 2653875 2600686 2562446 2541539 2538493 2552693 2582612 
434.876 2625827 2678634 2735974 2791812 2840339 2877461 2902206 2917097 
438.733 2927350 2939015 2956693 2981831 3012174 3042634 3067211 3081270 
442.590 3083067 3074147 3058508 3040827 3024866 3012424 3003347 2996215 
446.447 2989412 2981958 2973742 2965247 2957124 2949718 2943127 2937391 
450.304 2932897 2930518 2931493 2937001 2947734 2963641 2984015 3007730 
454.161 3033523 3060168 3086346 3110420 3130518 3144837 3152311 3153238 
458.017 3149617 3144781 3142421 3145279 3154129 3167469 3182060 3194153 
461.874 3200797 3200818 3194890 3184839 3172989 3160908 3149281 3138074 
465.731 3127212 3117043 3108436 3102351 3099249 3098623 3099093 3099036 
469.588 3097472 3094780 3092726 3093818 3100280 3113045 3131401 3153333 
473.445 3176523 3199325 3221352 3243190 3265593 3288382 3309887 3327146 
477.302 3336987 3337383 3328618 3313536 3296890 3283834 3278375 3282246 
481.159 3294730 3313331 3334952 3357086 3378591 3399852 3422393 3448300 
485.016 3479584 3517722 3563417 3616460 3675752 3739434 3805262 3871119 
488.873 3935673 3998832 4061911 4127217 4197250 4273691 4356680 4444615 
492.730 4534555 4623223 4707947 4787267 4861199 4930518 4996045 5057920 
496.587 5115212 5166013 5207809 5237958 5254050 5254056 5236394 5200013 
500.444 5144586 5070831 4980721 4877449 4765152 4648207 4530618 4415503 
504.301 4304959 4200207 4101979 4010760 3926894 3850491 3781306 3718667 
508.158 3661700 3609700 3562396 3520068 3483199 3451931 3425541 3402193 
512.015 3379239 3353985 3324576 3290721 3253817 3216383 3181132 3149925 
515.871 3123151 3099710 3077619 3054884 3030349 3004111 2977423 2952172 
519.728 2930251 2913012 2901053 2894196 2891737 2892699 2896025 2900684 
523.585 2905767 2910569 2914621 2917654 2919671 2920583 2920112 2917702 
527.442 2912628 2904318 2892716 2878537 2863256 2848763 2836828 2828531 
531.299 2823980 2822411 2822511 2823042 2823227 2822947 2822532 2822370 
535.156 2822555 2822660 2821925 2819480 2814831 2808043 2799745 2790876 
539.013 2782313 2774563 2767599 2760939 2753881 2745799 2736398 2725813 
542.870 2714674 2703968 2694839 2688313 2684985 2684783 2686772 2689262 
546.727 2690066 2687054 2678697 2664540 2645355 2622947 2599617 2577527 
550.584 2558157 2542040 2528867 2517828 2508083 2499104 2490839 2483589 
554.441 2477769 2473685 2471299 2470173 2469697 2469079 2467570 2464489 
558.298 2459356 2451910 2442218 2430705 2418246 2406020 2395449 2387867 
562.155 2384315 2385320 2390834 2400296 2412841 2427565 2443725 2460883 
566.012 2478902 2497733 2517240 2536891 2555683 2572256 2585170 2593403 
569.869 2596800 2596372 2594276 2593355 2596509 2605908 2622473 2645741 
573.725 2674077 2705366 2737660 2769709 2801105 2832057 2862936 2893851 
577.582 2924355 2953603 2980651 3004835 3026062 3044833 3061984 3078318 
581.439 3094304 3109918 3124766 3138301 3150108 3160119 3168581 3176003 
585.296 3182989 3190125 3197871 3206533 3216213 3226733 3237507 3247545 
589.153 3255495 3259889 3259482 3253606 3242364 3226712 3208132 3188354 
593.010 3168900 3150813 3134587 3120259 3107647 3096576 3086990 3078946 
596.867 3072452 3067298 3062878 3058149 3051756 3042358 3028986 3011360 
600.724 2990115 2966733 2943213 2921577 2903290 2888863 2877796 2868818 
604.581 2860443 2851573 2841893 2831995 2823007 2816095 2811860 2810083 
608.438 2809751 2809460 2807942 2804536 2799391 2793265 2787185 2782010 
612.295 2778128 2775447 2773478 2771595 2769195 2765766 2760889 2754183 
616.152 2745361 2734406 2721663 2707943 2694434 2682402 2672866 2666300 
620.009 2662531 2660914 2660631 2661017 2661774 2662984 2665015 2668237 
623.866 2672932 2679231 2687174 2696793 2708168 2721415 2736614 2753882 
627.723 2773367 2795412 2820535 2849224 2881585 2916833 2952884 2986426 
631.579 3013346 3029798 3033237 3023343 3002234 2973945 2943346 2914809 
635.436 2891246 2873594 2861080 2851882 2843992 2835882 2826807 2816812 
639.293 2806428 2796441 2787667 2780859 2776634 2775372 2777061 2781209 
643.150 2786877 2792869 2798150 2802137 2804852 2806804 2808562 2810339 
647.007 2811697 2811628 2808999 2803093 2794095 2783210 2772353 2763490 
650.864 2758005 2756217 2757388 2760023 2762469 2763376 2761996 2758221 
654.721 2752401 2745114 2737078 2729068 2721985 2716758 2714224 2714852 
658.578 2718612 2724887 2732676 2740888 2748705 2755767 2762181 2768331 
662.435 2774592 2781152 2787966 2794856 2801695 2808487 2815357 2822405 
666.292 2829582 2836709 2843514 2849935 2856299 2863338 2872030 2883240 
670.149 2897368 2914166 2932788 2952045 2970860 2988584 3005192 3021195 
674.006 3037496 3055081 3074909 3097709 3123987 3153865 3187044 3222648 
677.863 3259257 3295086 3328316 3357513 3381941 3401686 3417450 3430243 
681.720 3441015 3450404 3458815 3466556 3474136 3482353 3492248 3504801 
685.577 3520682 3540090 3562820 3588542 3617118 3648766 3683982 3723235 
689.433 3766569 3813334 3862267 3911764 3960466 4007745 4053976 4100461 
693.290 4149112 4201942 4260588 4325982 4398293 4476948 4560883 4648754 
697.147 4739332 4831775 4925980 5022661 5123316 5229786 5343660 5465542 
701.004 5594598 5728373 5863210 5994888 6119524 6234209 6337365 6428717 
704.861 6508974 6579447 6641841 6698158 6750734 6802308 6855881 6914544 
708.718 6981218 7058510 7148651 7253594 7375119 7514864 7674260 7854444 
712.575 8056341 8280851 8529279 8803719 9107237 9443858 9818213 10235401 
716.432 10701138 11222553 11809396 12475261 13238373 14121313 15149827 
719.807 16350964 17751298 19375834 21247858 23389066 25818822 28550792 
723.182 31584578 34890884 38389836 41925432 45247204 48020400 49890804 
726.556 50603176 50114048 48612216 46428172 43905608 41312800 38814788 
729.931 36485904 34337700 32347432 30480356 28704050 26994746 25338214 
733.306 23727432 22159948 20636110 19158692 17732904 16366416 15068613 
736.681 13849321 12717375 11679569 10740153 9900881 9161308 8519103 7970202 
740.538 7508863 7127799 6818579 6572317 6380503 6235789 6132392 6065917 
744.395 6032893 6029960 6053404 6098937 6161904 6237721 6322244 6411779 
748.252 6502806 6591490 6673371 6743342 6796159 6827209 6833309 6813184 
752.109 6767539 6698594 6609430 6503412 6383756 6253461 6115426 5972565 
755.966 5827902 5684367 5544658 5410914 5284646 5166699 5057368 4956566 
759.823 4863924 4778858 4700571 4628080 4560247 4495980 4434369 4374913 
763.679 4317589 4262843 4211429 4164148 4121563 4083823 4050510 4020767 
767.536 3993478 3967496 3941966 3916467 3891069 3866206 3842477 3820385 
771.393 3800217 3781915 3765269 3750027 3736111 3723682 3713233 3705398 
775.250 3700778 3699732 3702264 3707936 3715915 3725070 3734164 3742020 
779.107 3747804 3751185 3752526 3752936 3754060 3757778 3765780 3779079 
782.964 3797812 3821192 3847854 3876358 3905721 3935725 3966976 4000634 
786.821 4037938 4079785 4126504 4177878 4233490 4293106 4357051 4426283 
790.678 4502177 4586081 4678676 4779467 4886381 4995677 5102148 5199552 
794.535 5281368 5341582 5375637 5381215 5358790 5311730 5245916 5168906 
798.392 5088780 5013008 4947529 4896205 4860798 4841288 4836410 4844232 
802.249 4862552 4889018 4921231 4956554 4992083 5024799 5051866 5071100 
806.106 5081395 5082987 5077446 5067402 5055984 5046256 5040597 5040382 
809.963 5045859 5056313 5070435 5086623 5103373 5119437 5133846 5145835 
813.820 5154702 5159716 5160054 5154876 5143424 5125142 5099870 5067862 
817.677 5029911 4987335 4941937 4895947 4851782 4811837 4778079 4751762 
821.533 4733171 4721508 4715040 4711425 4708233 4703393 4695654 4684696 
825.390 4671103 4655995 4640632 4626021 4612713 4600784 4590026 4580212 
829.247 4571331 4563662 4557616 4553536 4551431 4550895 4551122 4551242 
833.104 4550631 4549121 4547190 4545784 4546010 4548818 4554786 4564037 
836.961 4576373 4591376 4608667 4627881 4648688 4670727 4693609 4717042 
840.818 4740923 4765479 4791179 4818595 4847969 4878941 4910402 4940672 
844.675 4967867 4990481 5007805 5020137 5028600 5034721 5039944 5045286 
848.532 5051203 5057684 5064524 5071464 5078352 5085001 5091144 5096427 
852.389 5100527 5103316 5105097 5106624 5108939 5113017 5119492 5128478 
856.246 5139673 5152612 5167116 5183517 5202691 5225912 5254403 5289103 
860.103 5330455 5378471 5432918 5493566 5560437 5633891 5714790 5804547 
863.960 5905209 6019563 6151088 6303984 6483287 6695138 6947344 7249962 
867.817 7615512 8058072 8590935 9222496 9951102 10759677 11612287 12454151 
871.674 13216935 13829423 14231926 14390005 14302731 14001910 13542634 
875.048 12989004 12400354 11821651 11279892 10785512 10337093 9927001 
878.423 9546328 9187929 8847586 8523612 8215898 7924926 7651243 7395268 
882.280 7157311 6937583 6736174 6552985 6387740 6240236 6110464 5998762 
886.137 5905708 5831859 5777335 5741596 5723421 5721050 5732632 5756400 
889.994 5790805 5834353 5885468 5942318 6002974 6065708 6129407 6193802 
893.851 6259423 6327267 6398359 6473374 6552586 6636098 6724252 6817881 
897.708 6918306 7026916 7144605 7271167 7405068 7543719 7684038 7823272 
901.565 7959579 8092345 8221980 8349447 8475762 8601471 8726517 8850268 
905.422 8971783 9090109 9204753 9316006 9425361 9535706 9651439 9778056 
909.279 9921530 10087408 10279761 10500408 10748392 11019984 11309022 
912.654 11607384 11905710 12193845 12461410 12698372 12895688 13046181 
916.028 13145261 13191572 13187166 13137238 13049500 12933263 12798679 
919.403 12655903 12514584 12383442 12269948 12180150 12118643 12088776 
922.778 12092954 12133002 12210412 12326314 12481146 12674123 12902877 
926.153 13163224 13449509 13755286 14074148 14400379 14729293 15056980 
929.528 15379874 15694268 15996034 16280869 16544718 16784234 16997052 
932.902 17181574 17336634 17460888 17552718 17610296 17632190 17617968 
936.277 17568680 17486952 17376670 17242388 17088880 16920712 16742241 
939.652 16557536 16370486 16184670 16003181 15828326 15661615 15503779 
943.027 15355138 15215887 15086357 14967071 14858474 14760756 14673612 
946.402 14596245 14527594 14466627 14412634 14365269 14324476 14290127 
949.776 14261827 14238627 14219163 14201765 14184703 14166458 14145775 
953.151 14121753 14093742 14061421 14024736 13983920 13939467 13891990 
956.526 13842115 13790312 13736768 13681479 13624406 13565505 13504843 
959.901 13442588 13378891 13313767 13247077 13178544 13107967 13035284 
963.276 12960777 12885080 12809074 12733743 12660091 12588960 12520921 
966.651 12456240 12394777 12336025 12279115 12223026 12166744 12109506 
970.025 12050954 11991091 11930168 11868396 11805804 11742154 11677110 
973.400 11610523 11542720 11474662 11407908 11344371 11286029 11234647 
976.775 11191741 11158542 11136076 11125182 11126310 11139278 11163086 
980.150 11195850 11235105 11278223 11322939 11367659 11411465 11453774 
983.525 11493899 11530759 11562873 11588772 11607634 11619788 11626915 
986.899 11631770 11637449 11646596 11660626 11679627 11702506 11727575 
990.274 11753111 11777749 11800719 11821622 11840392 11857022 11871720 
993.649 11884851 11897110 11909451 11922829 11938031 11955363 11974564 
997.024 11994859 12015127 12034092 12050524 12063362 12071831 12075642 
1000.399 12075148 12071561 12066904 12063862 12065469 12074631 12093879 
1003.774 12125318 12170778 12232266 12312194 12413673 12540323 12695993 
1007.148 12884456 13109154 13373208 13679652 14031826 14433913 14891636 
1010.523 15413044 16009429 16696131 17492476 18420542 19501686 20750846 
1013.898 22168814 23733552 25392560 27059102 28615438 29925894 30859604 
1017.273 31318590 31261650 30714366 29761062 28522500 27129600 25701672 
1020.648 24333758 23092842 22019974 21135222 20443084 19936950 19602420 
1024.022 19419546 19364494 19410964 19531542 19699116 19887958 20074830 
1027.398 20239818 20366982 20445020 20467746 20434308 20348946 20220110 
1030.773 20059208 19878914 19691678 19508416 19337822 19185964 19056354 
1034.148 18950286 18867116 18804702 18759950 18729318 18709384 18697282 
1037.523 18690946 18689076 18690986 18696276 18704558 18715452 18728518 
1040.899 18743434 18759990 18777938 18796818 18815800 18833624 18848826 
1044.274 18860062 18866556 18868318 18866166 18861314 18855000 18848044 
1047.649 18840758 18833074 18825042 18817232 18811138 18808942 18813320 
1051.024 18826828 18851296 18887470 18934994 18992554 19058300 19130274 
1054.400 19206732 19286322 19368148 19451628 19536426 19622324 19709036 
1057.775 19796238 19883442 19970048 20055414 20138922 20220198 20299180 
1061.150 20376272 20452246 20528206 20605362 20684848 20767670 20854532 
1064.525 20946046 21042870 21145884 21256454 21376510 21508480 21655166 
1067.901 21819408 22003804 22210344 22440238 22693918 22971112 23271010 
1071.276 23592498 23934314 24295180 24673812 25068962 25479550 25904662 
1074.651 26343674 26796228 27262046 27740750 28231558 28733048 29243168 
1078.026 29759290 30278612 30798394 31316190 31829950 32337710 32837316 
1081.402 33326024 33800180 34255184 34685720 35086124 35451244 35777068 
1084.777 36061624 36305512 36512284 36688312 36842484 36985600 37129576 
1088.152 37286932 37470284 37692128 37964676 38299780 38708744 39202056 
1091.527 39789012 40477292 41272764 42179392 43199472 44333920 45582480 
1094.903 46943788 48414844 49990220 51660796 53412436 55224908 57071108 
1098.278 58917032 60722576 62442972 64031224 65440948 66629364 67560056 
1101.653 68204832 68544760 68570208 68280184 67681496 66787712 65618016 
1105.028 64196288 62550412 60712100 58717536 56608664 54434432 52251172 
1108.404 50121624 48112068 46288140 44709900 43427248 42476188 41876484 
1111.779 41630736 41724628 42128496 42799540 43684860 44724596 45855376 
1115.154 47013500 48138024 49173664 50073260 50800020 51329120 51648360 
1118.529 51757968 51669360 51402904 50985216 50446124 49815580 49121004 
1121.905 48385136 47624756 46850416 46066892 45274492 44470904 43652856 
1125.280 42817880 41965420 41097424 40218528 39335804 38458340 37596604 
1128.655 36761820 35965328 35217904 34529120 33906808 33356694 32882204 
1132.030 32484382 32161954 31911578 31728070 31604800 31534046 31507542 
1135.406 31516918 31554282 31612504 31685392 31767600 31854290 31940920 
1138.781 32022948 32095910 32155678 32198956 32223654 32229170 32216442 
1142.156 32187524 32145208 32092596 32032672 31968144 31901422 31834558 
1145.531 31769372 31707298 31649530 31597072 31551072 31513208 31486142 
1148.906 31473890 31481856 31516638 31585408 31695282 31852772 32063136 
1152.282 32330296 32656744 33043572 33490616 33996408 34558176 35171964 
1155.657 35832636 36534084 37269576 38031692 38812380 39602780 40392964 
1159.032 41171880 41927452 42647176 43318928 43931892 44477420 44949508 
1162.407 45344780 45662148 45902244 46066724 46157964 46178808 46132736 
1165.783 46023940 45857456 45639012 45374860 45071336 44734656 44370784 
1169.158 43985360 43583868 43171532 42753344 42333828 41916792 41505268 
1172.533 41101308 40706220 40320728 39945144 39579544 39223784 38877600 
1175.908 38540532 38212068 37891688 37578944 37273508 36975028 36683044 
1179.284 36396672 36114556 35834968 35555916 35275516 34992260 34705172 
1182.659 34413836 34118156 33818168 33513850 33205050 32891556 32573358 
1186.034 32250756 31924560 31596180 31267444 30940530 30617732 30301288 
1189.409 29993240 29695272 29408640 29134228 28872458 28623602 28387696 
1192.785 28164884 27955470 27760040 27579522 27415082 27268062 27139830 
1196.160 27031622 26944432 26878974 26835724 26814992 26817134 26842532 
1199.535 26891666 26964912 27062228 27182916 27325284 27486560 27663040 
1202.910 27850258 28043250 28236706 28425008 28601966 28760692 28893592 
1206.286 28992852 29051244 29063418 29027158 28944308 28820974 28667090 
1209.661 28494906 28317452 28146812 27992856 27862668 27760434 27687782 
1213.036 27644390 27628404 27636952 27666434 27712902 27772466 27841622 
1216.411 27917672 27998916 28084586 28174722 28269706 28370040 28476074 
1219.787 28587946 28705742 28829616 28959894 29097242 29242596 29397186 
1223.162 29562542 29740282 29932192 30140042 30365414 30609614 30873618 
1226.537 31158150 31463932 31791920 32143568 32520920 32926530 33363366 
1229.912 33834448 34342940 34891964 35484836 36125044 36816128 37561388 
1233.288 38363380 39223460 40141556 41116240 42145200 43225720 44355260 
1236.663 45531580 46752532 48015644 49317488 50653564 52018236 53405200 
1240.038 54808020 56220156 57634936 59044940 60441232 61813080 63148040 
1243.413 64432568 65653060 66796760 67852408 68810552 69663752 70406960 
1246.789 71038304 71559640 71976960 72299800 72539768 72708408 72815408 
1250.164 72867368 72867920 72818872 72721904 72579656 72396448 72177912 
1253.539 71930280 71659640 71371848 71072992 70770056 70471480 70187104 
1256.914 69927720 69704056 69526096 69402680 69341624 69349992 69434336 
1260.290 69600536 69852888 70193336 70620200 71127856 71706464 72342320 
1263.665 73018240 73713792 74405400 75066424 75667736 76179280 76572216 
1267.040 76821664 76909088 76823688 76562496 76129344 75533072 74786000 
1270.415 73902544 72898464 71790352 70595176 69329792 68010376 66652096 
1273.791 65268724 63872676 62474680 61083836 59707360 58350288 57015652 
1277.166 55704516 54416628 53150912 51906116 50681104 49475000 48286996 
1280.541 47116204 45961480 44821416 43694572 42579760 41476140 40383324 
1283.916 39301268 38230076 37169756 36120160 35080924 34051708 33032364 
1287.292 32023290 31025546 30041066 29072546 28123320 27197010 26297330 
1290.667 25427712 24591218 23790470 23027656 22304696 21623122 20984038 
1294.042 20387972 19834672 19322974 18850898 18415772 18014560 17644294 
1297.417 17302180 16985912 16693534 16423440 16174094 15943952 15731308 
1300.792 15534315 15351030 15179545 15018108 14865233 14719687 14580502 
1304.168 14446914 14318250 14193909 14073287 13955800 13840944 13728322 
1307.543 13617831 13509652 13404313 13302715 13206047 13115688 13033122 
1310.918 12959735 12896873 12845652 12807079 12782048 12771460 12776195 
1314.293 12797070 12834845 12889975 12962496 13051826 13156576 13274515 
1317.669 13402376 13535847 13669470 13796727 13910092 14001401 14062434 
1321.044 14085616 14064813 13996154 13878517 13713722 13506296 13262950 
1324.419 12991782 12701339 12399845 12094525 11791320 11494748 11208007 
1327.794 10933369 10672354 10425914 10194723 9979165 9779389 9595232 9426322 
1331.652 9271998 9131549 9004274 8889687 8787604 8698111 8621408 8557612 
1335.509 8506466 8467294 8438959 8420076 8409334 8405730 8408723 8418146 
1339.367 8433986 8456202 8484484 8518258 8556931 8600049 8647652 8700267 
1343.224 8758898 8824773 8899073 8982679 9076072 9179195 9291469 9411707 
1347.082 9538025 9667749 9797505 9923422 10041668 10149021 10243481 10324723 
1350.939 10394126 10454554 10509736 10563657 10619877 10681126 10749118 
1354.314 10824612 10907505 10997093 11092237 11191411 11293025 11395399 
1357.689 11497023 11596704 11693721 11787821 11879008 11967414 12053030 
1361.065 12135433 12213796 12286891 12353399 12412173 12462435 12503950 
1364.440 12536903 12561710 12578636 12587626 12588133 12579201 12559660 
1367.815 12528503 12485181 12429859 12363540 12287941 12205414 12118724 
1371.190 12030859 11944919 11864018 11791153 11729199 11680701 11647717 
1374.566 11631756 11633571 11653323 11690655 11744846 11815079 11900534 
1377.941 12000415 12114020 12240673 12379888 12531388 12695295 12872185 
1381.316 13063024 13269015 13491277 13730577 13986981 14259638 14546739 
1384.691 14845386 15151632 15460455 15765916 16061361 16339861 16594718 
1388.067 16820168 17011758 17166734 17284154 17364498 17409356 17420758 
1391.442 17400668 17350646 17271598 17164006 17028196 16864862 16675456 
1394.817 16462380 16229032 15979625 15718883 15451929 15184078 14920896 
1398.192 14668074 14431445 14216802 14029840 13876042 13760893 13690072 
1401.568 13669680 13706414 13807262 13979010 14227256 14555196 14962383 
1404.943 15443608 15988052 16578995 17194126 17806510 18386238 18902638 
1408.318 19326910 19634796 19808910 19840412 19729590 19485256 19123170 
1411.693 18663814 18130020 17544860 16930146 16305469 15687458 15089515 
1415.069 14521492 13989490 13495952 13040008 12618111 12225074 11855055 
1418.444 11502686 11163767 10835662 10517209 10208330 9909568 9621552 
1421.819 9344877 9079951 8827225 8587226 8360669 8148386 7951122 7769553 
1425.677 7604134 7455256 7323380 7209060 7112954 7035592 6977078 6936948 
1429.534 6914013 6906536 6912515 6930008 6957380 6993339 7036904 7087159 
1433.391 7143123 7203677 7267683 7334146 7402386 7472250 7544029 7618464 
1437.249 7696485 7779083 7867263 7961941 8064068 8174667 8294838 8425745 
1441.106 8568563 8724417 8894292 9079141 9279762 9496894 9731188 9983309 
1444.964 10253949 10543942 10854400 11186605 11541895 11921129 12324076 
1448.339 12748420 13188963 13636883 14079650 14501639 14885673 15215482 
1451.714 15478504 15668769 15788473 15848114 15864509 15857768 15847540 
1455.089 15849572 15873274 15920326 15984449 16052666 16107334 16129032 
1458.465 16099638 16005346 15838915 15601265 15301585 14956103 14585525 
1461.840 14211337 13852350 13521732 13225509 12962650 12726460 12506939 
1465.215 12293191 12075750 11847902 11606495 11351757 11086897 10817130 
1468.590 10548801 10288255 10040887 9810328 9598048 9403317 9223668 9055589 
1472.448 8895307 8739384 8585051 8430182 8273067 8112208 7946127 7773504 
1476.305 7593271 7404931 7208614 7005095 6795564 6581554 6364684 6146767 
1480.163 5929706 5715442 5505933 5302838 5107319 4919851 4740276 4568015 
1484.020 4402446 4243243 4090692 3945682 3809571 3683799 3569555 3467446 
1487.877 3377449 3298917 3230806 3171950 3121305 3078119 3041964 3012748 
1491.735 2990627 2975788 2968506 2968962 2977424 2994283 3020230 3056301 
1495.592 3103917 3164667 3240197 3332033 3441798 3571463 3723912 3903251 
1499.450 4114643 4363310 4652766 4982527 5345710 5727677 6106013 6452484 
1503.307 6736610 6930362 7012995 6974968 6819887 6563952 6232794 5856652 
1507.165 5465127 5083006 4727874 4409902 4133062 3896981 3698809 3534357 
1511.022 3399041 3288146 3197087 3121604 3058045 3003447 2955701 2913421 
1514.879 2875776 2842181 2812258 2785641 2762026 2741172 2722953 2707280 
1518.737 2694111 2683416 2675122 2669199 2665592 2664296 2665277 2668453 
1522.594 2673721 2680942 2690055 2701015 2713857 2728524 2744779 2762048 
1526.452 2779438 2795796 2809957 2820948 2828210 2831619 2831439 2828036 
1530.309 2821828 2813028 2801673 2787734 2771218 2752276 2731364 2709070 
1534.167 2686150 2663318 2641200 2620287 2600929 2583395 2567813 2554240 
1538.024 2542569 2532606 2524032 2516475 2509624 2503129 2496736 2490096 
1541.881 2482922 2474916 2465952 2456129 2445802 2435630 2426392 2418815 
1545.739 2413400 2410351 2409535 2410653 2413376 2417409 2422624 2428971 
1549.596 2436301 2444446 2453006 2461444 2469269 2476054 2481679 2486229 
1553.454 2490094 2493762 2497742 2502382 2507838 2514035 2520696 2527506 
1557.311 2534181 2540577 2546697 2552623 2558450 2564109 2569412 2574040 
1561.168 2577737 2580431 2582388 2584185 2586570 2590269 2595752 2603128 
1565.026 2612099 2622310 2633456 2645635 2659406 2675665 2695462 2719715 
1568.883 2748997 2783475 2823033 2867423 2916494 2970235 3028758 3092167 
1572.741 3160371 3232944 3309036 3387268 3465771 3542090 3613337 3676344 
1576.598 3727950 3765406 3786717 3790869 3777917 3748872 3705474 3649960 
1580.456 3584845 3512730 3436203 3357767 3279838 3204636 3134141 3069931 
1584.313 3013136 2964329 2923519 2890274 2863858 2843396 2828029 2817012 
1588.170 2809744 2805817 2804952 2806933 2811521 2818374 2826883 2836205 
1592.028 2845331 2853187 2858951 2862271 2863352 2862951 2862214 2862347 
1595.885 2864286 2868504 2874951 2883123 2892338 2901901 2911399 2920759 
1599.743 2930292 2940583 2952364 2966352 2983124 3003014 3026026 3051866 
1603.600 3080029 3109893 3140903 3172679 3205172 3238535 3273099 3309194 
1607.458 3346977 3386317 3426826 3467846 3508497 3547832 3584907 3618830 
1611.315 3648902 3674607 3695735 3712349 3724772 3733441 3738827 3741315 
1615.172 3741247 3738874 3734563 3728814 3722349 3716079 3711031 3708135 
1619.030 3708261 3711979 3719665 3731403 3746985 3765881 3787299 3810148 
1622.887 3833289 3855701 3876715 3896195 3914535 3932542 3951235 3971419 
1626.745 3993519 4017338 4042103 4066724 4089966 4110910 4129148 4144966 
1630.602 4159236 4173271 4188468 4205926 4226295 4249571 4275131 4302020 
1634.459 4329164 4355722 4381243 4405691 4429348 4452607 4475731 4498805 
1638.317 4521725 4544329 4566551 4588480 4610299 4632240 4654403 4676746 
1642.174 4699120 4721348 4743416 4765443 4787732 4810635 4834426 4859258 
1646.032 4885192 4912247 4940578 4970456 5002177 5035997 5071938 5109782 
1649.889 5149146 5189599 5230878 5272921 5315853 5359837 5404927 5451091 
1653.747 5498202 5546245 5595541 5646768 5700817 5758663 5821072 5888490 
1657.604 5961114 6039039 6122505 6212025 6308267 6411896 6523317 6642516 
1661.461 6769090 6902557 7042648 7189616 7344348 7508224 7682867 7869810 
1665.319 8070492 8286080 8517575 8765817 9031359 9314102 9613045 9926014 
1669.176 10249698 10579791 10911535 11239989 11560493 11868796 12161157 
1672.552 12434535 12686677 12916239 13123067 13308017 13472965 13620456 
1675.927 13753489 13875356 13989775 14101040 14214157 14334799 14468765 
1679.302 14621407 14796814 14997530 15224698 15478586 15759556 16068453 
1682.677 16406716 16775703 17175950 17606412 18064486 18546684 19049896 
1686.052 19572500 20114896 20679358 21269218 21888094 22539244 23225462 
1689.428 23949224 24713000 25519308 26370760 27269796 28218946 29221528 
1692.803 30282366 31408530 32609322 33894932 35274588 36754636 38337632 
1696.178 40023564 41812952 43710772 45729304 47888692 50214320 52732436 
1699.553 55464832 58425368 61619692 65048284 68711536 72613536 76762136 
1702.929 81163912 85815648 90694448 95750568 100904456 106049600 111058768 
1706.304 115792104 120103920 123850480 126900104 129148224 130534232 
1709.197 131053424 130757464 129741336 128123232 126025344 123561824 
1712.090 120835056 117936288 114946376 111934616 108956040 106049224 
1714.983 103237280 100531664 97938056 95461936 93111440 90897200 88829320 
1718.358 86913952 85151056 83534560 82054448 80699688 79460408 78328392 
1721.734 77296384 76356232 75497864 74708832 73975328 73283432 72620408 
1725.109 71974896 71336304 70694072 70037064 69353896 68634072 67869320 
1728.484 67054504 66187604 65268552 64297568 63274024 62195684 61059356 
1731.859 59862184 58602876 57283056 55907460 54483616 53020560 51527668 
1735.235 50013132 48483224 46942072 45392032 43834536 42271028 40703920 
1738.610 39137148 37576156 36027400 34497632 32993040 31518778 30079002 
1741.985 28677238 27316904 26001692 24735640 23522832 22366988 21270922 
1745.360 20236366 19263914 18353350 17503940 16714621 15984254 15311573 
1748.736 14695011 14132629 13621992 13160239 12744153 12370393 12035715 
1752.111 11736882 11470750 11234012 11023106 10834152 10663164 10506465 
1755.486 10360960 10224423 10095389 9972773 9855246 9740791 9626537 9509163 
1759.344 9385460 9253135 9111256 8960499 8802519 8639533 8473650 8306488 
1763.201 8139106 7972345 7806907 7643654 7483420 7326872 7174421 7026273 
1767.058 6882673 6744224 6612058 6487532 6371933 6265702 6168141 6077378 
1770.916 5990658 5905189 5818777 5730362 5640007 5548598 5457391 5367473 
1774.773 5279705 5194615 5112606 5033952 4958658 4886397 4816191 4746783 
1778.631 4676863 4605688 4533278 4460624 4389135 4320086 4253943 4190221 
1782.488 4127758 4065339 4002463 3939718 3878657 3821215 3768859 3721918 
1786.345 3679332 3639091 3598981 3557251 3513203 3467143 3420095 3373299 
1790.203 3327831 3284414 3243461 3205180 3169674 3136893 3106526 3078028 
1794.060 3050687 3023953 2997684 2972268 2948609 2927595 2909697 2894722 
1797.918 2881627 2868868 2854823 2838282 2818663 2795960 2770598 2743131 
1801.775 2714187 2684503 2655111 2627266 2602325 2581339 2564722 2551912 
1805.633 2541642 2532233 2522296 2511160 2499018 2486705 2475142 2464829 
1809.490 2455545 2446387 2436087 2423436 2407570 2387984 2364607 2337591 
1813.347 2307428 2275176 2242554 2212008 2186354 2168072 2158504 2157277 
1817.205 2162224 2169953 2176963 2180674 2180230 2176389 2170891 2165484 
1821.062 2161195 2157953 2154995 2151464 2146943 2141714 2136568 2132313 
1824.920 2129368 2127514 2126124 2124473 2122118 2118959 2115028 2110174 
1828.777 2103793 2094863 2082370 2065857 2045867 2024010 2002726 1984344 
1832.635 1970462 1961418 1956181 1952722 1948619 1941655 1930245 1913615 
1836.492 1891908 1866008 1837518 1808612 1781763 1759337 1742998 1733187 
1840.349 1728744 1727196 1725193 1719677 1708753 1692442 1672715 1653107 
1844.207 1637578 1629298 1629668 1637770 1650579 1663708 1672522 1673252 
1848.064 1664080 1645469 1620090 1592129 1566114 1545876 1533494 1529080 
1851.922 1530872 1535988 1541406 1544849 1545207 1542547 1537686 1531714 
1855.779 1525494 1519429 1513555 1507841 1502363 1497396 1493337 1490619 
1859.636 1489461 1490004 1492419 1496807 1503440 1512403 1523352 1535170 
1863.494 1546007 1553502 1555403 1550218 1537837 1519870 1499258 1479775 
1867.351 1465023 1457651 1458626 1467110 1480651 1495892 1509237 1517797 
1871.209 1519869 1515181 1504790 1490503 1474328 1457742 1441411 1424974 
1875.066 1407564 1388107 1366060 1341687 1316229 1291656 1270333 1254491 
1878.924 1245906 1245536 1253427 1268636 1289217 1312348 1334609 1352367 
1882.781 1362507 1362912 1352937 1333787 1308109 1279692 1252666 1230906 
1886.638 1217281 1213353 1218874 1231968 1249231 1266329 1279000 1284212 
1890.496 1281065 1271338 1259201 1249981 1248504 1257406 1276233 1301347 
1894.353 1327220 1348162 1360181 1362054 1355252 1343166 1329247 1316020 
1898.211 1304175 1292863 1280587 1266172 1249611 1232272 1216462 1204808 
1902.068 1199473 1201556 1210606 1224719 1240537 1253695 1259588 1254490 
1905.926 1236647 1207420 1171397 1135749 1108594 1096681 1103674 1129036 
1909.783 1168246 1214417 1260322 1300221 1330769 1351123 1362002 1364787 
1913.640 1361051 1352111 1339893 1326839 1315894 1309602 1309067 1313249 
1917.498 1318949 1321773 1317875 1305502 1286090 1263787 1244210 1232592 
1921.355 1232029 1242678 1261759 1284522 1305696 1320644 1326526 1322557 
1925.213 1310116 1292247 1273110 1256682 1245913 1241519 1241635 1242198 
1929.070 1238176 1225724 1203854 1175498 1147022 1126570 1121084 1134199 
1932.927 1164731 1206973 1252606 1292916 1321223 1333832 1330509 1313583 
1936.785 1287242 1256701 1228136 1208178 1203025 1217409 1252981 1307170 
1940.642 1373209 1441603 1502927 1550404 1581933 1600322 1611778 1623089 
1944.500 1638888 1659573 1681543 1698706 1704753 1695461 1670047 1631402 
1948.357 1585073 1537761 1495566 1462921 1441590 1430508 1426003 1422797 
1952.215 1415282 1399608 1375233 1345914 1319082 1303972 1308957 1338612 
1956.072 1391960 1462307 1539197 1611045 1668326 1705889 1723726 1725741 
1959.929 1718247 1707409 1697834 1691762 1688889 1687434 1684386 1676593 
1963.787 1661644 1638981 1610131 1579770 1554346 1540571 1543192 1563176 
1967.644 1596831 1636862 1675195 1705350 1724923 1735942 1743283 1751914 
1971.502 1763418 1774741 1778358 1764778 1726193 1660076 1571629 1474136 
1975.359 1387011 1332265 1329764 1392313 1520822 1702158 1910239 2111667 
1979.217 2272561 2367166 2382041 2318787 2191814 2024465 1843620 1673543 
1983.074 1531539 1424999 1351794 1303165 1268147 1238078 1208873 1181659 
1986.931 1160471 1149602 1151169 1163607 1182331 1201898 1217934 1228783 
1990.789 1235337 1240107 1244544 1247886 1246386 1234944 1208652 1165707 
1994.646 1108409 1042718 976297 916036 866085 827300 798826 779759 771669 
1998.986 778057 803435 849480 912214 980453 1037672 1066528 1054677 1000467 
2003.325 915210 821336 746666 716950 749055 846059 996875 1179194 1365340 
2007.665 1529067 1650065 1716748 1726666 1685669 1605998 1504035 1397783 
2011.522 1303514 1232888 1190921 1175664 1180124 1195207 1212653 1227180 
2015.380 1236182 1238544 1233359 1219789 1198538 1173365 1152543 1147363 
2019.237 1168049 1218621 1293805 1378209 1450852 1491808 1489840 1445050 
2023.095 1367734 1271455 1166462 1054702 930987 788690 627915 460708 310446 
2027.434 204580 163698 192445 275986 384583 484769 551299 575083 564686 
2031.774 539120 519597 520967 548864 602282 679227 781116 912414 1076241 
2036.114 1268203 1472335 1661958 1806424 1880031 1870059 1780006 1628403 
2039.971 1442281 1250313 1076129 936022 838710 787805 782945 819993 890104 
2044.311 979661 1071998 1151842 1209873 1246694 1272704 1304558 1357969 
2048.168 1441145 1550610 1671411 1783592 1868153 1913591 1918026 1887729 
2052.025 1833988 1769813 1707326 1656345 1623879 1612983 1622963 1648827 
2055.883 1682727 1715502 1739207 1749443 1745995 1732670 1714523 1695439 
2059.740 1675968 1653383 1623361 1583284 1534769 1484452 1442036 1417050 
2063.598 1414776 1434013 1467613 1505514 1538170 1560202 1571303 1575182 
2067.455 1576616 1578734 1581529 1582386 1577989 1566311 1547999 1525990 
2071.313 1504221 1485469 1470682 1458726 1447742 1436726 1426384 1419202 
2075.170 1418337 1426429 1444429 1471398 1504959 1541936 1579148 1613764 
2079.027 1643049 1664608 1676598 1678405 1671209 1657954 1643298 1631812 
2082.885 1626927 1629637 1638528 1650503 1662113 1670731 1675214 1675545 
2086.742 1671932 1663936 1650400 1629597 1600711 1564460 1523567 1482111 
2090.600 1444174 1412413 1387411 1367639 1350769 1334942 1319822 1307076 
2094.457 1299366 1299362 1308359 1326204 1351609 1382951 1419583 1461572 
2098.314 1509479 1562888 1619799 1676027 1726004 1763938 1785518 1788839 
2102.172 1774938 1747085 1709984 1668387 1626663 1588025 1554841 1528592 
2106.029 1510155 1499525 1495901 1497514 1502052 1507175 1511299 1514309 
2109.887 1517683 1524328 1537371 1559165 1589823 1626552 1663990 1695162 
2113.744 1713485 1714568 1697600 1665532 1624064 1579422 1536593 1497208 
2117.602 1459860 1420915 1376995 1327021 1273506 1222041 1179291 1150338 
2121.459 1136252 1133500 1135110 1133225 1122172 1100113 1069419 1034706 
2125.316 1000367 968140 936265 900893 858084 806393 748061 688410 633183 
2129.656 586107 546538 509801 469307 419638 359798 294305 232329 183978 
2133.996 156643 151755 164317 184676 202617 211190 209216 200994 194829 
2138.335 199658 222552 267054 332414 414067 504371 593026 668174 717592 
2142.675 730439 699269 622840 506652 362890 207967 59384 -68490 -166860 
2147.014 -234331 -275439 -298794 -314264 -330831 -354675 -390009 -438862 
2150.872 -502442 -581373 -675513 -783434 -902519 -1027878 -1153260 -1271349 
2154.729 -1373641 -1451503 -1494828 -1491801 -1429862 -1296948 -1085218 
2158.104 -797097 -450336 -78340 274598 565202 761775 851798 843439 760422 
2162.444 635668 503998 395328 330576 318626 356928 433281 529616 625421 
2166.784 701162 741196 736112 684074 592300 474935 351034 240388 158706 
2171.123 114070 105890 125859 161428 201723 240314 277709 319798 374266 
2175.463 445742 532389 625854 712789 779516 815731 817265 785471 727074 
2179.802 650776 566554 484012 412980 363382 344651 364000 423880 519966 
2184.142 640202 766612 879493 961559 1003778 1007573 984904 954947 938383 
2188.482 951201 999998 1079131 1172915 1259529 1317574 1332426 1300262 
2192.339 1229082 1136599 1044209 971803 931835 927854 953973 998509 1047470 
2196.679 1088334 1112625 1115978 1098061 1061266 1009984 949845 887319 
2200.536 828793 779283 741038 713265 692471 674531 657425 643115 637778 
2204.876 649405 684688 744362 821571 902116 968696 1006363 1007921 975859 
2209.215 922706 865526 821212 800901 807644 836362 877209 919053 952861 
2213.555 973373 979039 971285 953699 931127 909641 895888 895986 913995 
2217.895 950076 999664 1054398 1104367 1141484 1161989 1167879 1165808 
2221.752 1164586 1171650 1190669 1220739 1257519 1295209 1329194 1357090 
2225.609 1379066 1396349 1410341 1421167 1428237 1430959 1430047 1428183 
2229.467 1429594 1438722 1458371 1487842 1522487 1554160 1573332 1571823 
2233.324 1545423 1495656 1430057 1360966 1302553 1267277 1263122 1291109 
2237.182 1345410 1414627 1485286 1544828 1584989 1602875 1601010 1585176 
2241.039 1562410 1538555 1517237 1499898 1486607 1477357 1472549 1473311 
2244.896 1480726 1495170 1515660 1539671 1563827 1584192 1597401 1600999 
2248.754 1593648 1575244 1547043 1511812 1473588 1437376 1408087 1389677 
2252.611 1384040 1390408 1405960 1426597 1448650 1469686 1489111 1507508 
2256.469 1525788 1543979 1560882 1574548 1583363 1587055 1587569 1588608 
2260.326 1594663 1609362 1634255 1668295 1708058 1749060 1786712 1817573 
2264.184 1839718 1852457 1855979 1851135 1839090 1821456 1800681 1779680 
2268.041 1761635 1749095 1743681 1745406 1753127 1764856 1778774 1793735 
2271.898 1809563 1826918 1846854 1870310 1897652 1928631 1962247 1997211 
2275.756 2031886 2064486 2093318 2116791 2133778 2143840 2147488 2146221 
2279.613 2142376 2138445 2136704 2138453 2143856 2151951 2161155 2169814 
2283.471 2176869 2182132 2186376 2190947 2197246 2206065 2217437 2230302 
2287.328 2243019 2253548 2260235 2261984 2258464 2250070 2237606 2222181 
2291.186 2204936 2186996 2169579 2153858 2140935 2131486 2125528 2122107 
2295.043 2119477 2115331 2107430 2094344 2075946 2053465 2029394 2006710 
2298.900 1988178 1975555 1969449 1969123 1973152 1979693 1987249 1994746 
2302.758 2001819 2008498 2015047 2021592 2028046 2033957 2038670 2041538 
2306.615 2042230 2040690 2037551 2033685 2030215 2027992 2027604 2029105 
2310.473 2032332 2037125 2043560 2052062 2063086 2076815 2092711 2109367 
2314.330 2124764 2136941 2144760 2148562 2150248 2152695 2158963 2171174 
2318.188 2190078 2215127 2245298 2279980 2319611 2365493 2418565 2477977 
2322.045 2539594 2595818 2636673 2652140 2634922 2582557 2498223 2390373 
2325.902 2270495 2151033 2042898 1953589 1886448 1840769 1812954 1797923 
2329.760 1790650 1787264 1785386 1784065 1783216 1783128 1784095 1786179 
2333.617 1789215 1792820 1796671 1800310 1803478 1805938 1807650 1808685 
2337.475 1809169 1809219 1808921 1808214 1806937 1804950 1802165 1798629 
2341.332 1794578 1790327 1786249 1782628 1779661 1777308 1775445 1773842 
2345.189 1772396 1771084 1770183 1770182 1771844 1775706 1782167 1790895 
2349.047 1800974 1810725 1818262 1821877 1820617 1814781 1805841 1796287 
2352.904 1788841 1785756 1788169 1795759 1806863 1818886 1828983 1834770 
2356.762 1834732 1828556 1817050 1801866 1785096 1768839 1754741 1743653 
2360.619 1735672 1730044 1725599 1721144 1715915 1709650 1702913 1696459 
2364.477 1691167 1687385 1684885 1682926 1680551 1677179 1672785 1668062 
2368.334 1664183 1662329 1663209 1666875 1672642 1679337 1685884 1691467 
2372.191 1695846 1699211 1702202 1705498 1709707 1715262 1722300 1730597 
2376.049 1739571 1748308 1755624 1760339 1761841 1760083 1755934 1750885 
2379.906 1746629 1744327 1744416 1746246 1748397 1749241 1747571 1742858 
2383.764 1735460 1726308 1716439 1706751 1697702 1689736 1683270 1678956 
2387.621 1677735 1680358 1687196 1697747 1710781 1724410 1736734 1746131 
2391.479 1751592 1752678 1749331 1741702 1730151 1715331 1698500 1681599 
2395.336 1667050 1657296 1654144 1658124 1668392 1682791 1698773 1714003 
2399.193 1727060 1737479 1745777 1752582 1758185 1762350 1764233 1762928 
2403.051 1757865 1749236 1738062 1726034 1714910 1706375 1701434 1700519 
2406.908 1703356 1709080 1716372 1723530 1728703 1730120 1726529 1717450 
2410.766 1703609 1686761 1669438 1654450 1644199 1640256 1642947 1651499 
2414.623 1664280 1679165 1694035 1707048 1717033 1723277 1725917 1725471 
2418.480 1722883 1719226 1715535 1712724 1711377 1711889 1714375 1718689 
2422.338 1724554 1731303 1738014 1743544 1746716 1746656 1743212 1736908 
2426.195 1729138 1721726 1716444 1714456 1715965 1720191 1725564 1730341 
2430.053 1733033 1732812 1729750 1724492 1718151 1711783 1706265 1702039 
2433.910 1699229 1697460 1696230 1694705 1692055 1687518 1680600 1671334 
2437.768 1660448 1649108 1639152 1632336 1630212 1633753 1643068 1657432 
2441.625 1675436 1695011 1713907 1729918 1741114 1746298 1745119 1738192 
2445.482 1727219 1714604 1703220 1695771 1694367 1700008 1712518 1730320 
2449.340 1750978 1771550 1789226 1802105 1809440 1811862 1811127 1809574 
2453.197 1809467 1812006 1817134 1823398 1828497 1829940 1826252 1817255 
2457.055 1804429 1790541 1778511 1770637 1767770 1768853 1771363 1771976 
2460.912 1767524 1755848 1736517 1710708 1681032 1651046 1624347 1603993 
2464.770 1591881 1588338 1591940 1599865 1608383 1613817 1613493 1606694 
2468.627 1595037 1582163 1572707 1570946 1579210 1596844 1620388 1644163 
2472.484 1662203 1669966 1665989 1652146 1633338 1615725 1604809 1603698 
2476.342 1612172 1626890 1642740 1654205 1657470 1651329 1637380 1619381 
2480.199 1602088 1589737 1585074 1588936 1600270 1616636 1635100 1652578 
2484.057 1666622 1675415 1678257 1675287 1667799 1657924 1648298 1641287 
2487.914 1638525 1640232 1645046 1650616 1654219 1653902 1649404 1642265 
2491.771 1635601 1632933 1637139 1649449 1668955 1693047 1718161 1741021 
2495.629 1759458 1772626 1781015 1785901 1788483 1789712 1789965 1789149 
2499.486 1787204 1784079 1779952 1775022 1769720 1764307 1759288 1755118 
2503.344 1752708 1752785 1755837 1761868 1770028 1778824 1786501 1791582 
2507.201 1793235 1791671 1787674 1782255 1776201 1769612 1761990 1752768 
2511.059 1741691 1729344 1717306 1707987 1703765 1706468 1716763 1733850 
2514.916 1755620 1778927 1800281 1816274 1824312 1823067 1812755 1795195 
2518.773 1773409 1751007 1731247 1715937 1705118 1697096 1689139 1678821 
2522.631 1665309 1650045 1636678 1629912 1633882 1650415 1678298 1713067 
2526.488 1748515 1778286 1797776 1805356 1802328 1792443 1780187 1769614 
2530.346 1763485 1762765 1767064 1775098 1785105 1795271 1803973 1809847 
2534.203 1812146 1810945 1807533 1804162 1803804 1809119 1821658 1841059 
2538.061 1865105 1890158 1912376 1928809 1938262 1941534 1940926 1939272 
2541.918 1938903 1941028 1945392 1950847 1955780 1958897 1959560 1957879 
2545.775 1954430 1950069 1945680 1941832 1939150 1937901 1938405 1940646 
2549.633 1944469 1949368 1954682 1959740 1963966 1967220 1969640 1971829 
2553.490 1974674 1979267 1986689 1997768 2012887 2031756 2053017 2074557 
2557.348 2093649 2107620 2114600 2114022 2106893 2095536 2082948 2071757 
2561.205 2063779 2059317 2057707 2057791 2058862 2061023 2065305 2073302 
2565.063 2086369 2104786 2127493 2152016 2175175 2193766 2205329 2208746 
2568.920 2204290 2193426 2178442 2161892 2146277 2133575 2125090 2121397 
2572.777 2122299 2127163 2135115 2145434 2157750 2172011 2188385 2206788 
2576.635 2226645 2246757 2265599 2281705 2294286 2303367 2309949 2315424 
2580.492 2320885 2326696 2332204 2335968 2336491 2332751 2324815 2313835 
2584.350 2301645 2290091 2280754 2274350 2271102 2270922 2273777 2279590 
2588.207 2288241 2299076 2310730 2321284 2328769 2331788 2330293 2325704 
2592.064 2320657 2318090 2320328 2328295 2341038 2356175 2370704 2381736 
2595.922 2387555 2387788 2383617 2377108 2370939 2367686 2369436 2377474 
2599.779 2392053 2412227 2435995 2460517 2482559 2499157 2508313 2509378 
2603.637 2503157 2491669 2477575 2463548 2451697 2443389 2439297 2439492 
2607.494 2443863 2452067 2463595 2477603 2492837 2507574 2519922 2528118 
2611.352 2531080 2528574 2521518 2511787 2502001 2494867 2492724 2496938 
2615.209 2507683 2523863 2543429 2563839 2582653 2598275 2609990 2618194 
2619.066 2623791 2627675 2630202 2630971 2628984 2623202 2613124 2599425 
2622.924 2584016 2569590 2559020 2554341 2556269 2564113 2575938 2589540 
2626.781 2603041 2615444 2626765 2637557 2648443 2659619 2670595 2680282 
2630.639 2687457 2691377 2692021 2690140 2687284 2684945 2684311 2685812 
2634.496 2689127 2693329 2697210 2699966 2701229 2701302 2700884 2700921 
2638.354 2702095 2704692 2708347 2712352 2715714 2717617 2717575 2715624 
2642.211 2712418 2708861 2706064 2704962 2706244 2710246 2716806 2725459 
2646.068 2735383 2745517 2754668 2761647 2765457 2765610 2762131 2755756 
2649.926 2747831 2740031 2733937 2730709 2730793 2733790 2738563 2743490 
2653.783 2747032 2747909 2745517 2739943 2731908 2722447 2712640 2703318 
2657.641 2694912 2687297 2680130 2672780 2664771 2655974 2646525 2636937 
2661.498 2627745 2619334 2611796 2604806 2597795 2590115 2581403 2571705 
2665.355 2561453 2551252 2541753 2533245 2525682 2518749 2512076 2505518 
2669.213 2499356 2494240 2491030 2490323 2492237 2496368 2501712 2507203 
2673.070 2511873 2515331 2517605 2519127 2520396 2521566 2522474 2522593 
2676.928 2521325 2518371 2513884 2508542 2503407 2499495 2497559 2497809 
2680.785 2499937 2503209 2506818 2510093 2512697 2514647 2516389 2518414 
2684.643 2521202 2524955 2529636 2534874 2540023 2544355 2547232 2548245 
2688.500 2547427 2545143 2542112 2539133 2536911 2535926 2536225 2537645 
2692.357 2539832 2542439 2545329 2548439 2551851 2555392 2558734 2561273 
2696.215 2562361 2561376 2558245 2553349 2547593 2542172 2538167 2536308 
2700.072 2536715 2538896 2541983 2544879 2546687 2546803 2545034 2541451 
2703.930 2536403 2530419 2524195 2518555 2514488 2512912 2514614 2519892 
2707.787 2528398 2539125 2550592 2561182 2569465 2574557 2576319 2575179 
2711.645 2572001 2567636 2562793 2557884 2553139 2548685 2544644 2541346 
2715.502 2539048 2537954 2537945 2538634 2539453 2539766 2539305 2538090 
2719.359 2536570 2535454 2535333 2536528 2538949 2542117 2545489 2548539 
2723.217 2550926 2552669 2553978 2555003 2555713 2555925 2555242 2553395 
2727.074 2550413 2546782 2543437 2541476 2541990 2545636 2552351 2561519 
2730.932 2571892 2582039 2590699 2597060 2600943 2602790 2603592 2604384 
2734.789 2606132 2609296 2613851 2619177 2624384 2628454 2630669 2630706 
2738.646 2628924 2626066 2623234 2621607 2621967 2624823 2630039 2637180 
2742.504 2645429 2654080 2662382 2669953 2676597 2682295 2687147 2691137 
2746.361 2694336 2696764 2698569 2699899 2701193 2702859 2705327 2708840 
2750.219 2713481 2719010 2725119 2731408 2737633 2743739 2749932 2756426 
2754.076 2763361 2770598 2777491 2783192 2786604 2786801 2783418 2776799 
2757.934 2768092 2759158 2752129 2749084 2751463 2759795 2773429 2790683 
2761.791 2809239 2826435 2840040 2848561 2851674 2850071 2845277 2839141 
2765.648 2833322 2828852 2826136 2824892 2824633 2824994 2826049 2828261 
2769.506 2832548 2839638 2849982 2863329 2878649 2894585 2909485 2921946 
2773.363 2931039 2936446 2938350 2937514 2934859 2931524 2928508 2926726 
2777.221 2926716 2928639 2932325 2937145 2942344 2947242 2951321 2954363 
2781.078 2956500 2958004 2959045 2959833 2960364 2960744 2961267 2962432 
2784.936 2964959 2969511 2976600 2986076 2997315 3009261 3020776 3030978 
2788.793 3039385 3046146 3051620 3056357 3060707 3064650 3068044 3070605 
2792.650 3072198 3073022 3073458 3074093 3075496 3078098 3082201 3087883 
2796.508 3095287 3104481 3115524 3128387 3142731 3157920 3172914 3186535 
2800.365 3197523 3204904 3208267 3207742 3204177 3198912 3193627 3189981 
2804.223 3189309 3192442 3199574 3210259 3223536 3238241 3253287 3267843 
2808.080 3281516 3294344 3306623 3318831 3331503 3344994 3359554 3375115 
2811.938 3391335 3407573 3422897 3436301 3446911 3454349 3458913 3461665 
2815.795 3464312 3468744 3476625 3488860 3505528 3525769 3548261 3571485 
2819.652 3594144 3615341 3634595 3651730 3666802 3680079 3692146 3703911 
2823.510 3716732 3731930 3750648 3773234 3799096 3826623 3853682 3878186 
2827.367 3898726 3914972 3927666 3938293 3948557 3959716 3972361 3986358 
2831.225 4001194 4016453 4032069 4048680 4067288 4089108 4115131 4145746 
2835.082 4180584 4218691 4258718 4299257 4339249 4378205 4416416 4454827 
2838.939 4494665 4537244 4583406 4633233 4686051 4740619 4795494 4849617 
2842.797 4902713 4955447 5009260 5065933 5127178 5194007 5266710 5344824 
2846.654 5427429 5513429 5601944 5692419 5784384 5877645 5971906 6066894 
2850.512 6162363 6258026 6353852 6449884 6546258 6643008 6740193 6837845 
2854.369 6936136 7035335 7136028 7238821 7344351 7452932 7564487 7678505 
2858.227 7794065 7910181 8025919 8140617 8254029 8366261 8477655 8588738 
2862.084 8700004 8811811 8924305 9037354 9150623 9263609 9375852 9486820 
2865.941 9596153 9703566 9808698 9911141 10010304 10105431 10195761 10280587 
2869.799 10359338 10431587 10497122 10555641 10606775 10650098 10685106 
2873.174 10711375 10728589 10736576 10735127 10723871 10702290 10669664 
2876.549 10625539 10569991 10503958 10429501 10349613 10267714 10187228 
2879.925 10110939 10040721 9977486 9921426 9872398 9830142 9794668 9766094 
2883.782 9744716 9730954 9725288 9728444 9741415 9765484 9802044 9852327 
2887.639 9916965 9995674 10086966 10188399 10296856 10409206 10522585 
2891.015 10635009 10745509 10853914 10960586 11065841 11169624 11271172 
2894.390 11368876 11460561 11543819 11616372 11676659 11723946 11758263 
2897.765 11780512 11792047 11794337 11788871 11777119 11760381 11739884 
2901.140 11716782 11692132 11666913 11642080 11618697 11598066 11581776 
2904.516 11571654 11569417 11576392 11592983 11618721 11652280 11691797 
2907.891 11735785 11783496 11835047 11891580 11954493 12024972 12103590 
2911.266 12189998 12283296 12382279 12486158 12594485 12707363 12824981 
2914.641 12947354 13073905 13203572 13334790 13465884 13595301 13721806 
2918.017 13844463 13962805 14076687 14186466 14292926 14397262 14500935 
2921.392 14605251 14711022 14818391 14926697 15034987 15142263 15248123 
2924.767 15352730 15457071 15562418 15669928 15780431 15894209 16011181 
2928.142 16131094 16253643 16378509 16505168 16632861 16760267 16886084 
2931.518 17008928 17128024 17243296 17355274 17464882 17573032 17680588 
2934.893 17788142 17896398 18006512 18120126 18239274 18365778 18500832 
2938.268 18644296 18794854 18950254 19108110 19266546 19424816 19583130 
2941.643 19742484 19903832 20067740 20234102 20402324 20571686 20741396 
2945.019 20911008 21080136 21248010 21413356 21574312 21728850 21875068 
2948.394 22011834 22139166 22257990 22369734 22475832 22577106 22673554 
2951.769 22764402 22848424 22924418 22991554 23049642 23099054 23140674 
2955.144 23175610 23204944 23229442 23249468 23264732 23274236 23276184 
2958.520 23268250 23247572 23211192 23156398 23081002 22983712 22864144 
2961.895 22722692 22560462 22378726 22178622 21960580 21724304 21468694 
2965.270 21192458 20894554 20575132 20235902 19880384 19513384 19140386 
2968.645 18766234 18394512 18026990 17663764 17303894 16946238 16590334 
2972.021 16236700 15886852 15542993 15207295 14881530 14566712 14263204 
2975.396 13970830 13689113 13417554 13155712 12903109 12659344 12424035 
2978.771 12196841 11977439 11765456 11560299 11361293 11167402 10977633 
2982.146 10791296 10608133 10428461 10253082 10082889 9918376 9759430 
2985.521 9605134 9454285 9305788 9159093 9014611 8873658 8737804 8608558 
2989.379 8486485 8371274 8261555 8155484 8051048 7946641 7841121 7733842 
2993.236 7624399 7512714 7398749 7282666 7164879 7046124 6927433 6809836 
2997.094 6694297 6581613 6472229 6366282 6263955 6165179 6069850 5977757 
3000.951 5888593 5801853 5717160 5634334 5553445 5474782 5398754 5325610 
3004.809 5255158 5186907 5119997 5053712 4987604 4921717 4856566 4792813 
3008.666 4731066 4671580 4614253 4558811 4505193 4453614 4404773 4359681 
3012.523 4319293 4284043 4253628 4227088 4202897 4179424 4155267 4129447 
3016.381 4101581 4071724 4040172 4007505 3974362 3941608 3910202 3881174 
3020.238 3855461 3833517 3815218 3799822 3786071 3772399 3757468 3740389 
3024.096 3721019 3699955 3678238 3657373 3638701 3623447 3612313 3605517 
3027.953 3602855 3603562 3606518 3610558 3614311 3616754 3617226 3615633 
3031.811 3612306 3607997 3603562 3599704 3596630 3594071 3591315 3587350 
3035.668 3581191 3572292 3560714 3547220 3533145 3520039 3509421 3502223 
3039.525 3498683 3498307 3500000 3502603 3505177 3507430 3509735 3512973 
3043.383 3518313 3526670 3538324 3552997 3569844 3587817 3605974 3623890 
3047.240 3641399 3658874 3676595 3694749 3713224 3731550 3749240 3765814 
3051.098 3781095 3795176 3808149 3820086 3830788 3839693 3846070 3849073 
3054.955 3848087 3842681 3832866 3819025 3801814 3782235 3761620 3741502 
3058.813 3723404 3708658 3698088 3691613 3688588 3687730 3687727 3687775 
3062.670 3687824 3688717 3691761 3698114 3707998 3720590 3733741 3744703 
3066.527 3750768 3750229 3742853 3729767 3713198 3695664 3679328 3665416 
3070.385 3654124 3644952 3637023 3629509 3621868 3613995 3606036 3598231 
3074.242 3590979 3584542 3579338 3575660 3573729 3573682 3575205 3577629 
3078.100 3580138 3581715 3581658 3579557 3575464 3569839 3563290 3556320 
3081.957 3549252 3542111 3534725 3526982 3518869 3510617 3502625 3495366 
3085.814 3489050 3483655 3478793 3473836 3467954 3460621 3451636 3441254 
3089.672 3430302 3419788 3410868 3404321 3400575 3399477 3400543 3403091 
3093.529 3406544 3410513 3415052 3420349 3426478 3433526 3441122 3448648 
3097.387 3455386 3460800 3464594 3466860 3467937 3468382 3468636 3468828 
3101.244 3468999 3468747 3467757 3465617 3462126 3457177 3450888 3443341 
3105.102 3434715 3425042 3414322 3402449 3389370 3375074 3359835 3344182 
3108.959 3328894 3314766 3302619 3292899 3285446 3279776 3274908 3269859 
3112.816 3263888 3256755 3248815 3240758 3233385 3227321 3222926 3219999 
3116.674 3218276 3217378 3217072 3217189 3217760 3218755 3220121 3221888 
3120.531 3224292 3227851 3233412 3241793 3253674 3268909 3286471 3304508 
3124.389 3320813 3333091 3339973 3341073 3336991 3329108 3318982 3307813 
3128.246 3296366 3284788 3273038 3261200 3249667 3239375 3231385 3226751 
3132.104 3226100 3229297 3235491 3243282 3250886 3256736 3259630 3258972 
3135.961 3254822 3247841 3239038 3229413 3219956 3211199 3203430 3196660 
3139.818 3190836 3185852 3181782 3178873 3177283 3177163 3178567 3181399 
3143.676 3185598 3191109 3197987 3206168 3215441 3225091 3233933 3240396 
3147.533 3242911 3240246 3231877 3218314 3200946 3181887 3163476 3147871 
3151.391 3136655 3130659 3129963 3133862 3141118 3150163 3159275 3166881 
3155.248 3171827 3173499 3171972 3167950 3162429 3156628 3151553 3147879 
3159.105 3145843 3145391 3146150 3147798 3149939 3152338 3154908 3157609 
3162.963 3160600 3164139 3168289 3173106 3178140 3182724 3185861 3186657 
3166.820 3184533 3179498 3172098 3163429 3154629 3146632 3139891 3134556 
3170.678 3130637 3128243 3127816 3129872 3134584 3141524 3149317 3155885 
3174.535 3159120 3157533 3150983 3140869 3129696 3120298 3114882 3114353 
3178.393 3118207 3124918 3132557 3139736 3145774 3150683 3154859 3158475 
3182.250 3161328 3162939 3162793 3160811 3157404 3153424 3149636 3146356 
3186.107 3143193 3139273 3133807 3126601 3118388 3110778 3105618 3104370 
3189.965 3107476 3114183 3122926 3132093 3140636 3148500 3156475 3165611 
3193.822 3176504 3188842 3201151 3211493 3218013 3219755 3217012 3211241 
3197.680 3204494 3198916 3195852 3195694 3197998 3201659 3205527 3208603 
3201.537 3210335 3210417 3208739 3205259 3199952 3192939 3184697 3176116 
3205.395 3168499 3163325 3162008 3165495 3173852 3186431 3201680 3217587 
3209.252 3232250 3244109 3252185 3256310 3256864 3254434 3249836 3243721 
3213.109 3236755 3229581 3223135 3218321 3216013 3216616 3219878 3224734 
3216.967 3229591 3232552 3232327 3228305 3220985 3211633 3201853 3193044 
3220.824 3186043 3181072 3177923 3176421 3176700 3179371 3185201 3194693 
3224.682 3207654 3223047 3238917 3252932 3262982 3267705 3266923 3261653 
3228.539 3253907 3246215 3241038 3240284 3244821 3254354 3267441 3281739 
3232.396 3294651 3303816 3307829 3306535 3301147 3293641 3286450 3281332 
3236.254 3279132 3279445 3280910 3281729 3280351 3275919 3268520 3258954 
3240.111 3248453 3238400 3229960 3224144 3221645 3222993 3228375 3237465 
3243.969 3249461 3262870 3275865 3286654 3293835 3296956 3296454 3293574 
3247.826 3289921 3287005 3285852 3286957 3290178 3295097 3301197 3308039 
3251.684 3315191 3322213 3328575 3333538 3336316 3336226 3332845 3326151 
3255.541 3316683 3305369 3293323 3281916 3272240 3265179 3261188 3260334 
3259.398 3262463 3267090 3273675 3281667 3290380 3299129 3306886 3312553 
3263.256 3314980 3313344 3307523 3298258 3287330 3277162 3270238 3268517 
3267.113 3272678 3282090 3294929 3308695 3321256 3331172 3338074 3342793 
3270.971 3346648 3350925 3356403 3362926 3369539 3374634 3376541 3373773 
3274.828 3365659 3352254 3334659 3314782 3295035 3277953 3265734 3259691 
3278.686 3260093 3266007 3275705 3287163 3298436 3308300 3316253 3322472 
3282.543 3327424 3331577 3335017 3337611 3339104 3339527 3339316 3339249 
3286.400 3340396 3343718 3349739 3358281 3368713 3380007 3391070 3400943 
3290.258 3409100 3415406 3419927 3422908 3424538 3424938 3424032 3421549 
3294.115 3417166 3410555 3401529 3390153 3376717 3361936 3346582 3331482 
3297.973 3317297 3304563 3293526 3284544 3278044 3274373 3273956 3276795 
3301.830 3282411 3289618 3296851 3302573 3305754 3306304 3305229 3304199 
3305.688 3305118 3309287 3317013 3327230 3338112 3347338 3352964 3353969 
3309.545 3350282 3342891 3333510 3324004 3316112 3311059 3309598 3311619 
3313.402 3316324 3322301 3327594 3330382 3329125 3323336 3313644 3301745 
3317.260 3290126 3281180 3276562 3276802 3280957 3287160 3293017 3296580 
3321.117 3296676 3293394 3287892 3281894 3277370 3275840 3278027 3283855 
3324.975 3292446 3302437 3312319 3320648 3326352 3328853 3327880 3323476 
3328.832 3315957 3305794 3293587 3280315 3267154 3255503 3246897 3242366 
3332.689 3242417 3246523 3253341 3261064 3267751 3272066 3273568 3272707 
3336.547 3270636 3268587 3267544 3267665 3268533 3269299 3269126 3267380 
3340.404 3263935 3258950 3252763 3245590 3237565 3228757 3219482 3210285 
3344.262 3202026 3195702 3192163 3191751 3194239 3198973 3205057 3211573 
3348.119 3217945 3223762 3228889 3233201 3236469 3238433 3238831 3237492 
3351.977 3234494 3230042 3224464 3218101 3211157 3203915 3196605 3189496 
3355.834 3182943 3177161 3172150 3167626 3163068 3158064 3152457 3146688 
3359.691 3141590 3138196 3137372 3139301 3143484 3148636 3153368 3156518 
3363.549 3157597 3156922 3155416 3154045 3153676 3154527 3156483 3159067 
3367.406 3161971 3165057 3168464 3172214 3176090 3179386 3181016 3179771 
3371.264 3175157 3167301 3157604 3148134 3141277 3138984 3142038 3149900 
3375.121 3160782 3172136 3181333 3186474 3186850 3182993 3176505 3169398 
3378.979 3163719 3160830 3161407 3165371 3172392 3182095 3194308 3209161 
3382.836 3226699 3246594 3267837 3288609 3306716 3319933 3326854 3327270 
3386.693 3322269 3313835 3304377 3295962 3289829 3286244 3284943 3285387 
3390.551 3287302 3290871 3296637 3305093 3316483 3330338 3345785 3361618 
3394.408 3376800 3390722 3403326 3415047 3426438 3438121 3450441 3463597 
3398.266 3477644 3492549 3508199 3524338 3540599 3556554 3571915 3586775 
3402.123 3601823 3618184 3637254 3660030 3686749 3716683 3748112 3778885 
3405.980 3806940 3830943 3850519 3866139 3878786 3889455 3899062 3908102 
3409.838 3917100 3926703 3937830 3951411 3968048 3987538 4008651 4029109 
3413.695 4046241 4057635 4061731 4058363 4048631 4034537 4018357 4002198 
3417.553 3987409 3974862 3965011 3958101 3954377 3954074 3957238 3963558 
3421.410 3972208 3981979 3991450 3999282 4004564 4006853 4006415 4003984 
3425.268 4000781 3998220 3997757 4000500 4006907 4016524 4028081 4039432 
3429.125 4048301 4052594 4051389 4045033 4035405 4025330 4018022 4016098 
3432.982 4021021 4032747 4049854 4070020 4090685 4109604 4125370 4137244 
3436.840 4145247 4149587 4150708 4148878 4144340 4137388 4128596 4118617 
3440.697 4108601 4099544 4092454 4087906 4086052 4086518 4088650 4091439 
3444.555 4093959 4095377 4095128 4092815 4088353 4081743 4073334 4063492 
3448.412 4052991 4042780 4033930 4027472 4024019 4023689 4025895 4029488 
3452.270 4033106 4035408 4035608 4033456 4029305 4023813 4017425 4010283 
3456.127 4002128 3992571 3981566 3969559 3957690 3947490 3940275 3936423 
3459.984 3935219 3934767 3932713 3927022 3916797 3902790 3887203 3872920 
3463.842 3862661 3858029 3859179 3864910 3873213 3882012 3889730 3895481 
3467.699 3898888 3899689 3897460 3891680 3882064 3868861 3853366 3837669 
3471.557 3824446 3816057 3814108 3818733 3828824 3842319 3856763 3869831 
3475.414 3879772 3885485 3886414 3882663 3874809 3864033 3852143 3841102 
3479.271 3833039 3829337 3830482 3836039 3844687 3855124 3866262 3877712 
3483.129 3889698 3902446 3915685 3928253 3938336 3943930 3943587 3937268 
3486.986 3926394 3913466 3901284 3891909 3886268 3883840 3883392 3883703 
3490.844 3884263 3885571 3888980 3896011 3907710 3924199 3944580 3967166 
3494.701 3990155 4011988 4031557 4048398 4062354 4073637 4082460 4089225 
3498.559 4094230 4097808 4100040 4100665 4099181 4095002 4087844 4078026 
3502.416 4066526 4054987 4045210 4038638 4036046 4037460 4042226 4049580 
3506.273 4058799 4069416 4080932 4092691 4103700 4112625 4118505 4120887 
3510.131 4120497 4118757 4117721 4118872 4122725 4128553 4134560 4138836 
3513.988 4140217 4138751 4135657 4132994 4132532 4135181 4140872 4148648 
3517.846 4157433 4166507 4175789 4185636 4196289 4207270 4217379 4224648 
3521.703 4227493 4225050 4218057 4208483 4199029 4192330 4190155 4192829 
3525.561 4199537 4208614 4218316 4227254 4234764 4240906 4246341 4252210 
3529.418 4259716 4270015 4283816 4301172 4321145 4341860 4360851 4375500 
3533.275 4383890 4385308 4380520 4371237 4359819 4348230 4337711 4328467 
3537.133 4320306 4312842 4306113 4300623 4297097 4296054 4297255 4299576 
3540.990 4301333 4300700 4296422 4288088 4276264 4262072 4246997 4232232 
3544.848 4218745 4207137 4197871 4191306 4187589 4186516 4187435 4189188 
3548.705 4190627 4190677 4189035 4186255 4183464 4181989 4182943 4186463 
3552.563 4191904 4197712 4202043 4202964 4198948 4188964 4172552 4149855 
3556.420 4121746 4089884 4056713 4025161 3998217 3978141 3965855 3960596 
3560.277 3959947 3960373 3958283 3950793 3936460 3915466 3889446 3860808 
3564.135 3832313 3806273 3784527 3767947 3756738 3750297 3747401 3746164 
3567.992 3744467 3740309 3732191 3719636 3703275 3684780 3666620 3651149 
3571.850 3640338 3634819 3634195 3636709 3639963 3641461 3639127 3631882 
3575.707 3619723 3603633 3585321 3566631 3549272 3534299 3522125 3512399 
3579.564 3504271 3496579 3488035 3477658 3464694 3449022 3431187 3412379 
3583.422 3394478 3379280 3368533 3362979 3362096 3364320 3367152 3368103 
3587.279 3365495 3358891 3349527 3339433 3330977 3325556 3323402 3323204 
3591.137 3322861 3320243 3313990 3304077 3291668 3278589 3266748 3257385 
3594.994 3250950 3246995 3244827 3243487 3242084 3239817 3235700 3228733 
3598.852 3218065 3203304 3185073 3165097 3146190 3131517 3123901 3124769 
3602.709 3134016 3149539 3168174 3186219 3200333 3208320 3209554 3204727 
3606.566 3195765 3185288 3175846 3169476 3166997 3167859 3170283 3171585 
3610.424 3169129 3161043 3146888 3128007 3107011 3087196 3071419 3061439 
3614.281 3057439 3058238 3061920 3066603 3070934 3074423 3077301 3080034 
3618.139 3083109 3086785 3091036 3095618 3100447 3105252 3109642 3112847 
3621.996 3113751 3111043 3103512 3090665 3072992 3051949 3029679 3008447 
3625.854 2990285 2976381 2967164 2962452 2961609 2963828 2968032 2972862 
3629.711 2976713 2977721 2974145 2964745 2949335 2928811 2905256 2881392 
3633.568 2860210 2844161 2834889 2832924 2837653 2847731 2861100 2875370 
3637.426 2888172 2897344 2901301 2899512 2892294 2880727 2866506 2851028 
3641.283 2835340 2819845 2804397 2788934 2773726 2759769 2748463 2740988 
3645.141 2737627 2737129 2736778 2732961 2722443 2703870 2678485 2650171 
3648.998 2624731 2608053 2604193 2614386 2636314 2665423 2696146 2723878 
3652.855 2746228 2763144 2776455 2788392 2800221 2811179 2818515 2818196 
3656.713 2806200 2780278 2740742 2690911 2636203 2583089 2537506 2503652 
3660.570 2483125 2474876 2475991 2482356 2490090 2496471 2500326 2502073 
3664.428 2503192 2505322 2509365 2515050 2520897 2524747 2524646 2519768 
3668.285 2510913 2500464 2491654 2487400 2489024 2495626 2504318 2511036 
3672.143 2511922 2504626 2488995 2467108 2442499 2418925 2399502 2385873 
3676.000 2378175 2375619 2377068 2381646 2388823 2398303 2409457 2421245 
3679.857 2432072 2440277 2444757 2445226 2442648 2438707 2435471 2434600 
3683.715 2436852 2441992 2449005 2456269 2462083 2464874 2463323 2456276 
3687.572 2442976 2423148 2397400 2367196 2335166 2304587 2279101 2261700 
3691.430 2254429 2257428 2269100 2286063 2304001 2318443 2325799 2324141 
3695.287 2313886 2297567 2279358 2264003 2255379 2255648 2264553 2279602 
3699.145 2297079 2313096 2325001 2331972 2335113 2336537 2338509 2342037 
3703.002 2346699 2350603 2351245 2346669 2336376 2321347 2304124 2287806 
3706.859 2275236 2268257 2267580 2272560 2281929 2293943 2306796 2318556 
3710.717 2327526 2332157 2331661 2326162 2317042 2306748 2298361 2294566 
3714.574 2296923 2305112 2317212 2329991 2340050 2344752 2343194 2335949 
3718.432 2325278 2313830 2304230 2298103 2295962 2297248 2300910 2305448 
3722.289 2309762 2312964 2314640 2314840 2313863 2312460 2311495 2311919 
3726.146 2314573 2319857 2327674 2337159 2347048 2355787 2362159 2365461 
3730.004 2365742 2363928 2361474 2359835 2360190 2362992 2367827 2373405 
3733.861 2378143 2380295 2378518 2372057 2360934 2345790 2327818 2308449 
3737.719 2289229 2271650 2257071 2246849 2242038 2243257 2250532 2263039 
3741.576 2279270 2297193 2314668 2330100 2342605 2352421 2360528 2368222 
3745.434 2376434 2385405 2394478 2402522 2408451 2411874 2413533 2415066 
3749.291 2418680 2426228 2438560 2454983 2473544 2491367 2505535 2514077 
3753.148 2516016 2511603 2501821 2487793 2470567 2450825 2429198 2406570 
3757.006 2384332 2364074 2347779 2336724 2331503 2331688 2335993 2342776 
3760.863 2350572 2358257 2365337 2371521 2376467 2379682 2380202 2377293 
3764.721 2370889 2361701 2351738 2343546 2339769 2342107 2350840 2364465 
3768.578 2380248 2394745 2404911 2408805 2406134 2398290 2387794 2377435 
3772.436 2369915 2366882 2368719 2374515 2382291 2389550 2393866 2393486 
3776.293 2388041 2378341 2366570 2355508 2347846 2345238 2348001 2354576 
3780.150 2362436 2368392 2369965 2365768 2356243 2343093 2329077 2316914 
3784.008 2308830 2306123 2309037 2317128 2329484 2345063 2362823 2381584 
3787.865 2400083 2416653 2429674 2437514 2439251 2434935 2425621 2413400 
3791.723 2400882 2390632 2384536 2383322 2386584 2392690 2399602 2405125 
3795.580 2407829 2407038 2403144 2397246 2390721 2384679 2379696 2375758 
3799.438 2372369 2368877 2365026 2361009 2357501 2355423 2355582 2358142 
3803.295 2362724 2368265 2373603 2377651 2379896 2380517 2380141 2379790 
3807.152 2380334 2382415 2386518 2392940 2401975 2414049 2429366 2447624 
3811.010 2467823 2487991 2505756 2518526 2524590 2523563 2516556 2506096 
3814.867 2495314 2486967 2482662 2482334 2484393 2486427 2486048 2481624 
3818.725 2472947 2460930 2447318 2433922 2422155 2412556 2404947 2398480 
3822.582 2392319 2385926 2379249 2372918 2367908 2365392 2366191 2370553 
3826.439 2378053 2387279 2396315 2403089 2405926 2404093 2398192 2389997 
3830.297 2382265 2377699 2378397 2385032 2396654 2411037 2425463 2437419 
3834.154 2445499 2449584 2450640 2450329 2450185 2451139 2453524 2456955 
3838.012 2460825 2464554 2467807 2470247 2471603 2471462 2469396 2465030 
3841.869 2458674 2451063 2443580 2437723 2434579 2434419 2436508 2439373 
3845.727 2441566 2441924 2440407 2438061 2436530 2437573 2442213 2450205 
3849.584 2460310 2470133 2477318 2479765 2476552 2467822 2454828 2439552 
3853.441 2424183 2410755 2400899 2395720 2395941 2401697 2412768 2428173 
3857.299 2446293 2464615 2480166 2489832 2491415 2484068 2469049 2449472 
3861.156 2429971 2415074 2408444 2411341 2422393 2438008 2453394 2464055 
3865.014 2467182 2462292 2451265 2437299 2423941 2413779 2408035 2406645 
3868.871 2408531 2412681 2418419 2425588 2434257 2444268 2454986 2465068 
3872.729 2473057 2477610 2478258 2475362 2470029 2463653 2457432 2451926 
3876.586 2447187 2442774 2438176 2433070 2427467 2421745 2416608 2412775 
3880.443 2411132 2412527 2417640 2426630 2439146 2454016 2469256 2482594 
3884.301 2492044 2496469 2496138 2492568 2488290 2485750 2486869 2492079 
3888.158 2500716 2511108 2521294 2529651 2535133 2537410 2536625 2533340 
3892.016 2528117 2521558 2514408 2507453 2501361 2496812 2493965 2492453 
3895.873 2491675 2490607 2488623 2485432 2481271 2476912 2473339 2471468 
3899.730 2471958 2475069 2480634 2488036 2496424 2504671 2511568 2516105 
3903.588 2517557 2515886 2511667 2505924 2499707 2493725 2488227 2482939 
3907.445 2477662 2472437 2468196 2466385 2468608 2475944 2488344 2504325 
3911.303 2521375 2536946 2549074 2557231 2562113 2565154 2567485 2569289 
3915.160 2569631 2566748 2559160 2546553 2530387 2513468 2499207 2490464 
3919.018 2488570 2493080 2502151 2513334 2524691 2535116 2544568 2553468 
3922.875 2562107 2570208 2576964 2581307 2582495 2580489 2576012 2570280 
3926.732 2564534 2559566 2555613 2552373 2549568 2547053 2545000 2543727 
3930.590 2543404 2543795 2544386 2544248 2542761 2539819 2536083 2532743 
3934.447 2531254 2532649 2537380 2544798 2553582 2561931 2567926 2570161 
3938.305 2568012 2561769 2552677 2542681 2534089 2529046 2529130 2534860 
3942.162 2545709 2560008 2575625 2590292 2602244 2610537 2615116 2616644 
3946.020 2616286 2615159 2614350 2614643 2616489 2619890 2624448 2629207 
3949.877 2632770 2633477 2629837 2620999 2607187 2589625 2570664 2552910 
3953.734 2538690 2529320 2524948 2524445 2526003 2527747 2528242 2526793 
3957.592 2523708 2519824 2516484 2514834 2515926 2520333 2528216 2539365 
3961.449 2553341 2569573 2587344 2606012 2624995 2643557 2660992 2676298 
3965.307 2688219 2695419 2696721 2691469 2679861 2662977 2642913 2622059 
3969.164 2602952 2587487 2576879 2571370 2570494 2573330 2578825 2585765 
3973.021 2593254 2600385 2606314 2610307 2611867 2610806 2607312 2601930 
3976.879 2595478 2588823 2582755 2577971 2574939 2574060 2575777 2580225 
3980.736 2587660 2598042 2611106 2626156 2642445 2658725 2673803 2686273 
3984.594 2694804 2698362 2696060 2687828 2674189 2656484 2636750 2617349 
3988.451 2600602 2588279 2581294 2579499 2581904 2586873 2592528 2597366 
3992.309 2600217 2600826 2599677 2597761 2596557 2597434 2601375 2608745 
3996.166 2618992 2630789 2642468 2652268 2659272 2663279 2665201 2666572 
4000.023 2668980 2673258 
##END=
