##TITLE=3D-Fillies_PLA-Rainbow_Purple_Filament_r6_ATR-Corrected
##JCAMP-DX=5.01  $$ Nicolet v. 1
##DATATYPE=INFRARED SPECTRUM
##ORIGIN=Curtin University
##OWNER=Nicolet
##LONGDATE=2024/07/18
##TIME=14:09:19
##SPECTROMETER/DATA SYSTEM=Nicolet iS50
##DATA PROCESSING=
Ratio against background
%Transmittance->Absorbance
ATR Correction
Truncated
ElementMultiply or ElementDivide
##COMMENTS=
Number of sample scans: 32
Collection length: 47.28 sec
Sample gain: 1.0
Background collected on: Thu Jul 18 14:08:05 2024 (GMT+08:00);
Number of background scans: 32
Background gain: 1.0
Sample spacing:  1.000
Number of scan points: 16672
Resolution points: 8192
Number of FFT points: 65536
Apodization: N-B strong;
Phase correction: Mertz;
Laser frequency: 15798.3 cm-1
Number of rejected sample scans: 0
Number of rejected background scans: 0
Bench serial number: AUP1200105;
##RESOLUTION=4.000
##XUNITS=1/CM
##YUNITS=ABSORBANCE
##FIRSTX=400.163452
##LASTX=4000.187744
##FIRSTY=0.058595
##MAXX=4000.187744
##MINX=400.163452
##MAXY=0.822919
##MINY=-0.032776
##XFACTOR=1.000000
##YFACTOR=1.000000E-009
##NPOINTS=7468
##DELTAX=0.482125
##ZPD=8192
##XYDATA=(X++(Y..Y))
400.163 58594584 57858504 56925012 55828952 54638280 53442708 52312456 
403.538 51276124 50316564 49389064 48445600 47460572 46443080 45433092 
406.913 44487388 43660828 42990676 42491888 42155936 41956456 41852408 
410.288 41791692 41714752 41561760 41282020 40846772 40256456 39543516 
413.663 38763588 37976804 37228928 36535668 35880556 35226004 34535220 
417.038 33793640 33021588 32273584 31621880 31131886 30838380 30733122 
420.412 30767866 30871068 30970382 31010690 30962896 30821208 30592312 
423.787 30283838 29896736 29425974 28868560 28234472 27555644 26887376 
427.162 26300238 25864416 25631720 25621160 25811626 26144904 26537200 
430.537 26897874 27150064 27248380 27187940 27002964 26756930 26520936 
433.912 26355450 26294902 26341268 26467730 26629218 26777082 26871060 
437.286 26887368 26819448 26675382 26472478 26234672 25989992 25770840 
440.661 25612412 25548754 25605260 25790712 26090906 26468494 26869336 
444.036 27235396 27518714 27691382 27749478 27708232 27592930 27427798 
447.411 27229130 27003470 26751842 26476498 26186982 25902100 25647576 
450.786 25449260 25324822 25278462 25298422 25359742 25429654 25475218 
454.161 25468610 25392852 25243528 25029490 24771378 24498362 24243854 
457.535 24039324 23908112 23860136 23889328 23975150 24087270 24193136 
460.910 24265754 24289108 24261010 24190924 24095386 23989570 23888824 
464.285 23797268 23710484 23618248 23509108 23375470 23216742 23041128 
467.660 22863592 22702626 22575432 22494886 22466596 22489528 22556088 
471.035 22654698 22770428 22886090 22982526 23040286 23041808 22975782 
474.409 22841056 22650276 22428748 22209468 22024600 21895522 21825518 
477.784 21798180 21782216 21742628 21653178 21506342 21316398 21114624 
481.159 20937558 20813686 20753808 20748504 20773730 20801434 20811992 
484.534 20801970 20785082 20785948 20829340 20929944 21086016 21279766 
487.909 21483928 21670454 21820108 21927072 21999598 22055756 22116244 
491.284 22197970 22308910 22446332 22598366 22747108 22873732 22961210 
494.658 23003750 23004300 22976418 22942132 22926730 22952196 23030500 
498.033 23158916 23319484 23482556 23614296 23685510 23679358 23595738 
501.408 23450322 23269676 23082822 22913388 22773810 22663458 22570660 
504.783 22477706 22366486 22223564 22043194 21827970 21587732 21337578 
508.158 21094964 20877068 20698818 20570964 20498560 20480158 20507428 
511.532 20565930 20637090 20700478 20736930 20731380 20675270 20567528 
514.907 20414942 20230716 20032208 19838082 19664756 19523988 19420834 
518.282 19353482 19314564 19293532 19279540 19263710 19240046 19205390 
521.657 19157496 19093562 19009452 18900208 18762216 18595694 18406734 
525.032 18206334 18011676 17838610 17698560 17596228 17528788 17488770 
528.406 17468068 17462094 17471274 17500164 17553198 17630578 17724024 
531.781 17817048 17887390 17913550 17880456 17784170 17632624 17442742 
535.156 17235256 17028976 16836600 16663628 16509498 16370593 16243409 
538.531 16126439 16020702 15929012 15854331 15798505 15761103 15739221 
541.906 15727667 15719546 15707755 15686512 15652534 15606718 15553446 
545.281 15499031 15448743 15404328 15361866 15313854 15252029 15173425 
548.655 15083889 14999585 14943098 14936415 14992002 15106359 15258368 
552.030 15414156 15537088 15598873 15588070 15513220 15398647 15276535 
555.405 15175937 15115037 15099607 15122513 15169146 15222809 15268847 
558.780 15296566 15299660 15275930 15227741 15162338 15092158 15032946 
562.155 15000528 15006371 15053359 15134773 15235798 15338576 15428063 
565.529 15496068 15541896 15570533 15587548 15596176 15596077 15585141 
568.904 15564044 15539122 15523206 15532035 15578477 15666189 15786128 
572.279 15918035 16035872 16116356 16146280 16126741 16071772 16004348 
575.654 15948530 15924169 15942361 16005319 16107300 16237723 16383527 
579.029 16531575 16670668 16793246 16896594 16983568 17060976 17136786 
582.404 17215404 17295512 17368002 17419030 17435614 17411950 17355058 
585.778 17284790 17230104 17220768 17278038 17406770 17593786 17810726 
589.153 18021184 18190370 18292612 18315776 18261630 18143424 17981706 
592.528 17800506 17624438 17476718 17377524 17341842 17377476 17482900 
595.903 17646080 17845448 18052602 18236938 18370986 18435852 18424980 
599.278 18345690 18218172 18071424 17937518 17844732 17811316 17841826 
602.652 17926476 18044848 18172038 18286266 18375036 18438072 18486064 
606.027 18535964 18604192 18701396 18828636 18978070 19135592 19285516 
609.402 19415122 19517344 19591910 19644370 19684986 19726208 19781066 
612.777 19861260 19974768 20123906 20304222 20504342 20708464 20900486 
616.152 21068556 21209516 21329968 21444948 21572790 21729360 21922248 
619.527 22148422 22395080 22644018 22877548 23084352 23262202 23418110 
622.901 23564822 23715864 23880166 24060098 24250428 24442018 24625892 
626.276 24798058 24962354 25130872 25320422 25548028 25824842 26152122 
629.651 26519198 26905024 27282276 27622832 27903596 28110258 28239218 
633.026 28297218 28298902 28264496 28215930 28175102 28160528 28186260 
636.401 28259596 28380924 28544000 28737694 28948448 29163536 29372652 
639.775 29569044 29749328 29911836 30055994 30181834 30291422 30389848 
643.150 30485938 30591128 30716734 30870424 31052730 31256556 31468898 
646.525 31675946 31867892 32042858 32207646 32375344 32560360 32773980 
649.900 33021436 33302340 33613108 33950152 34311564 34696076 35099892 
653.275 35512472 35914452 36279152 36577212 36784712 36889228 36894256 
656.650 36817768 36687404 36532220 36376328 36234656 36113216 36011736 
660.024 35929164 35866892 35829876 35825820 35861128 35937880 36052128 
663.399 36194668 36353724 36518660 36683404 36847612 37015996 37195580 
666.774 37392296 37608360 37841076 38083944 38328852 38569072 38801512 
670.149 39026508 39247288 39467104 39687132 39905464 40117568 40318840 
673.524 40507684 40686940 40864432 41050328 41253708 41478136 41720016 
676.898 41968572 42208860 42425580 42607296 42747992 42847452 42908180 
680.273 42934636 42932020 42907128 42869712 42834724 42820644 42847084 
683.648 42928832 43071764 43269728 43506392 43759556 44008956 44241688 
687.023 44455376 44656556 44855840 45061748 45276440 45494824 45707772 
690.398 45906748 46089348 46260872 46433452 46621180 46835460 47080744 
693.773 47353640 47645128 47944568 48243912 48540324 48837008 49141420 
697.147 49463144 49811712 50195144 50619328 51087424 51599980 52153784 
700.522 52741824 53352836 53972548 54585280 55176472 55734084 56250060 
703.897 56719812 57142208 57518060 57850136 58142880 58402836 58638156 
707.272 58858120 59071160 59284276 59501552 59724668 59953336 60187268 
710.647 60425420 60666524 60907476 61143056 61365744 61568176 61746432 
714.021 61904924 62058492 62233416 62463396 62785624 63235076 63842604 
717.396 64636400 65649444 66928828 68545032 70598536 73218264 76553064 
720.771 80755032 85958672 92257584 99682184 108183280 117620664 127761152 
724.146 138286192 148810960 158913440 168173232 176213472 182740352 
727.039 187571104 190644304 192011168 191811424 190241616 187522512 
729.931 183873824 179496336 174561968 169209936 163546992 157650368 
732.824 151572688 145350528 139011952 132586848 126113344 119642368 
735.717 113237424 106971264 100919216 95152784 89732816 84706544 80105800 
739.091 75948408 72240408 68979376 66155924 63755648 61759116 60141624 
742.466 58872556 57917284 57237724 56795396 56553460 56479476 56545768 
745.841 56730268 57014872 57384424 57825308 58324372 58869140 59448124 
749.216 60052172 60674932 61313184 61966152 62633356 63312016 63994600 
752.591 64667052 65308580 65893272 66393308 66783384 67044368 67166176 
755.966 67148184 66997616 66726200 66345932 65865836 65290308 64618832 
759.340 63848616 62977284 62007308 60947592 59815024 58632628 57426980 
762.715 56223664 55043004 53897276 52789512 51714596 50662516 49622612 
766.090 48587888 47557080 46535824 45534192 44564144 43635140 42752404 
769.465 41914856 41117196 40351668 39610844 38890304 38188860 37509248 
772.840 36856300 36235328 35651672 35108960 34608944 34150268 33728588 
776.214 33335876 32961652 32594298 32224070 31844914 31456664 31063996 
779.589 30674572 30295084 29928426 29571610 29216612 28853516 28473946 
782.964 28074544 27658552 27234310 26812708 26403780 26014706 25649424 
786.339 25309830 24997912 24717564 24474176 24274084 24121822 24019246 
789.714 23964548 23953378 23979680 24037090 24118016 24213262 24309922 
793.089 24391864 24440394 24438600 24374634 24245842 24059590 23832070 
796.463 23583888 23335500 23102776 22895492 22717686 22570488 22455042 
799.838 22374848 22335760 22344542 22405422 22517572 22672192 22852316 
803.213 23035874 23197834 23315160 23371692 23360798 23287302 23165376 
806.588 23015340 22857790 22709256 22578110 22464610 22362492 22264416 
809.963 22165212 22065564 21970714 21888242 21822964 21773790 21732142 
813.337 21684738 21617886 21523634 21402644 21265772 21130330 21015320 
816.712 20936038 20900340 20908448 20954736 21031024 21130036 21246202 
820.087 21375858 21515336 21659516 21801758 21935396 22055186 22160300 
823.462 22254372 22345132 22440912 22548102 22668334 22798080 22929572 
826.837 23054384 23166084 23263500 23351278 23438926 23538314 23660580 
830.212 23812948 23997418 24210026 24442968 24686566 24931990 25173100 
833.586 25407326 25636332 25864320 26095792 26335516 26586356 26849982 
836.961 27125896 27413068 27709536 28014156 28326742 28650154 28990698 
840.336 29359270 29769574 30236974 30773586 31384964 32066196 32801156 
843.711 33564628 34326536 35058428 35738748 36355980 36908988 37403964 
847.086 37850004 38254888 38623720 38958448 39261700 39539604 39805120 
850.460 40078448 40385880 40756176 41217600 41794004 42504324 43362084 
853.835 44376748 45555276 46902584 48420996 50109348 51959984 53956928 
857.210 56074128 58275516 60517576 62753296 64938128 67036584 69026200 
860.585 70900512 72666736 74341712 75945008 77492296 78990960 80439168 
863.960 81827864 83146440 84386328 85545784 86629400 87647416 88612032 
867.335 89534600 90423832 91284704 92117800 92918200 93672080 94354264 
870.709 94924984 95331424 95512176 95406528 94964800 94158912 92987560 
874.084 91476464 89671896 87632128 85416880 83080544 80667784 78213384 
877.459 75743392 73277768 70832200 68419584 66050744 63736276 61487472 
880.834 59318148 57245224 55288828 53470508 51811020 50326980 49029568 
884.209 47922140 47000836 46255024 45669520 45224832 44900364 44674492 
887.583 44526292 44436312 44387636 44366444 44363320 44372596 44392712 
890.958 44424072 44468024 44524464 44590264 44658460 44719112 44760600 
894.333 44772572 44747936 44685412 44588436 44464584 44322928 44171812 
897.708 44017712 43865408 43719260 43585060 43470356 43383472 43330456 
901.083 43311964 43320756 43342892 43360436 43357504 43325184 43265056 
904.458 43188768 43113808 43056840 43028892 43031156 43057464 43097024 
907.832 43141068 43186564 43237892 43304124 43395240 43517216 43670084 
911.207 43848132 44043608 44249732 44464684 44690604 44931824 45191488 
914.582 45468256 45754692 46039748 46311208 46560136 46782740 46981912 
917.957 47164360 47338568 47511452 47686540 47863284 48038732 48208024 
921.332 48366664 48511800 48642780 48761712 48873816 48986648 49109664 
924.706 49252408 49422792 49625832 49862068 50128328 50418724 50726200 
928.081 51044344 51367624 51691128 52009540 52316788 52605596 52869448 
931.456 53104512 53311864 53497588 53672592 53848936 54036256 54238112 
934.831 54450140 54660136 54851488 55006984 55113640 55166528 55170148 
938.206 55137224 55085444 55032604 54992800 54972652 54970988 54980612 
941.581 54992620 55000672 55005532 55015764 55047180 55118192 55244768 
944.955 55436008 55692116 56005196 56363148 56754108 57170924 57611844 
948.330 58080156 58580364 59115320 59683408 60278836 60893016 61516996 
951.705 62142956 62763540 63369700 63947700 64476900 64930120 65276324 
955.080 65485432 65533436 65406456 65101720 64627388 63998484 63234852 
958.455 62358628 61393548 60364680 59299016 58224188 57168360 56156976 
961.829 55210700 54343788 53563984 52872872 52268008 51744588 51297956 
965.204 50923852 50619552 50382696 50211268 50101364 50047284 50039988 
968.579 50068524 50121004 50187016 50260276 50339248 50428216 50534056 
971.954 50663872 50821240 51003856 51204244 51411332 51615208 51809844 
975.329 51995352 52176888 52362176 52557332 52764660 52981760 53202620 
978.703 53421032 53633800 53841092 54047492 54258504 54479304 54712040 
982.078 54955936 55209036 55468812 55734068 56004524 56279600 56557656 
985.453 56835296 57108356 57374072 57633820 57894228 58167320 58466440 
988.828 58804152 59188012 59618924 60090980 60594048 61116644 61648996 
992.203 62184296 62719696 63255028 63792020 64333328 64883156 65446832 
995.578 66032000 66648120 67306008 68016704 68789456 69630256 70540360 
998.952 71515392 72544872 73612768 74699328 75784016 76849504 77885112 
1002.327 78891016 79878656 80870448 81896072 82988248 84178112 85491816 
1005.702 86949224 88564096 90345928 92302520 94441768 96773512 99311344 
1009.077 102074104 105088312 108390256 112026224 116052672 120530952 
1011.970 125520304 131065072 137182544 143846864 150977200 158429216 
1014.862 165994880 173411744 180384256 186615360 191844528 195884864 
1017.755 198651888 200175936 200595984 200135440 199067856 197679616 
1020.648 196237520 194965328 194031680 193547584 193571072 194115840 
1023.540 195160784 196660400 198554960 200778944 203270160 205976896 
1026.433 208862944 211909648 215115184 218489328 222048592 225809328 
1029.326 229783200 233975552 238385920 243009552 247841008 252876096 
1032.219 258111808 263544976 269168896 274969664 280923808 286996352 
1035.113 293141792 299306368 305431552 311457376 317326208 322983648 
1038.006 328380480 333471648 338217056 342578080 346519488 350006624 
1040.899 353008128 355495552 357446176 358844448 359684384 359968832 
1043.792 359708768 358922304 357632192 355865760 353655680 351040864 
1046.685 348069120 344796896 341289312 337616032 333847712 330050304 
1049.578 326281344 322585984 318996032 315529824 312193856 308985248 
1052.471 305895360 302913024 300028000 297233568 294528768 291918144 
1055.364 289413760 287032960 284800448 282746816 280909568 279332128 
1058.257 278065120 277163392 276686528 276695936 277253600 278419296 
1061.150 280248640 282790112 286083712 290158208 295032224 300713472 
1064.043 307201568 314488544 322561120 331400096 340980128 351268192 
1066.936 362225152 373805216 385959552 398638560 411795168 425385280 
1069.829 439367776 453700448 468337248 483224288 498300608 513498112 
1072.722 528746720 543977920 559129216 574144192 588971584 603561664 
1075.615 617864512 631828736 645406784 658557504 671250304 683464704 
1078.509 695185792 706393920 717056704 727122496 736523712 745180096 
1081.402 753012096 759945600 765917440 770871552 774756544 777521984 
1084.295 779123008 779530880 778744960 776800896 773773312 769767808 
1087.188 764908736 759322432 753127680 746429056 739317120 731869696 
1090.081 724156032 716235776 708160448 699970944 691699008 683366144 
1092.974 674986368 666566784 658109632 649611328 641065984 632466240 
1095.867 623807040 615086144 606305984 597469184 588577600 579627392 
1098.760 570610432 561515712 552335040 543066112 533714528 524290624 
1101.653 514805024 505263136 495665088 486007392 476292544 466537088 
1104.546 456779168 447079296 437517152 428181248 419161088 410538912 
1107.439 402387776 394771456 387747936 381371520 375693088 370756928 
1110.332 366596768 363229472 360651616 358836096 357732352 357269184 
1113.225 357359520 357906976 358814848 359993696 361367904 362880128 
1116.118 364490496 366172896 367909440 369684288 371481632 373286368 
1119.011 375089248 376891360 378707712 380564736 382493600 384517568 
1121.905 386642688 388849504 391093600 393310496 395425632 397364576 
1124.798 399060384 400456096 401503968 402163552 402400288 402186944 
1127.691 401506592 400355264 398743168 396691872 394229920 391386304 
1130.584 388185984 384646144 380777216 376581952 372057472 367195488 
1133.477 361983232 356404320 350443712 344090112 337341504 330208576 
1136.370 322715808 314899936 306807648 298491904 290011072 281425920 
1139.263 272800128 264198064 255683184 247315344 239148160 231227904 
1142.156 223592896 216276224 209308080 202716400 196529232 190772032 
1145.049 185467616 180632144 176274960 172397152 168993200 166051248 
1147.942 163554944 161484016 159815104 158522544 157579344 156957920 
1150.835 156632064 156577312 156771584 157194112 157825296 158644224 
1153.728 159629824 160759872 162013424 163371392 164818864 166344208 
1156.621 167939936 169600880 171324080 173108128 174953440 176862608 
1159.514 178840592 180894640 183033392 185265920 187600944 190046272 
1162.407 192609104 195296192 198115312 201075712 204190736 207478016 
1165.301 210962624 214677008 218662368 222967184 227645920 232755136 
1168.194 238352320 244493104 251231408 258620416 266713776 275565920 
1171.087 285231680 295763040 307205920 319594368 332946944 347262016 
1173.980 362514336 378648160 395573184 413155872 431213664 449510560 
1176.873 467760000 485631264 502766496 518799648 533379616 546190208 
1179.766 556969408 565524416 571740864 575588928 577123712 576476288 
1182.659 573839168 569443520 563538880 556372800 548182016 539186048 
1185.552 529589472 519582880 509342976 499029856 488781184 478708480 
1188.445 468895200 459399616 450260416 441503456 433147040 425206304 
1191.338 417692736 410614496 403974336 397769408 391992416 386632192 
1194.231 381676384 377110208 372918368 369084224 365591200 362423712 
1197.124 359569376 357019104 354767488 352810816 351143616 349756256 
1200.017 348633568 347754656 347095104 346628800 346330688 346177056 
1202.910 346144352 346207904 346340832 346513408 346693472 346848768 
1205.803 346948160 346964256 346873216 346656512 346299968 345793856 
1208.697 345131968 344310432 343325056 342169952 340836704 339314624 
1211.590 337594432 335670624 333545984 331232384 328749344 326120384 
1214.483 323369408 320516512 317578368 314569920 311506560 308407936 
1217.376 305297376 302200160 299140736 296137696 293203936 290345664 
1220.269 287565312 284863680 282241152 279698208 277233632 274843456 
1223.162 272521696 270260160 268052368 265895872 263792448 261747152 
1226.055 259766080 257852816 256007696 254227104 252506768 250843856 
1228.948 249240048 247701584 246237920 244858704 243572016 242383424 
1231.841 241296384 240314992 239446256 238701440 238095984 237646816 
1234.734 237370064 237277792 237376608 237665312 238137328 238781040 
1237.627 239583120 240529744 241609216 242812560 244133104 245565392 
1240.520 247101456 248728128 250425424 252164512 253910816 255626496 
1243.413 257275440 258825840 260253072 261538352 262668960 263635344 
1246.306 264432944 265062096 265530912 265855760 266060320 266172256 
1249.199 266219408 266225968 266212016 266194432 266190592 266220992 
1252.093 266309472 266481376 266758176 267152912 267667120 268291232 
1254.986 269008096 269799200 270649760 271550560 272499232 273496672 
1257.879 274544704 275643840 276793248 277991296 279236480 280526624 
1260.772 281857248 283217952 284591200 285951776 287269248 288511072 
1263.665 289647008 290649856 291495328 292160576 292621536 292854304 
1266.558 292835072 292543360 291964960 291092288 289923040 288458208 
1269.451 286699040 284646912 282303584 279674464 276770336 273608224 
1272.344 270210784 266602336 262806896 258846080 254738384 250500448 
1275.237 246149056 241702592 237180928 232605808 227999216 223383232 
1278.130 218780272 214212464 209701760 205268656 200930560 196699184 
1281.023 192580816 188575568 184681024 180895712 177221968 173667536 
1283.916 170245696 166971216 163857296 160911584 158134496 155519312 
1286.809 153055216 150730224 148534240 146460624 144506224 142670576 
1289.702 140954032 139356800 137877376 136513392 135260768 134113848 
1292.595 133066208 132109224 131233352 130427584 129681032 128983424 
1295.489 128326072 127702240 127107264 126539040 125997704 125485224 
1298.382 125005320 124562208 124159760 123799832 123481264 123199128 
1301.275 122945608 122711784 122489192 122271168 122054168 121835872 
1304.168 121613872 121383168 121135688 120859232 120540584 120167088 
1307.061 119730448 119227352 118661184 118039336 117370904 116664024 
1309.954 115922232 115144016 114323120 113449912 112515304 111513392 
1312.847 110444568 109316920 108146032 106952872 105760976 104592720 
1315.740 103466544 102394992 101384336 100435864 99547704 98716184 97937416 
1319.115 97207520 96522624 95877672 95266704 94682952 94119880 93572472 
1322.490 93038056 92516712 92011208 91525648 91065320 90635136 90240480 
1325.866 89887056 89581408 89330376 89141648 89022056 88977792 89013384 
1329.241 89132792 89339648 89638352 90033304 90529552 91130248 91835992 
1332.616 92643608 93546544 94534800 95596992 96720896 97894176 99103296 
1335.991 100333544 101567000 102783328 103959728 105073304 106103688 
1338.885 107036016 107863304 108587984 109221680 109783264 110296360 
1341.778 110785944 111275152 111783888 112327984 112920624 113572720 
1344.671 114295296 115099440 115995448 116991760 118093040 119297824 
1347.564 120598832 121983160 123434672 124936448 126473400 128034208 
1350.457 129611224 131200256 132798496 134402528 136006592 137600464 
1353.350 139168800 140691264 142143136 143497760 144729696 145817472 
1356.243 146747328 147515520 148128080 148600352 148954208 149213904 
1359.136 149402736 149539680 149637600 149703376 149739504 149747344 
1362.029 149729152 149690400 149639808 149586832 149537088 149488816 
1364.922 149428800 149331424 149160576 148874496 148431472 147796416 
1367.815 146945568 145868464 144569344 143065648 141387584 139577472 
1370.708 137689968 135792112 133962200 132287800 130861384 129773720 
1373.601 129108144 128931568 129288656 130196344 131640704 133577168 
1376.494 135933440 138614272 141510352 144505360 147485920 150347504 
1379.387 153000080 155368336 157390016 159012064 160189024 160881136 
1382.281 161057520 160698992 159802208 158380208 156461840 154088176 
1385.174 151309056 148180000 144761088 141114000 137301072 133381160 
1388.067 129405784 125415448 121437616 117488840 113577040 109707160 
1390.960 105885584 102122104 98430864 94829384 91336440 87971256 84751864 
1394.335 81696032 78820648 76141352 73671472 71420448 69391872 67583360 
1397.710 65986672 64589672 63378984 62341584 61468488 60754640 60199928 
1401.085 59808008 59585720 59540796 59681816 60015580 60546192 61272436 
1404.461 62185204 63264540 64477832 65777636 67103156 68381528 69532696 
1407.836 70475160 71132696 71441888 71359088 70866320 69973544 68719160 
1411.211 67165072 65389580 63478984 61517256 59579348 57724404 55993620 
1414.586 54410800 52983860 51708888 50574552 49565700 48666892 47864696 
1417.962 47149768 46516044 45961424 45485220 45088020 44769304 44527708 
1421.337 44360564 44264668 44236292 44270732 44361328 44498304 44667860 
1424.712 44852324 45033500 45196128 45332404 45444620 45546692 45661972 
1428.087 45819056 46046768 46369084 46802676 47355756 48030512 48824768 
1431.463 49735500 50760608 51899548 53154360 54529456 56032188 57672040 
1434.838 59460504 61409556 63530548 65833500 68327216 71021528 73929104 
1438.213 77066952 80455456 84115960 88064752 92309328 96843344 101647208 
1441.588 106688808 111928120 117319224 122813440 128358528 133899080 
1444.481 139375728 144727456 149893104 154815104 159442352 163731888 
1447.375 167650048 171173680 174290496 176998800 179305904 181224704 
1450.268 182769712 183953360 184784736 185269136 185410160 185211040 
1453.161 184674000 183799008 182581056 181009904 179071536 176753872 
1456.054 174053536 170979680 167556144 163816736 159799696 155540576 
1458.947 151070176 146416256 141607216 136675936 131661024 126604440 
1461.840 121547688 116527416 111573696 106711304 101960536 97340720 92870536 
1465.215 88566832 84443976 80512272 76779368 73252096 69937416 66842712 
1468.590 63974000 61333492 58916228 56710544 54698848 52861216 51178332 
1471.966 49634128 48214328 46906084 45694860 44564604 43498012 42479584 
1475.341 41498236 40548828 39631244 38749024 37905680 37102544 36337600 
1478.716 35606388 34902400 34220000 33553862 32899604 32252990 31610534 
1482.091 30969706 30330608 29696678 29075010 28474356 27903474 27367948 
1485.467 26868804 26403072 25965520 25551012 25156890 24783042 24432172 
1488.842 24107072 23809268 23538076 23291708 23067994 22865458 22684454 
1492.217 22525908 22390436 22277276 22184602 22110316 22053814 22017472 
1495.592 22006734 22029004 22091966 22201058 22359320 22567356 22826128 
1498.968 23138830 23510952 23949706 24460610 25042920 25686592 26369062 
1502.343 27057076 27707836 28274334 28710452 28975430 29040432 28892764 
1505.718 28538418 28003944 27333088 26580950 25804268 25052842 24363176 
1509.093 23754376 23230426 22783698 22401002 22068356 21775010 21514790 
1512.469 21284640 21082936 20908246 20757716 20627780 20515082 20417244 
1515.844 20333656 20265250 20213028 20177518 20157900 20151494 20153842 
1519.219 20160296 20165082 20162756 20148894 20120832 20078558 20025710 
1522.594 19969448 19918770 19882002 19864982 19868040 19885880 19908524 
1525.969 19923880 19921318 19895598 19846710 19781622 19710492 19644130 
1529.345 19590358 19552892 19530022 19515596 19501264 19477560 19436800 
1532.720 19373690 19285966 19176178 19049648 18915530 18783864 18664332 
1536.095 18563742 18484612 18424342 18376546 18332236 18282604 18222358 
1539.470 18150546 18071618 17993802 17926376 17877068 17850022 17844844 
1542.846 17857248 17880318 17906286 17927590 17938974 17936630 17919870 
1546.221 17890156 17851158 17808026 17766924 17734382 17715672 17714284 
1549.596 17730710 17763384 17807836 17858860 17911130 17960266 18002824 
1552.971 18036744 18060742 18074382 18077874 18072318 18060082 18044400 
1556.347 18029546 18019186 18016656 18022872 18037146 18057420 18081366 
1559.722 18107602 18136668 18170370 18211262 18260260 18316998 18378554 
1563.097 18440738 18499558 18552766 18600624 18645154 18689552 18735948 
1566.472 18785144 18835816 18886302 18935854 18986990 19044890 19117156 
1569.848 19210604 19330292 19476412 19645636 19832586 20032460 20243510 
1573.223 20467478 20708526 20970610 21253778 21552036 21852538 22137380 
1576.598 22386880 22584232 22718044 22784174 22784916 22727842 22623512 
1579.973 22484350 22322844 22151160 21979414 21814960 21660838 21516660 
1583.349 21378652 21242046 21103326 20961946 20821492 20688444 20570230 
1586.724 20473142 20399350 20346326 20307630 20274604 20239768 20198290 
1590.099 20149626 20097570 20047602 20005742 19975806 19959698 19955854 
1593.474 19961948 19975544 19996482 20026136 20068266 20126912 20205852 
1596.850 20306474 20428038 20568888 20726268 20899056 21087444 21293258 
1600.225 21519542 21768572 22041818 22338994 22659286 23001424 23365452 
1603.600 23751650 24160298 24590286 25037152 25492788 25945832 26382842 
1606.975 26790662 27158530 27478036 27743738 27952156 28100128 28185792 
1610.351 28208506 28171004 28080006 27947220 27786426 27611836 27433690 
1613.726 27257252 27081428 26902590 26716078 26520384 26318458 26117584 
1617.101 25925980 25750884 25595692 25459062 25337226 25226406 25124992 
1620.476 25034708 24960076 24905996 24875714 24869186 24882370 24908820 
1623.852 24940964 24972400 24999000 25018862 25031586 25038450 25040402 
1627.227 25039272 25037250 25037068 25042020 25055638 25080734 25118764 
1630.602 25169522 25230950 25299414 25370610 25439552 25502366 25556292 
1633.977 25599868 25633586 25660132 25682306 25703474 25726346 25751972 
1637.353 25780316 25810700 25841768 25873362 25904908 25937096 25969238 
1640.728 26000442 26029062 26053410 26072292 26086268 26097424 26108642 
1644.103 26122572 26141144 26164524 26192270 26223366 26258096 26297094 
1647.478 26341264 26391460 26446614 26504128 26560590 26613738 26664310 
1650.854 26716552 26778820 26860270 26968942 27108506 27275770 27462516 
1654.229 27656304 27845916 28023310 28185772 28336378 28482240 28633006 
1657.604 28798006 28984228 29195098 29429554 29683468 29950624 30224448 
1660.979 30500820 30778764 31060940 31352572 31659626 31986386 32334398 
1664.354 32701574 33084494 33478860 33882388 34295216 34719744 35159124 
1667.730 35615732 36088900 36575892 37072204 37573552 38076920 38581892 
1671.105 39089008 39599844 40114420 40631688 41149252 41664160 42174132 
1674.480 42678256 43177988 43676568 44178816 44690828 45219024 45769600 
1677.855 46347176 46953276 47585732 48238268 48901848 49566676 50224828 
1681.231 50872028 51507772 52135352 52759312 53383040 54008644 54636924 
1684.606 55268588 55906188 56554452 57221740 57916048 58646792 59420908 
1687.981 60244984 61123440 62060336 63057848 64115516 65230012 66395788 
1691.356 67606656 68860840 70164112 71532320 72990064 74566960 76289688 
1694.732 78175728 80230152 82446936 84816968 87339112 90029568 92925016 
1698.107 96082016 99565064 103436504 107744392 112516528 117762544 123484600 
1701.482 129690648 136406624 143684528 151598624 160237904 169693552 
1704.375 180047648 191364192 203685552 217031104 231399776 246769424 
1707.268 263098000 280322720 298361856 317119136 336487488 356353728 
1710.161 376595328 397074400 417627040 438055712 458130240 477595744 
1713.054 496190112 513661920 529787904 544385344 557324928 568542720 
1715.948 578053248 585954816 592422336 597680768 601965184 605479680 
1718.841 608369216 610715584 612551872 613889280 614739264 615123328 
1721.734 615069376 614601600 613734656 612477888 610849344 608890496 
1724.627 606673600 604292480 601841728 599391360 596969792 594563520 
1727.520 592135040 589646272 587083264 584464256 581834112 579245824 
1730.413 576742912 574348608 572070400 569911168 567884544 566022016 
1733.306 564373120 562992960 561932160 561228672 560912128 561013504 
1736.199 561577984 562669696 564370368 566766976 569938112 573944192 
1739.092 578824576 584603136 591297536 598925056 607501504 617031616 
1741.985 627494656 638834624 650957376 663738752 677037440 690704896 
1744.878 704591104 718536640 732364800 745874368 758845696 771053440 
1747.771 782289536 792378624 801183808 808601024 814546880 818950976 
1750.664 821754880 822918656 822430976 820306816 816580928 811290688 
1753.557 804465536 796124416 786286976 774992128 762314432 748369792 
1756.450 733308032 717294528 700490048 683038464 665066432 646689536 
1759.344 628022528 609188608 590319360 571548160 553003648 534801472 
1762.237 517040192 499798176 483136000 467094432 451694464 436938656 
1765.130 422812768 409291680 396347328 383955936 372102944 360780960 
1768.023 349986528 339709152 329927072 320601952 311683040 303113664 
1770.916 294839968 286817952 279017088 271417088 264004592 256765488 
1773.809 249681152 242725728 235869536 229081744 222336208 215612656 
1776.702 208899664 202193520 195496672 188816304 182162512 175547216 
1779.595 168985152 162491504 156084080 149780656 143600256 137560160 
1782.488 131676536 125963080 120429848 115084240 109930992 104974136 
1785.381 100219320 95675512 91355504 87273672 83441896 79864520 76534504 
1788.756 73432720 70531952 67804424 65229960 62803752 60535468 58444124 
1792.132 56548164 54854880 53352592 52010988 50788952 49643168 48542352 
1795.507 47470144 46427232 45424728 44476576 43591492 42770008 42004044 
1798.882 41282916 40595936 39937256 39305512 38703980 38136940 37606784 
1802.257 37113708 36654932 36224896 35817280 35424040 35037728 34651796 
1805.633 34261836 33866748 33468782 33072744 32683812 32306050 31940748 
1809.008 31587406 31246390 30919942 30614596 30338644 30099618 29898766 
1812.383 29728354 29570916 29403384 29203308 28956336 28660924 28329308 
1815.758 27983690 27648516 27343532 27078072 26847636 26639456 26436264 
1819.134 26225480 26002680 25773402 25550182 25347770 25176394 25037802 
1822.509 24923340 24815184 24691408 24532674 24326944 24075290 23790800 
1825.884 23496290 23216750 22973490 22776284 22622696 22498224 22381306 
1829.259 22248576 22080824 21864524 21594070 21268912 20893996 20478640 
1832.635 20038436 19594638 19174506 18804834 18507306 18290666 18147508 
1836.010 18055696 17984506 17904942 17799074 17664274 17512490 17361650 
1839.385 17225890 17106584 16990224 16852268 16667290 16420152 16115226 
1842.760 15778001 15449705 15176099 14993832 14918979 14943121 15035002 
1846.135 15149565 15240379 15270867 15222197 15096941 14914606 14705327 
1849.511 14499733 14320107 14174686 14058356 13955404 13849598 13729083 
1852.886 13592847 13449633 13314862 13202402 13119631 13063997 13024712 
1856.261 12987969 12943955 12890479 12833725 12785951 12759924 12763735 
1859.636 12798657 12859583 12938271 13026404 13117162 13203707 13278008 
1863.012 13328446 13341311 13302133 13201965 13041095 12829622 12586136 
1866.387 12332302 12086262 11859884 11655803 11472386 11306055 11156940 
1869.762 11029880 10932229 10871097 10850023 10865828 10911627 10977451 
1873.137 11055201 11139541 11229281 11323803 11421654 11517047 11601652 
1876.513 11663665 11692843 11680891 11623678 11521807 11382146 11214848 
1879.888 11036323 10865512 10722554 10623626 10576766 10577139 10607212 
1883.263 10638880 10644069 10603217 10514968 10397266 10283823 10210264 
1886.638 10202494 10263347 10370849 10481521 10547516 10531190 10420882 
1890.014 10234504 10015291 9816505 9686593 9653352 9722239 9875709 10087137 
1893.871 10329985 10585933 10846604 11108887 11366228 11603126 11793868 
1897.246 11906998 11914681 11803180 11575708 11254855 10876052 10479446 
1900.622 10103098 9777916 9526053 9361456 9287263 9295355 9362644 9451918 
1904.479 9517246 9514611 9414975 9218040 8953878 8679071 8455863 8333737 
1908.336 8329520 8423685 8565396 8697416 8774127 8782037 8739712 8685397 
1912.194 8653529 8655966 8669421 8647261 8536981 8313692 7996683 7656318 
1916.051 7392522 7305271 7454304 7838063 8384063 8974381 9475957 9781802 
1919.909 9837746 9652433 9284730 8821331 8350626 7943480 7643690 7471153 
1923.766 7428138 7505970 7688299 7951698 8261254 8576361 8854843 9066808 
1927.624 9203830 9284418 9346507 9436232 9585758 9802278 10062075 10319360 
1931.481 10521437 10626485 10611824 10476985 10228939 9876327 9418359 
1934.856 8851114 8179134 7431907 6670100 5982733 5462054 5182555 5169823 
1938.714 5399349 5802673 6296514 6809681 7309598 7794219 8284879 8790173 
1942.571 9289445 9724914 10019794 10107669 9967069 9632225 9189693 8750367 
1946.428 8412202 8229276 8205057 8300870 8464939 8658538 8870355 9109165 
1950.286 9389190 9703242 10017499 10271411 10404246 10371514 10171672 
1953.661 9832484 9409460 8950904 8489555 8032351 7575300 7117355 6681456 
1957.519 6314761 6078058 6025051 6179636 6520950 6992391 7509731 7989927 
1961.376 8360304 8567057 8568440 8338755 7864629 7164856 6293853 5352629 
1965.233 4467028 3762510 3323446 3164598 3221766 3375632 3497582 3501386 
1969.091 3382044 3225060 3179725 3407535 4014538 5011541 6283753 7615310 
1972.948 8733483 9388023 9420137 8826465 7769934 6567635 5595647 5196315 
1976.806 5553880 6626598 8131386 9633974 10684961 10974844 10420241 9178990 
1980.663 7570553 5972475 4715519 4009677 3915625 4362415 5187428 6204762 
1984.521 7242223 8171543 8908276 9401957 9630828 9602011 9356217 8971732 
1988.378 8547314 8183564 7943046 7839516 7826311 7829272 7779042 7653352 
1992.235 7489134 7374542 7410029 7664827 8145492 8793407 9508348 10190500 
1996.093 10768644 11219781 11548582 11767698 11860059 11780561 11463894 
1999.468 10866339 9988214 8900939 7723065 6591256 5608298 4820289 4207569 
2003.325 3721831 3321966 3015845 2872145 2996029 3474137 4327548 5464832 
2007.183 6695216 7771468 8462969 8605595 8148555 7137812 5704996 4025730 
2011.040 2296042 701937 -587499 -1456445 -1843492 -1774698 -1350568 -735326 
2014.898 -103335 398466 702315 825246 855810 907800 1076212 1397163 1858127 
2019.237 2416824 3043493 3751031 4590369 5616430 6846877 8212850 9559783 
2023.095 10676054 11363223 11500791 11102786 10308914 9343834 8437638 
2026.470 7757413 7351348 7162708 7053734 6872989 6504728 5900990 5074338 
2030.327 4084099 2992956 1857391 709677 -422753 -1517090 -2527434 -3402399 
2034.185 -4070174 -4470918 -4543961 -4251698 -3572742 -2524699 -1159044 
2037.560 416427 2054338 3576021 4815302 5644765 6023426 5998575 5705322 
2041.417 5312678 4987443 4833750 4877359 5064236 5300763 5492073 5588674 
2045.275 5600698 5603655 5701452 5992356 6532036 7312502 8256607 9243785 
2049.132 10136307 10821423 11233845 11366606 11259913 10986430 10624001 
2052.508 10243113 9887247 9569179 9271291 8959820 8600601 8182801 7727900 
2056.365 7293692 6955093 6784996 6820525 7054766 7424733 7833845 8173148 
2060.222 8359421 8349179 8156558 7833574 7458400 7104080 6823294 6635449 
2064.080 6537934 6506799 6521070 6559887 6614652 6683725 6772498 6885550 
2067.937 7033470 7226939 7478044 7796074 8181213 8614480 9060213 9461015 
2071.795 9755240 9885783 9821223 9561460 9146441 8645447 8148176 7741585 
2075.652 7497797 7456396 7627696 7986549 8489396 9075928 9686083 10261187 
2079.510 10753595 11124464 11350035 11419065 11334205 11112502 10784267 
2082.885 10387234 9964508 9556023 9196016 8909299 8709806 8599977 8574194 
2086.742 8615610 8700406 8795165 8865103 8873231 8792312 8607076 8321145 
2090.600 7952856 7535086 7102999 6691446 6327225 6032160 5820960 5707238 
2094.457 5696891 5789985 5967056 6193322 6414571 6574461 6627701 6560962 
2098.314 6396667 6198650 6047213 6024372 6186107 6551853 7100034 7781167 
2102.172 8530959 9289800 10005939 10641726 11164969 11548283 11767089 
2105.547 11809992 11683920 11422814 11079906 10720086 10397044 10142980 
2108.922 9954490 9803319 9645605 9445244 9183450 8870042 8533790 8216715 
2112.780 7958421 7789760 7727195 7775440 7925332 8156622 8431721 8702925 
2116.637 8912151 9006192 8949722 8742311 8418671 8046693 7702599 7452651 
2120.495 7326086 7313372 7367180 7425128 7429012 7346397 7171006 6920909 
2124.352 6617455 6273774 5880384 5415215 4844827 4149948 3328724 2410951 
2128.209 1450168 515636 -321133 -997045 -1471475 -1730082 -1790377 -1698932 
2132.067 -1529299 -1363862 -1282943 -1337444 -1541412 -1860194 -2229890 
2135.442 -2575194 -2839182 -2999292 -3076889 -3118873 -3184309 -3313944 
2138.817 -3527207 -3808640 -4132111 -4458156 -4756149 -4994838 -5149391 
2142.193 -5188029 -5082943 -4817242 -4405314 -3899855 -3398351 -3020190 
2145.568 -2884884 -3072079 -3597599 -4404888 -5379940 -6376536 -7254359 
2148.943 -7907486 -8285772 -8390068 -8276637 -8036678 -7796550 -7705319 
2152.318 -7932067 -8638562 -9970586 -12012552 -14770001 -18129342 -21864312 
2155.694 -25628254 -28999920 -31517058 -32775742 -32502492 -30655318 
2158.587 -27469828 -23431662 -19137864 -15125284 -11713543 -8967579 -6739118 
2161.962 -4815753 -3021633 -1324967 162222 1216800 1615736 1215115 47064 
2165.819 -1692121 -3673700 -5542666 -6998738 -7881103 -8178666 -8016634 
2169.195 -7586261 -7090787 -6682293 -6441451 -6373507 -6429806 -6527651 
2172.570 -6592221 -6561723 -6415060 -6165551 -5861163 -5569580 -5362349 
2175.945 -5283317 -5346084 -5519880 -5751660 -5982626 -6179722 -6348254 
2179.320 -6528877 -6771002 -7108317 -7515628 -7908182 -8148608 -8091844 
2182.696 -7633619 -6752182 -5516281 -4071652 -2591912 -1241456 -130769 
2186.071 687242 1213801 1471453 1491159 1282039 848375 188729 -678599 
2189.928 -1698788 -2782375 -3813804 -4665552 -5230086 -5436880 -5266491 
2193.303 -4753249 -3983523 -3069069 -2129608 -1261518 -518195 109808 678632 
2197.161 1280190 1997525 2873850 3876646 4897926 5768671 6312176 6387247 
2201.018 5950027 5063504 3897541 2676801 1625960 899035 550879 527176 699440 
2205.358 921470 1087089 1160440 1189683 1263242 1476244 1875863 2442058 
2209.215 3091735 3716705 4222310 4570237 4780529 4922753 5069555 5264499 
2213.073 5497840 5716141 5847492 5848840 5725929 5541850 5390285 5351358 
2216.930 5454679 5660105 5872319 5985412 5927758 5704231 5398410 5148835 
2220.788 5092624 5319041 5825950 6525609 7264067 7879827 8245572 8307416 
2224.645 8087696 7672771 7179170 6724152 6397764 6254989 6306559 6531972 
2228.502 6879552 7282841 7670982 7982712 8179379 8258301 8251063 8218167 
2232.360 8227550 8333638 8556006 8873296 9224158 9530278 9715736 9733245 
2236.217 9573559 9273463 8899792 8539047 8271686 8159172 8229536 8474396 
2240.075 8850934 9291029 9716135 10055313 10258715 10311231 10228583 
2243.450 10054501 9841174 9637713 9472135 9355262 9278464 9232370 9211807 
2247.307 9227463 9298839 9447942 9681631 9986467 10322336 10634121 10861224 
2251.165 10957002 10901335 10705166 10407647 10069284 9754423 9522704 
2254.540 9415001 9449904 9619598 9894716 10229103 10570548 10868918 11089647 
2258.397 11215981 11254185 11226752 11166290 11102775 11058022 11035682 
2261.773 11029697 11022422 11000132 10955463 10893941 10832471 10796162 
2265.148 10810070 10896618 11071208 11340857 11707528 12167279 12707742 
2268.523 13310358 13942645 14561865 15114679 15546437 15811188 15884368 
2271.898 15770325 15507484 15160018 14809163 14532520 14389937 14408818 
2275.274 14581701 14868956 15212551 15550735 15834896 16038103 16160643 
2278.649 16224997 16267503 16325995 16430676 16593959 16811146 17058916 
2282.024 17304010 17511778 17655294 17722796 17721068 17671876 17606634 
2285.399 17554086 17533662 17546380 17579310 17607932 17609328 17567276 
2288.775 17482604 17369268 17249492 17144112 17063870 17004600 16948632 
2292.150 16869854 16745625 16560873 16315589 16021831 15703324 15386253 
2295.525 15097255 14858409 14686386 14593013 14582480 14651211 14788680 
2298.900 14974932 15186899 15399539 15592801 15755903 15887482 15992709 
2302.276 16081790 16161915 16236655 16303280 16356511 16389973 16400464 
2305.651 16387124 16351949 16296487 16222825 16132277 16029267 15921792 
2309.026 15824154 15753845 15729301 15762988 15859930 16012007 16203562 
2312.401 16411968 16614974 16795500 16945566 17066000 17167538 17265224 
2315.777 17375608 17511266 17677622 17870406 18078236 18285568 18482464 
2319.152 18668752 18861414 19089442 19386978 19776082 20252678 20775012 
2322.527 21265206 21624046 21754378 21586762 21098830 20322364 19336074 
2325.902 18247156 17170254 16203806 15415444 14832100 14442429 14207512 
2329.278 14075220 13996186 13933094 13867552 13796739 13729584 13679476 
2332.653 13658489 13673615 13723853 13801319 13891990 13980120 14050325 
2336.028 14092699 14103930 14089410 14060200 14028699 14005119 13993316 
2339.403 13989834 13985408 13968872 13932277 13872863 13796124 13712042 
2342.779 13633913 13573222 13537139 13528119 13543968 13578803 13626016 
2346.154 13677977 13727438 13767460 13792209 13795276 13774606 13728841 
2349.529 13661991 13580287 13493422 13411819 13345028 13301104 13284408 
2352.904 13294791 13328006 13376567 13430361 13478884 13512720 13524343 
2356.280 13508920 13465317 13394875 13301617 13192575 13075828 12961019 
2359.655 12856391 12767328 12692963 12626495 12554455 12460924 12333535 
2363.030 12167759 11971444 11765420 11578129 11437622 11363717 11360803 
2366.405 11416234 11504519 11596182 11666858 11705504 11717414 11720908 
2369.781 11740211 11795979 11898177 12042313 12211414 12380058 12523566 
2373.156 12622737 12669249 12665451 12623502 12559869 12491832 12431181 
2376.531 12385091 12351817 12326022 12300055 12268580 12230947 12192742 
2379.906 12162421 12150918 12166073 12210369 12280798 12369791 12467935 
2383.281 12567727 12662847 12749697 12824270 12881911 12916609 12923381 
2386.657 12900613 12854290 12795455 12741407 12708168 12707287 12740789 
2390.032 12802523 12879601 12959201 13031134 13091787 13142671 13187071 
2393.407 13227715 13264361 13294915 13317280 13332423 13345237 13364007 
2396.782 13396377 13446863 13514997 13595073 13679053 13758642 13828598 
2400.158 13885289 13925965 13946177 13940670 13903948 13835186 13740828 
2403.533 13637161 13546695 13493000 13492637 13549760 13654150 13783959 
2406.908 13911328 14011925 14070198 14082964 14058685 14012633 13962840 
2410.283 13923957 13904565 13905887 13921058 13937691 13940314 13915633 
2413.659 13855610 13763555 13652828 13546200 13468240 13438982 13465183 
2417.034 13537305 13632588 13720609 13774655 13779837 13736208 13659341 
2420.409 13571562 13495618 13446379 13428497 13436940 13461649 13491247 
2423.784 13515242 13525740 13516631 13484647 13429534 13355999 13277067 
2427.160 13209591 13173529 13181113 13232864 13312182 13388274 13423874 
2430.535 13386250 13257826 13044456 12772812 12484576 12225173 12033248 
2433.910 11931971 11927319 12007846 12152804 12332623 12518261 12682020 
2437.285 12801894 12862880 12861744 12807038 12717305 12619934 12542497 
2440.661 12507334 12524291 12588979 12683663 12783717 12865220 12910536 
2444.036 12915379 12884887 12834871 12782457 12743885 12727365 12735371 
2447.411 12762747 12802363 12847825 12895689 12948087 13009222 13084762 
2450.786 13179490 13293181 13421728 13556599 13688655 13808342 13909560 
2454.162 13986848 14036486 14053172 14031116 13963872 13848118 13686236 
2457.537 13489106 13274041 13061904 12872153 12716252 12595943 12503556 
2460.912 12426980 12357142 12292478 12241247 12218551 12238199 12306817 
2464.287 12417506 12549240 12672689 12757591 12781502 12735202 12624787 
2467.663 12467518 12286883 12106955 11949485 11830448 11761680 11750403 
2471.038 11797644 11897892 12036040 12189502 12330693 12432249 12475800 
2474.413 12454677 12375978 12257682 12122266 11990709 11876628 11786161 
2477.788 11720065 11677689 11659453 11669940 11713158 11792113 11904015 
2481.164 12039909 12186766 12330455 12458738 12565698 12648058 12705641 
2484.539 12739011 12747730 12732122 12696171 12648371 12601472 12570311 
2487.914 12564828 12586946 12627762 12669013 12689328 12672749 12613168 
2491.289 12517907 12405417 12297400 12212825 12163810 12150536 12167179 
2494.665 12204051 12253480 12310542 12375320 12448163 12530156 12620726 
2498.040 12716783 12814723 12911120 13000770 13077801 13134074 13160927 
2501.415 13153314 13113564 13054835 13000869 12980205 13017547 13125361 
2504.790 13296984 13504588 13711045 13874641 13965639 13970512 13895947 
2508.166 13761180 13591534 13410661 13236646 13082037 12956763 12869001 
2511.541 12827775 12833941 12880962 12949236 13007930 13025936 12978102 
2514.916 12858248 12683473 12490191 12324529 12230416 12234698 12343930 
2518.291 12542839 12800881 13082474 13353514 13589385 13773380 13898253 
2521.667 13963104 13973814 13940255 13878490 13807305 13746345 13709671 
2525.042 13703140 13722617 13754389 13779902 13781684 13747937 13676520 
2528.417 13574210 13454482 13334296 13229686 13152024 13106840 13092448 
2531.792 13102072 13126304 13155808 13184390 13210264 13236485 13268243 
2535.167 13308344 13355518 13402456 13438523 13453159 13443717 13419201 
2538.543 13398680 13407527 13469265 13596205 13782951 14008081 14237943 
2541.918 14438160 14581554 14654924 14661034 14612909 14528210 14423156 
2545.293 14309698 14195439 14086532 13989899 13915288 13871679 13866608 
2548.668 13900870 13968331 14056953 14152800 14243125 14322106 14389300 
2552.044 14452840 14521716 14605622 14709882 14833399 14967271 15096400 
2555.419 15202244 15265469 15273413 15222271 15117946 14979400 14829568 
2558.794 14692929 14585118 14511823 14466172 14433141 14395714 14341935 
2562.169 14269738 14187286 14110313 14057311 14042318 14072582 14144254 
2565.545 14246350 14362009 14474107 14567731 14633987 14670095 14681992 
2568.920 14679831 14676807 14683703 14706217 14742118 14781917 14813703 
2572.295 14827448 14820724 14800780 14781952 14780487 14807457 14863317 
2575.670 14937707 15014291 15077669 15121080 15150222 15180246 15228549 
2579.046 15307102 15414894 15537811 15652206 15736818 15777836 15776707 
2582.421 15746679 15708396 15680343 15673196 15686803 15713438 15742430 
2585.796 15765781 15781060 15790612 15799725 15811713 15827879 15849266 
2589.171 15876321 15913215 15966572 16042853 16144417 16266240 16394131 
2592.547 16509268 16591504 16626941 16611978 16553391 16465992 16366618 
2595.922 16269654 16183401 16109860 16047902 15996756 15956940 15933704 
2599.297 15933340 15961716 16021825 16110711 16222717 16348071 16477766 
2602.672 16603498 16719662 16823092 16910546 16979024 17025102 17044552 
2606.048 17034382 16994666 16930470 16851616 16771765 16706010 16667610 
2609.423 16662791 16691582 16745750 16811700 16876278 16930248 16971150 
2612.798 17003106 17035158 17076456 17130870 17196120 17262456 17316234 
2616.173 17344776 17340048 17301244 17235226 17153064 17067270 16988316 
2619.549 16923700 16877828 16853526 16852222 16874628 16921022 16989130 
2622.924 17074114 17168574 17264226 17353558 17431014 17494540 17545016 
2626.299 17585266 17617126 17643172 17664004 17681482 17697820 17717962 
2629.674 17746256 17787566 17844388 17916284 17998572 18085146 18168040 
2633.050 18241478 18300764 18344728 18374164 18391278 18398902 18399694 
2636.425 18397468 18395236 18397182 18408006 18431714 18471330 18527316 
2639.800 18597102 18675006 18751434 18816144 18857304 18866620 18839086 
2643.175 18776292 18686058 18581994 18480490 18396760 18341686 18319552 
2646.551 18327076 18355190 18392314 18428914 18459290 18483254 18504548 
2649.926 18527898 18556434 18589802 18623358 18650766 18664696 18661032 
2653.301 18639408 18602582 18555290 18502708 18448764 18395704 18344676 
2656.676 18295420 18247670 18199724 18148632 18088124 18011758 17912102 
2660.052 17785478 17633224 17462762 17286356 17118418 16969508 16844468 
2663.427 16740074 16645951 16548757 16437471 16305648 16155967 15996935 
2666.802 15842710 15706090 15597656 15522167 15479718 15467369 15479933 
2670.177 15511778 15557445 15611202 15666505 15715905 15751772 15768709 
2673.552 15764548 15740361 15702151 15658179 15617786 15588521 15575960 
2676.928 15581193 15601891 15633836 15670380 15705496 15733518 15752368 
2680.303 15760515 15760196 15754025 15745243 15735462 15724419 15710391 
2683.678 15690956 15664121 15630513 15592748 15555601 15522948 15496961 
2687.053 15477097 15458217 15434279 15400131 15353605 15298305 15241722 
2690.429 15194245 15165536 15161298 15180908 15217788 15261460 15300356 
2693.804 15325703 15334233 15327930 15314119 15301382 15297695 15307037 
2697.179 15328697 15357970 15387255 15410114 15423199 15425862 15422182 
2700.554 15418137 15418530 15425637 15437369 15448381 15450502 15437192 
2703.930 15403639 15350009 15280293 15202200 15125355 15058480 15009020 
2707.305 14982260 14979567 14998956 15035077 15080121 15124635 15159800 
2710.680 15178416 15178023 15160884 15135270 15111560 15101681 15113566 
2714.055 15151043 15211220 15285731 15363184 15432009 15482259 15509266 
2717.431 15513481 15500629 15479106 15458395 15446165 15447351 15461870 
2720.806 15485342 15511658 15534597 15549687 15556188 15557478 15558315 
2724.181 15563995 15576813 15596127 15617735 15637156 15650630 15657794 
2727.556 15661113 15664795 15672330 15684901 15699493 15710333 15711272 
2730.932 15698737 15672896 15637783 15600920 15569818 15549812 15543284 
2734.307 15549512 15565751 15588786 15615324 15643243 15670804 15696172 
2737.682 15717870 15736176 15752094 15768569 15789006 15816348 15850971 
2741.057 15889468 15925951 15952786 15963327 15952775 15921222 15870949 
2744.433 15808318 15739949 15672574 15613938 15570676 15549346 15552997 
2747.808 15582474 15631983 15691657 15747851 15787076 15800277 15785502 
2751.183 15748089 15699953 15654292 15623583 15613938 15627025 15657770 
2754.558 15699074 15742792 15783200 15816309 15841838 15861180 15877748 
2757.934 15896175 15921457 15956290 16001144 16051663 16100165 16136352 
2761.309 16152058 16143009 16112341 16067285 16019428 15977308 15946316 
2764.684 15924312 15905548 15882233 15849249 15805202 15754264 15701545 
2768.059 15653551 15614086 15585673 15571931 15577246 15608042 15669908 
2771.435 15763620 15882494 16009981 16123936 16201612 16229022 16205197 
2774.810 16143812 16068902 16007012 15979312 15994394 16047057 16121939 
2778.185 16198341 16258629 16291691 16294889 16272416 16232098 16183082 
2781.560 16133772 16092477 16066119 16061053 16082525 16132051 16207397 
2784.936 16302973 16409628 16518762 16621390 16711045 16783882 16837456 
2788.311 16871280 16886380 16886392 16877314 16867952 16867398 16882596 
2791.686 16916370 16966196 17024112 17080734 17127336 17158552 17175220 
2795.061 17182132 17186506 17196042 17215174 17246434 17288140 17336632 
2798.437 17386644 17433194 17471294 17498960 17516846 17529276 17544440 
2801.812 17572040 17620188 17692184 17784284 17885096 17979158 18051192 
2805.187 18090706 18096078 18074278 18039160 18006106 17987298 17989820 
2808.562 18014254 18055600 18108580 18166686 18226890 18286738 18343960 
2811.938 18397042 18443430 18480272 18506630 18522484 18530294 18534324 
2815.313 18539580 18551470 18575960 18618464 18683824 18774898 18891324 
2818.688 19027058 19171958 19312368 19435086 19530416 19595582 19635790 
2822.063 19661474 19686022 19720940 19772796 19841400 19922304 20006758 
2825.438 20085628 20151870 20201766 20235300 20256846 20274110 20296528 
2828.814 20333908 20392458 20474486 20573420 20676402 20766450 20825518 
2832.189 20842046 20813234 20747470 20661920 20578256 20515868 20487648 
2835.564 20496768 20537322 20597386 20662920 20721980 20768436 20800944 
2838.939 20825138 20849630 20884748 20941032 21026350 21145216 21296704 
2842.315 21477290 21678856 21892704 22110108 22325132 22532966 22732544 
2845.690 22925216 23113844 23302952 23498494 23707300 23935072 24183746 
2849.065 24450272 24724640 24991548 25233446 25435070 25587794 25693222 
2852.440 25763078 25814630 25865712 25931294 26019214 26129090 26256988 
2855.816 26397118 26544166 26695158 26848918 27004296 27158970 27310514 
2859.191 27457288 27600250 27743854 27895372 28062078 28250596 28463740 
2862.566 28701544 28960938 29240564 29538040 29852976 30184240 30529520 
2865.941 30884834 31246600 31612772 31987072 32378084 32797542 33255548 
2869.317 33757136 34298276 34867700 35448340 36023460 36581588 37119556 
2872.692 37639104 38144112 38636424 39112192 39562336 39975520 40341428 
2876.067 40655884 40920888 41142580 41327728 41480532 41599376 41678540 
2879.442 41710076 41689152 41615612 41496964 41346524 41180252 41014052 
2882.818 40859360 40722000 40601300 40491808 40384656 40271564 40146000 
2886.193 40006096 39856376 39705248 39563960 39443764 39352484 39292384 
2889.568 39261892 39254916 39265120 39286988 39318744 39361976 39420260 
2892.943 39497252 39595848 39717028 39859148 40018764 40190124 40365924 
2896.319 40536948 40693968 40828752 40935020 41011072 41059176 41085452 
2899.694 41096860 41099716 41098108 41093820 41087932 41082848 41082712 
2903.069 41094004 41123004 41174160 41247620 41338596 41437972 41537084 
2906.444 41628668 41708732 41776792 41835296 41886968 41934352 41980464 
2909.820 42030080 42089280 42166452 42268776 42400668 42561864 42748868 
2913.195 42954240 43173688 43407732 43660784 43941956 44257704 44609144 
2916.570 44989232 45381872 45768844 46133400 46466972 46768324 47044652 
2919.945 47305156 47559464 47812796 48068464 48329400 48600016 48886972 
2923.321 49198972 49541248 49913148 50308460 50714604 51120712 51519592 
2926.696 51913988 52314672 52737660 53200172 53712480 54279032 54896796 
2930.071 55558644 56259008 56995408 57770376 58589084 59458152 60383208 
2933.446 61367852 62415432 63528992 64713532 65975940 67325416 68771288 
2936.822 70322176 71984152 73760712 75647800 77634400 79697992 81805424 
2940.197 83913968 85976320 87945528 89784448 91467080 92981520 94325624 
2943.572 95502008 96510264 97346104 97998800 98456176 98710448 98762032 
2946.947 98622096 98309712 97848352 97261648 96569696 95789240 94935648 
2950.323 94027136 93086280 92140368 91217976 90344336 89535856 88795888 
2953.698 88116696 87480528 86865200 86250936 85626296 84988056 84344288 
2957.073 83708592 83097472 82524488 81994216 81504312 81042432 80591416 
2960.448 80134488 79657008 79152120 78619624 78064320 77494528 76917056 
2963.823 76335832 75751248 75161840 74565968 73963624 73357640 72752264 
2967.199 72153208 71564656 70988448 70425408 69874360 69335016 68807576 
2970.574 68292712 67791600 67303920 66826200 66354232 65881656 65403396 
2973.949 64918748 64431436 63952020 63496560 63083448 62730692 62452752 
2977.324 62257596 62144900 62108676 62137272 62218064 62340016 62497244 
2980.700 62690184 62924916 63213052 63570448 64013204 64558236 65217300 
2984.075 65998808 66900960 67915336 69024264 70203000 71424976 72665840 
2987.450 73908072 75142536 76368776 77590864 78811632 80026976 81223336 
2990.825 82379160 83466176 84455392 85322240 86049304 86625824 87046664 
2994.201 87308688 87409768 87347320 87121728 86735336 86196272 85517400 
2997.576 84713480 83799632 82789072 81692328 80518592 79275920 77975688 
3000.951 76630200 75254576 73861688 72460800 71057104 69648736 68231152 
3004.326 66797188 65341240 63861876 62361076 60845876 59328528 57822492 
3007.702 56342672 54902548 53513092 52179872 50904328 49684108 48513208 
3011.077 47385700 46295824 45239068 44210704 43206972 42222048 41251468 
3014.452 40290280 39338644 38398928 37480368 36594016 35751136 34959144 
3017.827 34220848 33534456 32893836 32292090 31724554 31188752 30684254 
3021.203 30210920 29767626 29350334 28953326 28570026 28194698 27822946 
3024.578 27450460 27074480 26692666 26303166 25907524 25511370 25126960 
3027.953 24769330 24454818 24195168 23994064 23844334 23728928 23625042 
3031.328 23509682 23366590 23187774 22975496 22741708 22501546 22272504 
3034.704 22070312 21905104 21783112 21705064 21665864 21656108 21664352 
3038.079 21676592 21681054 21669452 21639104 21590014 21525962 21451136 
3041.454 21367384 21275720 21176144 21069892 20960636 20856892 20769102 
3044.829 20708858 20684878 20700758 20754890 20839694 20945250 21059058 
3048.205 21170648 21271504 21357104 21424246 21472724 21503956 21519784 
3051.580 21522880 21514256 21496688 21471296 21440242 21406608 21373682 
3054.955 21346098 21325804 21314252 21307428 21299568 21282346 21248638 
3058.330 21195772 21125182 21045404 20967976 20903814 20860650 20839828 
3061.706 20836618 20841960 20846582 20842956 20828710 20806308 20781222 
3065.081 20759944 20746908 20742538 20744146 20745962 20740762 20723680 
3068.456 20692764 20650162 20601762 20556146 20522182 20506704 20512508 
3071.831 20537534 20575390 20616770 20651852 20673504 20677160 20663540 
3075.207 20636150 20600680 20563134 20528778 20501560 20484270 20479504 
3078.582 20488720 20513372 20551400 20599800 20652772 20701828 20739698 
3081.957 20759742 20758326 20733976 20688458 20624456 20544348 20451458 
3085.332 20348684 20239452 20129672 20024226 19930386 19850848 19786764 
3088.708 19735538 19692190 19650596 19607432 19561968 19518882 19483782 
3092.083 19462396 19456076 19461290 19468484 19464134 19437420 19382084 
3095.458 19301658 19208832 19121914 19059846 19035336 19051310 19099568 
3098.833 19165338 19231024 19284022 19319010 19338692 19349098 19356066 
3102.208 19359598 19354784 19333284 19289660 19225678 19151250 19083162 
3105.584 19037496 19021874 19030878 19047304 19046186 19007160 18919552 
3108.959 18789620 18636996 18488102 18367904 18289678 18255624 18254902 
3112.334 18273618 18298086 18321834 18342342 18361708 18381290 18398256 
3115.709 18409164 18408454 18394556 18369554 18338366 18306124 18275334 
3119.085 18244120 18209018 18167408 18121494 18079232 18051840 18049494 
3122.460 18075658 18124170 18179824 18225324 18244926 18232210 18189898 
3125.835 18130148 18066496 18010704 17967808 17938030 17917898 17905008 
3129.210 17898630 17900440 17912656 17933600 17957278 17974660 17976688 
3132.586 17958214 17919114 17865276 17806062 17750510 17704834 17671040 
3135.961 17648178 17635210 17630126 17632308 17640498 17654056 17669728 
3139.336 17685824 17701290 17717924 17738352 17765646 17800008 17837124 
3142.711 17870036 17890184 17893564 17881636 17861152 17841092 17826930 
3146.087 17818784 17807362 17781888 17734324 17666778 17592768 17535014 
3149.462 17515820 17548314 17628708 17737264 17843644 17918420 17942964 
3152.837 17916494 17853186 17776946 17709364 17663262 17640016 17631274 
3156.212 17627190 17622678 17619540 17625202 17648028 17690054 17744386 
3159.588 17796088 17826066 17818916 17766892 17673468 17550522 17416094 
3162.963 17287254 17178878 17099870 17054068 17039684 17049604 17071002 
3166.338 17088044 17082360 17039170 16950592 16820552 16665725 16510122 
3169.713 16381698 16302029 16283035 16321341 16403893 16510092 16620474 
3173.089 16720364 16802306 16866492 16915054 16953084 16983032 17007876 
3176.464 17029956 17052364 17078824 17110944 17147980 17184492 17210670 
3179.839 17215948 17191778 17137086 17057620 16967782 16886462 16831486 
3183.214 16815676 16843632 16909938 17002010 17102768 17194802 17264098 
3186.590 17301456 17304180 17276640 17226104 17166454 17111606 17076428 
3189.965 17072160 17105134 17174616 17273030 17386580 17499634 17597194 
3193.340 17670254 17716864 17742694 17757484 17771102 17790086 17815936 
3196.715 17843196 17863696 17869502 17856420 17826910 17789014 17752180 
3200.091 17726828 17717364 17723684 17738062 17750836 17751680 17733612 
3203.466 17694786 17639392 17575710 17514586 17464958 17433702 17422448 
3206.841 17427974 17442860 17457324 17461344 17449218 17417604 17369720 
3210.216 17312132 17254738 17205842 17171800 17153906 17150230 17154638 
3213.592 17160876 17162158 17156108 17142826 17126202 17113236 17112566 
3216.967 17132934 17180502 17257232 17358924 17474262 17588236 17683346 
3220.342 17745426 17766888 17749334 17702912 17642744 17584618 17539992 
3223.717 17512762 17501862 17502100 17509154 17521402 17541230 17571346 
3227.093 17613818 17663014 17710600 17742166 17746984 17718426 17659408 
3230.468 17580322 17496774 17423288 17370160 17340984 17333594 17343660 
3233.843 17367510 17403842 17454070 17519732 17599308 17687054 17773202 
3237.218 17845150 17893222 17912402 17903226 17871762 17825936 17774450 
3240.594 17721752 17667952 17611856 17549322 17477858 17396258 17306478 
3243.969 17212870 17121086 17037882 16970110 16923868 16904612 16915068 
3247.344 16954820 17021050 17107998 17207182 17310542 17408378 17494258 
3250.719 17561734 17608514 17633266 17638828 17629114 17610880 17592316 
3254.094 17580732 17580172 17591730 17610280 17628182 17634178 17620070 
3257.470 17582902 17526598 17462740 17408370 17380444 17392530 17446938 
3260.845 17536694 17642892 17742670 17812168 17835160 17806156 17732030 
3264.220 17629302 17519876 17423016 17353734 17317850 17313940 17336332 
3267.595 17377246 17428366 17482796 17532634 17569222 17582012 17562552 
3270.971 17505566 17414656 17301562 17186462 17090986 17032918 17019508 
3274.346 17046390 17097326 17151024 17186944 17192988 17168594 17125846 
3277.721 17081544 17056796 17067000 17118660 17207840 17320812 17435806 
3281.096 17529158 17578184 17569320 17500334 17384976 17249880 17130508 
3284.472 17061546 17067026 17150722 17294944 17463028 17610896 17699380 
3287.847 17709142 17645448 17536286 17424014 17351212 17345258 17414128 
3291.222 17541966 17700110 17854996 17980230 18062418 18102634 18110372 
3294.597 18098430 18077748 18053748 18026638 17995102 17958242 17917058 
3297.973 17872438 17826362 17777064 17723550 17663488 17598986 17536238 
3301.348 17484878 17456866 17459194 17492426 17547272 17608450 17657570 
3304.723 17681206 17675584 17646892 17611650 17589932 17599818 17649646 
3308.098 17738434 17852670 17971944 18072160 18132320 18136740 18080058 
3311.474 17965708 17808222 17629044 17454280 17309594 17215998 17183384 
3314.849 17209112 17278094 17366332 17447594 17501408 17518972 17503716 
3318.224 17471538 17441360 17430422 17447094 17486928 17537242 17581108 
3321.599 17604830 17602706 17578852 17544736 17515514 17504124 17517588 
3324.975 17556928 17618134 17693532 17774532 17852322 17917192 17958858 
3328.350 17967376 17935140 17860008 17747336 17610508 17466732 17333650 
3331.725 17222548 17136892 17070994 17015582 16961496 16906388 16854512 
3335.100 16816592 16803704 16821902 16868844 16933252 16998462 17049370 
3338.476 17076346 17079034 17065042 17045564 17032344 17032790 17049024 
3341.851 17080498 17126550 17187636 17266224 17365020 17481568 17608816 
3345.226 17730722 17828658 17884764 17887566 17837380 17747766 17641068 
3348.601 17546136 17486446 17478068 17522710 17608826 17714074 17812392 
3351.977 17880164 17902074 17875634 17809934 17722732 17635284 17565816 
3355.352 17524348 17510776 17515542 17524698 17523612 17503948 17465364 
3358.727 17415502 17369232 17341538 17346278 17388432 17465306 17563398 
3362.102 17661412 17734648 17759298 17718188 17605886 17431626 17219658 
3365.478 17004612 16824626 16712857 16688513 16753308 16891270 17072976 
3368.853 17264808 17434128 17558990 17627388 17638278 17597952 17516130 
3372.228 17404096 17274286 17140724 17017308 16916600 16848780 16817026 
3375.603 16819090 16846836 16891224 16945024 17006650 17078488 17165296 
3378.979 17269348 17386698 17507486 17617890 17704298 17757846 17776032 
3382.354 17762006 17722224 17661330 17583854 17494902 17402070 17321020 
3385.729 17272070 17275550 17343632 17473402 17643086 17816592 17953452 
3389.104 18022160 18010286 17928256 17804594 17673742 17562880 17484400 
3392.479 17433656 17395754 17356018 17311494 17271282 17255754 17284386 
3395.855 17367552 17498572 17655946 17811446 17941254 18035088 18098632 
3399.230 18149544 18208450 18288476 18389062 18495840 18588284 18647076 
3402.605 18662850 18639346 18591398 18538416 18497864 18479810 18485282 
3405.980 18509378 18545030 18585260 18627560 18670672 18714026 18755448 
3409.356 18792306 18820362 18838932 18849376 18859370 18877260 18912676 
3412.731 18968832 19043904 19126448 19199850 19246456 19251698 19209704 
3416.106 19127230 19023636 18926902 18867648 18872370 18954532 19112216 
3419.481 19325626 19563698 19790614 19974548 20094332 20143472 20127924 
3422.857 20065008 19974716 19877396 19789132 19721896 19683040 19677530 
3426.232 19706412 19767398 19855448 19959294 20066856 20165708 20246972 
3429.607 20307410 20349206 20379834 20406094 20433742 20463358 20491832 
3432.982 20512696 20519614 20508654 20479462 20434228 20378016 20316024 
3436.358 20253896 20197296 20151534 20122494 20115622 20134146 20178546 
3439.733 20242830 20316606 20384630 20431986 20445250 20418752 20354780 
3443.108 20263848 20162260 20067934 19994408 19949202 19929204 19924588 
3446.483 19921126 19905050 19869752 19815808 19752012 19692830 19650774 
3449.859 19633368 19640282 19662024 19685278 19696718 19687766 19658176 
3453.234 19615134 19572194 19544316 19545540 19583640 19661424 19773110 
3456.609 19906422 20041872 20155770 20224656 20229218 20161648 20031338 
3459.984 19864758 19702102 19588088 19560028 19635266 19805716 20040530 
3463.360 20293358 20517908 20683090 20778494 20817006 20825374 20833048 
3466.735 20859470 20907682 20965344 21012536 21031886 21017330 20975954 
3470.110 20926874 20891540 20885932 20913326 20966034 21027394 21079320 
3473.485 21108622 21110266 21084832 21038488 20977424 20906418 20831540 
3476.861 20760738 20706850 20687408 20718784 20811282 20961434 21150102 
3480.236 21345050 21510240 21615470 21645848 21607766 21526490 21437584 
3483.611 21378624 21377136 21447304 21589642 21794594 22046854 22331700 
3486.986 22633558 22936382 23221980 23471086 23665114 23792982 23857698 
3490.362 23876620 23879214 23900374 23968550 24097760 24282632 24500746 
3493.737 24721186 24913354 25058626 25151796 25201896 25224804 25237354 
3497.112 25250492 25269294 25293162 25319982 25349880 25385676 25433392 
3500.487 25496336 25575928 25667464 25763868 25856646 25938472 26007098 
3503.863 26062638 26108270 26146594 26179258 26205308 26222504 26227528 
3507.238 26217656 26190404 26143868 26076506 25986778 25874316 25741258 
3510.613 25590546 25427272 25257702 25086088 24916818 24754378 24603386 
3513.988 24471414 24368284 24302642 24281954 24305998 24366624 24447868 
3517.364 24528314 24587934 24612626 24598466 24551478 24485520 24417882 
3520.739 24361964 24325712 24306636 24296094 24278548 24239296 24165998 
3524.114 24053418 23902504 23721670 23524794 23328016 23147808 22997466 
3527.489 22885298 22814272 22781084 22778024 22795378 22823066 22851946 
3530.865 22877036 22896428 22910954 22923114 22935982 22952186 22972314 
3534.240 22995532 23022688 23053526 23091518 23139504 23201778 23279780 
3537.615 23369108 23459658 23535948 23579516 23576420 23520440 23417992 
3540.990 23286584 23150742 23036560 22962136 22935710 22951706 22997732 
3544.365 23056646 23113434 23160098 23191992 23208980 23209038 23187614 
3547.741 23136950 23049522 22922212 22759200 22574078 22386182 22216524 
3551.116 22083830 21999690 21967108 21981190 22030984 22103960 22186510 
3554.491 22267898 22339746 22397756 22440600 22470420 22489252 22498638 
3557.866 22499060 22487512 22462204 22421698 22370646 22317908 22277722 
3561.242 22263980 22286152 22346400 22435292 22537268 22632568 22704654 
3564.617 22743198 22743754 22708832 22642004 22546868 22426168 22284100 
3567.992 22128582 21972072 21831370 21722538 21655544 21631122 21638720 
3571.367 21660722 21677806 21674968 21646208 21595224 21532944 21472692 
3574.743 21426714 21406428 21417240 21464816 21549776 21669252 21811850 
3578.118 21957742 22079514 22148642 22142242 22052108 21889278 21682634 
3581.493 21472590 21298008 21186932 21148866 21173738 21235808 21305600 
3584.868 21356872 21373594 21353704 21305622 21242346 21177732 21119490 
3588.244 21069064 21019836 20961188 20881314 20771648 20631822 20469914 
3591.619 20303270 20155168 20049964 20004780 20024350 20099286 20205612 
3594.994 20313180 20392782 20425932 20409236 20356794 20292870 20245594 
3598.369 20237318 20277958 20362704 20474670 20590780 20689518 20758064 
3601.745 20795672 20813452 20829784 20862454 20923810 21013140 21117630 
3605.120 21213434 21274516 21279300 21218918 21100258 20944510 20783042 
3608.495 20647106 20559850 20531092 20554800 20614266 20687934 20755682 
3611.870 20805382 20834962 20848662 20856660 20868664 20890136 20922172 
3615.246 20960896 21000838 21038126 21071414 21105194 21148826 21213244 
3618.621 21307336 21434154 21588250 21754316 21911808 22038088 22116224 
3621.996 22139736 22114078 22056520 21990064 21936740 21911046 21915784 
3625.371 21941476 21970220 21981184 21959368 21898678 21807134 21705948 
3628.747 21624730 21593466 21634864 21756386 21945278 22171820 22393934 
3632.122 22572196 22679092 22709822 22687190 22654654 22662914 22753524 
3635.497 22944006 23220378 23543090 23859838 24122890 24305024 24406548 
3638.872 24451166 24471918 24497206 24538788 24586024 24615746 24601850 
3642.248 24528384 24400234 24239458 24080004 23956440 23892674 23897060 
3645.623 23962884 24072386 24205360 24343530 24476100 24597670 24708718 
3648.998 24810712 24905254 24990726 25062712 25112844 25131890 25111364 
3652.373 25048784 24950782 24834442 24727296 24659610 24657080 24731554 
3655.749 24877528 25070436 25274996 25455742 25586064 25655332 25668198 
3659.124 25639922 25585754 25517650 25440046 25351944 25251502 25143024 
3662.499 25035262 24940920 24870968 24826772 24798840 24764978 24701266 
3665.874 24586220 24412068 24186330 23931574 23679268 23459242 23293340 
3669.250 23188096 23136862 23119794 23114930 23103776 23077438 23037880 
3672.625 22994492 22958124 22934342 22918462 22894420 22840730 22736506 
3676.000 22570494 22347516 22087696 21819950 21573172 21365890 21201198 
3679.375 21067230 20943868 20810840 20659012 20492586 20328968 20192506 
3682.750 20103840 20073106 20095388 20152650 20219326 20268714 20281752 
3686.126 20246934 20162250 20032280 19868020 19683322 19492044 19309020 
3689.501 19146384 19011438 18905536 18823496 18755544 18690052 18619348 
3692.876 18540830 18458578 18381636 18321514 18286884 18281592 18302802 
3696.251 18344334 18397024 18452458 18505176 18552706 18595292 18633796 
3699.627 18669832 18702898 18730762 18749830 18754628 18741188 18707016 
3703.002 18652978 18584902 18511966 18445472 18393614 18361112 18346988 
3706.377 18344652 18347038 18347686 18344854 18342270 18346020 18360712 
3709.752 18387590 18422430 18459770 18495502 18533106 18583540 18665216 
3713.128 18794094 18977910 19209862 19466822 19711920 19906520 20017674 
3716.503 20029372 19944570 19786056 19588240 19387906 19216220 19089900 
3719.878 19010690 18965638 18933794 18890340 18816190 18702220 18551924 
3723.253 18383638 18223806 18104130 18053062 18087350 18209900 18407534 
3726.629 18652578 18911092 19148464 19338308 19465456 19529994 19542900 
3730.004 19522912 19489908 19460150 19442020 19435274 19432026 19421772 
3733.379 19393608 19343908 19274662 19195634 19120224 19060822 19024830 
3736.754 19013256 19019342 19033072 19044300 19046630 19038812 19021834 
3740.130 18998458 18970814 18937018 18896818 18848580 18797194 18750314 
3743.505 18717976 18710098 18730450 18774158 18830304 18882700 18918908 
3746.880 18931516 18921644 18896568 18865580 18835588 18809232 18785258 
3750.255 18761154 18738422 18724488 18734566 18785768 18891192 19053390 
3753.631 19261574 19490106 19707144 19880312 19987406 20021090 19989516 
3757.006 19914964 19824014 19740610 19677730 19636390 19606258 19572212 
3760.381 19519622 19440792 19336346 19214980 19088926 18970542 18870424 
3763.756 18797786 18760710 18766770 18821670 18927068 19074412 19244028 
3767.132 19403852 19516866 19548676 19479406 19310046 19065350 18787778 
3770.507 18525972 18325292 18215052 18206136 18292130 18454506 18669666 
3773.882 18911346 19154258 19373226 19542400 19638960 19647800 19566602 
3777.257 19408900 19204820 18995394 18822544 18719826 18704480 18774008 
3780.633 18908172 19073562 19233304 19352270 19402926 19372550 19262772 
3784.008 19093608 18899940 18725910 18615776 18600640 18692080 18873526 
3787.383 19107338 19343400 19535482 19655348 19698632 19687162 19655736 
3790.758 19640820 19664676 19732526 19828116 19926662 20001064 20032488 
3794.134 20013784 19951554 19858770 19753744 19652904 19570368 19514042 
3797.509 19484944 19477484 19478432 19469696 19435230 19364832 19261932 
3800.884 19144110 19039514 18977834 18981516 19054530 19184426 19344450 
3804.259 19503762 19638644 19735034 19792150 19816992 19818098 19800184 
3807.635 19763878 19708160 19633910 19549936 19468890 19406852 19374310 
3811.010 19373694 19395054 19421404 19432808 19413406 19354630 19256594 
3814.385 19126578 18977742 18827094 18694324 18601166 18568348 18611878 
3817.760 18736390 18931196 19170990 19416900 19627304 19766314 19812108 
3821.135 19763232 19635166 19456080 19258516 19074896 18933530 18856852 
3824.511 18861664 18954664 19128978 19360674 19608622 19821900 19951704 
3827.886 19966286 19861354 19661668 19416392 19181096 19003926 18910806 
3831.261 18902144 18958326 19050864 19153838 19250802 19334946 19403440 
3834.636 19450094 19463080 19426828 19329876 19173502 18976338 18772204 
3838.012 18602508 18500934 18484868 18550346 18675022 18827536 18979194 
3841.387 19109926 19214170 19296682 19365954 19430990 19497336 19565114 
3844.762 19631626 19693386 19747426 19788586 19810670 19805798 19767522 
3848.137 19692076 19584878 19459598 19337518 19242004 19190598 19189388 
3851.513 19231030 19295278 19356316 19389860 19381954 19331806 19253354 
3854.888 19167268 19095116 19053312 19047036 19070742 19113586 19160062 
3858.263 19198272 19221752 19230488 19230048 19229732 19238992 19264820 
3861.638 19311614 19380686 19469720 19574058 19685550 19792798 19881686 
3865.014 19938204 19949242 19909740 19823426 19703394 19571156 19448744 
3868.389 19356004 19301492 19283280 19289574 19303650 19311892 19309240 
3871.764 19300354 19295880 19309184 19346766 19408118 19482082 19554638 
3875.139 19610974 19644592 19657950 19662214 19672330 19699990 19750278 
3878.515 19818264 19889910 19945968 19968350 19944030 19868966 19749382 
3881.890 19598812 19437420 19283806 19156456 19065780 19015956 19004520 
3885.265 19024976 19071214 19138040 19224420 19331282 19457718 19598660 
3888.640 19741602 19868034 19958254 19998028 19984202 19931238 19865740 
3892.016 19821100 19826818 19898180 20030652 20201416 20373682 20509298 
3895.391 20578460 20567682 20480588 20336248 20161694 19985938 19831200 
3898.766 19711850 19633388 19593334 19585166 19600926 19631328 19669718 
3902.141 19710996 19751496 19788348 19820494 19846890 19867536 19883736 
3905.517 19898236 19916928 19946232 19993358 20063418 20156430 20266764 
3908.892 20384602 20497234 20593904 20667390 20716238 20741878 20746274 
3912.267 20729542 20687084 20614438 20508176 20372494 20219334 20067982 
3915.642 19936960 19839908 19779860 19747504 19725642 19699048 19659968 
3919.018 19613264 19574034 19561990 19591988 19667464 19778842 19907478 
3922.393 20033784 20143696 20233642 20307826 20373612 20434152 20484310 
3925.768 20513154 20507904 20462100 20380204 20277882 20177382 20097936 
3929.143 20050878 20035292 20040516 20054306 20068890 20085322 20112698 
3932.519 20163018 20242892 20349030 20468130 20581854 20671596 20727186 
3935.894 20746354 20733848 20694536 20629468 20533226 20398668 20220116 
3939.269 20004698 19771558 19551994 19381792 19290532 19293156 19385734 
3942.644 19547048 19745808 19947946 20125304 20259208 20342896 20376468 
3946.020 20366388 20323230 20260342 20191888 20134794 20102442 20103706 
3949.395 20139656 20201968 20274884 20339746 20381974 20394660 20380454 
3952.770 20350472 20318760 20296982 20289116 20291188 20293268 20282878 
3956.145 20251534 20197494 20127394 20052772 19987016 19941026 19918108 
3959.521 19916284 19928932 19948882 19972554 20002736 20046468 20115058 
3962.896 20217666 20358048 20532892 20728930 20926902 21104594 21240976 
3966.271 21320456 21334890 21284654 21179306 21034546 20871132 20712218 
3969.646 20578702 20486824 20444848 20450928 20494820 20558838 20625000 
3973.021 20677992 20710614 20724852 20728434 20734014 20750390 20782374 
3976.397 20826094 20873964 20914240 20937184 20936122 20909170 20858058 
3979.772 20787188 20703890 20616838 20537910 20482326 20467052 20505846 
3983.147 20607558 20771402 20982468 21215664 21437846 21613986 21716092 
3986.522 21728614 21651390 21501378 21307868 21108318 20938036 20824848 
3989.898 20780540 20800312 20862642 20935296 20982538 20976636 20904592 
3993.273 20771340 20598696 20421212 20274096 20186816 20176664 20245000 
3996.648 20380212 20560758 20759864 20951266 21109068 21213142 21249102 
4000.023 21211416 21104090 
##END=
