##TITLE=3D-Fillies_PLA-Rainbow_Orange_Filament_r3_ATR-Corrected
##JCAMP-DX=5.01  $$ Nicolet v. 1
##DATATYPE=INFRARED SPECTRUM
##ORIGIN=Curtin University
##OWNER=Nicolet
##LONGDATE=2024/07/18
##TIME=16:03:23
##SPECTROMETER/DATA SYSTEM=Nicolet iS50
##DATA PROCESSING=
Ratio against background
%Transmittance->Absorbance
ATR Correction
Truncated
ElementMultiply or ElementDivide
##COMMENTS=
Number of sample scans: 32
Collection length: 47.27 sec
Sample gain: 1.0
Background collected on: Thu Jul 18 16:01:54 2024 (GMT+08:00);
Number of background scans: 32
Background gain: 1.0
Sample spacing:  1.000
Number of scan points: 16672
Resolution points: 8192
Number of FFT points: 65536
Apodization: N-B strong;
Phase correction: Mertz;
Laser frequency: 15798.3 cm-1
Number of rejected sample scans: 0
Number of rejected background scans: 0
Bench serial number: AUP1200105;
##RESOLUTION=4.000
##XUNITS=1/CM
##YUNITS=ABSORBANCE
##FIRSTX=400.163452
##LASTX=4000.187744
##FIRSTY=0.054750
##MAXX=4000.187744
##MINX=400.163452
##MAXY=0.884201
##MINY=-0.017938
##XFACTOR=1.000000
##YFACTOR=1.000000E-009
##NPOINTS=7468
##DELTAX=0.482125
##ZPD=8192
##XYDATA=(X++(Y..Y))
400.163 54749728 54080032 53661344 53443252 53331408 53232440 53068272 
403.538 52791744 52391244 51885732 51310640 50701808 50080696 49446128 
406.913 48776240 48042084 47222796 46321984 45372240 44429312 43553776 
410.288 42789024 42146340 41602056 41109424 40621684 40113164 39591084 
413.663 39089108 38649860 38299000 38028844 37794844 37530464 37171576 
417.038 36682384 36068968 35378752 34682668 34050208 33527758 33127710 
420.412 32830722 32598894 32391076 32174330 31929336 31650226 31340678 
423.787 31011366 30677644 30359368 30077226 29847752 29675500 29548756 
427.162 29438082 29304224 29109928 28834498 28482684 28087480 27701760 
430.537 27384246 27183882 27128324 27219248 27434472 27739518 28094468 
433.912 28462006 28812594 29125394 29386866 29589456 29728878 29801898 
437.286 29802834 29723020 29551936 29280636 28910298 28457364 27957934 
440.661 27462546 27026388 26692910 26481866 26382988 26361636 26372846 
444.036 26380258 26368426 26347072 26341944 26377700 26462504 26579912 
447.411 26693214 26760856 26754500 26672582 26541288 26403366 26299054 
450.786 26248360 26242452 26248466 26225342 26143254 25998370 25816732 
454.161 25644054 25529164 25504900 25576992 25722344 25897182 26050840 
457.535 26139298 26134190 26025902 25821078 25539632 25209078 24861948 
460.910 24531948 24248660 24030814 23879950 23777454 23684674 23561928 
464.285 23374500 23110508 22789150 22460098 22190476 22045640 22067994 
467.660 22261612 22588172 22975982 23340026 23604574 23723714 23690848 
471.035 23537052 23317926 23095038 22916642 22804678 22750730 22721388 
474.409 22672774 22566594 22384028 22134076 21850954 21585240 21388866 
477.784 21299960 21332044 21470128 21674956 21893448 22072074 22169726 
481.159 22165726 22063442 21886184 21670460 21456900 21281106 21167458 
484.534 21125254 21148656 21219750 21313136 21402664 21466482 21491636 
487.909 21475052 21422612 21345546 21255988 21164176 21077328 21000028 
491.284 20937644 20898132 20892776 20934044 21032774 21193670 21412204 
494.658 21679364 21979140 22293710 22605296 22897160 23152168 23351450 
498.033 23475074 23505442 23434044 23267762 23032804 22772388 22537790 
501.408 22374312 22307598 22334320 22422122 22519054 22569828 22532468 
504.783 22391052 22158552 21871128 21575070 21313046 21113094 20984572 
508.158 20920592 20904950 20919742 20950320 20986436 21020260 21042922 
511.532 21042948 21006846 20922528 20783552 20592312 20361094 20109396 
514.907 19859716 19631902 19438430 19282066 19155858 19045888 18935510 
518.282 18810006 18661142 18489528 18304854 18123294 17963018 17839136 
521.657 17758570 17718426 17706628 17706552 17702148 17683628 17649782 
525.032 17606670 17566752 17540540 17532286 17537576 17543880 17533894 
528.406 17490362 17401066 17262038 17078432 16863494 16635902 16415806 
531.781 16221039 16063666 15947632 15867647 15810780 15759785 15698062 
535.156 15614895 15509374 15391305 15278524 15191755 15148228 15156319 
538.531 15213086 15305628 15415177 15522317 15611459 15673026 15703624 
541.906 15704114 15677879 15629016 15562844 15485255 15403296 15324013 
545.281 15252929 15192579 15141790 15096513 15051831 15004431 14954309 
548.655 14904402 14859091 14821645 14792255 14767338 14741390 14708578 
552.030 14665759 14613399 14555176 14496874 14444569 14403950 14380913 
555.405 14382196 14415308 14489397 14610415 14777538 14980200 15197008 
558.780 15399069 15555725 15642520 15648095 15578384 15455436 15312493 
562.155 15185377 15104060 15085506 15130661 15225854 15348295 15472648 
565.529 15578671 15656020 15705686 15738359 15769543 15813258 15877351 
568.904 15959453 16047874 16123749 16166581 16159674 16094536 15973659 
572.279 15810570 15627304 15450777 15308233 15222712 15209203 15271871 
575.654 15403237 15585239 15792748 15998919 16181512 16327750 16436262 
579.029 16516045 16581088 16644480 16713329 16786414 16856566 16915002 
582.404 16957102 16985866 17010726 17044130 17094594 17161842 17235736 
585.778 17299602 17337630 17342314 17319372 17287028 17269848 17289410 
589.153 17356440 17465166 17596160 17722548 17820044 17875300 17889786 
592.528 17878718 17863992 17865998 17896122 17952618 18022276 18084568 
595.903 18119498 18113982 18066300 17986434 17893370 17809844 17755402 
599.278 17741470 17768166 17824594 17892086 17950398 17983546 17984878 
602.652 17958724 17918798 17882942 17867268 17881208 17924464 17988546 
606.027 18060822 18129694 18189716 18243372 18300210 18373372 18475152 
609.402 18613234 18789154 18998782 19234146 19485758 19744506 20001892 
612.777 20250302 20482030 20690340 20870064 21019250 21141018 21243270 
616.152 21337614 21437006 21552206 21689384 21849328 22027460 22216410 
619.527 22408570 22598672 22784778 22968270 23152280 23339974 23532518 
622.901 23728506 23924090 24114130 24294268 24461932 24618136 24767496 
626.276 24918268 25081310 25268498 25491032 25757174 26070436 26427436 
629.651 26817762 27224076 27624424 27995428 28315994 28570654 28751968 
633.026 28860716 28904894 28897702 28854966 28793366 28729410 28678618 
636.401 28654700 28668616 28727380 28832356 28979138 29158388 29357984 
639.775 29566310 29774900 29979854 30181770 30382762 30584774 30787268 
643.150 30987246 31180954 31366154 31544280 31720244 31900480 32089498 
646.525 32286860 32486320 32678132 32852686 33006478 33145092 33283542 
649.900 33442772 33643428 33899868 34215444 34581812 34981440 35392488 
653.275 35793404 36166260 36497632 36777024 36995828 37145896 37220924 
656.650 37218772 37143708 37008636 36834208 36645864 36469668 36327696 
660.024 36234836 36197368 36213464 36275636 36374284 36500360 36647772 
663.399 36814736 37002708 37214808 37452992 37715448 37994860 38278540 
666.774 38550688 38796380 39005920 39178092 39321004 39449988 39583012 
670.149 39735480 39916236 40125772 40357460 40600944 40845536 41083256 
673.524 41309944 41524620 41728080 41921196 42104792 42279328 42445720 
676.898 42604788 42756976 42900808 43032876 43148464 43244156 43319684 
680.273 43380728 43438700 43507532 43600032 43723104 43875968 44050544 
683.648 44235948 44422520 44606100 44788920 44976568 45173964 45381312 
687.023 45592128 45795228 45979608 46139648 46278684 46408176 46544040 
690.398 46700200 46883404 47090980 47313476 47539748 47763512 47987632 
693.773 48224920 48494576 48815924 49201820 49653796 50161496 50704712 
697.147 51259020 51801364 52315404 52794472 53242212 53670552 54096392 
700.522 54536360 55002536 55497968 56015680 56539292 57047184 57517752 
703.897 57935704 58295696 58603296 58872492 59120228 59361508 59604864 
707.272 59851368 60096388 60332704 60553636 60755340 60936308 61096584 
710.647 61235912 61353900 61450864 61529476 61595940 61659416 61730304 
714.021 61817476 61926436 62059864 62220364 62415788 62664540 62999084 
717.396 63467576 64132132 65066896 66354864 68087840 70365392 73294096 
720.771 76982992 81534760 87031336 93515640 100973680 109319448 118387472 
724.146 127935376 137657168 147205648 156222544 164370656 171364864 
727.039 176995392 181141056 183770992 184934592 184743376 183349680 
729.931 180924640 177639072 173650784 169096256 164088608 158718752 
732.824 153059568 147171200 141105440 134910064 128633288 122325992 
735.717 116044888 109853832 103823656 98029808 92547264 87444960 82779136 
739.091 78588744 74893376 71693968 68975864 66713124 64872824 63417360 
742.466 62306620 61498376 60949668 60618288 60464592 60453888 60557928 
745.841 60754760 61028176 61365988 61758776 62199844 62684968 63213288 
749.216 63786732 64408348 65079600 65796936 66549340 67317312 68074976 
752.591 68793352 69444560 70005480 70459968 70798152 71015464 71110360 
755.966 71082368 70931480 70658104 70263688 69751160 69124744 68389960 
759.340 67552960 66620604 65600200 64500092 63329696 62099480 60820980 
762.715 59506628 58170164 56826912 55493712 54188304 52927288 51723196 
766.090 50581432 49499236 48465620 47465032 46482444 45508392 44542192 
769.465 43592296 42673008 41799408 40981972 40223440 39518408 38856664 
772.840 38226600 37619124 37029224 36455712 35898312 35355872 34824548 
776.214 34298596 33772168 33241772 32707586 32173288 31644498 31127102 
779.589 30625396 30141750 29677824 29235198 28815972 28421578 28051454 
782.964 27700434 27358726 27013072 26650276 26261952 25848032 25418170 
786.339 24990418 24586844 24227904 23928116 23692876 23519576 23399310 
789.714 23321278 23275886 23256724 23260442 23284830 23326088 23376964 
793.089 23425330 23455222 23449130 23391636 23273080 23092358 22857994 
796.463 22586944 22301024 22022876 21771318 21557980 21387334 21257448 
799.838 21164206 21103890 21075548 21081018 21122492 21199372 21305490 
803.213 21429516 21555216 21665768 21747272 21791224 21795408 21762036 
806.588 21694890 21597568 21471906 21319246 21142342 20946786 20742116 
809.963 20540792 20355730 20198146 20074852 19988030 19935382 19910966 
813.337 19906896 19913840 19922498 19924500 19913598 19887806 19849584 
816.712 19806026 19766550 19740032 19732154 19743554 19771046 19810242 
820.087 19859218 19920630 20001850 20111268 20253516 20425518 20614696 
823.462 20801980 20967466 21097674 21190618 21256628 21314722 21385454 
826.837 21483782 21614516 21772118 21944272 22117468 22282178 22435198 
830.212 22578504 22716208 22852070 22987388 23122650 23259944 23405672 
833.586 23570324 23767346 24007692 24295974 24628316 24993074 25375250 
836.961 25762602 26149960 26542222 26951634 27394726 27885570 28431762 
840.336 29032152 29677606 30353998 31046396 31742126 32433304 33116862 
843.711 33793316 34464296 35130036 35787148 36427136 37036196 37597584 
847.086 38094200 38513536 38851252 39114424 39321696 39501572 39687344 
850.460 39912800 40207756 40595948 41095788 41722044 42489204 43413004 
853.835 44509968 45795484 47280104 48966108 50844864 52896312 55090060 
857.210 57388436 59750140 62134312 64504416 66831180 69094560 71284088 
860.585 73397176 75436328 77404640 79302456 81124224 82858320 84489208 
863.960 86001952 87387320 88645304 89786488 90830208 91800568 92720280 
867.335 93605936 94465984 95299072 96096728 96844344 97523008 98108440 
870.709 98570816 98873528 98973936 98826360 98387808 97623744 96514688 
874.084 95059656 93276832 91201168 88879656 86365568 83713432 80974536 
877.459 78194240 75410360 72653480 69947864 67312944 64765244 62320132 
880.834 59992120 57795244 55742336 53844752 52111508 50550012 49165876 
884.209 47963800 46946044 46111384 45452904 44956316 44600012 44356300 
887.583 44195432 44090336 44020608 43975628 43953924 43960084 43999956 
890.958 44075980 44183652 44311416 44442332 44559448 44649128 44704664 
894.333 44727016 44722952 44701520 44671356 44637268 44600500 44559088 
897.708 44510172 44451652 44383652 44307836 44226588 44141892 44053968 
901.083 43961648 43863460 43759364 43651820 43546364 43450704 43372960 
904.458 43319652 43293468 43293592 43315228 43351796 43396628 43444340 
907.832 43492352 43540268 43590060 43644804 43708416 43785856 43882344 
911.207 44003492 44154432 44338792 44557392 44808100 45085056 45380648 
914.582 45686428 45995420 46302952 46606920 46906532 47200808 47487088 
917.957 47760476 48014192 48241660 48438104 48603032 48740596 48859412 
921.332 48970032 49083444 49207864 49347760 49503388 49672248 49851020 
924.706 50038168 50235432 50448504 50685948 50957064 51268296 51620576 
928.081 52007672 52417084 52832776 53239784 53628368 53997488 54353940 
931.456 54709560 55075584 55456632 55847532 56232916 56591256 56901376 
934.831 57148688 57329236 57449536 57522696 57561932 57575916 57566204 
938.206 57528956 57460676 57363620 57249932 57140800 57062096 57037168 
941.581 57079772 57190804 57359232 57568100 57801268 58049800 58314344 
944.955 58603524 58928464 59297480 59711644 60165088 60647980 61152028 
948.330 61674656 62221256 62803060 63432352 64117112 64856412 65638876 
951.705 66444652 67249056 68026576 68753568 69409080 69973160 70424936 
955.080 70740776 70895416 70864344 70628480 70178104 69516080 68658040 
958.455 67630928 66468468 65207472 63883208 62527640 61168760 59831264 
961.829 58537300 57307668 56161836 55117040 54187424 53382376 52706196 
965.204 52157676 51730184 51413104 51192964 51055084 50985184 50970392 
968.579 51000812 51068684 51168696 51296320 51446748 51613768 51789272 
971.954 51964244 52129740 52278936 52408924 52521208 52621636 52718792 
975.329 52822016 52939856 53078292 53240948 53429120 53642908 53881880 
978.703 54144980 54430472 54735616 55055404 55383932 55713972 56038784 
982.078 56352632 56651916 56935112 57203476 57459632 57708568 57956392 
985.453 58211144 58480992 58773216 59093036 59442576 59820024 60220164 
988.828 60636772 61064800 61502172 61950984 62416284 62905060 63422940 
992.203 63973656 64557144 65170384 65809412 66470496 67152512 67857240 
995.578 68589544 69356408 70166104 71026712 71945264 72926112 73970048 
998.952 75073112 76225952 77414184 78620216 79825800 81016288 82183448 
1002.327 83329528 84467504 85621024 86821384 88103384 89500808 91042456 
1005.702 92749360 94634184 96703056 98959040 101407184 104058368 106932968 
1009.077 110062320 113487584 117258272 121429496 126058864 131203904 
1011.970 136917280 143239376 150186944 157737824 165813008 174262736 
1014.862 182859664 191305744 199257312 206364144 212320432 216912560 
1017.755 220053984 221797504 222321712 221895824 220836480 219463456 
1020.648 218064160 216872496 216059008 215732640 215947248 216712816 
1023.540 218007008 219785328 221992576 224570000 227462064 230621808 
1026.433 234011872 237607104 241393888 245369072 249538496 253914480 
1029.326 258511968 263345536 268426352 273760320 279348512 285188928 
1032.219 291277344 297608256 304173088 310956288 317930848 325054304 
1035.113 332268000 339500320 346672896 353709344 360541056 367111936 
1038.006 373377120 379300192 384846848 389980992 394662816 398849536 
1040.899 402500416 405581184 408067648 409949344 411227872 411914720 
1043.792 412025888 411579552 410592896 409083680 407073568 404592352 
1046.685 401683360 398404576 394828480 391036992 387116224 383149088 
1049.578 379210784 375363712 371656576 368122880 364781600 361636352 
1052.471 358678208 355887712 353239360 350708576 348276320 345935968 
1055.364 343695200 341577056 339618368 337866752 336377120 335209504 
1058.257 334428640 334100928 334295616 335081856 336526528 338692096 
1061.150 341634208 345399872 350027680 355546944 361978560 369333856 
1064.043 377614208 386809504 396897920 407844960 419604320 432119488 
1066.936 445325888 459152736 473525632 488368864 503608096 519174272 
1069.829 535006240 551051776 567266048 583605760 600023488 616460736 
1072.722 632845120 649094528 665125440 680864320 696256512 711268928 
1075.615 725883456 740085760 753852160 767139584 779883840 792007296 
1078.509 803427008 814065728 823857216 832745088 840680512 847614912 
1081.402 853499200 858282432 861914688 864348800 865544768 865473792 
1084.295 864124160 861512512 857689664 852743872 846796672 839987776 
1087.188 832459456 824338048 815726080 806702592 797332224 787676800 
1090.081 777804544 767790144 757709952 747630336 737597760 727635712 
1092.974 717746048 707919168 698142016 688406528 678711168 669058304 
1095.867 659447680 649872896 640319232 630765888 621192128 611581440 
1098.760 601925504 592221696 582469760 572667200 562804672 552866304 
1101.653 542832960 532689856 522433984 512079968 501663136 491238816 
1104.546 480876640 470655456 460656768 450960000 441641024 432772864 
1107.439 424426720 416671744 409574400 403195392 397584928 392777888 
1110.332 388791328 385621536 383245344 381621888 380695232 380397504 
1113.225 380653088 381381856 382503328 383940352 385621920 387486336 
1116.118 389481888 391566432 393706720 395877824 398063008 400254176 
1119.011 402452256 404667264 406914176 409209408 411563328 413973408 
1121.905 416420992 418870368 421272224 423569056 425700992 427610368 
1124.798 429241920 430543200 431462176 431948864 431957568 431454016 
1127.691 430420672 428859968 426793376 424255456 421285216 417916832 
1130.584 414173696 410067840 405602336 400776640 395591200 390051136 
1133.477 384165600 377946400 371405376 364551840 357392896 349934272 
1136.370 342182560 334148576 325850496 317315904 308583808 299704864 
1139.263 290739808 281756896 272828032 264024048 255411232 247049696 
1142.156 238991920 231285120 223970640 217084816 210658720 204715696 
1145.049 199270256 194326752 189879840 185916896 182421488 179376512 
1147.942 176767488 174583200 172815456 171456704 170498352 169927920 
1150.835 169729024 169880240 170355952 171126752 172159584 173418416 
1153.728 174865888 176465408 178183840 179994512 181879808 183830848 
1156.621 185846176 187928416 190079872 192301104 194588592 196936896 
1159.514 199341664 201802464 204324848 206921216 209609184 212408544 
1162.407 215339760 218421456 221670880 225105104 228743872 232611920 
1165.301 236741936 241176000 245965328 251169920 256855632 263092672 
1168.194 269951936 277503168 285813568 294947168 304964384 315922688 
1171.087 327874848 340867840 354939520 370112992 386390880 403748352 
1173.980 422124640 441413408 461455680 482030816 502852864 523572576 
1176.873 543785600 563052608 580925184 596976960 610835584 622206272 
1179.766 630888128 636782272 639889728 640304576 638202944 633827456 
1182.659 627467008 619434368 610044352 599595776 588360192 576576960 
1185.552 564455616 552177792 539901824 527763424 515875808 504328544 
1188.445 493187488 482498368 472290592 462582336 453385280 444706592 
1191.338 436548576 428908224 421774944 415131072 408954208 403220256 
1194.231 397907808 392999296 388481920 384345760 380581120 377176032 
1197.124 374116064 371384864 368965760 366843776 365005632 363438688 
1200.017 362129056 361059840 360210528 359556064 359071040 358729408 
1202.910 358506368 358378880 358322304 358312608 358322560 358323008 
1205.803 358283840 358175776 357970912 357643776 357170368 356528736 
1208.697 355699680 354668928 353429696 351984544 350345568 348532928 
1211.590 346569088 344474656 342262720 339936928 337492544 334920992 
1214.483 332215264 329375872 326414208 323353056 320223168 317059040 
1217.376 313893248 310752896 307656960 304617504 301640544 298728352 
1220.269 295881664 293100288 290384224 287733952 285151104 282638560 
1223.162 280201216 277843936 275570528 273382176 271275168 269240960 
1226.055 267268144 265344464 263460544 261612272 259801024 258033104 
1228.948 256316816 254660128 253069376 251549296 250105344 248746816 
1231.841 247488000 246348480 245351744 244520784 243874528 243425280 
1234.734 243177424 243129952 243277792 243615968 244139920 244847024 
1237.627 245734784 246798368 248028912 249412592 250930704 252560976 
1240.520 254279488 256061440 257882688 259718560 261543568 263330992 
1243.413 265052384 266677744 268177120 269522528 270689696 271661536 
1246.306 272430496 273001632 273392576 273632928 273761152 273819104 
1249.199 273846656 273877152 273933408 274028224 274165856 274346048 
1252.093 274567936 274832992 275147296 275519968 275962304 276484640 
1254.986 277094240 277793504 278579456 279445216 280380512 281374528 
1257.879 282417120 283501536 284623360 285781536 286976352 288208544 
1260.772 289476480 290775392 292095648 293422944 294737632 296014816 
1263.665 297225056 298334112 299304768 300098048 300675328 301002208 
1266.558 301049504 300795104 300223328 299324256 298091648 296522976 
1269.451 294618496 292382272 289823040 286953920 283792096 280356288 
1272.344 276665600 272738560 268593504 264250256 259732608 255068096 
1275.237 250289264 245430992 240527248 235608272 230698384 225814304 
1278.130 220966576 216160960 211401168 206691776 202040720 197460192 
1281.023 192967408 188582368 184325088 180213184 176258512 172466256 
1283.916 168835440 165361472 162039488 158866784 155846208 152985072 
1286.809 150293408 147781216 145454928 143314944 141354784 139562352 
1289.702 137921696 136416032 135030592 133754656 132581504 131507728 
1292.595 130532024 129652176 128863768 128158528 127524528 126947536 
1295.489 126412704 125907656 125423656 124958072 124513184 124095472 
1298.382 123713248 123373960 123082744 122841064 122646256 122492768 
1301.275 122372072 122274840 122190336 122107824 122016568 121905896 
1304.168 121766760 121591912 121377136 121121256 120826472 120496592 
1307.061 120136064 119748680 119335968 118896920 118428152 117923744 
1309.954 117376008 116776376 116115448 115384728 114577032 113688904 
1312.847 112721912 111684480 110591696 109465400 108331416 107217280 
1315.740 106148736 105146928 104226496 103394728 102651608 101991272 
1318.633 101403008 100874176 100390952 99940584 99512288 99098584 98694736 
1322.008 98299392 97913048 97537544 97175088 96827816 96498320 96190064 
1325.384 95908344 95660304 95454792 95300864 95206520 95177584 95217216 
1328.759 95326456 95505968 95757624 96085376 96495016 96993192 97585064 
1332.134 98272760 99054136 99923408 100871528 101887616 102959672 104073648 
1335.509 105213920 106361664 107495872 108595064 109639920 110615736 
1338.402 111514240 112334600 113081488 113763424 114390568 114972704 
1341.295 115519472 116040992 116549464 117059944 117591624 118165760 
1344.188 118804720 119529976 120358968 121305368 122376464 123574200 
1347.082 124895496 126331952 127871352 129498544 131196904 132949816 
1349.975 134742080 136560384 138393584 140231856 142064864 143880272 
1352.868 145662944 147394368 149054304 150622112 152080144 153416016 
1355.761 154623456 155702432 156656880 157492656 158215072 158828000 
1358.654 159335136 159740768 160052704 160282752 160447456 160564528 
1361.547 160651312 160721280 160782272 160836272 160879888 160905744 
1364.440 160902544 160855040 160743216 160540336 160214032 159727760 
1367.333 159043888 158130368 156963920 155535616 153853424 151942864 
1370.226 149847856 147629744 145366896 143152016 141089600 139290976 
1373.119 137866608 136917504 136524320 136739072 137578288 139021216 
1376.012 141012496 143466544 146276640 149322160 152477584 155618480 
1378.905 158629072 161406752 163866480 165941104 167580656 168749520 
1381.798 169423648 169588096 169235600 168367120 166992512 165131392 
1384.691 162813584 160079344 156977600 153563872 149897328 146037168 
1387.584 142038400 137949008 133808032 129645344 125482928 121336472 
1390.478 117217520 113135528 109100096 105122280 101216880 97403320 93705408 
1393.853 90151024 86767312 83578576 80602592 77848248 75316952 73004024 
1397.228 70902448 69005368 67307464 65806060 64499504 63386128 62463456 
1400.603 61728528 61178692 60813032 60633576 60645344 60856124 61273512 
1403.979 61900796 62732480 63749544 64915680 66176004 67459216 68682624 
1407.354 69759656 70608128 71158800 71361216 71188176 70636344 69726040 
1410.729 68497688 67007892 65324484 63519828 61666144 59828816 58062820 
1414.104 56408840 54892576 53524716 52304044 51220348 50257948 49400108 
1417.479 48631196 47939584 47318488 46766700 46286628 45882776 45559084 
1420.855 45315604 45148496 45049884 45009100 45015484 45059044 45131540 
1424.230 45225308 45332036 45442504 45547356 45639868 45719004 45792184 
1427.605 45875704 45992496 46167400 46422912 46775812 47236064 47808980 
1430.980 48499232 49313052 50259856 51350664 52595308 54000328 55567540 
1434.356 57295792 59184256 61235188 63456500 65861696 68469312 71299864 
1437.731 74373968 77711352 81329664 85243904 89465456 93999808 98844392 
1441.106 103986736 109404280 115064312 120925640 126938688 133046704 
1443.999 139185872 145286176 151272992 157069904 162602032 167800336 
1446.892 172605552 176972576 180873744 184300528 187262832 189783568 
1449.785 191891760 193614752 194971248 195970928 196614288 196898208 
1452.678 196819216 196374336 195560896 194372496 192797808 190821856 
1455.572 188430944 185619872 182397840 178789808 174832784 170568016 
1458.465 166035024 161267520 156294928 151147680 145859664 140472208 
1461.358 135029952 129576760 124151960 118787256 113508144 108337008 
1464.251 103295912 98408136 93697472 89185048 84887088 80814864 76975232 
1467.626 73372344 70011264 66895516 64028376 61409156 59030704 56878632 
1471.001 54931004 53159728 51534300 50023852 48601336 47246116 45945304 
1474.376 44694512 43495760 42354492 41276760 40264392 39314432 38417508 
1477.752 37560728 36730700 35916360 35112164 34318148 33538156 32778588 
1481.127 32045082 31341434 30668344 30024150 29405602 28808332 28228292 
1484.502 27661450 27104806 26557264 26019892 25496352 24992476 24515078 
1487.877 24070530 23663552 23296152 22967740 22675728 22416790 22187330 
1491.253 21984336 21805400 21649300 21515936 21406286 21322056 21266320 
1494.628 21241252 21248362 21287216 21356314 21454108 21580634 21739580 
1498.003 21938960 22190042 22505688 22896752 23369414 23922952 24547836 
1501.378 25225146 25927132 26617602 27253980 27790058 28180444 28386372 
1504.754 28382140 28161522 27739468 27152132 26450282 25690318 24924328 
1508.129 24192772 23521416 22921164 22393326 21932114 21529792 21178030 
1511.504 20869918 20599388 20362402 20156406 19980330 19833344 19714890 
1514.879 19621872 19548872 19488560 19432972 19375332 19312324 19244570 
1518.255 19175430 19110444 19054286 19009852 18977576 18956942 18946458 
1521.630 18944678 18950424 18961722 18975308 18986666 18989920 18979816 
1525.005 18953578 18911306 18856938 18796814 18738474 18688900 18652576 
1528.380 18631686 18624904 18628070 18634254 18634600 18620600 18585140 
1531.756 18525914 18445826 18354524 18264796 18191104 18143280 18124528 
1535.131 18129542 18146738 18161798 18162476 18141068 18097760 18038254 
1538.506 17972528 17911274 17863342 17834090 17825206 17834716 17858814 
1541.881 17891472 17925882 17954694 17970812 17968650 17944776 17898548 
1545.257 17831306 17745890 17644756 17530104 17403402 17266598 17123208 
1548.632 16978708 16839832 16713370 16604222 16514346 16442381 16385494 
1552.007 16340589 16306086 16281895 16269341 16268743 16278066 16293354 
1555.382 16308332 16317241 16315853 16303945 16283674 16259639 16237011 
1558.758 16219607 16209966 16208680 16216286 16232947 16259259 16295180 
1562.133 16340028 16392007 16448375 16506158 16562644 16617151 16669301 
1565.508 16719889 16769070 16816258 16859542 16897682 16930254 16959540 
1568.883 16990604 17030580 17087972 17170586 17284744 17433974 17619070 
1572.259 17838276 18088126 18363220 18656966 18961356 19267460 19565874 
1575.634 19846322 20099296 20316134 20489392 20613236 20684252 20701138 
1579.009 20665404 20580946 20453622 20291454 20103066 19897406 19683374 
1582.384 19469876 19265264 19077738 18914104 18779266 18674310 18596562 
1585.760 18539390 18493734 18450702 18403484 18348672 18286858 18222040 
1589.135 18159026 18102676 18055978 18019692 17992634 17973188 17959306 
1592.510 17949800 17943968 17942408 17946320 17957062 17976700 18006492 
1595.885 18048080 18101794 18167982 18247140 18340650 18452060 18586236 
1599.260 18749642 18947492 19182624 19453208 19752814 20070686 20394850 
1602.636 20715304 21026122 21327776 21625960 21929372 22246266 22581180 
1606.011 22932502 23291576 23644812 23976166 24270904 24518016 24712724 
1609.386 24854994 24949166 25000374 25013838 24992108 24936606 24847420 
1612.761 24725914 24575016 24399750 24206490 24002482 23794036 23586248 
1616.137 23383604 23190252 23011118 22851136 22715348 22606806 22525358 
1619.512 22467354 22426884 22397194 22373700 22355398 22344962 22347056 
1622.887 22364798 22396482 22435344 22469510 22486682 22478458 22444142 
1626.262 22391952 22336836 22295658 22282004 22301132 22349338 22415788 
1629.638 22486632 22550882 22603398 22646294 22686814 22733888 22794336 
1633.013 22870188 22958162 23050780 23138310 23212020 23265502 23295602 
1636.388 23303874 23294202 23273150 23247876 23225442 23211748 23209820 
1639.763 23220238 23241046 23268268 23297466 23325218 23349386 23369902 
1643.139 23387734 23404332 23421328 23439798 23461596 23488698 23523872 
1646.514 23569440 23626708 23694730 23770806 23850150 23928470 24003330 
1649.889 24075358 24148278 24227240 24317570 24422908 24543102 24675166 
1653.264 24815266 24959440 25106160 25255994 25410886 25572430 25740468 
1656.640 25912334 26083082 26247636 26402854 26549018 26691054 26837594 
1660.015 27000004 27188414 27410930 27670182 27963558 28283614 28619864 
1663.390 28962252 29303438 29640946 29977586 30319628 30674284 31046482 
1666.765 31437066 31842384 32256122 32672226 33087988 33506236 33934692 
1670.141 34383480 34861068 35371024 35910240 36469900 37037640 37601636 
1673.516 38153160 38687328 39202964 39701076 40183424 40652436 41111472 
1676.891 41566284 42025736 42500332 43000916 43534468 44102260 44698728 
1680.266 45313112 45932912 46547736 47152772 47749700 48345996 48952456 
1683.642 49579428 50234772 50921852 51638936 52380856 53140496 53910276 
1687.017 54684452 55460892 56242952 57039380 57864692 58735756 59669032 
1690.392 60676352 61761884 62922828 64151788 65441848 66791892 68209560 
1693.767 69712120 71322496 73064576 74957552 77013608 79238896 81639392 
1697.143 84227400 87027440 90078304 93428584 97129960 101228480 105758432 
1700.518 110740576 116188368 122118792 128563688 135576224 143232256 
1703.411 151621920 160838832 170966352 182068624 194182928 207322128 
1706.304 221476416 236616416 252696928 269655296 287412608 305874656 
1709.197 324935552 344480896 364387008 384517888 404717536 424802496 
1712.090 444560544 463754496 482135232 499457568 515497280 530068224 
1714.983 543037504 554340800 563992768 572091008 578802752 584340992 
1717.876 588923648 592740032 595926400 598564288 600694016 602335872 
1720.769 603509056 604237568 604547584 604459456 603985920 603136512 
1723.662 601932160 600418176 598669376 596782528 594856192 592969536 
1726.555 591166208 589452480 587807808 586204224 584622016 583062336 
1729.448 581543040 580090624 578732800 577491904 576388480 575447232 
1732.342 574700800 574192512 573971328 574083968 574572224 575472384 
1735.235 576824128 578677632 581099840 584171712 587978112 592595136 
1738.128 598079744 604464192 611761920 619976832 629113408 639180544 
1741.021 650183552 662113984 674933824 688567296 702902208 717798976 
1743.914 733102208 748647552 764260736 779749120 794895360 809460608 
1746.807 823197760 835876544 847305280 857344256 865897792 872898944 
1749.700 878287936 882004416 883989376 884200896 882627904 879293888 
1752.593 874246016 867538112 859216256 849317760 837881792 824970240 
1755.486 810681216 795153856 778555392 761062208 742841600 724041152 
1758.379 704792704 685220800 665452416 645621952 625866112 606313344 
1761.272 587075776 568242816 549883008 532046784 514774496 498098016 
1764.165 482040832 466615936 451824800 437658464 424101184 411137120 
1767.058 398753120 386939328 375684320 364970400 354767520 345032896 
1769.951 335714240 326757088 318111136 309735360 301599072 293678528 
1772.844 285950912 278390400 270965696 263641360 256381296 249154144 
1775.738 241935680 234710384 227470176 220213264 212942032 205662928 
1778.631 198386400 191129168 183913088 176765360 169714496 162787504 
1781.524 156005680 149383520 142929104 136647392 130542904 124624520 
1784.417 118906296 113406824 108148024 103150032 98428968 93992912 89840504 
1787.792 85962128 82341184 78956688 75788928 72821720 70045152 67456184 
1791.167 65054848 62840148 60806656 58941124 57224640 55635128 54153576 
1794.542 52767476 51471324 50264472 49146520 48113472 47155204 46257832 
1797.918 45406816 44592560 43811256 43065552 42360028 41696984 41074220 
1801.293 40483876 39916980 39365200 38825012 38296088 37780420 37277288 
1804.668 36782556 36290020 35794768 35298140 34810136 34346708 33925696 
1808.043 33557408 33240792 32960008 32691434 32409624 32098398 31754386 
1811.419 31388868 31021134 30670370 30348852 30058570 29792334 29538836 
1814.794 29289470 29042366 28802876 28582116 28391380 28237712 28121062 
1818.169 28032892 27957540 27875538 27766958 27615554 27412454 27158900 
1821.544 26867768 26560488 26262528 25995912 25772074 25587686 25424832 
1824.920 25258686 25065330 24830970 24557420 24259732 23960628 23680570 
1828.295 23430352 23208030 23001936 22796284 22579412 22348260 22108634 
1831.670 21871324 21647124 21442764 21258620 21091020 20934720 20784920 
1835.045 20637562 20487596 20326470 20141764 19919436 19647324 19322130 
1838.421 18952238 18557880 18168064 17813386 17518020 17295526 17145462 
1841.796 17054258 17001170 16961216 16911134 16833642 16718805 16566422 
1845.171 16383722 16184371 15984904 15799481 15638594 15504925 15394241 
1848.546 15297807 15204958 15107383 15001776 14889881 14777881 14673833 
1851.922 14585549 14517728 14472125 14445881 14435069 14432506 14431129 
1855.297 14424864 14409772 14385279 14353757 14318900 14283085 14244430 
1858.672 14194974 14122491 14014113 13862556 13670758 13455707 13244802 
1862.047 13069832 12957262 12919032 12948099 13018849 13097238 13149044 
1865.423 13154264 13112048 13041908 12976578 12950381 12985732 13084952 
1868.798 13226460 13371021 13471212 13487161 13396239 13199853 12920992 
1872.173 12598238 12272046 11977999 11738259 11563335 11454118 11407731 
1875.548 11420306 11486217 11594606 11725966 11851792 11939439 11961703 
1878.924 11908677 11793333 11651409 11529404 11468084 11486385 11572863 
1882.299 11689251 11786159 11821842 11781305 11681722 11565509 11482317 
1885.674 11468084 11530526 11646832 11774504 11870845 11910247 11893163 
1889.049 11844063 11796721 11777878 11793399 11826917 11847480 11824426 
1892.425 11741699 11605885 11443497 11290854 11180725 11131642 11143387 
1895.800 11200978 11282932 11369779 11450363 11520985 11582016 11632490 
1899.175 11664801 11665718 11618940 11511918 11341442 11117400 10861567 
1902.550 10603450 10373439 10194009 10076082 10018148 10009121 10035618 
1905.926 10088846 10168320 10281999 10439905 10647479 10896462 11163720 
1909.301 11416637 11622525 11762247 11838808 11877510 11918031 11997782 
1912.676 12136156 12323514 12524523 12685110 12755102 12702840 12529157 
1916.051 12262513 11951760 11646121 11382688 11176977 11020808 10891064 
1919.427 10760179 10606377 10421214 10210614 9995129 9804331 9673339 9632004 
1923.284 9698885 9871312 10122134 10400014 10641167 10783231 10785995 
1926.659 10643151 10386986 10076861 9781821 9558279 9433065 9399086 9424780 
1930.517 9472287 9516194 9555399 9613078 9726815 9930826 10242103 10655068 
1934.374 11140332 11656142 12155023 12591744 12921469 13103778 13098303 
1937.749 12876620 12431372 11793107 11036200 10276087 9646906 9273463 
1941.125 9236363 9550315 10154493 10932428 11738421 12440163 12949010 
1944.500 13236332 13327989 13284866 13173353 13040840 12902517 12745676 
1947.875 12544965 12286102 11980627 11672950 11429794 11320106 11392210 
1951.250 11652119 12058622 12529651 12959845 13249394 13324464 13156766 
1954.625 12767569 12221805 11612605 11045041 10613245 10388390 10406182 
1958.001 10663001 11119201 11705292 12335150 12920022 13383764 13670237 
1961.376 13751261 13623789 13308431 12846988 12290730 11695512 11105762 
1964.751 10548887 10021619 9497647 8946290 8344943 7713077 7120552 6684155 
1968.609 6538423 6790735 7484257 8557489 9861405 11186865 12328655 13141982 
1972.466 13583967 13711291 13652326 13549810 13511320 13578035 13729442 
1975.841 13905098 14057112 14176729 14314068 14549661 14972295 15630247 
1979.217 16516002 17567096 18678180 19723200 20571710 21101794 21218250 
1982.592 20867388 20059874 18875720 17458952 15989911 14644675 13554262 
1985.967 12778921 12303613 12070639 12011738 12088721 12306806 12700099 
1989.342 13293933 14065214 14917721 15694965 16219536 16359570 16076410 
1992.718 15445580 14631731 13834768 13212635 12830740 12639773 12500472 
1996.093 12238167 11708643 10846338 9686133 8345035 6986943 5776661 4842837 
1999.950 4268412 4090157 4306247 4891718 5793633 6936293 8212760 9497618 
2003.808 10655533 11578492 12198348 12509851 12567266 12460778 12284522 
2007.183 12104240 11939757 11772390 11560869 11278830 10929591 10554507 
2010.558 10219239 9984892 9887923 9919421 10035981 10172111 10272482 
2013.933 10311335 10298473 10274256 10280092 10341145 10438602 10523196 
2017.309 10522737 10380196 10074981 9647922 9189839 8829309 8686604 8846846 
2021.166 9326930 10065674 10934814 11766715 12393579 12694892 12626683 
2024.541 12250811 11719133 11238845 11015758 11184148 11756090 12606579 
2027.917 13508912 14204398 14494125 14318571 13779675 13110430 12578695 
2031.292 12390073 12587468 13037120 13466899 13564834 13095978 11982679 
2034.667 10324378 8359110 6366713 4597615 3215259 2297211 1861363 1903961 
2038.524 2413832 3368651 4699182 6274431 7893126 9323705 10358904 10868901 
2042.382 10834339 10340564 9535682 8580785 7610209 6714368 5957012 5405186 
2046.239 5149890 5305605 5970345 7173720 8823641 10700706 12491106 13875656 
2050.097 14618680 14634968 13995549 12902258 11624696 10439738 9579239 
2053.472 9191159 9320458 9909425 10813038 11839642 12787192 13485760 
2056.847 13823426 13761525 13329140 12613622 11736744 10832421 10021405 
2060.222 9397600 9019226 8904898 9040558 9384373 9870876 10423702 10962519 
2064.080 11419344 11747272 11929926 11975780 11914685 11781210 11605784 
2067.455 11407697 11200819 10999719 10827084 10714350 10691724 10773004 
2070.830 10944126 11157672 11347663 11452240 11439119 11321290 11155287 
2074.206 11020748 10989004 11091161 11307504 11571168 11794875 11903252 
2077.581 11859565 11672793 11391608 11079280 10790760 10555887 10376397 
2080.956 10236747 10120065 10018408 9937297 9889082 9881111 9905597 9939726 
2084.813 9951872 9915057 9820167 9683676 9541969 9438442 9406304 9452309 
2088.671 9547921 9635328 9642101 9503166 9186234 8706411 8130682 7567427 
2092.528 7139883 6958636 7086478 7520396 8187651 8961191 9692374 10248610 
2096.386 10547307 10570255 10360191 9999327 9583148 9193803 8884227 8675328 
2100.243 8559939 8515253 8508213 8507072 8483857 8421395 8317208 8188370 
2104.101 8072291 8019764 8083520 8302240 8685235 9205105 9802063 10396715 
2107.958 10911301 11287782 11499212 11553506 11483092 11334563 11153852 
2111.333 10976629 10823221 10698799 10592746 10482764 10338178 10123499 
2114.708 9806934 9369185 8811126 8160624 7469208 6804428 6235255 5816658 
2118.566 5575513 5506926 5573741 5718404 5876236 5987765 6009430 5917676 
2122.423 5707854 5389451 4979550 4497233 3962074 3395186 2820477 2272344 
2126.281 1792542 1428010 1217013 1178465 1293822 1507010 1728189 1857108 
2130.138 1808239 1541679 1075000 480299 -138585 -679958 -1078890 -1323821 
2133.996 -1456704 -1546490 -1655091 -1811394 -1999942 -2176602 -2299000 
2137.371 -2352003 -2361366 -2381544 -2472055 -2662612 -2938379 -3232703 
2140.746 -3456829 -3521147 -3375102 -3018310 -2505613 -1925652 -1386485 
2144.121 -990263 -819124 -925461 -1322853 -1984448 -2840449 -3783480 
2147.497 -4695965 -5468176 -6038270 -6400401 -6612938 -6763363 -6947213 
2150.872 -7227707 -7630917 -8154501 -8793608 -9568203 -10526288 -11721907 
2154.247 -13169933 -14780332 -16343014 -17524858 -17938224 -17246452 
2157.140 -15284415 -12156999 -8279325 -4285470 -876321 1414624 2364755 
2160.515 2098288 982921 -512764 -1972213 -3088905 -3716159 -3825646 -3496772 
2164.373 -2858551 -2063029 -1248280 -520320 62445 479179 752257 923011 
2168.230 1041801 1147278 1263752 1391595 1518504 1618470 1676622 1690257 
2172.088 1682774 1695550 1778877 1966375 2263014 2613915 2914284 3027581 
2175.945 2827209 2240441 1298003 135347 -1024087 -1926738 -2349674 -2168093 
2179.802 -1388023 -152048 1313616 2748280 3949234 4809035 5341796 5652253 
2183.660 5891895 6194995 6644094 7248615 7956449 8676378 9312226 9782132 
2187.517 10042598 10078732 9908096 9554839 9052146 8418310 7672823 6831446 
2191.375 5923083 4995842 4122133 3389552 2885914 2668221 2752360 3096150 
2195.232 3618633 4220399 4821053 5383993 5929053 6517546 7223552 8094860 
2199.090 9125703 10245175 11334654 12253097 12880447 13139619 13016245 
2202.465 12555252 11846022 10995806 10110181 9272559 8537604 7927029 7437366 
2206.322 7055687 6775533 6605717 6582190 6756985 7178040 7859049 8760097 
2210.180 9776005 10756837 11539918 12004649 12100189 11868633 11423240 
2213.555 10907909 10450693 10130740 9963566 9921086 9960263 10052957 
2216.930 10197368 10413226 10712519 11086454 11491195 11862784 12137022 
2220.305 12279424 12289169 12199039 12048950 11867959 11660536 11419825 
2223.681 11141949 10851219 10600167 10460931 10488319 10694310 11032348 
2227.056 11411488 11733189 11935255 12021189 12062299 12163790 12417165 
2230.431 12851324 13411160 13967658 14362214 14456751 14182680 13556431 
2233.806 12673840 11672691 10702387 9884508 9306858 9012012 9007597 9266630 
2237.664 9734227 10324103 10934689 11460117 11817637 11963533 11909819 
2241.039 11711260 11449009 11199487 11011991 10895388 10826022 10761896 
2244.414 10667071 10520859 10327766 10105904 9879263 9666936 9484263 9339065 
2248.272 9243604 9209259 9249977 9371534 9570553 9830026 10130901 10456122 
2252.129 10802035 11176755 11593319 12056119 12548380 13028150 13434048 
2255.504 13698713 13774563 13643694 13330237 12891394 12406874 11957912 
2258.880 11614305 11421748 11397447 11530428 11786895 12115063 12458880 
2262.255 12763327 12993163 13130659 13186971 13189627 13178367 13184900 
2265.630 13225898 13295528 13372423 13425446 13431120 13381414 13288494 
2269.005 13178703 13085032 13037666 13055449 13143772 13298193 13506345 
2272.381 13754329 14025925 14306495 14579769 14829826 15042474 15208097 
2275.756 15323578 15395302 15434191 15455851 15472079 15493524 15524719 
2279.131 15568813 15630957 15718995 15845465 16023003 16259348 16553281 
2282.506 16887266 17231118 17543738 17781928 17911370 17914612 17798276 
2285.882 17593252 17346552 17114300 16944984 16870376 16896140 17000286 
2289.257 17140674 17263310 17316590 17262858 17085608 16793714 16416239 
2292.632 15996445 15581593 15215044 14926628 14731610 14629757 14609136 
2296.007 14650956 14734648 14840781 14954616 15062714 15154243 15218440 
2299.383 15245687 15230084 15172297 15083690 14982896 14894999 14842453 
2302.758 14838204 14881278 14954042 15030095 15081457 15089340 15051473 
2306.133 14982644 14910143 14864460 14867876 14927565 15033400 15162665 
2309.508 15287881 15386894 15450429 15483746 15503853 15533538 15591711 
2312.884 15688362 15820410 15972702 16125469 16259534 16364042 16440526 
2316.259 16500581 16562775 16643336 16753217 16892986 17058228 17244586 
2319.634 17456392 17707128 18017674 18403382 18858364 19344478 19788562 
2323.009 20094596 20167090 19937058 19384658 18544980 17502912 16371811 
2326.385 15270310 14296533 13511145 12932884 12542774 12298929 12155171 
2329.760 12073006 12029720 12015329 12028601 12067208 12125066 12192417 
2333.135 12257765 12311400 12347058 12361352 12352706 12318913 12259957 
2336.510 12179123 12085252 11992605 11918817 11878314 11878805 11917171 
2339.885 11981597 12054763 12122309 12173323 12205277 12218628 12214624 
2343.261 12192306 12147192 12076752 11983331 11876442 11772110 11686699 
2346.636 11631060 11603401 11590446 11570558 11523276 11437171 11315537 
2350.011 11174978 11039966 10934205 10873925 10864182 10899574 10969651 
2353.386 11062223 11165644 11268562 11358595 11421445 11442252 11410017 
2356.762 11323761 11194050 11042823 10897951 10785423 10719065 10698267 
2360.137 10706774 10720183 10711149 10659808 10556500 10403818 10212662 
2363.512 9999877 9782779 9578132 9399856 9258544 9161644 9111698 9106986 
2367.370 9141763 9207819 9295601 9396732 9504723 9614042 9719368 9815869 
2371.227 9898056 9963144 10011360 10048004 10082044 10124278 10183687 
2374.602 10266646 10373568 10502809 10651205 10815833 10992890 11176498 
2377.978 11355511 11513830 11630861 11689430 11679517 11604992 11483463 
2381.353 11342434 11211656 11114351 11061700 11051408 11071923 11107778 
2384.728 11146922 11182646 11214151 11244949 11276240 11308262 11336937 
2388.103 11358345 11368640 11365172 11347536 11315480 11269643 11211535 
2391.479 11146917 11085965 11043014 11033059 11067501 11148455 11264971 
2394.854 11396546 11518482 11609655 11658799 11669495 11655779 11637076 
2398.229 11630497 11646657 11686539 11743966 11809700 11875224 11933292 
2401.604 11978186 12004099 12003609 11970099 11900409 11799438 11682082 
2404.979 11571217 11494245 11474223 11524084 11641297 11807775 11993954 
2408.355 12165950 12292981 12354243 12343141 12268365 12151301 12022079 
2411.730 11912380 11848074 11842762 11895993 11992197 12106492 12212102 
2415.105 12287483 12322731 12319116 12287227 12240415 12187918 12134101 
2418.480 12076294 12010198 11933620 11850044 11768386 11700246 11655039 
2421.856 11637158 11644262 11667522 11696554 11720318 11730121 11720269 
2425.231 11686362 11627412 11546337 11452392 11361264 11294739 11274457 
2428.606 11314679 11415200 11558248 11711223 11833740 11889685 11857418 
2431.981 11735591 11542679 11310616 11075088 10866653 10706001 10602022 
2435.357 10555059 10559837 10607015 10683981 10775256 10861433 10922592 
2438.732 10941979 10912541 10839158 10740023 10640202 10565758 10533528 
2442.107 10549092 10602752 10678347 10757412 10830213 10896745 10967318 
2445.482 11057244 11177595 11330857 11505672 11681978 11834759 11943650 
2448.858 12000404 12009742 11990190 11964717 11953521 11965895 11997327 
2452.233 12029598 12039032 12005638 11918550 11784078 11621861 11459028 
2455.608 11321399 11222797 11162407 11123465 11081303 11012135 10903116 
2458.983 10756370 10590491 10431984 10307264 10233548 10213569 10234757 
2462.359 10276631 10316786 10340480 10343658 10333726 10323217 10324412 
2465.734 10341196 10368053 10390791 10393815 10365465 10306967 10232019 
2469.109 10165386 10133424 10155972 10237616 10366830 10515537 10651340 
2472.484 10743767 10775737 10747792 10676205 10586216 10503069 10443085 
2475.860 10411160 10399517 10395827 10388318 10373595 10359118 10360468 
2479.235 10395077 10477155 10608312 10777475 10961840 11132351 11260158 
2482.610 11327594 11327883 11272623 11185076 11095678 11033446 11018033 
2485.985 11053205 11129425 11222916 11308035 11365289 11388654 11389025 
2489.361 11390067 11417866 11491123 11610460 11755050 11888617 11969980 
2492.736 11968287 11874888 11706791 11505082 11318698 11192160 11149378 
2496.111 11189383 11286074 11401117 11495223 11542699 11535221 11484311 
2499.486 11413297 11347363 11305855 11296730 11318170 11362652 11422903 
2502.862 11497595 11591095 11711222 11860766 12032873 12208097 12354946 
2506.237 12439798 12436396 12336704 12156242 11932636 11715289 11552434 
2509.612 11474824 11486694 11566239 11672309 11761690 11801554 11782530 
2512.987 11717798 11636212 11567142 11527767 11516504 11512901 11488909 
2516.363 11422533 11308694 11164828 11023453 10922323 10889859 10933166 
2519.738 11038642 11176562 11312102 11419181 11486202 11516773 11523874 
2523.113 11520584 11513576 11499973 11470135 11415602 11332810 11228178 
2526.488 11115483 11010535 10924589 10862298 10818684 10788256 10766447 
2529.864 10757497 10773853 10830355 10939059 11100771 11301644 11515177 
2533.239 11708897 11854440 11936137 11955388 11929047 11882144 11841852 
2536.614 11825158 11838111 11873761 11917327 11952667 11967437 11957206 
2539.989 11923577 11874365 11817903 11762441 11712835 11671385 11638008 
2543.365 11611432 11589528 11570598 11553621 11539106 11531916 11539814 
2546.740 11573291 11642176 11751185 11895915 12059925 12216164 12333446 
2550.115 12384479 12353832 12245918 12083529 11903410 11745046 11641266 
2553.490 11608412 11643611 11727407 11832540 11931646 12006658 12050619 
2556.865 12066937 12063133 12046902 12022354 11988883 11944941 11892844 
2560.241 11839527 11799227 11787039 11814390 11884052 11986528 12103388 
2563.616 12211369 12289339 12327648 12328763 12308821 12292049 12304161 
2566.991 12363918 12479871 12648453 12855088 13080436 13303846 13508937 
2570.366 13685347 13828388 13939324 14020197 14074779 14104608 14111484 
2573.742 14096684 14064087 14020158 13973192 13933210 13907646 13900741 
2577.117 13910172 13928424 13945042 13950244 13940046 13915655 13886753 
2580.492 13865716 13864065 13887350 13932819 13989477 14042090 14076519 
2583.867 14085733 14071369 14044855 14021371 14017563 14044124 14104370 
2587.243 14192937 14299866 14412488 14518818 14610860 14682252 14731848 
2590.618 14758855 14764993 14752342 14724459 14683335 14630190 14566403 
2593.993 14490410 14402987 14306218 14207161 14114865 14040837 13993438 
2597.368 13974514 13978854 13995217 14009759 14013231 14004054 13989820 
2600.744 13985171 14004690 14057997 14145018 14256093 14375866 14488442 
2604.119 14583417 14657186 14712540 14753306 14782716 14799452 14799476 
2607.494 14779459 14740519 14689573 14640452 14607336 14602941 14633587 
2610.869 14698505 14791152 14902600 15023657 15145827 15260240 15357063 
2614.245 15424779 15453001 15435211 15372787 15278014 15170207 15072387 
2617.620 15003894 14974926 14983489 15018252 15062789 15102861 15130538 
2620.995 15145818 15154239 15163451 15179625 15205137 15239112 15280331 
2624.370 15327994 15383347 15447447 15519509 15596282 15670169 15733059 
2627.746 15778229 15804166 15815105 15818886 15826119 15844924 15880527 
2631.121 15931880 15996248 16066745 16137272 16201543 16253365 16287144 
2634.496 16298447 16284430 16246134 16187988 16119367 16050456 15990656 
2637.871 15946254 15919654 15908290 15907826 15912507 15918162 15922045 
2641.247 15921935 15916321 15902894 15881203 15853023 15822880 15797697 
2644.622 15786100 15794219 15823936 15870642 15925098 15974868 16008906 
2647.997 16019115 16002903 15962299 15902279 15829686 15750127 15669655 
2651.372 15593966 15527875 15477255 15446040 15436018 15445149 15467384 
2654.748 15493285 15512949 15517284 15501547 15464038 15407066 15335529 
2658.123 15254245 15166151 15072499 14972394 14863243 14742099 14607081 
2661.498 14458639 14299625 14135662 13975059 13825669 13695090 13587255 
2664.873 13502525 13437693 13387674 13347377 13313237 13284893 13263779 
2668.249 13252585 13252117 13261220 13274978 13286415 13288456 13275099 
2671.624 13244369 13196970 13137287 13071047 13004516 12943434 12892363 
2674.999 12853554 12827817 12813545 12808320 12809104 12812489 12817936 
2678.374 12825537 12837357 12855914 12881299 12911544 12940539 12960922 
2681.750 12966310 12953004 12922977 12882781 12842213 12811252 12796915 
2685.125 12801734 12823015 12855189 12890346 12922096 12943681 12950417 
2688.500 12938959 12907138 12855486 12787595 12711847 12639230 12581733 
2691.875 12548557 12543500 12563785 12600219 12640008 12671054 12685687 
2695.250 12681369 12661335 12631725 12598309 12565423 12534062 12503323 
2698.626 12472572 12442266 12413842 12391197 12377043 12373012 12379653 
2702.001 12394257 12414115 12435788 12456291 12473363 12484462 12487595 
2705.376 12480851 12463050 12434552 12396887 12353138 12307017 12262239 
2708.751 12221800 12188151 12163013 12147579 12142026 12146727 12160235 
2712.127 12181007 12206966 12237293 12272628 12315514 12368778 12434701 
2715.502 12511196 12591179 12663279 12713113 12729023 12704792 12642592 
2718.877 12553785 12455939 12368540 12308437 12285204 12300774 12350428 
2722.252 12423070 12507229 12591876 12667987 12728982 12770657 12790896 
2725.628 12789962 12771593 12742712 12712635 12691316 12687256 12702931 
2729.003 12735426 12775247 12809047 12825117 12815767 12781620 12732456 
2732.378 12683738 12653762 12656911 12700889 12783710 12895238 13018630 
2735.753 13135481 13229738 13289740 13309967 13289472 13231083 13140654 
2739.129 13026160 12897786 12767815 12649653 12556333 12496855 12475184 
2742.504 12487662 12526317 12579502 12636379 12689790 12737794 12781770 
2745.879 12823836 12863796 12898900 12921957 12925513 12905506 12863397 
2749.254 12807096 12749395 12703832 12680270 12681386 12701671 12728962 
2752.630 12748611 12746514 12715088 12653221 12568095 12472981 12383747 
2756.005 12317455 12287223 12300171 12356504 12448224 12561034 12678330 
2759.380 12782279 12859928 12903959 12913703 12894225 12854581 12803541 
2762.755 12749806 12699568 12658011 12628198 12612903 12612879 12626934 
2766.131 12651641 12682657 12715348 12747034 12777247 12807840 12841044 
2769.506 12877223 12913232 12942851 12958279 12954689 12932805 12901165 
2772.881 12872952 12863488 12884025 12937362 13016464 13106754 13190383 
2776.256 13251355 13281098 13277820 13247095 13198302 13141119 13084385 
2779.632 13034055 12995442 12972087 12968095 12984970 13023091 13078748 
2783.007 13146075 13217437 13286313 13347376 13397548 13435329 13459307 
2786.382 13467986 13459577 13435293 13399513 13361757 13335295 13333675 
2789.757 13366165 13434843 13531968 13642698 13749355 13837813 13900193 
2793.133 13938352 13962856 13986615 14022185 14075851 14146497 14225602 
2796.508 14300712 14359813 14393991 14400973 14384597 14353951 14320480 
2799.883 14295070 14286265 14297739 14328280 14373201 14424719 14475688 
2803.258 14519721 14552961 14574457 14584299 14584078 14576518 14565380 
2806.634 14555649 14553630 14568558 14606839 14672728 14765205 14876001 
2810.009 14992312 15099242 15183872 15239763 15268130 15277636 15280537 
2813.384 15289766 15313816 15356285 15416336 15490203 15575059 15670342 
2816.759 15777577 15898852 16034557 16181389 16331319 16474973 16601173 
2820.135 16701851 16773866 16818808 16842438 16854702 16865354 16883502 
2823.510 16917498 16971612 17048618 17148622 17268600 17404872 17550988 
2826.885 17700114 17843796 17973658 18079994 18154890 18192042 18189434 
2830.260 18151324 18087506 18014052 17948574 17908308 17903644 17936788 
2833.635 18000906 18081150 18160666 18223906 18261142 18270446 18257430 
2837.011 18232106 18206866 18192404 18196164 18222734 18272042 18341518 
2840.386 18426680 18520288 18615748 18707426 18792540 18872904 18955694 
2843.761 19053152 19179362 19347178 19564008 19830196 20136106 20465500 
2847.136 20798636 21115848 21402526 21651714 21865100 22051006 22221138 
2850.512 22387410 22557700 22733840 22910642 23079920 23232616 23361678 
2853.887 23467474 23556064 23639478 23730450 23840166 23973080 24127868 
2857.262 24295850 24467582 24634076 24793110 24947484 25105984 25278870 
2860.637 25474858 25697164 25943016 26204388 26471036 26733280 26986154 
2864.013 27231018 27474940 27730828 28012978 28334620 28704458 29124406 
2867.388 29588798 30085642 30599784 31115288 31622392 32116596 32601792 
2870.763 33087038 33583188 34098168 34633976 35185272 35740708 36287352 
2874.138 36811964 37307516 37772308 38209612 38624216 39021196 39401404 
2877.514 39761680 40092932 40383292 40619136 40786484 40875144 40879224 
2880.889 40797212 40635104 40405004 40122620 39806372 39474528 39142176 
2884.264 38822216 38523124 38252296 38014744 37816388 37662832 37557540 
2887.639 37501412 37491504 37519260 37573260 37641184 37710912 37774344 
2891.015 37827636 37872348 37914412 37962812 38027028 38115192 38231740 
2894.390 38375036 38538472 38709788 38874656 39020292 39138464 39227868 
2897.765 39293928 39344944 39390336 39436332 39483540 39527284 39563200 
2901.140 39585456 39593720 39591872 39586340 39583780 39588176 39598816 
2904.516 39611556 39620608 39621620 39613396 39599200 39586484 39584608 
2907.891 39603692 39652824 39738256 39863520 40027840 40224684 40443928 
2911.266 40672332 40896864 41109656 41309476 41506008 41714592 41952924 
2914.641 42235808 42566580 42939520 43338476 43743084 44135244 44504312 
2918.017 44847264 45168276 45473120 45765708 46048016 46318328 46577644 
2921.392 46831256 47090336 47370944 47688704 48054532 48471092 48932828 
2924.767 49427508 49942004 50465336 50992980 51523948 52062664 52613100 
2928.142 53179944 53769060 54385988 55038784 55737648 56491732 57308240 
2931.518 58190400 59137052 60145704 61214204 62344036 63541636 64816648 
2934.893 66179448 67637768 69195040 70850960 72602552 74445704 76377464 
2938.268 78395640 80495312 82666112 84888520 87136232 89373456 91560200 
2941.643 93654992 95616536 97406704 98991600 100343352 101443296 102283320 
2945.019 102869168 103217736 103355352 103311856 103113584 102779504 
2947.912 102319944 101739272 101043248 100242664 99358680 98420152 97459856 
2951.287 96505880 95576800 94675768 93794704 92918256 92033624 91134944 
2954.662 90228312 89328352 88456112 87628960 86857872 86144928 85483264 
2958.037 84861632 84268464 83695696 83138272 82593976 82060728 81534016 
2961.413 81006424 80470408 79918144 79346448 78756536 78154208 77546536 
2964.788 76940624 76339936 75744536 75150168 74551408 73943576 73323360 
2968.163 72690128 72044440 71388040 70723256 70053528 69385584 68728672 
2971.538 68095880 67501056 66956020 66466404 66030532 65638536 65275952 
2974.914 64928292 64587764 64255500 63943116 63669980 63457420 63321592 
2978.289 63271424 63304892 63412272 63580348 63798600 64063640 64381032 
2981.664 64764536 65231808 65799520 66479476 67274736 68180656 69186880 
2985.039 70280240 71450512 72691672 74001656 75382568 76834472 78352696 
2988.415 79923912 81523336 83116440 84661888 86116232 87439208 88599448 
2991.790 89576688 90362920 90961808 91383872 91646040 91764792 91751360 
2995.165 91612056 91346424 90948144 90409344 89726032 88898656 87938496 
2998.540 86864176 85699664 84467240 83184424 81857376 80482752 79049440 
3001.916 77546864 75967224 74314216 72602112 70853680 69095928 67353856 
3005.291 65648004 63989052 62380792 60822024 59306460 57828424 56380332 
3008.666 54955736 53549184 52156800 50777788 49414220 48072440 46761396 
3012.041 45490228 44267068 43095952 41976656 40905768 39877328 38885492 
3015.417 37925976 36995440 36092596 35218956 34374040 33560076 32779790 
3018.792 32035288 31328988 30661962 30032640 29436080 28863848 28305194 
3022.167 27749562 27187550 26615078 26032962 25448886 24876110 24330054 
3025.542 23826824 23380368 22996680 22677060 22412814 22191496 21995136 
3028.917 21807722 21616404 21412394 21193868 20962856 20725382 20488292 
3032.293 20257998 20040836 19840776 19660682 19498820 19351410 19210504 
3035.668 19066606 18912064 18742900 18562988 18385286 18227252 18107458 
3039.043 18039084 18024280 18052460 18101692 18146748 18163216 18136154 
3042.418 18062896 17952828 17823008 17692752 17579638 17495018 17445442 
3045.794 17431842 17453422 17506918 17587748 17689180 17801292 17912732 
3049.169 18012750 18093542 18152444 18193738 18226026 18258738 18300890 
3052.544 18354644 18417234 18479846 18530786 18559674 18560348 18531144 
3055.919 18476880 18404944 18325178 18245090 18170830 18104150 18045266 
3059.295 17991702 17941616 17893370 17847678 17806392 17772288 17746296 
3062.670 17727908 17713008 17694814 17664986 17616318 17545518 17455242 
3066.045 17354864 17258472 17182852 17141594 17140682 17177466 17236712 
3069.420 17297726 17336924 17337276 17293100 17212524 17116668 17033986 
3072.796 16991598 17007156 17082646 17205314 17349704 17487236 17592194 
3076.171 17650308 17659168 17626294 17564482 17486534 17399782 17307014 
3079.546 17207610 17099704 16984124 16865314 16748440 16638156 16537255 
3082.921 16444810 16357100 16271537 16188951 16113898 16054446 16019912 
3086.297 16016828 16045205 16099058 16165974 16229186 16270977 16276209 
3089.672 16235854 16147925 16018623 15862143 15698375 15549918 15437393 
3093.047 15374802 15368389 15413919 15500535 15611044 15729686 15840489 
3096.422 15933892 16002204 16041042 16048420 16025156 15975596 15909607 
3099.798 15839649 15781313 15746659 15741415 15761537 15795290 15826868 
3103.173 15842749 15835948 15809791 15772806 15735388 15703168 15672810 
3106.548 15634008 15574681 15487529 15377131 15258060 15153650 15084636 
3109.923 15063010 15084522 15131157 15177702 15201950 15192209 15152843 
3113.299 15100116 15055821 15036660 15047963 15081184 15118490 15140561 
3116.674 15134759 15099817 15045749 14989684 14946868 14926506 14927246 
3120.049 14938749 14947018 14940022 14911798 14864217 14803860 14738472 
3123.424 14673690 14610877 14548155 14482485 14414392 14347012 14287882 
3126.800 14246327 14228733 14237736 14270827 14322470 14387127 14459766 
3130.175 14537361 14616449 14692103 14754887 14791356 14789646 14741763 
3133.550 14650628 14531451 14409620 14313900 14268022 14282290 14349490 
3136.925 14447278 14543947 14608392 14618308 14567157 14462481 14324140 
3140.301 14175787 14041172 13937341 13875122 13857689 13883378 13944633 
3143.676 14031798 14131729 14229588 14311167 14366124 14389078 14379591 
3147.051 14340382 14275560 14186477 14072604 13932992 13770052 13592962 
3150.426 13419633 13273256 13175346 13140142 13167989 13244149 13343967 
3153.802 13440446 13513739 13556869 13577628 13593007 13622968 13679765 
3157.177 13766379 13873104 13982615 14076628 14140744 14168602 14161775 
3160.552 14126375 14069914 14000098 13921482 13838615 13755301 13676415 
3163.927 13605552 13544836 13492472 13444007 13393627 13335922 13270254 
3167.302 13201606 13140036 13098693 13087438 13111901 13168288 13246008 
3170.678 13329271 13401531 13451000 13472468 13469737 13452781 13434865 
3174.053 13428198 13440223 13472643 13521438 13579917 13640541 13699912 
3177.428 13757491 13815729 13877818 13943756 14008758 14062821 14092311 
3180.803 14086144 14037275 13947180 13827355 13695573 13572392 13477409 
3184.179 13423310 13415861 13453589 13529486 13634510 13757489 13888941 
3187.554 14018524 14137167 14234825 14303805 14338854 14338351 14306981 
3190.929 14253707 14191017 14130874 14083535 14054244 14043542 14047908 
3194.304 14062750 14083692 14107527 14134365 14164846 14200156 14241144 
3197.680 14286642 14335153 14385178 14434898 14482597 14526028 14561649 
3201.055 14585384 14592834 14581738 14554662 14518036 14483111 14461908 
3204.430 14462692 14486755 14525851 14564098 14581854 14561608 14494215 
3207.805 14380955 14233193 14068009 13904297 13756879 13634565 13541010 
3211.181 13476224 13438281 13426651 13439735 13476579 13531172 13598043 
3214.556 13668590 13736257 13796633 13847450 13887842 13915221 13924952 
3217.931 13910887 13869353 13801852 13718606 13638356 13582220 13567767 
3221.306 13601268 13675845 13772441 13867348 13941149 13986384 14009409 
3224.682 14027582 14061736 14124939 14219367 14333054 14446135 14536461 
3228.057 14587154 14590520 14546326 14461252 14343183 14201515 14045550 
3231.432 13887609 13742289 13625707 13550194 13520520 13529569 13559502 
3234.807 13588251 13595364 13572061 13522659 13462849 13414502 13394190 
3238.183 13409616 13455164 13516001 13575233 13620503 13648874 13665543 
3241.558 13680698 13704316 13740852 13788575 13841088 13890469 13931288 
3244.933 13961700 13983647 13999843 14012462 14022581 14030751 14038050 
3248.308 14045894 14056786 14071485 14087602 14098938 14097110 14075051 
3251.684 14030240 13967463 13898247 13838590 13800802 13791849 13809029 
3255.059 13839609 13867689 13877154 13858615 13809667 13738043 13656043 
3258.434 13578492 13516621 13479480 13470027 13489031 13534764 13603421 
3261.809 13689996 13786645 13883433 13969449 14034088 14070566 14078110 
3265.185 14062160 14033418 14004673 13985536 13980058 13983104 13984402 
3268.560 13969952 13928480 13856588 13761265 13657604 13565741 13503726 
3271.935 13480983 13495119 13533998 13577601 13606321 13607450 13579328 
3275.310 13530164 13476389 13435743 13421719 13440903 13491885 13566568 
3278.686 13655643 13749246 13840907 13926343 14003031 14067225 14115081 
3282.061 14142307 14145262 14122842 14076244 14009634 13928944 13840650 
3285.436 13750909 13666530 13594221 13540369 13510358 13505850 13524440 
3288.811 13556452 13588257 13603893 13591467 13545912 13474363 13392892 
3292.187 13324939 13292314 13310011 13379478 13489184 13616669 13736815 
3295.562 13827684 13877451 13886320 13865960 13832134 13801834 13785753 
3298.937 13787217 13803029 13826131 13851448 13875888 13900665 13927550 
3302.312 13957755 13988082 14010237 14013277 13986802 13924938 13829227 
3305.688 13710600 13585648 13476154 13401030 13374335 13400512 13474941 
3309.063 13581712 13700251 13806546 13880321 13907706 13885804 13822902 
3312.438 13735496 13644303 13567160 13516048 13492630 13489715 13497333 
3315.813 13507833 13518672 13536388 13571528 13633756 13724747 13833091 
3319.188 13937141 14006687 14016054 13948879 13807255 13610167 13389274 
3322.564 13181461 13016830 12915946 12883262 12911025 12983480 13081753 
3325.939 13190291 13296755 13395469 13484870 13565954 13641054 13712060 
3329.314 13780526 13847459 13912852 13976816 14038574 14098901 14156571 
3332.689 14209913 14254459 14281843 14283238 14250714 14179910 14074602 
3336.065 13946621 13816266 13705307 13632276 13604886 13618352 13655047 
3339.440 13690414 13700434 13670458 13598801 13497623 13388600 13296096 
3342.815 13240006 13230065 13264061 13329934 13410481 13486580 13544465 
3346.190 13574841 13576349 13552449 13510964 13459952 13406575 13354751 
3349.566 13305604 13257788 13209283 13159426 13110449 13068297 13039467 
3352.941 13030358 13043107 13074918 13117951 13161898 13198789 13224471 
3356.316 13241745 13259134 13286632 13331652 13394765 13467441 13534863 
3359.691 13578039 13579651 13530917 13431367 13293129 13136881 12986677 
3363.067 12867582 12797249 12785254 12830382 12921301 13039812 13167257 
3366.442 13286082 13384574 13458326 13508340 13538548 13552313 13550310 
3369.817 13530388 13488484 13421998 13332501 13226528 13115118 13010449 
3373.192 12924588 12864754 12833550 12830871 12852106 12892642 12948198 
3376.568 13013928 13084311 13153696 13216219 13266674 13302456 13323451 
3379.943 13332922 13334373 13332319 13330036 13330807 13338023 13358020 
3383.318 13397706 13466594 13570588 13710043 13877518 14058196 14230790 
3386.693 14374333 14471575 14514213 14505283 14456098 14385925 14314487 
3390.069 14259815 14232921 14237780 14270326 14320015 14374373 14421030 
3393.444 14452257 14467143 14471469 14475455 14489782 14522403 14572308 
3396.819 14631549 14685009 14715292 14709647 14662601 14580171 14476904 
3400.194 14372479 14286119 14232051 14214724 14229371 14262692 14297614 
3403.570 14316147 14307131 14266561 14201719 14130027 14075974 14064752 
3406.945 14116654 14239246 14422875 14643187 14863823 15047350 15165092 
3410.320 15203653 15169038 15083607 14977600 14881734 14818055 14796047 
3413.695 14814247 14862726 14929731 15005106 15083130 15160267 15233426 
3417.071 15297113 15344349 15366537 15357376 15316392 15249758 15169946 
3420.446 15094234 15040028 15021538 15047017 15117409 15228033 15368835 
3423.821 15527461 15691303 15848100 15986139 16096236 16170571 16203029 
3427.196 16193258 16143873 16065197 15971236 15879432 15806098 15764216 
3430.572 15758045 15784273 15830958 15883749 15927132 15951326 15950579 
3433.947 15924873 15877770 15814209 15737401 15651377 15560613 15471784 
3437.322 15394101 15338834 15315322 15329324 15380401 15461664 15561379 
3440.697 15666543 15764369 15843557 15895341 15912782 15890453 15827069 
3444.073 15725613 15596347 15455749 15323662 15219230 15155493 15136619 
3447.448 15159157 15213437 15289666 15382196 15489885 15614932 15757354 
3450.823 15912307 16066393 16200654 16294725 16332041 16306218 16219076 
3454.198 16082289 15911354 15723268 15534459 15360890 15220265 15129131 
3457.573 15101966 15146546 15259200 15423649 15612600 15794212 15941016 
3460.949 16036762 16080955 16086211 16071986 16057989 16056746 16070813 
3464.324 16095674 16123556 16149472 16173193 16200632 16240155 16298965 
3467.699 16380440 16480997 16593436 16707661 16813086 16902970 16973694 
3471.074 17024786 17059024 17079308 17088430 17089290 17082466 17070754 
3474.450 17058570 17052670 17063188 17101428 17175326 17285720 17422956 
3477.825 17568284 17695592 17780028 17806290 17774342 17700390 17611948 
3481.200 17539826 17506780 17521692 17578284 17661626 17756442 17855726 
3484.575 17965676 18101368 18282112 18518226 18807542 19131852 19461588 
3487.951 19765026 20018128 20209956 20344328 20436436 20507244 20575496 
3491.326 20654438 20749000 20856266 20968144 21072430 21158090 21216068 
3494.701 21244592 21247994 21238946 21233180 21245624 21283216 21342444 
3498.076 21408738 21462240 21487068 21478976 21448886 21421966 21430090 
3501.452 21498812 21639344 21841020 22076220 22306448 22493658 22612116 
3504.827 22651648 22619400 22534684 22422718 22307896 22210502 22143512 
3508.202 22113298 22117992 22148988 22192734 22233190 22254892 22248390 
3511.577 22212130 22151778 22078902 22004464 21935802 21872434 21808580 
3514.953 21736090 21647750 21541668 21420206 21287140 21144834 20991984 
3518.328 20825160 20641416 20444286 20244414 20060936 19912054 19811368 
3521.703 19760416 19745866 19745376 19732114 19687396 19604936 19493954 
3525.078 19375260 19274526 19212690 19201116 19238888 19312764 19402762 
3528.454 19485688 19541164 19555204 19521394 19443030 19330416 19200240 
3531.829 19069208 18950834 18851514 18768998 18696184 18623706 18548370 
3535.204 18476212 18421826 18404416 18436572 18520810 18640186 18763996 
3538.579 18854854 18880806 18825682 18695390 18515092 18321350 18149898 
3541.955 18024846 17954744 17931296 17937540 17953998 17967252 17970410 
3545.330 17964534 17951170 17931262 17901364 17855880 17789458 17701618 
3548.705 17599128 17494596 17405266 17346724 17331832 17367024 17451138 
3552.080 17576824 17732552 17900966 18063958 18203182 18303372 18354958 
3555.456 18355304 18311774 18237230 18147412 18054470 17964852 17877474 
3558.831 17788410 17693006 17594238 17503328 17438882 17422148 17468070 
3562.206 17580610 17748586 17948874 18153298 18334984 18474666 18563470 
3565.581 18600178 18590254 18538598 18450922 18333926 18198728 18059078 
3568.957 17933760 17839636 17786530 17773378 17786788 17805708 17809668 
3572.332 17783458 17724674 17641566 17547186 17455660 17371058 17291590 
3575.707 17208030 17113670 17007672 16897216 16797046 16720096 16673334 
3579.082 16651370 16639106 16616052 16563255 16471714 16344301 16196474 
3582.458 16048985 15923893 15838239 15800428 15811309 15862510 15940249 
3585.833 16027734 16107203 16163763 16188512 16182041 16155023 16124519 
3589.208 16107701 16115632 16148204 16192202 16227681 16234668 16200891 
3592.583 16128259 16030835 15928458 15839532 15772844 15724909 15684782 
3595.958 15639951 15584521 15522095 15464832 15427416 15418527 15437813 
3599.334 15474928 15516271 15550274 15575491 15601560 15643422 15716642 
3602.709 15827501 15969995 16125087 16269132 16379679 16443670 16460836 
3606.084 16443238 16408367 16373726 16350795 16341625 16338976 16331250 
3609.459 16306726 16257785 16186714 16102936 16022522 15961435 15932132 
3612.835 15938004 15972303 16022090 16071772 16109247 16131848 16143803 
3616.210 16156003 16178980 16218310 16271941 16334672 16399603 16465763 
3619.585 16538732 16626507 16735408 16859018 16979636 17069844 17103298 
3622.960 17066502 16967806 16840326 16733456 16696354 16765587 16949708 
3626.336 17231434 17571608 17923374 18244906 18507234 18694364 18801856 
3629.711 18829548 18780196 18660116 18484014 18278426 18080116 17929982 
3633.086 17862726 17895290 18022124 18216120 18440406 18658446 18848168 
3636.461 19005764 19144396 19285878 19450472 19649912 19883000 20137312 
3639.837 20392830 20625968 20813738 20935070 20975380 20926798 20792966 
3643.212 20591856 20355742 20125350 19944820 19849130 19856038 19961420 
3646.587 20138908 20347548 20540966 20677640 20729850 20688982 20567996 
3649.962 20396392 20215456 20068666 19993396 20009518 20116936 20293406 
3653.338 20501082 20694980 20835714 20900910 20889558 20821748 20729376 
3656.713 20646072 20596376 20589272 20619490 20672062 20730674 20781558 
3660.088 20816730 20832254 20825164 20791404 20726412 20627720 20498278 
3663.463 20347542 20191246 20045624 19922842 19825494 19746200 19669964 
3666.839 19580056 19463812 19318270 19150438 18974582 18809526 18671996 
3670.214 18573816 18519532 18506090 18524028 18562034 18605222 18638934 
3673.589 18649016 18623262 18553036 18432538 18262746 18050058 17807048 
3676.964 17553168 17310842 17105068 16955554 16874998 16864150 16909856 
3680.340 16987614 17067244 17119410 17125350 17078514 16986780 16865306 
3683.715 16733572 16603291 16477924 16349941 16206764 16033463 15820660 
3687.090 15567984 15284696 14990034 14708796 14467735 14292261 14202113 
3690.465 14205448 14299224 14467071 14679911 14903578 15102135 15247896 
3693.841 15326121 15336275 15288721 15200363 15087886 14964758 14840740 
3697.216 14722634 14620947 14546688 14514828 14536384 14613856 14737247 
3700.591 14882829 15018687 15112993 15140098 15089689 14965461 14784745 
3703.966 14569943 14344838 14130355 13941601 13792327 13692190 13649877 
3707.342 13670482 13751182 13881105 14041065 14206416 14353472 14465475 
3710.717 14536701 14574074 14592968 14612364 14646659 14702440 14775994 
3714.092 14856027 14928632 14980013 15001341 14988748 14941477 14862006 
3717.467 14753555 14620968 14472571 14321289 14186021 14088147 14049936 
3720.843 14084960 14196609 14372243 14587757 14809706 15006467 15152738 
3724.218 15238401 15266285 15252687 15217031 15179620 15151175 15134313 
3727.593 15122559 15106937 15078965 15037393 14989700 14951477 14941558 
3730.968 14976925 15065830 15203067 15369185 15532992 15661258 15726611 
3734.344 15716150 15637591 15516910 15394579 15311340 15297819 15363164 
3737.719 15493792 15654974 15801828 15891561 15895860 15806817 15639042 
3741.094 15422815 15196930 14997541 14852684 14776257 14769398 14823000 
3744.469 14920561 15045953 15184789 15328557 15474630 15621507 15768304 
3747.844 15908886 16032206 16120693 16155386 16122581 16017620 15850015 
3751.220 15643863 15431411 15246161 15113967 15049140 15049944 15104477 
3754.595 15194809 15303001 15413612 15517351 15606547 15674027 15713116 
3757.970 15718276 15685843 15617820 15521361 15407404 15286133 15166474 
3761.345 15051949 14944823 14845222 14757051 14686475 14641300 14627194 
3764.721 14642030 14676884 14714515 14737552 14732262 14693973 14627462 
3768.096 14543681 14456985 14377705 14312265 14264073 14235905 14233945 
3771.471 14266394 14342220 14464973 14628504 14816188 15004318 15167906 
3774.846 15290271 15366337 15404034 15418885 15426538 15435204 15441469 
3778.222 15433203 15394608 15313915 15191241 15038594 14877827 14733219 
3781.597 14623726 14557446 14529845 14527017 14531398 14528064 14508788 
3784.972 14476608 14439480 14411964 14405193 14425379 14470891 14534264 
3788.347 14601836 14661700 14705113 14729535 14738885 14740125 14741368 
3791.723 14747297 14756019 14761445 14753938 14723856 14666243 14583123 
3795.098 14483876 14383846 14302577 14256051 14254691 14300412 14384352 
3798.473 14488124 14588371 14661090 14688483 14663540 14593238 14495982 
3801.848 14398071 14324287 14289755 14296779 14334057 14380882 14416022 
3805.224 14424080 14401234 14354719 14300305 14255424 14231653 14234221 
3808.599 14258931 14296250 14335874 14368756 14390315 14399269 14398032 
3811.974 14391574 14386640 14392281 14416789 14467430 14545116 14644117 
3815.349 14750289 14845529 14912087 14939491 14929254 14893998 14852354 
3818.725 14822697 14816910 14835251 14869688 14907842 14939485 14961558 
3822.100 14978779 15000603 15033939 15080065 15130933 15172484 15190765 
3825.475 15177716 15135496 15075610 15018018 14980114 14975605 15006031 
3828.850 15064244 15133997 15195317 15229377 15221942 15166597 15063713 
3832.226 14924295 14766023 14611696 14484761 14404961 14382936 14417939 
3835.601 14498845 14604772 14715352 14812112 14885554 14936822 14973600 
3838.976 15008465 15051553 15108518 15176797 15247921 15308022 15343213 
3842.351 15340513 15292841 15197868 15061627 14896317 14718902 14549690 
3845.727 14407567 14307577 14258726 14261669 14310387 14393194 14494932 
3849.102 14600306 14697216 14775757 14830248 14860168 14867566 14857966 
3852.477 14838063 14813647 14789868 14769563 14754533 14746201 14745981 
3855.852 14756332 14779317 14814424 14857793 14900401 14932184 14943597 
3859.228 14931401 14901140 14864679 14837501 14830578 14844949 14867974 
3862.603 14877578 14849219 14766099 14628461 14455930 14283894 14153286 
3865.978 14096928 14129688 14243471 14410017 14591226 14747676 14850768 
3869.353 14888574 14865724 14798235 14709127 14619873 14547551 14502000 
3872.729 14486463 14499786 14536156 14584445 14631973 14662673 14664369 
3876.104 14627977 14554267 14453722 14346678 14255811 14205878 14211402 
3879.479 14277202 14394493 14544498 14704412 14852312 14973922 15066369 
3882.854 15134569 15189676 15242979 15300321 15359761 15411549 15440877 
3886.229 15432267 15376093 15270782 15126070 14959762 14795376 14656181 
3889.605 14563368 14527863 14551635 14624828 14728085 14839307 14935602 
3892.980 15001604 15033267 15038382 15033736 15040024 15073527 15140900 
3896.355 15234083 15333680 15412193 15443682 15412748 15316893 15167966 
3899.730 14990206 14810856 14655077 14539946 14472250 14450308 14465395 
3903.106 14505528 14557802 14610872 14656520 14689650 14712217 14728785 
3906.481 14750838 14788959 14851511 14941641 15053615 15174377 15286944 
3909.856 15372616 15418177 15417334 15370851 15287478 15179109 15060519 
3913.231 14946355 14850220 14782063 14747513 14746842 14773392 14817617 
3916.607 14868136 14916836 14961096 15003142 15048997 15102332 15159741 
3919.982 15209565 15233846 15216322 15149372 15040330 14912779 14799499 
3923.357 14733661 14738225 14816892 14956051 15127929 15303145 15457943 
3926.732 15582073 15677216 15752295 15815835 15872294 15916029 15938351 
3930.108 15928740 15883768 15806053 15706897 15600487 15501291 15419958 
3933.483 15360042 15319185 15289100 15259272 15216284 15148286 15048962 
3936.858 14919221 14770644 14623888 14506844 14444660 14454326 14535472 
3940.233 14672341 14836907 14997973 15132873 15233158 15307774 15374366 
3943.609 15451789 15546380 15650224 15739199 15786109 15769830 15686115 
3946.984 15552767 15401978 15273465 15197590 15187304 15234438 15313408 
3950.359 15394907 15451995 15473167 15463296 15440212 15425974 15441864 
3953.734 15497678 15595146 15725702 15876140 16032577 16182056 16313186 
3957.110 16415898 16478397 16490731 16443351 16331468 16157854 15934028 
3960.485 15679851 15420490 15183478 14992520 14865497 14811286 14827925 
3963.860 14905631 15026685 15170308 15316492 15449733 15560077 15643794 
3967.235 15703926 15745101 15771162 15782101 15775656 15746783 15694536 
3970.611 15622499 15543411 15477584 15446667 15466868 15543522 15667226 
3973.986 15812760 15948907 16045082 16082523 16059346 15992012 15910439 
3977.361 15848534 15834093 15881376 15986541 16130066 16281622 16408730 
3980.736 16485151 16495403 16439199 16328378 16184902 16034346 15901081 
3984.112 15803095 15749987 15741367 15769258 15821140 15884371 15947884 
3987.487 16005946 16055221 16096644 16131403 16158702 16177334 16185960 
3990.862 16182313 16166646 16138030 16099662 16052604 15999394 15944434 
3994.237 15894942 15861064 15854696 15887072 15962878 16078670 16220426 
3997.613 16364902 16488565 16570665 16601557 16582957 16527958 16452610 
##END=
