##TITLE=3D-Fillies_PLA-Rainbow_Orange_Filament_r2_ATR-Corrected
##JCAMP-DX=5.01  $$ Nicolet v. 1
##DATATYPE=INFRARED SPECTRUM
##ORIGIN=Curtin University
##OWNER=Nicolet
##LONGDATE=2024/07/18
##TIME=15:59:27
##SPECTROMETER/DATA SYSTEM=Nicolet iS50
##DATA PROCESSING=
Ratio against background
%Transmittance->Absorbance
ATR Correction
Truncated
ElementMultiply or ElementDivide
##COMMENTS=
Number of sample scans: 32
Collection length: 47.27 sec
Sample gain: 1.0
Background collected on: Thu Jul 18 15:58:08 2024 (GMT+08:00);
Number of background scans: 32
Background gain: 1.0
Sample spacing:  1.000
Number of scan points: 16672
Resolution points: 8192
Number of FFT points: 65536
Apodization: N-B strong;
Phase correction: Mertz;
Laser frequency: 15798.3 cm-1
Number of rejected sample scans: 0
Number of rejected background scans: 0
Bench serial number: AUP1200105;
##RESOLUTION=4.000
##XUNITS=1/CM
##YUNITS=ABSORBANCE
##FIRSTX=400.163452
##LASTX=4000.187744
##FIRSTY=0.053686
##MAXX=4000.187744
##MINX=400.163452
##MAXY=0.765258
##MINY=-0.018238
##XFACTOR=1.000000
##YFACTOR=1.000000E-009
##NPOINTS=7468
##DELTAX=0.482125
##ZPD=8192
##XYDATA=(X++(Y..Y))
400.163 53685620 52802244 51877568 50876652 49800216 48702460 47668900 
403.538 46792324 46141388 45736632 45536936 45447288 45342036 45102908 
406.913 44654156 43985496 43153924 42263596 41431976 40752100 40263964 
410.288 39944764 39718164 39480992 39137312 38625328 37934480 37103900 
413.663 36206944 35329512 34545612 33903444 33416558 33067580 32815990 
417.038 32610894 32402168 32150696 31834840 31452444 31017356 30551192 
420.412 30074150 29597962 29123038 28644688 28161682 27687324 27254614 
423.787 26911906 26708950 26678030 26816898 27082796 27401478 27689242 
427.162 27879210 27941742 27891232 27775172 27652570 27569016 27539462 
430.537 27545096 27543992 27491156 27356846 27136198 26850182 26532458 
433.912 26216340 25926008 25673952 25465258 25303510 25195700 25149810 
437.286 25171052 25254724 25384556 25534620 25676668 25787278 25852588 
440.661 25867900 25833602 25750736 25619488 25442018 25227492 24996680 
444.036 24780374 24612328 24516964 24499344 24540856 24605338 24652644 
447.411 24655018 24608144 24532276 24462086 24431170 24456420 24531698 
450.786 24630366 24717090 24761650 24748222 24677424 24559988 24408608 
454.161 24230824 24029324 23807322 23575732 23356176 23178554 23069724 
457.535 23043084 23090008 23181226 23277256 23342672 23359940 23333400 
460.910 23284068 23236162 23202088 23174276 23126250 23022550 22841138 
464.285 22579698 22261720 21931344 21638372 21422754 21303284 21274980 
467.660 21314438 21390844 21476190 21552032 21610164 21649304 21670132 
471.035 21672486 21654480 21615338 21556836 21484824 21407218 21330184 
474.409 21255594 21179352 21092892 20987490 20858060 20706600 20542336 
477.784 20379924 20235034 20120992 20044772 20006140 19997204 20004782 
481.159 20012656 20005664 19973476 19914128 19835746 19755816 19696608 
484.534 19679186 19716328 19807766 19939312 20086942 20224294 20331220 
487.909 20399850 20436402 20457556 20482538 20526124 20592458 20674822 
491.284 20759446 20831692 20882308 20911342 20928218 20948478 20988546 
494.658 21065512 21189654 21364394 21584938 21837698 22099696 22339396 
498.033 22520672 22608696 22579370 22427338 22171590 21853918 21531282 
501.408 21262556 21094132 21047842 21116162 21265078 21443792 21599022 
504.783 21687782 21687160 21596930 21436230 21235448 21026346 20833176 
508.158 20666554 20522716 20386172 20236824 20058084 19843514 19601426 
511.532 19353510 19129976 18961022 18867818 18856704 18916836 19024266 
514.907 19148684 19261914 19343896 19384972 19384276 19345988 19275454 
518.282 19177518 19057078 18921086 18780348 18648186 18537514 18455770 
521.657 18401230 18362402 18321060 18258892 18164204 18036146 17885020 
525.032 17726712 17579784 17456266 17359712 17286486 17229144 17180764 
528.406 17136564 17094276 17050988 17001128 16935804 16845270 16723342 
531.781 16571507 16400896 16230421 16081063 15969148 15900923 15870504 
535.156 15862660 15857914 15839195 15796581 15728939 15642371 15546472 
538.531 15450349 15359955 15277321 15201483 15130962 15065286 15005809 
541.906 14955774 14918394 14895076 14883337 14875963 14862052 14829241 
545.281 14767682 14674059 14553411 14419503 14290365 14182883 14106604 
548.655 14060091 14031475 14003038 13959007 13891899 13806012 13715077 
552.030 13636070 13581540 13554513 13548190 13551758 13557567 13567724 
555.405 13595554 13659373 13774962 13944076 14150290 14361978 14542511 
558.780 14663122 14713611 14705935 14668914 14636708 14635216 14673166 
562.155 14740523 14814002 14868174 14885806 14863646 14812295 14750773 
565.529 14698775 14670328 14671129 14699888 14751453 14820573 14903808 
568.904 14998233 15100630 15204797 15301556 15380149 15430485 15446148 
572.279 15425592 15372686 15295329 15203989 15109587 15022998 14954205 
575.654 14912008 14904115 14935854 15009930 15124817 15274093 15446431 
579.029 15626555 15796848 15940882 16047318 16113251 16146341 16163403 
582.404 16186405 16235385 16321763 16442752 16581697 16712068 16806410 
585.778 16845160 16823888 16754722 16662829 16578507 16527813 16526295 
589.153 16576173 16667645 16783322 16903508 17009696 17087440 17126862 
592.528 17123728 17080272 17005604 16915586 16830502 16770666 16751252 
595.903 16778234 16846490 16942180 17047310 17146160 17229230 17295164 
599.278 17348844 17397792 17448478 17504398 17566000 17632462 17702802 
602.652 17776852 17853132 17927890 17993762 18040630 18058882 18042930 
606.027 17994094 17921684 17840338 17766520 17714780 17695480 17714702 
609.402 17775910 17881574 18033572 18231620 18470584 18738714 19017622 
612.777 19285618 19523018 19718324 19871626 19995514 20111266 20242964 
616.152 20410894 20626122 20888232 21185720 21499472 21806438 22084708 
619.527 22317270 22495742 22621726 22706622 22769014 22829596 22905920 
622.901 23007290 23132476 23270962 23407500 23528832 23629274 23713928 
626.276 23797644 23901092 24044416 24242274 24500020 24813704 25170778 
629.651 25553012 25937934 26301064 26617768 26866760 27033818 27116308 
633.026 27125610 27086366 27031028 26992620 26995168 27049076 27149116 
636.401 27279860 27423232 27566778 27708526 27856594 28024032 28221180 
639.775 28448860 28695938 28942102 29164130 29343840 29473680 29558604 
643.150 29613830 29658726 29711560 29784576 29883328 30007054 30151948 
646.525 30313380 30487678 30672334 30866060 31068442 31280260 31503956 
649.900 31744018 32006554 32297398 32620080 32973270 33349656 33736184 
653.275 34115700 34470136 34782440 35039172 35230756 35351984 35401216 
656.650 35380624 35296436 35159876 34986920 34797968 34615660 34462480 
660.024 34357620 34313988 34337472 34426304 34572556 34763840 34984872 
663.399 35219736 35453020 35671840 35867396 36036544 36182816 36316072 
666.774 36450188 36599500 36775340 36982116 37216688 37468788 37724724 
670.149 37971080 38197856 38400096 38577168 38731012 38864096 38978452 
673.524 39076576 39163272 39246544 39338124 39450312 39592664 39767192 
676.898 39966424 40174396 40371192 40539148 40669240 40764744 40838708 
680.273 40910244 40997688 41111732 41252700 41411456 41573892 41727052 
683.648 41864280 41987576 42106952 42236088 42388128 42571380 42787588 
687.023 43032368 43297592 43574096 43854128 44132104 44404688 44669248 
690.398 44922884 45161188 45379212 45572648 45740044 45884864 46016624 
693.773 46150312 46304160 46495712 46738124 47036548 47387404 47779276 
697.147 48196880 48624808 49051896 49472680 49887212 50298624 50710196 
700.522 51123380 51537056 51948608 52355656 52757632 53155672 53551440 
703.897 53944812 54332620 54708576 55064736 55394712 55695916 55970812 
707.272 56225588 56467396 56700808 56925920 57137308 57326840 57486744 
710.647 57612596 57705228 57770700 57818388 57858192 57898220 57944212 
714.021 58000508 58072132 58166828 58296880 58480176 58740504 59107940 
717.396 59619672 60321640 61271072 62538268 64208308 66379160 69158616 
720.771 72655120 76967512 82169912 88295608 95322168 103158888 111640712 
724.146 120530856 129532888 138313696 146533616 153880048 160098096 
727.039 165012512 168536032 170664752 171462864 171041952 169540736 
729.931 167107808 163888768 160019024 155618768 150792528 145629392 
732.824 140206176 134590272 128843096 123022080 117182216 111376216 
735.717 105655352 100069600 94668928 89504000 84625840 80084440 75925136 
739.091 72184360 68885504 66035664 63624924 61628284 60008748 58722680 
742.466 57724656 56971864 56427764 56063652 55858460 55798016 55871700 
745.841 56069968 56380948 56788852 57274068 57814384 58388652 58979964 
749.216 59578604 60181920 60792984 61416760 62055192 62704460 63352936 
752.591 63982816 64572916 65102568 65554360 65915308 66176200 66329264 
755.966 66366324 66277572 66052912 65684116 65167792 64508116 63717640 
759.340 62815436 61824452 60767796 59665268 58531860 57377924 56210724 
762.715 55036800 53863988 52701676 51560288 50449572 49376172 48342936 
766.090 47348716 46389936 45462380 44563664 43693652 42854656 42049376 
769.465 41279600 40544328 39840260 39161868 38503920 37862308 37235844 
772.840 36624944 36031112 35455416 34898456 34360048 33839764 33338066 
776.214 32856096 32395158 31955224 31533960 31126582 30726434 30327226 
779.589 29924552 29517700 29109252 28703604 28304490 27913550 27528738 
782.964 27145842 26760004 26368280 25971326 25573804 25183442 24809450 
786.339 24460724 24145488 23870530 23642502 23467684 23351832 23298474 
789.714 23307192 23371420 23477734 23606876 23735878 23841464 23904140 
793.089 23910510 23854650 23738078 23567424 23352440 23103854 22832240 
796.463 22547706 22260836 21983852 21730584 21516460 21356028 21260490 
799.838 21234236 21273254 21364974 21490812 21630136 21765132 21883722 
803.213 21982628 22064382 22134160 22195154 22245496 22276772 22276040 
806.588 22230440 22131392 21979598 21785806 21569698 21355684 21167298 
809.963 21022632 20930764 20891094 20894814 20928068 20975490 21023124 
813.337 21060768 21082350 21085760 21071912 21043214 21003112 20955376 
816.712 20904406 20854824 20812024 20780806 20764840 20765130 20779706 
820.087 20803398 20830128 20854566 20875414 20896328 20926444 20977336 
823.462 21060406 21182358 21343346 21535950 21747598 21963426 22170662 
826.837 22360510 22529166 22676948 22806868 22922590 23028642 23130144 
830.212 23233852 23347552 23479118 23633782 23811602 24006100 24205804 
833.586 24396514 24567608 24715536 24846442 24975580 25123810 25312366 
836.961 25557938 25869882 26249338 26691352 27187326 27726962 28299836 
840.336 28895270 29502076 30109636 30709086 31296094 31872298 32445178 
843.711 33025560 33621884 34235816 34857856 35467720 36037492 36538968 
847.086 36950776 37264608 37487468 37640624 37755372 37867404 38012220 
850.460 38221844 38523164 38937452 39480288 40161768 40986152 41952628 
853.835 43056776 44293248 45657836 47149080 48767264 50511456 52374904 
857.210 54341864 56385644 58471024 60559412 62615736 64614072 66540696 
860.585 68392840 70175248 71893504 73550720 75144264 76667440 78111536 
863.960 79469840 80739544 81922584 83024352 84052760 85016408 85924336 
867.335 86786352 87612472 88411856 89189928 89944088 90659944 91309056 
870.709 91849208 92228640 92392112 92288320 91877224 91134224 90053144 
874.084 88645680 86939808 84976048 82804408 80479464 78055408 75580712 
877.459 73094088 70621392 68176280 65764008 63387716 61055016 58783416 
880.834 56600716 54542180 52643168 50931412 49420332 48107124 46975120 
884.209 46000212 45158864 44434532 43820660 43319580 42937624 42678764 
887.583 42539360 42505500 42553952 42656388 42784696 42916460 43036904 
890.958 43139804 43224772 43294216 43349796 43391468 43417316 43425480 
894.333 43415500 43389808 43353152 43311404 43268656 43226084 43181372 
897.708 43129980 43067488 42992024 42905672 42814564 42726444 42648016 
901.083 42582460 42528580 42481728 42436468 42389832 42343896 42305068 
904.458 42282708 42285284 42317200 42375724 42452704 42536340 42615564 
907.832 42683760 42740828 42792788 42849532 42921280 43015748 43136724 
911.207 43284568 43457520 43654188 43874416 44119680 44391228 44688412 
914.582 45007320 45339800 45674964 46000992 46307744 46588660 46841356 
917.957 47067488 47270144 47453088 47617648 47763480 47888580 47991820 
921.332 48074432 48142568 48206900 48281696 48381364 48517396 48694672 
924.706 48910996 49157012 49420696 49689912 49958444 50226580 50501452 
928.081 50793856 51114864 51471408 51864664 52289220 52735304 53190412 
931.456 53641420 54075344 54479636 54841412 55149092 55393460 55571076 
934.831 55685612 55748892 55778444 55793232 55808860 55833120 55864944 
938.206 55896664 55917684 55919884 55900892 55865204 55821764 55782000 
941.581 55755440 55749720 55770020 55821040 55908488 56039264 56219932 
944.955 56454556 56742688 57079068 57455416 57863356 58297116 58755612 
948.330 59241180 59757920 60308136 60891336 61503328 62138172 62790304 
951.705 63455500 64129428 64805404 65469296 66097416 66656016 67104688 
955.080 67402976 67517208 67427096 67128960 66634632 65967844 65158628 
958.455 64237968 63233704 62168928 61061896 59928384 58783492 57644168 
961.829 56529408 55460896 54460820 53550144 52745764 52059080 51494144 
965.204 51048780 50715156 50481324 50333664 50257516 50237840 50259836 
968.579 50308592 50370624 50434852 50494536 50548096 50599360 50655156 
971.954 50723536 50810412 50917620 51042308 51178364 51317984 51455192 
975.329 51586256 51711436 51834468 51961024 52098060 52252788 52431404 
978.703 52638148 52873776 53134984 53413708 53698656 53977220 54239380 
982.078 54480852 54704296 54919284 55138724 55375588 55638884 55931056 
985.453 56249244 56586368 56935328 57290828 57651208 58018120 58393868 
988.828 58780704 59179624 59590144 60011260 60442188 60883528 61336560 
992.203 61803376 62286560 62788600 63312120 63860340 64436300 65043664 
995.578 65685616 66365568 67087040 67854880 68675040 69553640 70494472 
998.952 71496072 72547968 73631416 74720152 75787368 76812128 77787136 
1002.327 78721624 79640936 80581664 81583552 82682224 83903688 85263752 
1005.702 86770016 88426032 90236104 92207664 94352368 96685360 99225456 
1009.077 101994928 105021608 108341200 111998568 116046920 120544184 
1011.970 125545648 131094176 137207536 143865680 150996832 158468704 
1014.862 166083136 173582816 180668160 187029440 192385840 196530160 
1017.755 199362432 200909168 201318960 200834752 199755088 198388672 
1020.648 197015504 195860224 195080096 194766064 194952720 195632048 
1023.540 196768192 198310128 200202496 202393360 204839216 207508976 
1026.433 210383280 213453536 216717936 220177792 223834224 227688048 
1029.326 231739680 235992528 240454096 245136192 250051952 255211264 
1032.219 260614448 266248288 272083808 278079584 284186176 290353344 
1035.113 296534112 302688704 308781792 314779904 320644384 326329280 
1038.006 331779392 336934144 341732512 346119456 350051136 353496864 
1040.899 356439616 358873184 360797888 362219200 363144128 363580480 
1043.792 363536384 363020704 362043232 360616960 358760640 356500864 
1046.685 353874496 350930272 347726432 344328768 340806048 337225792 
1049.578 333651456 330137856 326729504 323459968 320349024 317404160 
1052.471 314620512 311984320 309476480 307078304 304775552 302563744 
1055.364 300449088 298449632 296594752 294923136 293481824 292324768 
1058.257 291511360 291104512 291168704 291767104 292959488 294801024 
1061.150 297341664 300625184 304689824 309566304 315275872 321828320 
1064.043 329218208 337426464 346420800 356160512 366601824 377702304 
1066.936 389422944 401727776 414579456 427935040 441741696 455936064 
1069.829 470446432 485197632 500114624 515126400 530164832 545162560 
1072.722 560051328 574761472 589225216 603381184 617179264 630583168 
1075.615 643566528 656108928 668189184 679780800 690849856 701357504 
1078.509 711261120 720514752 729067776 736862528 743834368 749914432 
1081.402 755038144 759154240 762231680 764262848 765258432 765241600 
1084.295 764237504 762272064 759370432 755561792 750886272 745399232 
1087.188 739174592 732303360 724890112 717050304 708901440 700556608 
1090.081 692115008 683652608 675216832 666825152 658470976 650135296 
1092.974 641797248 633447168 625088640 616736704 608408960 600115648 
1095.867 591853696 583605440 575344320 567042752 558680896 550251264 
1098.760 541757184 533206816 524606592 515955744 507243648 498453504 
1101.653 489567488 480574144 471473440 462279648 453022240 443743168 
1104.546 434494208 425333952 416325728 407534848 399028064 390873472 
1107.439 383140192 375897856 369215296 363158752 357787488 353149120 
1110.332 349273952 346170880 343824512 342197376 341232640 340860864 
1113.225 341006624 341595136 342554400 343817888 345323200 347012128 
1116.118 348831136 350734688 352687264 354667360 356667424 358691648 
1119.011 360752000 362861440 365029120 367257792 369541792 371867456 
1121.905 374213728 376553152 378849824 381059424 383127808 384994368 
1124.798 386593472 387861792 388742368 389190688 389176384 388685344 
1127.691 387717888 386287072 384415264 382132544 379472032 376467264 
1130.584 373147232 369533376 365637056 361458048 356985600 352202944 
1133.477 347091712 341637312 335834336 329687808 323213664 316436768 
1136.370 309387040 302097088 294599168 286926048 279111296 271192064 
1139.263 263209824 255211808 247250912 239383536 231668064 224161680 
1142.156 216917168 209982576 203397968 197196064 191401936 186034112 
1145.049 181105024 176621984 172587616 169000288 165853792 163138720 
1147.942 160843168 158953792 157457008 156338640 155583872 155175968 
1150.835 155094592 155315888 155811920 156553488 157510336 158654144 
1153.728 159959824 161404960 162970256 164638464 166393440 168220896 
1156.621 170107600 172042560 174017296 176026560 178068144 180142464 
1159.514 182252672 184404272 186605264 188865440 191196640 193612640 
1162.407 196128016 198759472 201525280 204446400 207546704 210853664 
1165.301 214397840 218213216 222335568 226803936 231659504 236947680 
1168.194 242719328 249031696 255948752 263540624 271879808 281037888 
1171.087 291080288 302061280 314018848 326971584 340913888 355814528 
1173.980 371611520 388208672 405469792 423214656 441213216 459187008 
1176.873 476811968 493729568 509565120 523949568 536545280 547068992 
1179.766 555310912 561147776 564546944 565563648 564331584 561048512 
1182.659 555957952 549329856 541443520 532571744 522970016 512868704 
1185.552 502467808 491935328 481407712 470992864 460774048 450816032 
1188.445 441169824 431876544 422969184 414472544 406402176 398764800 
1191.338 391558752 384777632 378412768 372456896 366904576 361752000 
1194.231 356994176 352622496 348624096 344982688 341680192 338701216 
1197.124 336033312 333667808 331596448 329809472 328291264 327021696 
1200.017 325976992 325134368 324475200 323986784 323660576 323488800 
1202.910 323457504 323543712 323712576 323922080 324126720 324284672 
1205.803 324362624 324338752 324199904 323940000 323554304 323037120 
1208.697 322380128 321573824 320608512 319476064 318170784 316690208 
1211.590 315033472 313202560 311201216 309036448 306717600 304257152 
1214.483 301669184 298968896 296171552 293292256 290346432 287350432 
1217.376 284322432 281283008 278253760 275257376 272315168 269445760 
1220.269 266662304 263973184 261379600 258877456 256457744 254109408 
1223.162 251820656 249581840 247386208 245231648 243120096 241057024 
1226.055 239050480 237109552 235242256 233455280 231751552 230131760 
1228.948 228593744 227135328 225754944 224454944 223241072 222123248 
1231.841 221113216 220222240 219459744 218832432 218345072 218002704 
1234.734 217812560 217785488 217934192 218270240 218800096 219522432 
1237.627 220426608 221494720 222705568 224039312 225480176 227018256 
1240.520 228644752 230349776 232116528 233920336 235727984 237502464 
1243.413 239206944 240808912 242283376 243611584 244780496 245780688 
1246.306 246607088 247260368 247749776 248094944 248325616 248479024 
1249.199 248593888 248705808 248842640 249023376 249258496 249552944 
1252.093 249908176 250323712 250797120 251323904 251897664 252510992 
1254.986 253157712 253836032 254548992 255304672 256113136 256983904 
1257.879 257922016 258927936 259996720 261121008 262292176 263502784 
1260.772 264745088 266010736 267288720 268564960 269822016 271040544 
1263.665 272199808 273278464 274252608 275095136 275773984 276253696 
1266.558 276496384 276466592 276134624 275480512 274494656 273177600 
1269.451 271537504 269587328 267342032 264816912 262026128 258983792 
1272.344 255703664 252201056 248493680 244603424 240555136 236376352 
1275.237 232094848 227736992 223324512 218875344 214403760 209922416 
1278.130 205444896 200987168 196568016 192207408 187924336 183735168 
1281.023 179652032 175683136 171834512 168111728 164520656 161068640 
1283.916 157763088 154610240 151613232 148772272 146084208 143544736 
1286.809 141149232 138894224 136777568 134798288 132955072 131246624 
1289.702 129669832 128220152 126892296 125680256 124576640 123573344 
1292.595 122660904 121828616 121064984 120359232 119701096 119082936 
1295.489 118498312 117943272 117414440 116910168 116429352 115973024 
1298.382 115543104 115143208 114777032 114447848 114156488 113901408 
1301.275 113678800 113483616 113310656 113154928 113011512 112874448 
1304.168 112735528 112584288 112408448 112196464 111940160 111636176 
1307.061 111285968 110895408 110470224 110013872 109525072 108998344 
1309.954 108424704 107795856 107105520 106352048 105537968 104669408 
1312.847 103754160 102801488 101820664 100823064 99821304 98830616 97866872 
1316.222 96946320 96082256 95284664 94558416 93904136 93317568 92791392 
1319.597 92315112 91876104 91460960 91057160 90655256 90251288 89846416 
1322.973 89447848 89065472 88709136 88385528 88096832 87840984 87614200 
1326.348 87413704 87240896 87102144 87008224 86971632 87003920 87112776 
1329.723 87302048 87571584 87920032 88346192 88851448 89439432 90116096 
1333.098 90886720 91754376 92716424 93762720 94873752 96022456 97175008 
1336.474 98296008 99352968 100321648 101188872 101953744 102625976 103222512 
1339.849 103762488 104264736 104745024 105216384 105690536 106178960 
1342.742 106694456 107250896 107862048 108540400 109295888 110135696 
1345.635 111064080 112084368 113198800 114408688 115713504 117109752 
1348.528 118590120 120142888 121752128 123399984 125067784 126738312 
1351.421 128397136 130033224 131638648 133208368 134737296 136219680 
1354.314 137646608 139005920 140281232 141454416 142506720 143422624 
1357.207 144192048 144812576 145290032 145638352 145876848 146028448 
1360.100 146115840 146159040 146174448 146173616 146163696 146148704 
1362.993 146130064 146107232 146076688 146030400 145954592 145828528 
1365.886 145624272 145308864 144847200 144206144 143358416 142287008 
1368.780 140987488 139469776 137758352 135893152 133928824 131934448 
1371.673 129991832 128192632 126632992 125407992 124602584 124284576 
1374.566 124496256 125250712 126530128 128289176 130458280 132950768 
1377.459 135668672 138508064 141363760 144133456 146721456 149042400 
1380.352 151023408 152606288 153747616 154418720 154605024 154303360 
1383.245 153521344 152274512 150585776 148483216 146002240 143185120 
1386.138 140081120 136746048 133237392 129611088 125914960 122186648 
1389.031 118451304 114724672 111015320 107329480 103674448 100061080 
1391.924 96503768 93021248 89634824 86367904 83243448 80282360 77501368 
1395.299 74911288 72516144 70314080 68299424 66465476 64807424 63323348 
1398.675 62014700 60884444 59935036 59166360 58575196 58155676 57900948 
1402.050 57806740 57872308 58101468 58500868 59076576 59828288 60745100 
1405.425 61799860 62949264 64133412 65280780 66314048 67157272 67742584 
1408.800 68016328 67943280 67509848 66726080 65623968 64255320 62686212 
1412.176 60990760 59243400 57511740 55851452 54302172 52887748 51617384 
1415.551 50489100 49493196 48616044 47842232 47157160 46547712 46004196 
1418.926 45520636 45095740 44731804 44433380 44204712 44047616 43959204 
1422.301 43931660 43953436 44010660 44089952 44180092 44273136 44364004 
1425.677 44450676 44532780 44611936 44692460 44782096 44893460 45043628 
1429.052 45254020 45547372 45945872 46467240 47123152 47918560 48851460 
1432.427 49915964 51106012 52417932 53854108 55421948 57133540 59001996 
1435.802 61038728 63250928 65643160 68219096 70986384 73958560 77156040 
1439.177 80602264 84319168 88320672 92608344 97169576 101979088 107001024 
1442.553 112192368 117503800 122880952 128263968 133588072 138786976 
1445.446 143796000 148555680 153015600 157135568 160886592 164251392 
1448.339 167224624 169812000 172028016 173891536 175420992 176628480 
1451.232 177518352 178087024 178327360 178232368 177799008 177027360 
1454.125 175919248 174473392 172684672 170544272 168045248 165187088 
1457.018 161981216 158451744 154632944 150563728 146283808 141830448 
1459.911 137238384 132540528 127769632 122957544 118135080 113331384 
1462.804 108573712 103887224 99297504 94828168 90502472 86339672 82355016 
1466.179 78559200 74958968 71558792 68363240 65376520 62602244 60041700 
1469.555 57692144 55545992 53590860 51810256 50184820 48693236 47314216 
1472.930 46026624 44812140 43657500 42555540 41505424 40511156 39578044 
1476.305 38709140 37901612 37146404 36429432 35735348 35051616 34371644 
1479.680 33695588 33028796 32378212 31749282 31143238 30556902 29984418 
1483.056 29419540 28857884 28298826 27745554 27204056 26681598 26185534 
1486.431 25721616 25293766 24903046 24548370 24226582 23933000 23662606 
1489.806 23411032 23175166 22954218 22748920 22561308 22394258 22250432 
1493.181 22132746 22044094 21986728 21962524 21972530 22016166 22091722 
1496.557 22197138 22331538 22496296 22696810 22941942 23242588 23609288 
1499.932 24049272 24563848 25146128 25780100 26440984 27095370 27704200 
1503.307 28224714 28615444 28841018 28877880 28719518 28378758 27887280 
1506.682 27289004 26632906 25964018 25316584 24711634 24158904 23659802 
1510.058 23212394 22814086 22463482 22159048 21898794 21679298 21495672 
1513.433 21342080 21213914 21106980 21017928 20943700 20880216 20822814 
1516.808 20767194 20710396 20652634 20597118 20549354 20514648 20496692 
1520.183 20495608 20508244 20528886 20551722 20572074 20587178 20596248 
1523.559 20599592 20597464 20590014 20578074 20563568 20549936 20542604 
1526.934 20546378 20564770 20597738 20641532 20689014 20731612 20761522 
1530.309 20773140 20764144 20735352 20689784 20631202 20563418 20489940 
1533.684 20413068 20335890 20260926 20191526 20131162 20083982 20053508 
1537.060 20042900 20053174 20083096 20128212 20181450 20234354 20279240 
1540.435 20310794 20328516 20335720 20338866 20344540 20357172 20377452 
1543.810 20401690 20423518 20435492 20431572 20408434 20365318 20303792 
1547.185 20225586 20132230 20024660 19903886 19772480 19635040 19498234 
1550.561 19370036 19258122 19168002 19102592 19061590 19041840 19037748 
1553.936 19042434 19048608 19048634 19036730 19009068 18965794 18911408 
1557.311 18854760 18806888 18779160 18779504 18810276 18866998 18939860 
1560.686 19016174 19085036 19138938 19176524 19201242 19219688 19239528 
1564.062 19266624 19304082 19352124 19408574 19470662 19536210 19604530 
1567.437 19676150 19752844 19836436 19928544 20030192 20142146 20265330 
1570.812 20401310 20552368 20721102 20909684 21119654 21350356 21599510 
1574.187 21862310 22131722 22399184 22655142 22889416 23092788 23256708 
1577.563 23374896 23443718 23462466 23433576 23361832 23253878 23117546 
1580.938 22960196 22788702 22608966 22426676 22247624 22077882 21923900 
1584.313 21790824 21681098 21593820 21524436 21466290 21412560 21358640 
1587.688 21303110 21248360 21197654 21154032 21117926 21086742 21056350 
1591.063 21022246 20982244 20937926 20893312 20854432 20826954 20815024 
1594.439 20820558 20844932 20889478 20955848 21046084 21160654 21297680 
1597.814 21452014 21616514 21784320 21951222 22118258 22291010 22477982 
1601.189 22687142 22922860 23184536 23467272 23764188 24069426 24380152 
1604.564 24697302 25022766 25357342 25698062 26037154 26362668 26662070 
1607.940 26923838 27141190 27311336 27435254 27515652 27555746 27557836 
1611.315 27524104 27457352 27361184 27239858 27098310 26940864 26771304 
1614.690 26593290 26411716 26232582 26063164 25910806 25780506 25673334 
1618.065 25586352 25513334 25447570 25384106 25321994 25263742 25213252 
1621.441 25174482 25148274 25131964 25119872 25106046 25087296 25064352 
1624.816 25042282 25029686 25034876 25063686 25117524 25192010 25279400 
1628.191 25369472 25452782 25522538 25575998 25613806 25639584 25658598 
1631.566 25675712 25694740 25718818 25750372 25791422 25844510 25911898 
1634.942 25994950 26091988 26197578 26303424 26398238 26472398 26519622 
1638.317 26539374 26537772 26525622 26515148 26516688 26536330 26574268 
1641.692 26625778 26684150 26743004 26797598 26846570 26890588 26930616 
1645.067 26968058 27004046 27039594 27076296 27116416 27162796 27216858 
1648.443 27278834 27347600 27420722 27497978 27580622 27672812 27780020 
1651.818 27906704 28053568 28216490 28386774 28554906 28713070 28859082 
1655.193 28996240 29133034 29278502 29440142 29621128 29819028 30027620 
1658.568 30239088 30445910 30644062 30832736 31015584 31198748 31390786 
1661.944 31600594 31836354 32103594 32403990 32734550 33088192 33454434 
1665.319 33822968 34185124 34536532 34877584 35213812 35553224 35905512 
1668.694 36278920 36679824 37111676 37574440 38064576 38575860 39099756 
1672.069 39627360 40151116 40667208 41175308 41679224 42184748 42696836 
1675.445 43217044 43742500 44267548 44785576 45292588 45789440 46281980 
1678.820 46779380 47290088 47819780 48368152 48930696 49499680 50067560 
1682.195 50629600 51185372 51737428 52291076 52852348 53426812 54018684 
1685.570 54631556 55268692 55932652 56625500 57349128 58105188 58895952 
1688.946 59724756 60596332 61516332 62490388 63522568 64615116 65768756 
1692.321 66985176 68269400 69630856 71084272 72647320 74336536 76164968 
1695.696 78139184 80262688 82538832 84978504 87603264 90448200 93558072 
1699.071 96980416 100759392 104929856 109515952 114536704 120013568 
1701.964 125980480 132487640 139602944 147402928 155964512 165353664 
1704.857 175618432 186785248 198860848 211834976 225682688 240364224 
1707.750 255824320 271988704 288767392 306055424 323738016 341689536 
1710.644 359771904 377827104 395672928 413101024 429885312 445795104 
1713.537 460613920 474157184 486287776 496928000 506068704 513772736 
1716.430 520170272 525442592 529794208 533417280 536463552 539028608 
1719.323 541155520 542853632 544122432 544969600 545417600 545499840 
1722.216 545251328 544700608 543873408 542797120 541511872 540071296 
1725.109 538538496 536971328 535409152 533865824 532333856 530795872 
1728.002 529241632 527676224 526123872 524615232 523177024 521822048 
1730.895 520549952 519355360 518240800 517225376 516347424 515656000 
1733.788 515199840 515016320 515132192 515568448 516353952 517536224 
1736.681 519183520 521377856 524204192 527734688 532022240 537099008 
1739.574 542983680 549689536 557229504 565613696 574840256 584883328 
1742.467 595685440 607155264 619174336 631605696 644301120 657103744 
1745.360 669844992 682342400 694404736 705842816 716489088 726210752 
1748.253 734914944 742538880 749031744 754336768 758383424 761094784 
1751.146 762403520 762269824 760686208 757673216 753261952 747478784 
1754.040 740340608 731861888 722071936 711028736 698827584 685592576 
1756.933 671463168 656575936 641054912 625010624 608548224 591773888 
1759.826 574802432 557753920 540746560 523888832 507275104 490983040 
1762.719 475078208 459616704 444647392 430211040 416336896 403039712 
1765.612 390320000 378166528 366560928 355482944 344912928 334830432 
1768.505 325213280 316032672 307254208 298837056 290740160 282925312 
1771.398 275361280 268022480 260887984 253935760 247140512 240470864 
1774.291 233893008 227373568 220885792 214411584 207943024 201479824 
1777.184 195025600 188583872 182156928 175744720 169349232 162977712 
1780.077 156644960 150373888 144193376 138133296 132220384 126474064 
1782.970 120907008 115525200 110331352 105327824 100518248 95908704 91506448 
1786.345 87319824 83357096 79625632 76131408 72878192 69866184 67090964 
1789.721 64543672 62210584 60075372 58119200 56323224 54667860 53134092 
1793.096 51703384 50358492 49084944 47872696 46715704 45613632 44569956 
1796.471 43589632 42676952 41834160 41060476 40351912 39702616 39105056 
1799.846 38550996 38032228 37540764 37070388 36617680 36182200 35765116 
1803.222 35368040 34989396 34622780 34257092 33878336 33474952 33042860 
1806.597 32588440 32129496 31689596 31292726 30955688 30681810 30462226 
1809.972 30277802 30106534 29930596 29739522 29532498 29313326 29087494 
1813.347 28856182 28615906 28360432 28083098 27782788 27465428 27144728 
1816.723 26838502 26564986 26336810 26158522 26025514 25925778 25844066 
1820.098 25764058 25672986 25562056 25428206 25272994 25102082 24922636 
1823.473 24742832 24568392 24402808 24245656 24093808 23942534 23787652 
1826.848 23626298 23457530 23281348 23097318 22902630 22692922 22462138 
1830.224 22205736 21921972 21613660 21287414 20953716 20621792 20300360 
1833.599 19994032 19706846 19440478 19199038 18987684 18813148 18680228 
1836.974 18590620 18538920 18514306 18500396 18479748 18437878 18366416 
1840.349 18264298 18137112 17993348 17842794 17691440 17542902 17396874 
1843.725 17252670 17110038 16971790 16842232 16726861 16628932 16550137 
1847.100 16487487 16436430 16390659 16345365 16297426 16245393 16187271 
1850.475 16120864 16041100 15942656 15820326 15671981 15500802 15315928 
1853.850 15128995 14954278 14802792 14683241 14599774 14554218 14547664 
1857.226 14581329 14655501 14768401 14911106 15067589 15212627 15318445 
1860.601 15357975 15312372 15176240 14958982 14682977 14378649 14078552 
1863.976 13811452 13599459 13456642 13388609 13396407 13473429 13607795 
1867.351 13780954 13969029 14144394 14281061 14356922 14359931 14287827 
1870.727 14148073 13954787 13725556 13479057 13234713 13012262 12832514 
1874.102 12715782 12677418 12721567 12837895 12997557 13158026 13270880 
1877.477 13295343 13210158 13021848 12764684 12494001 12269362 12140527 
1880.852 12132760 12243177 12441780 12683094 12919085 13110750 13234428 
1884.228 13284195 13264240 13185173 13055733 12882948 12672655 12434885 
1887.603 12187158 11954932 11768038 11653841 11628941 11692821 11825743 
1890.978 11994038 12156088 12275746 12328901 12312689 12242852 12152604 
1894.353 12080727 12064180 12125432 12266983 12467944 12691204 12886535 
1897.729 13007016 13019267 12913167 12705033 12436205 12160496 11934249 
1901.104 11798740 11771888 11844105 11980832 12133067 12252311 12301706 
1904.479 12266138 12156058 12003661 11853774 11753874 11739865 11830076 
1907.854 12016539 12268522 12536821 12763453 12896549 12899355 12761936 
1911.229 12502446 12162624 11800729 11473889 11230089 11096171 11074608 
1914.605 11145608 11276398 11424516 11550717 11619751 11607218 11501976 
1917.980 11307862 11046573 10756768 10487140 10288432 10199097 10235612 
1921.355 10382487 10596975 10816723 10980085 11040886 10986689 10836939 
1924.730 10637794 10442856 10295926 10214450 10189543 10190995 10184817 
1928.106 10146175 10070324 9973100 9881528 9821559 9808093 9836759 9893282 
1931.963 9957804 10017762 10074770 10141663 10238625 10379312 10563193 
1935.338 10771172 10968255 11111912 11161759 11092341 10895213 10581619 
1938.714 10177935 9722508 9260733 8839777 8504099 8292564 8228230 8318582 
1942.571 8544147 8869288 9238523 9594550 9883954 10066117 10115775 10022958 
1946.428 9784995 9413317 8928739 8377584 7832184 7393295 7174155 7274315 
1950.286 7742311 8548011 9570024 10615443 11460250 11919299 11895860 
1953.661 11416516 10620752 9719023 8921428 8377913 8137382 8148551 8295186 
1957.519 8456198 8553227 8586009 8614415 8722194 8966004 9336009 9746310 
1961.376 10074346 10197462 10054430 9656573 9089128 8479002 7959074 7635970 
1965.233 7584892 7845297 8433093 9330878 10480340 11752193 12953000 13832659 
1969.091 14146741 13711709 12493256 10619414 8380105 6155098 4313132 3115136 
1972.948 2655003 2853027 3516072 4404011 5324379 6166678 6912074 7589376 
1976.806 8236130 8843833 9368188 9742686 9932137 9957510 9906851 9903027 
1980.663 10067164 10469713 11116766 11940194 12817875 13597208 14142824 
1984.038 14353042 14188201 13663752 12847462 11829801 10711090 9574919 
1987.414 8484182 7474084 6559802 5744615 5037463 4449294 4004661 3729213 
1991.271 3642524 3742618 4004231 4367569 4760983 5101540 5325185 5397359 
1995.128 5322905 5141461 4914472 4706190 4568960 4533071 4609765 4795024 
1998.986 5087598 5483803 5979253 6551351 7153776 7708200 8122504 8318213 
2002.843 8269233 8014953 7673412 7389303 7297502 7446866 7777345 8120988 
2006.701 8267506 8045016 7414561 6482296 5487697 4695247 4305186 4374421 
2010.558 4809611 5405781 5941309 6255087 6304202 6156725 5955535 5839334 
2014.416 5908596 6186558 6653049 7263446 7988085 8795129 9640807 10436890 
2018.273 11044169 11297527 11068214 10318342 9147353 7761404 6422587 5354296 
2022.130 4673467 4359811 4304603 4368695 4470634 4603784 4832540 5219895 
2025.988 5772385 6399197 6935030 7192371 7040391 6450781 5509471 4362333 
2029.845 3172204 2047304 1049539 200581 -456900 -855663 -902829 -534585 
2033.703 221712 1222356 2230218 2985346 3313045 3166969 2662000 2005403 
2037.560 1418628 1047124 931274 996217 1120260 1186374 1144346 1021260 
2041.417 907612 911957 1129301 1603076 2331159 3262290 4322653 5418385 
2045.275 6465129 7398152 8197786 8893160 9566572 10310402 11185619 12164489 
2049.132 13108720 13798337 14009185 13597850 12577089 11117946 9516465 
2052.508 8105743 7155135 6787907 6947985 7414507 7898798 8146446 8031781 
2056.365 7590624 6987305 6436425 6123055 6137536 6472487 7039848 7729663 
2060.222 8442863 9123580 9746924 10303686 10776754 11138946 11356338 
2063.598 11407256 11290521 11028164 10649302 10184105 9651259 9075534 
2066.973 8491889 7965022 7580340 7427239 7561546 7982551 8617874 9345704 
2070.830 10028873 10562391 10902531 11076323 11159208 11240882 11388076 
2074.206 11628223 11946833 12306268 12662451 12984043 13246687 13433173 
2077.581 13521465 13492944 13336986 13070904 12744886 12437844 12232139 
2080.956 12188851 12316733 12569182 12850091 13046983 13064007 12852645 
2084.331 12418352 11818335 11135833 10463597 9880019 9448208 9210038 9191272 
2088.189 9396242 9808046 10377391 11029137 11663408 12180602 12496850 
2091.564 12569641 12400087 12034525 11544061 11013476 10517000 10112274 
2094.939 9836497 9707389 9728716 9892017 10172739 10535709 10927686 11290095 
2098.797 11562240 11694940 11657390 11449423 11095204 10648688 10177470 
2102.172 9758092 9458019 9325440 9376869 9594636 9925689 10301586 10650209 
2106.029 10922646 11101742 11210424 11296263 11417008 11612250 11893480 
2109.405 12233780 12583500 12883161 13087988 13180105 13172824 13099938 
2112.780 13004869 12919497 12857884 12813577 12767266 12695491 12584463 
2116.155 12427346 12231447 12004304 11751173 11467799 11144026 10768292 
2119.530 10339206 9870790 9400202 8977965 8659882 8485228 8468915 8585631 
2123.388 8779473 8969888 9079961 9048820 8850790 8491908 8006716 7434825 
2127.245 6810770 6149455 5454764 4723489 3965965 3208791 2496547 1875491 
2131.103 1379655 1007792 729577 492181 252970 -141 -222338 -329214 -222226 
2135.442 159418 800520 1588195 2336295 2828944 2894168 2450531 1541648 
2139.300 320148 -989604 -2164826 -3039602 -3542774 -3702045 -3617476 
2142.675 -3413756 -3201621 -3037196 -2932866 -2855394 -2759032 -2606615 
2146.050 -2390703 -2129019 -1875307 -1690449 -1648417 -1814621 -2245204 
2149.425 -2970149 -3991948 -5271502 -6738733 -8290098 -9820611 -11235879 
2152.801 -12488211 -13564781 -14503462 -15350496 -16151465 -16905688 
2155.694 -17570000 -18050982 -18237798 -18021826 -17334940 -16161652 
2158.587 -14561139 -12630230 -10505067 -8309141 -6151018 -4107069 -2237440 
2161.962 -570508 857715 2032400 2929696 3531493 3810886 3753402 3357727 
2165.819 2654358 1709282 626939 -478396 -1491718 -2342965 -3002529 -3484290 
2169.677 -3819045 -4029693 -4103342 -3996815 -3649009 -3023701 -2137678 
2173.052 -1080001 -1224 926977 1566210 1842765 1775724 1449912 974635 431050 
2177.392 -148095 -793187 -1544414 -2426075 -3398826 -4355410 -5143778 
2180.767 -5607524 -5638435 -5218075 -4413196 -3366619 -2236663 -1168882 
2184.142 -242176 521941 1157618 1720582 2268301 2828929 3397480 3930887 
2188.000 4360752 4607589 4607949 4325231 3777276 3025740 2176316 1347562 
2191.857 650181 154439 -109845 -167269 -59527 157265 443531 774702 1138837 
2196.197 1524770 1912268 2264192 2537330 2692196 2715286 2613299 2429737 
2200.054 2218366 2037928 1931975 1930059 2040145 2258685 2578142 2990334 
2203.911 3486647 4061691 4700831 5384910 6077278 6729883 7279551 7663227 
2207.769 7823223 7733174 7404787 6906639 6348613 5866407 5585483 5587365 
2211.626 5877766 6391323 7003730 7579177 8007149 8243256 8310992 8293999 
2215.484 8292990 8392924 8625831 8969653 9347793 9663598 9824215 9767828 
2219.341 9477774 8983213 8352889 7686585 7093032 6681247 6537395 6710250 
2223.198 7202265 7968000 8921635 9960248 10979695 11898675 12664371 13254257 
2227.056 13662735 13896117 13957842 13859140 13615471 13261894 12841430 
2230.431 12407351 12004706 11658176 11368555 11121465 10899696 10703093 
2233.806 10554105 10496816 10577673 10823615 11222204 11716736 12214807 
2237.182 12614891 12832743 12826566 12604938 12225643 11769042 11324552 
2240.557 10962729 10727149 10630422 10659067 10784334 10970692 11185133 
2243.932 11401068 11600208 11775457 11923475 12048446 12153065 12239042 
2247.307 12303119 12341660 12349360 12326355 12278059 12217061 12156118 
2250.683 12105569 12065195 12025031 11964227 11860873 11696965 11469479 
2254.058 11192165 10896381 10618688 10397146 10257809 10211955 10256376 
2257.433 10379579 10568484 10817120 11124813 11494228 11922826 12393197 
2260.808 12868315 13297922 13626901 13813898 13845203 13744426 13566508 
2264.184 13384436 13267877 13262182 13377996 13593971 13867813 14159144 
2267.559 14438406 14698793 14947378 15193227 15432974 15646441 15794912 
2270.934 15839402 15752221 15532408 15206193 14824140 14445361 14125181 
2274.309 13905001 13808510 13842705 14003320 14273741 14630090 15036735 
2277.685 15451918 15830249 16135287 16345726 16463296 16512021 16526960 
2281.060 16544443 16591366 16677145 16801730 16955540 17131992 17328030 
2284.435 17542056 17765544 17980922 18157252 18262076 18269090 18174760 
2287.810 18000120 17789238 17594672 17461664 17412844 17444076 17528312 
2291.186 17629818 17717310 17774458 17802402 17813650 17822966 17839170 
2294.561 17860644 17878796 17884024 17870972 17840718 17799684 17753598 
2297.936 17703924 17646636 17575062 17486252 17385316 17287368 17214676 
2301.311 17188806 17223908 17321268 17468362 17643966 17824408 17988400 
2304.687 18122320 18217182 18268528 18273048 18229472 18139094 18008600 
2308.062 17850822 17683894 17525020 17387434 17276520 17189710 17121018 
2311.437 17066476 17028904 17019050 17052684 17144180 17301234 17519704 
2314.812 17786160 18080206 18382278 18678300 18960610 19226444 19475228 
2318.188 19705846 19918904 20120098 20325488 20561756 20860498 21247488 
2321.563 21725632 22264444 22795334 23223072 23445412 23381398 22990896 
2324.938 22287532 21335762 20237152 19109202 18062100 17179092 16505323 
2328.313 16044572 15768230 15628371 15573675 15563179 15570556 15583972 
2331.688 15602731 15627928 15661376 15700493 15740015 15774610 15800649 
2335.064 15816720 15823761 15825218 15824474 15826087 15834309 15852761 
2338.439 15884282 15929358 15984921 16044211 16097857 16135056 16146734 
2341.814 16128460 16081557 16014844 15941085 15874717 15828917 15810946 
2345.189 15821066 15852181 15891837 15925271 15939679 15929051 15894391 
2348.565 15844308 15792387 15752302 15734190 15740104 15764374 15795382 
2351.940 15820064 15828375 15817447 15791466 15761361 15738763 15733033 
2355.315 15746875 15775222 15807472 15830452 15832976 15805751 15747093 
2358.690 15657626 15541780 15405187 15252918 15090767 14924055 14758646 
2362.066 14599468 14450889 14314733 14192197 14084314 13991805 13918249 
2365.441 13868100 13846376 13855318 13892636 13950486 14016787 14079621 
2368.816 14130306 14168757 14202530 14245071 14310411 14406452 14530192 
2372.191 14666836 14793098 14884726 14923896 14905537 14840481 14751610 
2375.567 14667823 14615864 14612838 14662615 14757714 14882354 15018416 
2378.942 15150864 15268821 15367310 15443749 15496684 15524731 15527394 
2382.317 15506739 15469408 15426774 15393739 15384665 15410312 15474631 
2385.692 15574444 15699990 15838688 15978342 16108986 16223790 16318226 
2389.068 16388264 16430018 16438803 16412348 16350470 16258629 16147764 
2392.443 16034288 15936075 15871486 15851973 15882796 15958989 16066330 
2395.818 16183477 16287457 16356396 16377196 16345950 16271269 16168550 
2399.193 16058378 15956162 15872888 15808808 15759887 15718946 15681220 
2402.569 15647843 15625285 15622356 15645703 15696798 15770400 15856177 
2405.944 15943849 16026305 16101832 16173262 16245371 16319783 16393417 
2409.319 16458083 16504444 16523486 16512755 16475314 16418381 16350873 
2412.694 16279038 16205149 16127823 16042838 15948322 15844675 15737342 
2416.070 15636070 15553052 15501292 15493087 15535448 15630526 15771044 
2419.445 15940530 16113853 16261127 16354628 16374590 16316401 16190622 
2422.820 16021041 15837889 15669042 15533085 15434998 15367541 15317017 
2426.195 15268027 15210942 15142252 15066197 14992317 14930085 14888075 
2429.571 14871026 14880102 14910497 14955444 15005395 15052505 15091459 
2432.946 15125933 15165570 15226824 15326400 15475140 15670143 15894996 
2436.321 16120067 16312310 16443394 16499477 16485099 16419753 16332388 
2439.696 16250411 16192956 16166842 16167406 16184073 16204437 16217746 
2443.072 16217249 16196772 16151296 16076360 15970483 15836610 15685922 
2446.447 15536346 15408613 15321484 15286242 15305710 15374415 15482420 
2449.822 15620217 15782055 15965575 16167345 16379286 16584752 16757809 
2453.197 16867866 16886216 16794784 16590402 16289664 15924558 15538630 
2456.573 15176053 14875202 14660913 14542838 14513077 14553003 14634168 
2459.948 14728347 14809588 14859782 14868231 14832436 14756760 14649950 
2463.323 14524247 14395530 14280927 14198567 14164345 14188309 14272231 
2466.698 14406053 14569364 14735575 14876169 14969314 15003677 14982630 
2470.073 14920325 14840404 14766936 14720418 14711586 14741777 14803131 
2473.449 14883294 14967394 15043555 15104281 15147894 15175723 15192323 
2476.824 15200278 15200655 15191455 15169265 15132152 15081363 15023561 
2480.199 14969236 14931062 14917877 14934364 14977375 15037584 15102660 
2483.574 15161920 15209099 15243195 15268531 15290455 15314474 15343010 
2486.950 15378166 15420436 15471592 15533470 15607670 15691532 15779527 
2490.325 15862372 15930265 15976237 15999610 16005049 16001020 15994225 
2493.700 15987085 15974749 15948895 15900129 15824337 15724597 15609307 
2497.075 15489282 15371489 15255681 15136982 15009020 14871866 14736190 
2500.451 14623908 14561892 14573687 14667991 14835539 15048665 15270659 
2503.826 15466105 15612675 15704922 15754940 15783072 15810791 15850831 
2507.201 15905967 15968047 16025761 16068399 16089378 16085802 16058004 
2510.576 16005205 15925713 15820106 15693696 15560245 15442213 15365530 
2513.952 15353696 15415107 15540523 15701341 15856571 15964681 15997693 
2517.327 15948623 15836397 15697559 15576126 15506719 15507062 15569231 
2520.702 15667940 15768219 15840570 15869116 15859008 15830826 15812898 
2524.077 15831446 15899476 16013289 16156197 16302487 16427526 16516158 
2527.453 16563348 16576031 16566776 16548755 16531492 16516946 16499924 
2530.828 16471572 16422952 16349535 16252937 16142512 16032651 15939029 
2534.203 15873913 15841404 15835643 15841382 15838087 15806653 15735896 
2537.578 15626403 15493253 15360073 15254916 15200568 15210452 15284942 
2540.954 15413076 15577819 15758796 15937220 16098043 16228164 16316514 
2544.329 16355027 16338017 16267508 16154014 16016435 15880274 15770789 
2547.704 15707077 15696518 15733749 15802348 15880061 15946664 15990658 
2551.079 16010661 16015831 16021175 16042819 16090477 16166138 16261924 
2554.455 16362479 16448641 16504250 16518882 16493371 16438015 16371034 
2557.830 16314175 16285168 16294690 16341643 16415127 16497767 16570799 
2561.205 16619310 16636394 16623240 16588448 16544251 16501928 16472785 
2564.580 16464587 16483810 16535137 16621858 16746083 16905254 17091190 
2567.956 17291658 17489472 17666462 17805660 17897338 17937558 17931922 
2571.331 17892778 17837346 17783624 17747722 17739180 17760178 17804842 
2574.706 17859922 17908348 17932516 17918004 17856474 17746082 17594792 
2578.081 17416926 17234590 17074254 16965598 16935790 17004144 17174374 
2581.457 17433034 17746778 18068544 18347896 18544314 18637858 18635592 
2584.832 18567410 18476566 18402844 18371522 18382792 18418108 18446554 
2588.207 18440752 18389606 18300956 18201026 18120948 18085860 18104752 
2591.582 18167982 18253494 18335110 18394498 18424908 18432788 18430098 
2594.958 18427142 18426374 18421400 18400692 18353472 18276498 18176412 
2598.333 18067194 17966174 17886118 17832992 17804356 17792250 17787492 
2601.708 17783698 17777182 17767338 17753546 17733962 17706486 17669964 
2605.083 17628178 17590316 17569892 17580600 17631048 17720396 17836988 
2608.458 17962940 18077978 18168198 18228058 18263680 18287184 18311226 
2611.834 18344068 18386068 18431784 18473112 18505218 18528264 18549906 
2615.209 18580810 18630394 18702914 18794760 18896874 18996304 19083596 
2618.584 19153024 19206410 19250550 19294442 19347798 19416810 19503346 
2621.959 19604676 19714274 19822148 19916890 19988146 20027834 20034702 
2625.335 20012442 19972556 19927878 19892566 19874254 19875418 19890938 
2628.710 19911872 19929970 19940988 19944554 19945104 19946632 19951350 
2632.085 19956604 19957154 19947312 19925130 19893434 19860304 19835162 
2635.460 19825994 19836378 19864534 19906570 19959206 20022530 20100114 
2638.836 20195614 20310648 20439716 20571866 20691256 20785206 20846934 
2642.211 20879088 20893060 20903918 20922720 20954012 20992726 21027346 
2645.586 21045016 21037780 21004640 20953898 20898040 20850654 20821748 
2648.961 20815260 20829152 20857618 20893424 20928170 20954340 20965134 
2652.337 20953820 20917080 20854194 20770156 20674276 20578996 20496670 
2655.712 20435372 20396798 20375954 20361822 20343558 20311846 20261920 
2659.087 20195034 20115396 20028828 19940172 19850588 19760264 19666954 
2662.462 19568320 19463832 19354644 19241928 19128734 19015954 18904942 
2665.838 18795606 18688214 18584118 18484748 18393342 18313586 18248540 
2669.213 18200092 18168514 18151396 18145238 18145098 18147384 18149850 
2672.588 18153302 18159188 18170920 18189948 18215188 18243952 18271554 
2675.963 18294300 18309938 18320896 18331044 18344440 18363520 18386120 
2679.339 18405484 18413036 18400290 18364076 18306372 18236198 18165906 
2682.714 18107966 18070858 18058032 18066246 18088278 18114840 18138158 
2686.089 18153254 18159134 18157690 18154074 18152992 18158870 18174434 
2689.464 18198508 18228746 18259268 18284454 18299054 18300882 18290660 
2692.840 18270826 18244278 18212462 18175100 18129116 18072324 18004990 
2696.215 17932104 17863004 17809668 17782544 17787356 17821034 17873616 
2699.590 17931116 17979830 18010844 18023146 18022818 18020582 18027070 
2702.965 18049474 18090350 18146438 18211098 18276968 18338494 18392026 
2706.341 18435928 18470552 18496804 18517140 18534018 18550356 18568338 
2709.716 18588244 18607700 18620952 18620070 18597368 18548000 18472966 
2713.091 18379920 18282014 18195488 18135150 18111972 18128528 18180090 
2716.466 18255614 18339580 18417826 18479354 18518592 18536332 18538428 
2719.842 18533296 18528432 18528234 18532712 18538098 18537904 18527076 
2723.217 18503408 18469198 18431028 18396700 18374186 18367162 18374818 
2726.592 18392470 18412610 18428072 18433624 18427794 18412406 18391964 
2729.967 18371786 18356654 18349238 18350178 18357646 18367968 18376450 
2733.343 18379050 18373736 18361240 18345802 18334492 18334782 18352466 
2736.718 18389954 18444038 18507812 18573086 18632026 18680014 18716776 
2740.093 18744970 18767640 18786258 18799986 18805878 18800970 18784146 
2743.468 18759566 18734322 18716742 18713192 18725902 18750634 18778790 
2746.844 18801228 18811460 18808844 18799566 18793148 18799774 18825376 
2750.219 18869776 18925032 18979282 19019014 19033092 19015946 18969140 
2753.594 18899238 18816614 18732582 18657790 18600136 18563232 18547278 
2756.969 18549040 18561934 18578824 18592000 18595620 18587638 18569616 
2760.344 18547506 18528544 18521278 18532412 18565390 18619950 18691634 
2763.720 18772648 18853980 18924170 18973538 18994818 18984350 18943800 
2767.095 18880788 18807980 18740830 18694436 18678220 18694518 18736922 
2770.470 18792396 18844064 18878500 18887192 18870880 18837584 18798856 
2773.845 18766284 18746856 18741804 18746556 18754294 18758952 18757354 
2777.221 18750798 18743772 18741974 18750464 18772798 18810288 18863608 
2780.596 18931168 19012138 19102132 19197028 19289344 19372230 19440154 
2783.971 19491516 19527892 19555184 19578550 19601638 19624548 19643050 
2787.346 19651236 19645062 19623484 19591194 19555976 19526294 19508344 
2790.722 19504290 19512360 19527856 19547398 19567984 19588758 19610108 
2794.097 19631838 19652350 19669766 19683702 19696136 19712434 19738718 
2797.472 19779806 19833810 19894720 19950184 19988318 20001284 19989824 
2800.847 19963268 19938118 19930412 19952438 20008168 20092524 20194204 
2804.223 20300646 20401084 20490598 20569938 20643354 20717076 20798398 
2807.598 20891770 20998904 21118962 21245882 21369640 21477912 21557414 
2810.973 21599602 21602262 21572396 21523558 21472706 21434270 21417070 
2814.348 21420928 21440828 21469086 21501724 21541204 21594094 21668856 
2817.724 21770348 21896690 22038874 22183686 22318576 22435536 22533890 
2821.099 22618382 22696334 22773178 22851094 22928088 23000922 23067484 
2824.474 23128068 23185998 23244620 23306508 23371662 23438084 23503284 
2827.849 23566504 23628508 23691776 23756592 23820672 23877888 23920782 
2831.225 23943032 23943088 23925926 23901384 23881050 23875732 23891568 
2834.600 23930016 23989824 24067958 24162122 24269932 24388338 24510528 
2837.975 24627212 24727530 24802460 24849962 24875496 24893450 24923222 
2841.350 24983360 25087436 25241142 25442700 25685148 25959372 26258196 
2844.726 26575198 26906354 27248414 27596070 27943458 28282954 28609420 
2848.101 28917730 29205440 29469624 29708714 29920932 30104324 30258666 
2851.476 30384126 30483394 30559258 30614806 30652926 30676326 30688976 
2854.851 30695514 30703220 30718104 30745794 30788538 30844680 30910264 
2858.227 30982664 31060140 31147068 31248994 31373504 31525190 31704650 
2861.602 31907260 32126400 32354220 32588098 32827642 33077646 33342882 
2864.977 33627180 33932520 34258036 34602780 34966784 35351044 35756580 
2868.352 36181832 36623628 37072668 37519272 37955796 38378972 38792620 
2871.728 39205248 39627684 40066908 40524324 40992968 41458704 41905148 
2875.103 42317320 42684004 43001696 43272020 43502016 43700236 43875536 
2878.478 44034712 44180036 44309296 44415192 44485316 44505912 44463212 
2881.853 44349068 44163372 43915016 43621516 43305352 42990932 42699724 
2885.229 42447164 42241628 42085216 41972676 41896596 41845924 41811848 
2888.604 41786876 41769308 41761132 41768996 41801504 41865624 41964124 
2891.979 42094768 42249756 42421652 42602564 42790688 42988132 43198472 
2895.354 43422416 43655016 43882468 44085668 44244336 44344080 44382492 
2898.729 44370180 44328004 44283736 44261432 44277152 44335192 44426804 
2902.105 44534596 44638032 44717792 44761112 44762756 44727120 44665436 
2905.480 44593064 44527860 44484168 44472196 44496936 44557004 44648252 
2908.855 44764480 44901740 45058636 45238076 45444804 45684616 45962764 
2912.230 46283804 46649972 47062860 47522200 48025080 48564336 49127988 
2915.606 49697300 50249748 50761772 51212272 51587260 51883708 52108184 
2918.981 52276112 52408240 52527000 52650448 52792304 52958136 53147464 
2922.356 53355044 53574136 53799608 54030236 54270076 54528848 54817704 
2925.731 55145692 55517004 55928068 56369180 56827228 57289536 57749616 
2929.107 58207156 58670196 59149400 59656624 60200436 60787644 61422404 
2932.482 62110516 62861392 63689352 64610244 65640284 66789716 68062616 
2935.857 69454992 70957408 72557440 74241864 75997848 77811928 79668432 
2939.232 81548248 83428384 85285000 87093784 88832544 90481632 92023128 
2942.608 93438232 94706744 95807016 96719712 97430648 97935688 98242120 
2945.983 98368560 98340176 98183144 97918552 97560552 97114944 96583928 
2949.358 95968800 95276600 94519960 93716904 92887744 92051296 91220688 
2952.733 90403600 89602408 88818352 88052664 87309744 86593936 85909496 
2956.109 85257440 84633672 84030088 83439160 82854880 82278120 81715328 
2959.484 81177048 80673496 80208192 79778288 79371264 78971008 78562088 
2962.859 78133368 77682320 77210960 76724200 76224648 75709928 75173680 
2966.234 74607400 74005696 73370656 72710056 72038552 71370528 70717072 
2969.610 70082552 69466848 68866176 68279200 67707664 67158600 66640416 
2972.985 66159584 65717860 65310360 64928756 64562692 64206556 63860448 
2976.360 63529044 63222988 62953784 62732592 62568844 62471364 62447392 
2979.735 62505780 62652276 62890672 63219012 63629800 64110920 64650440 
2983.111 65238244 65872692 66557900 67306056 68130976 69046480 70061080 
2986.486 71175960 72385264 73674952 75025160 76410264 77799992 79161720 
2989.861 80461016 81667448 82754968 83707472 84516856 85184512 85715312 
2993.236 86116560 86392992 86546744 86577232 86484256 86268960 85936256 
2996.612 85493248 84947336 84303256 83560992 82717080 81765432 80701176 
2999.987 79526816 78252128 76895952 75483312 74042320 72596680 71165216 
3003.362 69757904 68378720 67025600 65694116 64378208 63072844 61771416 
3006.737 60467744 59155496 57831960 56498340 55163264 53842128 52553796 
3010.113 51317248 50145344 49040400 47995772 46995312 46023212 45065176 
3013.488 44116732 43180852 42267436 41386940 40546436 39746280 38981364 
3016.863 38244340 37530540 36838812 36175508 35546852 34959916 34413008 
3020.238 33898188 33400566 32902654 32390318 31856060 31301852 30739502 
3023.614 30184492 29655680 29168404 28733502 28354334 28029124 27749874 
3026.989 27506644 27287958 27084094 26887664 26695914 26508850 26329012 
3030.364 26159192 26000798 25852104 25709430 25568972 25426444 25281008 
3033.739 25133394 24985238 24838786 24694260 24549800 24403156 24251468 
3037.115 24094002 23933026 23772936 23621630 23487516 23380736 23310528 
3040.490 23285210 23309718 23382344 23493356 23625038 23752670 23851092 
3043.865 23899540 23891204 23833050 23747144 23662958 23609476 23605504 
3047.240 23655694 23749288 23866050 23983884 24084484 24160114 24211692 
3050.615 24245574 24268864 24284544 24293220 24292734 24281218 24260014 
3053.991 24234680 24211812 24195536 24185848 24178634 24165538 24138816 
3057.366 24094662 24033776 23960798 23882444 23802722 23724218 23646108 
3060.741 23567874 23491376 23423112 23372176 23349112 23359086 23402020 
3064.116 23470588 23551068 23629508 23694636 23740454 23768388 23783192 
3067.492 23791072 23797188 23803210 23807464 23807996 23801692 23788550 
3070.867 23767636 23739152 23701024 23651694 23587740 23509668 23421530 
3074.242 23333780 23260108 23216062 23213688 23257774 23344610 23461048 
3077.617 23589150 23709522 23805228 23865656 23885600 23867316 23815984 
3080.993 23740222 23648646 23550910 23455546 23368886 23294888 23233656 
3084.368 23179478 23124556 23059322 22976496 22873360 22754184 22627386 
3087.743 22506282 22401588 22321322 22267568 22236596 22221018 22212408 
3091.118 22204318 22193198 22176766 22157414 22137008 22119830 22108166 
3094.494 22105464 22111304 22123298 22134356 22134780 22114028 22065308 
3097.869 21987364 21891038 21794476 21722104 21695736 21728754 21820466 
3101.244 21954714 22104368 22237476 22328198 22360834 22334512 22262486 
3104.619 22165562 22068082 21989198 21941884 21929280 21945766 21980458 
3107.995 22020296 22051660 22064398 22052218 22014372 21954628 21879674 
3111.370 21796630 21711790 21628498 21548746 21473170 21404696 21347318 
3114.745 21307536 21290072 21297146 21325400 21366676 21410062 21446532 
3118.120 21471368 21488334 21504678 21529844 21568562 21619904 21674100 
3121.496 21718854 21740812 21734814 21702426 21654144 21603326 21562278 
3124.871 21536046 21523378 21515862 21501604 21471768 21419816 21345430 
3128.246 21253966 21153530 21055284 20970068 20907474 20873620 20871564 
3131.621 20895432 20935426 20975540 21000168 20996544 20960656 20897438 
3134.997 20820810 20747962 20696400 20676692 20691898 20737184 20802444 
3138.372 20875428 20944536 21001092 21039282 21055302 21050712 21028264 
3141.747 20995866 20963248 20940560 20935418 20950582 20981616 21018900 
3145.122 21050698 21066730 21061702 21037618 21000390 20958922 20919026 
3148.498 20884308 20853824 20824700 20794510 20762508 20730176 20700280 
3151.873 20673442 20650630 20630882 20613776 20601020 20595788 20601590 
3155.248 20620658 20650658 20685878 20716004 20731806 20725520 20694798 
3158.623 20640910 20569152 20485898 20397742 20312534 20239004 20187342 
3161.999 20169582 20194034 20262302 20367404 20493820 20620390 20727748 
3165.374 20803622 20846836 20865986 20875446 20887258 20908446 20937630 
3168.749 20968534 20993046 21008292 21016178 21022466 21033134 21050200 
3172.124 21069626 21083500 21083498 21066846 21035556 20997744 20961306 
3175.500 20931482 20907634 20884414 20855636 20819362 20778480 20741120 
3178.875 20714650 20703998 20706282 20714556 20718768 20714634 20702682 
3182.250 20690944 20687762 20697858 20717266 20735716 20741324 20728712 
3185.625 20702392 20679270 20679614 20720686 20805726 20922324 21043786 
3189.000 21141052 21191892 21189942 21145596 21080414 21016396 20968250 
3192.376 20937700 20915088 20888708 20849538 20799616 20750858 20721322 
3195.751 20726814 20774764 20862834 20978464 21105108 21226530 21332070 
3199.126 21416658 21480066 21525190 21554712 21570776 21575100 21567254 
3202.501 21547008 21512856 21464032 21399456 21321496 21233380 21143410 
3205.877 21058270 20984972 20924170 20872298 20821606 20765718 20701936 
3209.252 20635548 20578534 20547084 20554920 20608646 20704618 20829788 
3212.627 20965054 21090756 21189910 21251366 21268828 21242274 21175480 
3216.002 21077184 20961344 20846232 20751112 20693844 20684498 20724182 
3219.378 20803716 20907642 21019732 21127310 21222792 21304326 21371034 
3222.753 21421506 21452038 21460450 21447606 21421740 21396516 21386800 
3226.128 21402044 21441280 21490194 21527610 21533434 21498630 21428732 
3229.503 21345778 21276712 21244352 21257414 21308088 21375194 21433952 
3232.879 21465860 21466230 21442018 21408656 21380722 21367260 21369572 
3236.254 21384296 21408390 21443594 21495040 21567746 21661290 21766746 
3239.629 21865696 21937534 21965554 21944610 21882862 21799276 21715126 
3243.004 21648850 21606566 21584894 21571072 21551354 21514048 21455440 
3246.380 21377820 21289798 21201434 21124402 21067672 21038790 21039616 
3249.755 21068312 21116472 21172298 21221916 21255026 21266602 21260784 
3253.130 21247304 21238086 21242876 21266276 21304460 21351964 21402440 
3256.505 21452930 21504200 21560642 21623674 21692540 21760332 21818928 
3259.881 21860220 21882210 21886656 21880014 21869856 21861348 21855904 
3263.256 21852440 21848418 21845274 21844768 21849972 21860998 21875218 
3266.631 21885368 21885416 21872812 21852064 21833958 21830468 21849420 
3270.006 21889168 21936632 21973216 21979426 21943802 21865008 21754152 
3273.382 21626316 21497128 21376288 21268302 21173842 21096326 21042584 
3276.757 21022762 21044370 21107862 21202580 21309010 21403570 21469594 
3280.132 21501876 21509896 21512722 21531778 21580538 21661220 21763690 
3283.507 21871718 21970612 22052966 22118544 22172758 22219356 22256568 
3286.883 22275100 22260222 22199424 22088714 21933822 21754010 21574384 
3290.258 21421618 21316968 21271280 21284804 21347818 21443072 21551550 
3293.633 21653412 21734814 21786646 21808124 21803224 21779690 21745066 
3297.008 21705102 21662354 21618710 21577382 21545806 21534088 21554544 
3300.384 21614090 21712506 21837172 21966880 22076968 22146760 22165774 
3303.759 22136772 22072186 21989904 21904162 21825064 21753954 21690728 
3307.134 21633710 21586248 21552678 21536792 21537930 21548744 21557116 
3310.509 21551686 21526092 21485240 21442588 21416302 21421648 21465436 
3313.885 21541894 21635428 21724872 21791374 21822536 21815116 21774550 
3317.260 21710882 21636596 21564298 21504264 21464634 21447656 21450216 
3320.635 21462150 21470406 21460676 21426366 21368922 21301292 21241914 
3324.010 21206888 21203590 21226456 21257260 21274880 21263762 21222212 
3327.385 21164880 21116478 21102306 21137034 21218336 21328106 21438582 
3330.761 21524682 21570928 21577524 21556104 21524482 21498230 21486990 
3334.136 21493012 21514622 21548014 21591174 21640858 21691896 21733638 
3337.511 21753954 21741042 21690628 21607858 21508674 21414184 21343260 
3340.886 21304108 21293026 21294636 21291642 21269652 21226406 21170564 
3344.262 21118866 21087842 21088858 21122826 21182790 21258074 21339012 
3347.637 21419184 21498148 21576348 21655362 21734178 21810428 21881516 
3351.012 21946880 22008094 22067524 22125616 22180004 22223694 22247990 
3354.387 22244190 22207548 22138276 22040766 21921448 21789006 21651688 
3357.763 21519308 21401696 21310252 21254248 21237534 21256508 21296392 
3361.138 21336736 21356522 21341276 21289618 21213082 21135052 21078942 
3364.513 21063530 21093356 21159954 21244226 21324792 21384784 21417620 
3367.888 21426462 21422620 21417872 21421732 21436354 21458230 21478978 
3371.264 21490438 21484784 21460306 21418016 21363470 21304260 21248552 
3374.639 21202468 21169532 21148616 21135976 21126736 21116588 21105070 
3378.014 21096048 21096334 21113540 21150292 21205682 21271434 21336520 
3381.389 21392306 21435718 21470272 21506542 21555564 21623596 21708952 
3384.765 21800020 21879400 21930792 21943250 21918814 21868172 21811362 
3388.140 21767644 21753878 21776800 21835864 21922642 22023482 22124010 
3391.515 22209744 22268120 22292166 22280044 22239494 22185464 22139750 
3394.890 22124626 22156548 22239986 22364812 22507850 22638594 22728348 
3398.266 22758442 22723702 22636010 22514780 22385636 22269048 22179088 
3401.641 22121598 22096588 22099836 22126998 22171686 22227264 22284802 
3405.016 22335604 22370610 22385920 22381184 22362922 22339272 22318014 
3408.391 22302714 22292112 22282420 22270432 22258442 22254704 22274144 
3411.767 22331682 22437562 22592730 22786652 22999956 23210700 23399580 
3415.142 23555204 23674658 23759998 23816612 23846776 23850834 23825544 
3418.517 23770670 23688270 23589620 23488420 23401700 23343744 23322972 
3421.892 23340192 23389096 23457712 23532916 23601578 23654352 23685008 
3425.268 23692492 23680602 23658218 23636976 23629692 23644898 23688958 
3428.643 23757966 23845118 23938996 24030598 24113446 24186852 24252070 
3432.018 24313264 24370204 24420450 24458458 24480048 24483830 24473850 
3435.393 24458194 24445198 24440526 24443836 24449586 24450464 24440232 
3438.769 24417136 24384768 24349502 24315492 24283560 24249998 24209010 
3442.144 24156538 24095356 24034622 23988252 23965984 23972126 23999140 
3445.519 24031964 24053078 24052032 24027084 23989354 23956144 23944286 
3448.894 23960872 24002080 24053404 24096842 24118336 24115080 24094740 
3452.270 24072538 24065318 24083214 24127272 24188908 24253936 24309444 
3455.645 24345186 24359288 24353724 24335816 24311850 24287298 24265646 
3459.020 24247248 24230012 24210556 24182356 24141210 24083624 24012506 
3462.395 23934026 23859840 23801258 23765514 23751916 23751486 23751294 
3465.771 23738968 23710188 23671364 23638246 23629512 23659296 23729594 
3469.146 23829812 23941272 24044474 24128438 24196296 24263242 24348092 
3472.521 24465592 24616238 24785416 24946352 25070716 25138694 25146518 
3475.896 25109490 25055824 25018894 25027518 25097650 25230726 25413548 
3479.271 25623878 25834996 26020980 26161390 26244696 26267934 26241052 
3482.647 26181054 26111646 26056430 26034200 26052602 26108950 26189170 
3486.022 26276580 26355560 26419160 26470550 26522898 26592666 26695636 
3489.397 26837586 27014662 27211116 27406586 27579046 27713750 27807256 
3492.772 27869440 27920440 27986548 28091948 28250934 28462248 28709648 
3496.148 28963878 29190710 29361992 29461150 29488728 29460526 29400526 
3499.523 29333176 29275510 29234382 29208844 29195486 29193590 29210626 
3502.898 29259956 29355214 29503294 29696770 29912944 30116882 30271844 
3506.273 30347826 30330308 30225900 30055568 29850118 29640258 29448858 
3509.649 29287060 29155586 29046608 28951602 28862854 28777286 28692892 
3513.024 28611318 28530562 28447768 28358190 28257918 28144812 28022784 
3516.399 27898716 27783282 27687290 27617742 27574878 27552072 27537680 
3519.774 27517112 27478726 27416814 27333750 27239378 27146178 27066854 
3523.150 27007944 26968868 26941778 26914802 26875102 26815414 26734320 
3526.525 26637152 26534022 26436102 26352188 26287290 26240212 26205730 
3529.900 26175408 26139718 26089624 26018572 25925244 25812264 25687592 
3533.275 25563970 25454488 25372480 25327846 25325582 25365364 25443386 
3536.651 25552526 25685066 25832068 25984612 26130530 26258844 26355830 
3540.026 26411800 26418856 26377104 26292844 26177534 26046562 25917828 
3543.401 25806266 25726082 25689102 25703346 25771936 25891924 26051260 
3546.776 26230262 26401558 26538116 26616836 26626432 26568800 26459940 
3550.152 26322938 26183526 26059876 25960734 25881922 25811106 25730462 
3553.527 25623938 25480884 25298180 25080606 24840506 24594866 24364998 
3556.902 24172216 24036382 23970322 23977522 24050348 24169554 24310604 
3560.277 24448350 24566126 24658640 24734406 24809948 24903868 25027812 
3563.653 25180598 25346168 25498344 25609024 25655370 25629768 25539770 
3567.028 25408064 25263718 25137852 25051006 25013296 25023164 25070294 
3570.403 25140770 25221480 25301742 25375524 25438382 25486460 25513368 
3573.778 25513078 25477760 25403540 25289938 25143318 24974760 24800638 
3577.154 24636356 24497102 24392376 24327736 24301264 24307668 24335646 
3580.529 24372298 24402818 24414902 24399140 24354686 24287422 24213514 
3583.904 24152614 24125828 24148130 24223168 24340820 24476742 24598098 
3587.279 24672644 24675840 24597870 24444278 24237630 24006682 23782348 
3590.655 23590234 23447852 23362576 23334786 23359548 23429508 23535144 
3594.030 23664874 23804686 23939828 24052634 24129304 24160252 24142674 
3597.405 24082362 23991170 23886882 23787902 23711418 23672096 23677810 
3600.780 23731972 23830004 23959938 24104098 24241028 24349030 24409892 
3604.156 24413160 24359534 24257374 24125102 23981526 23845568 23731058 
3607.531 23646378 23594080 23575024 23587520 23630246 23700430 23791398 
3610.906 23891630 23987274 24061198 24099414 24093876 24047372 23971800 
3614.281 23890372 23828264 23811254 23855660 23967840 24138948 24347364 
3617.656 24560852 24743856 24861644 24892368 24827214 24676268 24463526 
3621.032 24222248 23986668 23782614 23625680 23519164 23455640 23427074 
3624.407 23426292 23452446 23508600 23598672 23722066 23871366 24031456 
3627.782 24182328 24306274 24394242 24445596 24471562 24487516 24509340 
3631.157 24547788 24607508 24686194 24778226 24877138 24977182 25074318 
3634.533 25166228 25253268 25339604 25433430 25547490 25695758 25888300 
3637.908 26125150 26394094 26666946 26907910 27081006 27163240 27149536 
3641.283 27057280 26919354 26775628 26661216 26598704 26593996 26641844 
3644.658 26729490 26844308 26974526 27112648 27248362 27367892 27452906 
3648.034 27485684 27454138 27360588 27222006 27071088 26945740 26879292 
3651.409 26892562 26986444 27143994 27335462 27524904 27681526 27783254 
3654.784 27821424 27799582 27732870 27641362 27547006 27467666 27412722 
3658.159 27382920 27370000 27361030 27343294 27309884 27262528 27209604 
3661.535 27163214 27131490 27116176 27105180 27081214 27024280 26925590 
3664.910 26788474 26632818 26488614 26386624 26343282 26356996 26402720 
3668.285 26442888 26435120 26350838 26182610 25950466 25694062 25460740 
3671.660 25290308 25201046 25184826 25213228 25243246 25236792 25168986 
3675.036 25041054 24875124 24710652 24587100 24533292 24554576 24634268 
3678.411 24738244 24828146 24871018 24851372 24770784 24647204 24503790 
3681.786 24359354 24222820 24092090 23958604 23815436 23663446 23516630 
3685.161 23395070 23321184 23308498 23355420 23444500 23544024 23619768 
3688.537 23644066 23602500 23500268 23356956 23202822 23067522 22977480 
3691.912 22949460 22990808 23098690 23260986 23458858 23665624 23851350 
3695.287 23985192 24040894 24001396 23865786 23648730 23376946 23087736 
3698.662 22815288 22589914 22428782 22337600 22310176 22333102 22388738 
3702.038 22457450 22521206 22563080 22569378 22531868 22448924 22328498 
3705.413 22185640 22042016 21918654 21833860 21795738 21804424 21852844 
3708.788 21932040 22034928 22160906 22311974 22491524 22695450 22910184 
3712.163 23111402 23269012 23354790 23352326 23263098 23106310 22913660 
3715.539 22721488 22561000 22449554 22391030 22376450 22389718 22414108 
3718.914 22435752 22446412 22440696 22415360 22368392 22299034 22210662 
3722.289 22113264 22021602 21955430 21932010 21962744 22049648 22181128 
3725.664 22338304 22497912 22637670 22742034 22800964 22811932 22775666 
3729.040 22695790 22577182 22425718 22250550 22063072 21876194 21706208 
3732.415 21566018 21467540 21419298 21425950 21488270 21605030 21768360 
3735.790 21966872 22183280 22397768 22591740 22753260 22879162 22976588 
3739.165 23058462 23138850 23225924 23318434 23404680 23468066 23491970 
3742.541 23468198 23400642 23304760 23201814 23113568 23052610 23020590 
3745.916 23009960 23006876 23001278 22987866 22969416 22952470 22943328 
3749.291 22943256 22946836 22945252 22929422 22896952 22853884 22814840 
3752.666 22795708 22811248 22865760 22952706 23056964 23157846 23236922 
3756.042 23280298 23282152 23242210 23164374 23053570 22914830 22755232 
3759.417 22584114 22416250 22269456 22162298 22110316 22121110 22192300 
3762.792 22313180 22467216 22638250 22813518 22985556 23151458 23310204 
3766.167 23460142 23597218 23714584 23806276 23866326 23894082 23891822 
3769.542 23863702 23815046 23748758 23666864 23571010 23463854 23350846 
3772.918 23239336 23137188 23050366 22978868 22918516 22860814 22795738 
3776.293 22716190 22619624 22509334 22392048 22279174 22182276 22113910 
3779.668 22085252 22105970 22184962 22324428 22520078 22757854 23015426 
3783.043 23263692 23472260 23618582 23690280 23691264 23637152 23553254 
3786.419 23465140 23391892 23341162 23311928 23293128 23272412 23239208 
3789.794 23190210 23128844 23065298 23011296 22976896 22967332 22980830 
3793.169 23007326 23034342 23046828 23033056 22989188 22920188 22839956 
3796.544 22769902 22732236 22744434 22811750 22926176 23065012 23196874 
3799.920 23288942 23316160 23266884 23148234 22981158 22795538 22619978 
3803.295 22475946 22372380 22309166 22280306 22281342 22311516 22376462 
3806.670 22482592 22634154 22824264 23037346 23247560 23428156 23555178 
3810.045 23616290 23612234 23554260 23462196 23356286 23252272 23162202 
3813.421 23093900 23053254 23046816 23081896 23159928 23277604 23421344 
3816.796 23569626 23697684 23786260 23826098 23824868 23800922 23781332 
3820.171 23789210 23838446 23926862 24039970 24155170 24250868 24314726 
3823.546 24345942 24353770 24352470 24353352 24361184 24370426 24368092 
3826.922 24338486 24268846 24153390 23997498 23816232 23632242 23472154 
3830.297 23360826 23316656 23348936 23453720 23616352 23811502 24009428 
3833.672 24181004 24304564 24369112 24374884 24332042 24256432 24165594 
3837.047 24073698 23990816 23924428 23879184 23858058 23863116 23892698 
3840.423 23939586 23991130 24029136 24035764 23997064 23910830 23787246 
3843.798 23647364 23518050 23423850 23378212 23381532 23422326 23481874 
3847.173 23541824 23592742 23635396 23679224 23738718 23822674 23931506 
3850.548 24054342 24171522 24262200 24309392 24306998 24259136 24178104 
3853.924 24080092 23978038 23879596 23786962 23700530 23621468 23554310 
3857.299 23505284 23479964 23479788 23499188 23526500 23549024 23558062 
3860.674 23552702 23542932 23545740 23579954 23659474 23787174 23954782 
3864.049 24142836 24328618 24488348 24604854 24667326 24672740 24622512 
3867.425 24523776 24386140 24222740 24048910 23882076 23737454 23625058 
3870.800 23549054 23507504 23495472 23509068 23546476 23610572 23704362 
3874.175 23825130 23963120 24098160 24204456 24255412 24234584 24137782 
3877.550 23976972 23777176 23568102 23378680 23229626 23132032 23089026 
3880.926 23098936 23157212 23260104 23402282 23575426 23768332 23965480 
3884.301 24150950 24310638 24434848 24519126 24562144 24564408 24528254 
3887.676 24455236 24351492 24228644 24104730 24001316 23941278 23937840 
3891.051 23992194 24090768 24209254 24318878 24396474 24431430 24426602 
3894.427 24397032 24361302 24334200 24321500 24318880 24312590 24285862 
3897.802 24227818 24133474 24010286 23872792 23742354 23639932 23581654 
3901.177 23577754 23626806 23720450 23841134 23969330 24084842 24173096 
3904.552 24226604 24247836 24247944 24240830 24241194 24259026 24296820 
3907.927 24349468 24406200 24454142 24482390 24484490 24460958 24418100 
3911.303 24368262 24325512 24304054 24314940 24363180 24444712 24547978 
3914.678 24652194 24735512 24776472 24762802 24692780 24578892 24442732 
3918.053 24311294 24208140 24147248 24129408 24144096 24170256 24185218 
3921.428 24169742 24113672 24015672 23884576 23736054 23589090 23463198 
3924.804 23376696 23342124 23367144 23450326 23581288 23740126 23901132 
3928.179 24036318 24122698 24147710 24114094 24039006 23950034 23875706 
3931.554 23837556 23841800 23878280 23921778 23942816 23917466 23835662 
3934.929 23705066 23552372 23411018 23315522 23290214 23343714 23467198 
3938.305 23641256 23839060 24036142 24212502 24355824 24461176 24528944 
3941.680 24562416 24569128 24557426 24537238 24516642 24500156 24485782 
3945.055 24465972 24429314 24364002 24264732 24135064 23988406 23845430 
3948.430 23728828 23656516 23637510 23673174 23755152 23873920 24017422 
3951.806 24176102 24340948 24502658 24649670 24769490 24851462 24888656 
3955.181 24881588 24838482 24771296 24695850 24623314 24562472 24516510 
3958.556 24487172 24475650 24482890 24508896 24552342 24603392 24649788 
3961.931 24676886 24673232 24637078 24577336 24513052 24466340 24455460 
3965.307 24487882 24557500 24646732 24733050 24794732 24820548 24808492 
3968.682 24766820 24709128 24649026 24597714 24561068 24540430 24535266 
3972.057 24542520 24558314 24579716 24601800 24620276 24631280 24633466 
3975.432 24625496 24608708 24583628 24551860 24513538 24470926 24427104 
3978.808 24389820 24367636 24370056 24403634 24469464 24562864 24676368 
3982.183 24797666 24917930 25027390 25119870 25189208 25230968 25242194 
3985.558 25225956 25192022 25159420 25152280 25194192 25297252 25459080 
3988.933 25658244 25861642 26033032 26147308 26196512 26194170 26167260 
3992.309 26143698 26143630 26167878 26201262 26220818 26205438 26148668 
3995.684 26062456 25971518 25906912 25891620 25934002 26024262 26138480 
3999.059 26250986 26338370 26391466 26412138 
##END=
