##TITLE=3D-Fillies_PLA+_Blue_Filament_r4_ATR-Corrected
##JCAMP-DX=5.01  $$ Nicolet v. 1
##DATATYPE=INFRARED SPECTRUM
##ORIGIN=Curtin University
##OWNER=Nicolet
##LONGDATE=2024/07/18
##TIME=09:39:05
##SPECTROMETER/DATA SYSTEM=Nicolet iS50
##DATA PROCESSING=
Ratio against background
%Transmittance->Absorbance
ATR Correction
Truncated
ElementMultiply or ElementDivide
##COMMENTS=
Number of sample scans: 32
Collection length: 47.28 sec
Sample gain: 1.0
Background collected on: Thu Jul 18 09:37:32 2024 (GMT+08:00);
Number of background scans: 32
Background gain: 1.0
Sample spacing:  1.000
Number of scan points: 16672
Resolution points: 8192
Number of FFT points: 65536
Apodization: N-B strong;
Phase correction: Mertz;
Laser frequency: 15798.3 cm-1
Number of rejected sample scans: 0
Number of rejected background scans: 0
Bench serial number: AUP1200105;
##RESOLUTION=4.000
##XUNITS=1/CM
##YUNITS=ABSORBANCE
##FIRSTX=400.163452
##LASTX=4000.187744
##FIRSTY=0.058923
##MAXX=4000.187744
##MINX=400.163452
##MAXY=1.122962
##MINY=-0.046749
##XFACTOR=1.000000
##YFACTOR=1.000000E-008
##NPOINTS=7468
##DELTAX=0.482125
##ZPD=8192
##XYDATA=(X++(Y..Y))
400.163 5892325 5786115 5679967 5574054 5466539 5356451 5244037 5130990 
404.020 5020174 4914682 4817188 4729443 4652466 4586778 4532585 4489931 
407.877 4458153 4435430 4418560 4403187 4384837 4360062 4327560 4288319 
411.734 4245003 4200261 4155202 4108261 4055331 3990923 3910140 3810687 
415.591 3694342 3567193 3438582 3319198 3218487 3142644 3093221 3067041 
419.448 3057227 3054958 3051485 3039927 3016576 2981317 2937368 2890217 
423.305 2846185 2810769 2787454 2776961 2777442 2785066 2795205 2803456 
427.162 2806664 2803254 2793314 2778071 2759382 2739132 2718904 2699745 
431.019 2682251 2666550 2652400 2639194 2626703 2614677 2603323 2593456 
434.876 2586375 2583523 2585972 2593855 2606216 2620980 2635648 2648024 
438.733 2657020 2663007 2667726 2673503 2682367 2695026 2710465 2725983 
442.590 2737961 2742862 2738264 2723556 2700100 2670851 2639656 2610313 
446.447 2585842 2568004 2557083 2552123 2551247 2552189 2552731 2551129 
450.304 2546390 2538335 2527470 2514796 2501574 2489015 2478125 2469631 
454.161 2463978 2461223 2461056 2462629 2464554 2464937 2461680 2452960 
458.017 2437843 2416685 2391291 2364575 2339843 2319879 2306135 2298274 
461.874 2294324 2291289 2286144 2276466 2262084 2244059 2224533 2205884 
465.731 2189845 2176883 2166094 2155586 2143249 2127573 2108237 2086332 
469.588 2064140 2044391 2029581 2021222 2019413 2022821 2028980 2034903 
473.445 2037784 2035644 2027778 2014787 1998387 1980797 1964097 1949523 
477.302 1937131 1925644 1912964 1896811 1875628 1849277 1819352 1788944 
481.159 1761972 1742170 1732134 1732652 1742632 1759407 1779558 1799773 
485.016 1817530 1831373 1840878 1846165 1847533 1845127 1838930 1828901 
488.873 1815294 1798827 1780755 1762740 1746578 1733897 1725987 1723570 
492.730 1726806 1735193 1747592 1762095 1776888 1789929 1799495 1804595 
496.587 1805071 1801551 1795151 1787049 1778141 1768854 1759237 1749222 
500.444 1738981 1729079 1720479 1714274 1711324 1711950 1715776 1721795 
504.301 1728613 1734677 1738597 1739277 1736055 1728826 1718152 1705342 
508.158 1692378 1681580 1675114 1674339 1679362 1688836 1700308 1710905 
512.015 1718198 1720846 1718854 1713274 1705655 1697320 1688962 1680563 
515.871 1671707 1662007 1651411 1640212 1628865 1617557 1606047 1593690 
519.728 1579845 1564324 1547753 1531541 1517470 1507086 1501058 1498921 
523.585 1499224 1500055 1499705 1497068 1492339 1486321 1480207 1475077 
527.442 1471613 1470008 1470049 1471339 1473392 1475711 1477742 1478897 
531.299 1478671 1476731 1473125 1468304 1463043 1458181 1454371 1451853 
535.156 1450441 1449616 1448757 1447293 1444817 1441006 1435650 1428507 
539.013 1419501 1408817 1397030 1385148 1374434 1366113 1361075 1359630 
542.870 1361517 1366053 1372407 1379786 1387526 1394997 1401494 1406178 
546.727 1408212 1406976 1402409 1395165 1386570 1378329 1372058 1368850 
550.584 1369040 1372194 1377391 1383507 1389537 1394730 1398624 1401012 
554.441 1401924 1401654 1400783 1400102 1400567 1402796 1406784 1411736 
558.298 1416290 1418952 1418809 1416064 1412340 1410250 1412684 1421778 
562.155 1438017 1459922 1484334 1507343 1525437 1536590 1540804 1539954 
566.012 1537098 1535370 1536945 1542361 1550454 1558833 1564691 1565786 
569.869 1561140 1551306 1538246 1524645 1513276 1506198 1504323 1507323 
573.725 1513869 1522184 1530648 1538322 1545176 1552043 1560243 1571094 
577.582 1585460 1603408 1624232 1646542 1668767 1689417 1707447 1722332 
581.439 1733982 1742523 1748152 1750952 1750969 1748314 1743362 1736802 
585.296 1729648 1722997 1717779 1714529 1713297 1713702 1715239 1717542 
589.153 1720602 1724804 1730773 1739015 1749668 1762324 1776062 1789709 
593.010 1802174 1812714 1821106 1827598 1832750 1837239 1841684 1846626 
596.867 1852491 1859608 1868194 1878251 1889537 1901515 1913527 1924930 
600.724 1935324 1944625 1953044 1960875 1968289 1975171 1981162 1985836 
604.581 1989007 1990898 1992214 1993903 1996948 2002058 2009608 2019733 
608.438 2032575 2048420 2067708 2090769 2117490 2146961 2177531 2207126 
612.295 2233889 2256770 2275947 2292685 2308893 2326375 2346200 2368492 
616.152 2392607 2417627 2442916 2468411 2494513 2521725 2550133 2579175 
620.009 2607713 2634419 2658376 2679408 2698185 2715849 2733480 2751635 
623.866 2770196 2788500 2805796 2821708 2836509 2850998 2866233 2883042 
627.723 2901799 2922300 2943956 2966078 2988042 3009378 3029604 3048179 
631.579 3064454 3077898 3088379 3096513 3103720 3112007 3123442 3139524 
635.436 3160635 3185866 3213203 3240111 3264241 3284036 3299095 3310151 
639.293 3318781 3326899 3336272 3348127 3362992 3380716 3400687 3422111 
643.150 3444348 3467079 3490360 3514503 3539798 3566212 3593283 3620061 
647.007 3645385 3668204 3687936 3704637 3718941 3731758 3743927 3755897 
650.864 3767654 3778879 3789270 3798851 3808123 3818007 3829540 3843530 
654.721 3860305 3879619 3900831 3923089 3945654 3967984 3989772 4010855 
658.578 4031125 4050473 4068818 4086202 4102817 4118948 4134928 4150962 
662.435 4167061 4183068 4198723 4213802 4228190 4241933 4255138 4267969 
666.292 4280542 4293002 4305556 4318512 4332278 4347250 4363647 4381419 
670.149 4400180 4419302 4438051 4455786 4472064 4486682 4499636 4511124 
674.006 4521521 4531434 4541741 4553477 4567687 4585081 4605816 4629299 
677.863 4654308 4679298 4702821 4723930 4742248 4757961 4771497 4783278 
681.720 4793526 4802369 4810055 4817167 4824690 4833786 4845420 4859958 
685.577 4876974 4895390 4913924 4931564 4948011 4963699 4979446 4996016 
689.433 5013683 5032021 5050248 5067622 5083976 5099942 5116758 5135776 
693.290 5157825 5182780 5209479 5236095 5260753 5282117 5299748 5314096 
697.147 5326212 5337255 5348164 5359447 5371249 5383483 5395999 5408628 
701.004 5421148 5433226 5444460 5454370 5462632 5469152 5474033 5477501 
704.861 5479656 5480340 5479079 5475287 5468489 5458614 5446091 5431750 
708.718 5416503 5401034 5385497 5369450 5352008 5332176 5309142 5282514 
712.575 5252333 5218934 5182725 5143981 5102689 5058512 5010844 4958885 
716.432 4901797 4838785 4769268 4692923 4609861 4520560 4425886 4327007 
720.289 4225207 4121846 4018274 3915855 3815933 3719903 3629069 3544566 
724.146 3467264 3397681 3336075 3282597 3237527 3201408 3175086 3159600 
728.003 3155920 3164694 3186104 3219866 3265471 3322466 3390682 3470398 
731.860 3562156 3666459 3783386 3912249 4051455 4198638 4351015 4505810 
735.717 4660683 4813901 4964395 5111526 5254834 5393737 5527484 5655199 
739.574 5776086 5889708 5996165 6096139 6190832 6281658 6369941 6456703 
743.431 6542441 6627187 6710586 6792224 6871802 6949424 7025681 7101655 
747.287 7178712 7258224 7341230 7428097 7518378 7610774 7703390 7794118 
751.144 7881016 7962717 8038506 8108251 8171995 8229602 8280279 8322500 
755.001 8354065 8372494 8375416 8361026 8328312 8277113 8207966 8121888 
758.858 8020236 7904584 7776724 7638678 7492657 7340955 7185805 7029220 
762.715 6872904 6718240 6566322 6417909 6273505 6133219 5996705 5863303 
766.572 5732156 5602580 5474369 5347971 5224460 5105173 4991273 4883286 
770.429 4780917 4683189 4588824 4496753 4406596 4318615 4233503 4151879 
774.286 4073769 3998426 3924377 3849886 3773551 3694785 3614042 3532686 
778.143 3452536 3375314 3302245 3233745 3169508 3108640 3050036 2992574 
782.000 2935317 2877582 2818957 2759176 2698121 2635664 2571613 2505677 
785.857 2437535 2366998 2294219 2219923 2145460 2072725 2003792 1940493 
789.714 1884027 1834675 1791910 1754609 1721592 1691942 1665217 1641391 
793.571 1620571 1602700 1587315 1573561 1560401 1546924 1532600 1517387 
797.428 1501532 1485407 1469202 1452759 1435719 1417739 1398802 1379432 
801.285 1360752 1344182 1331102 1322320 1317906 1316997 1317983 1318995 
805.141 1318380 1315170 1309316 1301666 1293663 1286894 1282585 1281253 
808.998 1282598 1285674 1289274 1292350 1294390 1295469 1296114 1296942 
812.855 1298273 1299958 1301399 1301888 1301079 1299296 1297700 1298015 
816.712 1301969 1310670 1324130 1341109 1359455 1376694 1390717 1400395 
820.569 1405729 1407698 1407766 1407360 1407443 1408352 1409958 1411902 
824.426 1413942 1416043 1418407 1421285 1424770 1428726 1432762 1436475 
828.283 1439628 1442352 1445170 1448895 1454408 1462409 1473235 1486836 
832.140 1502848 1520740 1539999 1560243 1581372 1603492 1626860 1651922 
835.997 1679216 1709372 1743065 1780919 1823489 1871130 1924002 1982068 
839.854 2045148 2113028 2185484 2262263 2343033 2427245 2514006 2602100 
843.711 2690020 2776159 2859056 2937541 3010874 3078637 3140651 3196769 
847.568 3246818 3290613 3328227 3360240 3388073 3414121 3441648 3474583 
851.425 3516999 3572724 3644964 3736102 3847748 3980831 4135711 4312301 
855.282 4510026 4727721 4963492 5214698 5478023 5749672 6025673 6302113 
859.139 6575339 6842001 7099037 7343684 7573537 7786666 7981910 8158924 
862.995 8318259 8461116 8588962 8703088 8804173 8892098 8965938 9024259 
866.852 9065565 9088748 9093468 9080222 9050297 9005362 8947024 8876387 
870.709 8793800 8698814 8590345 8467085 8327891 8172087 7999693 7811394 
874.566 7608500 7392753 7166276 6931504 6691085 6447816 6204441 5963445 
878.423 5726882 5496301 5272746 5057015 4849927 4652506 4466082 4292243 
882.280 4132605 3988588 3861195 3750934 3657835 3581540 3521386 3476503 
886.137 3445778 3427906 3421381 3424616 3436090 3454506 3478828 3508203 
889.994 3541704 3578098 3615608 3652012 3684836 3711886 3731731 3743971 
893.851 3749296 3749158 3745187 3738752 3730585 3720758 3709038 3695297 
897.708 3679888 3663792 3648465 3635418 3625750 3619811 3617115 3616414 
901.565 3616141 3614738 3610944 3604091 3594124 3581575 3567582 3553736 
905.422 3541924 3534016 3531544 3535230 3544741 3558616 3574523 3589756 
909.279 3601887 3609312 3611569 3609309 3604020 3597480 3591311 3586634 
913.136 3583935 3583120 3583692 3584915 3585978 3586058 3584442 3580590 
916.993 3574224 3565427 3554616 3542408 3529456 3516185 3502670 3488613 
920.849 3473537 3457070 3439236 3420626 3402362 3385845 3372329 3362609 
924.706 3356694 3353805 3352566 3351370 3348847 3344079 3336799 3327330 
928.563 3316376 3304795 3293369 3282658 3273095 3264950 3258488 3253953 
932.420 3251556 3251344 3253102 3256321 3260269 3264144 3267309 3269430 
936.277 3270607 3271295 3272181 3274009 3277461 3283156 3291667 3303625 
940.134 3319682 3340400 3366095 3396558 3430996 3468134 3506497 3544826 
943.991 3582507 3619723 3657431 3697054 3740080 3787601 3840172 3897777 
947.848 3960003 4026248 4095931 4168528 4243442 4319894 4396821 4472920 
951.705 4546763 4617018 4682539 4742478 4796217 4843270 4882992 4914562 
955.562 4936778 4948046 4946353 4929416 4894809 4840385 4764693 4667482 
959.419 4550070 4415472 4268200 4113715 3957711 3805420 3661007 3527358 
963.276 3406122 3297999 3203076 3121035 3051337 2993272 2945883 2908093 
967.133 2878741 2856742 2841132 2831136 2826044 2825123 2827590 2832679 
970.990 2839782 2848660 2859415 2872490 2888357 2907239 2928905 2952619 
974.847 2977403 3002371 3027067 3051660 3076915 3103858 3133449 3166216 
978.703 3202102 3240530 3280589 3321332 3361963 3401975 3441171 3479619 
982.560 3517660 3555802 3594749 3635230 3677925 3723215 3771086 3821122 
986.417 3872677 3925081 3977988 4031562 4086322 4143105 4202664 4265406 
990.274 4331232 4399567 4469596 4540479 4611735 4683241 4755265 4828379 
994.131 4903248 4980565 5060944 5144911 5232905 5325249 5422056 5523209 
997.988 5628291 5736701 5847729 5960830 6075718 6192612 6312151 6435374 
1001.845 6563478 6697618 6838607 6986808 7142139 7304173 7472404 7646564 
1005.702 7826874 8014180 8209856 8415569 8632969 8863383 9107607 9366006 
1009.559 9638665 9925649 10227200 10543762 10875808 11223579 11586942 
1012.934 11965288 12357716 12763356 13181762 13613047 14057890 14517258 
1016.309 14991882 15481815 15986156 16502923 17029278 17561942 18097476 
1019.683 18632674 19164776 19691506 20211048 20722010 21223400 21714664 
1023.058 22195698 22666950 23129452 23584888 24035650 24484826 24936142 
1026.433 25393712 25861734 26344124 26844108 27364084 27905720 28470314 
1029.809 29059274 29674578 30318862 30995176 31706206 32453328 33235836 
1033.184 34050332 34890908 35749740 36618120 37487368 38349488 39197340 
1036.559 40024312 40823888 41589312 42313644 42990284 43613592 44179352 
1039.934 44684924 45128736 45509736 45826696 46077984 46261980 46377760 
1043.310 46425848 46408840 46331368 46199672 46020772 45801868 45549548 
1046.685 45269780 44967720 44647984 44314744 43971944 43623348 43272744 
1050.060 42923800 42580104 42244948 41921028 41610112 41313032 41029648 
1053.435 40759264 40501096 40254860 40021028 39801036 39597240 39412820 
1056.811 39251748 39118912 39020376 38963660 38957516 39011880 39137076 
1060.186 39343060 39638640 40030948 40525060 41124104 41829308 42640376 
1063.561 43555528 44571640 45684160 46887232 48173760 49535720 50964428 
1066.936 52450788 53985328 55558252 57159228 58777620 60402924 62025608 
1070.312 63637944 65234788 66813512 68373520 69914832 71436784 72936712 
1073.687 74409632 75848112 77243264 78585640 79866344 81077752 82214192 
1077.062 83271912 84248736 85143456 85954864 86680336 87315104 87851592 
1080.437 88280328 88590600 88772616 88818880 88725312 88491408 88120160 
1083.813 87617392 86991272 86252360 85413208 84487664 83490208 82434664 
1087.188 81333464 80197064 79034160 77852312 76658568 75459664 74261920 
1090.563 73070536 71889080 70719224 69561104 68413976 67277096 66150288 
1093.938 65034080 63929356 62836860 61756812 60688900 59632488 58587116 
1097.313 57552700 56529712 55518788 54520524 53534948 52561652 51599848 
1100.689 50648856 49708364 48778684 47860824 46956308 46066904 45194656 
1104.064 44341704 43510360 42703092 41922600 41171572 40452792 39768940 
1107.439 39122672 38516504 37952784 37433548 36960488 36534688 36156760 
1110.814 35826756 35544280 35308744 35119140 34974064 34871556 34808952 
1114.190 34783040 34790224 34827004 34890460 34978612 35090508 35226200 
1117.565 35386420 35572112 35784220 36023428 36290128 36584312 36905552 
1120.940 37252704 37623604 38014852 38421416 38836736 39252708 39659996 
1124.315 40048336 40406932 40724928 40991964 41198848 41338368 41405996 
1127.691 41400252 41322596 41176780 40967948 40701444 40381996 40013196 
1131.066 39597552 39136788 38632204 38084896 37495912 36866044 36195756 
1134.441 35485228 34734584 33944336 33115816 32251554 31355390 30432322 
1137.816 29488174 28529146 27561262 26590136 25620580 24656742 23702224 
1141.192 22760474 21835088 20930098 20050150 19200172 18385076 17609198 
1144.567 16875960 16187567 15545054 14948463 14397244 13890520 13427271 
1147.942 13006514 12627113 12287784 11986949 11722774 11493147 11295817 
1151.317 11128479 10988868 10874781 10784242 10715467 10667013 10637802 
1154.693 10627139 10634666 10660324 10704213 10766575 10847738 10948142 
1158.068 11068414 11209395 11372097 11557697 11767447 12002710 12265005 
1161.443 12556130 12878384 13234656 13628547 14064245 14546452 15080112 
1164.818 15670328 16322339 17041690 17834410 18707174 19667506 20723582 
1168.194 21884062 23157682 24552898 26077512 27738362 29540998 31489310 
1171.569 33584912 35826304 38207816 40718596 43341788 46054016 48825248 
1174.944 51619296 54394472 57104664 59700604 62131684 64348232 66304336 
1178.319 67960728 69287568 70266344 70890776 71166736 71111288 70751008 
1181.695 70119944 69256928 68202896 66998016 65679628 64280804 62829952 
1185.070 61351068 59864408 58387016 56933172 55514504 54139884 52815656 
1188.445 51545852 50332708 49177276 48079832 47040104 46057376 45130332 
1191.820 44257124 43435536 42663160 41937880 41258016 40622480 40030536 
1195.196 39481548 38974608 38508300 38080676 37689312 37331580 37004756 
1198.571 36706284 36433756 36184940 35957824 35750464 35561096 35387984 
1201.946 35229476 35083936 34949700 34825084 34708320 34597708 34491472 
1205.321 34387600 34283792 34177380 34065284 33944232 33811076 33663092 
1208.697 33498334 33315700 33114788 32895694 32658658 32403824 32131192 
1212.072 31840562 31531746 31204560 30858990 30495098 30113166 29713884 
1215.447 29298372 28868518 28426898 27976626 27520976 27062988 26605150 
1218.822 26149204 25696302 25247254 24802798 24363678 23930644 23504274 
1222.198 23084812 22672128 22265920 21865916 21472230 21085464 20706550 
1225.573 20336572 19976348 19626260 19286234 18955950 18635182 18323974 
1228.948 18022828 17732466 17453570 17186470 16930900 16686213 16451491 
1232.323 16225962 16009267 15801507 15603136 15414576 15235980 15066971 
1235.698 14906743 14754099 14607948 14467576 14332817 14204070 14082101 
1239.074 13967694 13861351 13763034 13672116 13587472 13507760 13431658 
1242.449 13358164 13286783 13217553 13151008 13088080 13029902 12977666 
1245.824 12932435 12895064 12866025 12845355 12832595 12826838 12826875 
1249.199 12831390 12839232 12849666 12862544 12878335 12897980 12922700 
1252.575 12953669 12991847 13037708 13091311 13152243 13219774 13292906 
1255.950 13370502 13451345 13534248 13618165 13702370 13786487 13870497 
1259.325 13954668 14039315 14124602 14210297 14295755 14380032 14461993 
1262.700 14540637 14615139 14684860 14749223 14807484 14858617 14901328 
1266.076 14934167 14955786 14965099 14961429 14944415 14913963 14869982 
1269.451 14812331 14740813 14655276 14555672 14442165 14315055 14174755 
1272.826 14021617 13855889 13677861 13487878 13286521 13074636 12853323 
1276.201 12623690 12386716 12143102 11893237 11637366 11375748 11108939 
1279.577 10837926 10564168 10289521 10016043 9745774 9480678 9222414 8972434 
1283.434 8731955 8502031 8283612 8077547 7884591 7705474 7540948 7391798 
1287.292 7258957 7143394 7046108 6967835 6909019 6869530 6848675 6845256 
1291.149 6857685 6884233 6923132 6972729 7031431 7097656 7169740 7245975 
1295.006 7324524 7403671 7481777 7557469 7629646 7697519 7760498 7818223 
1298.864 7870495 7917243 7958540 7994549 8025557 8051884 8073934 8092146 
1302.721 8107072 8119316 8129511 8138275 8146004 8152825 8158489 8162445 
1306.579 8163969 8162441 8157509 8149316 8138454 8125888 8112622 8099531 
1310.436 8087156 8075662 8064885 8054546 8044411 8034327 8024318 8014533 
1314.293 8005097 7996157 7987761 7979969 7972875 7966593 7961248 7956946 
1318.151 7953721 7951555 7950350 7950060 7950678 7952241 7954757 7958172 
1322.008 7962309 7966909 7971772 7976865 7982517 7989396 7998484 8010788 
1325.866 8027173 8048127 8073694 8103531 8137177 8174238 8214534 8258270 
1329.723 8305854 8357845 8414646 8476477 8543251 8614624 8690086 8769094 
1333.581 8851202 8936093 9023640 9113967 9207373 9304301 9405274 9510734 
1337.438 9620929 9735806 9854995 9977981 10104230 10233448 10365798 10501886 
1341.295 10642587 10788889 10941541 11100904 11266877 11439076 11617050 
1344.671 11800495 11989418 12184104 12385006 12592486 12806730 13027629 
1348.046 13254721 13487333 13724466 13964787 14206518 14447476 14685182 
1351.421 14917094 15141024 15355402 15559494 15753210 15936780 16110295 
1354.796 16273336 16424857 16563304 16687061 16794876 16886294 16961776 
1358.172 17022592 17070494 17107382 17134892 17154296 17166430 17171844 
1361.547 17171020 17164538 17153114 17137530 17118468 17096184 17070260 
1364.922 17039434 17001452 16953250 16891138 16811212 16709729 16583535 
1368.297 16430439 16249666 16042143 15810835 15560958 15300135 15038155 
1371.673 14786677 14558491 14366668 14223549 14139722 14123067 14178063 
1375.048 14305319 14501490 14759573 15069361 15418163 15791602 16174425 
1378.423 16551366 16908012 17231556 17511228 17738556 17907294 18013206 
1381.798 18053884 18028494 17937628 17783248 17568448 17297324 16974678 
1385.174 16606051 16197422 15755253 15286171 14796649 14292492 13778542 
1388.549 13258311 12734275 12208097 11681193 11155067 10631650 10113202 
1391.924 9602267 9101436 8613291 8140404 7685373 7250853 6839465 6453564 
1395.781 6095018 5764964 5463767 5190978 4945513 4725844 4530076 4356064 
1399.639 4201585 4064314 3941922 3832199 3733147 3643113 3560810 3485355 
1403.496 3416219 3353146 3295971 3244473 3198351 3157139 3120272 3087203 
1407.354 3057462 3030759 3006839 2985456 2966247 2948663 2932042 2915718 
1411.211 2899221 2882432 2865641 2849436 2834588 2821837 2811718 2804562 
1415.069 2800473 2799400 2801228 2805679 2812393 2820803 2830282 2840186 
1418.926 2850172 2860204 2870736 2882515 2896375 2912976 2932669 2955481 
1422.783 2981268 3009869 3041355 3076022 3114284 3156548 3203017 3253604 
1426.641 3308028 3366008 3427384 3492358 3561455 3635493 3715403 3802114 
1430.498 3896439 3998966 4110156 4230335 4359856 4499240 4649421 4811949 
1434.356 4989136 5183932 5399949 5640948 5910568 6212035 6548138 6921229 
1438.213 7333485 7786865 8283046 8822908 9406182 10030862 10693220 11387826 
1442.071 12107904 12845713 13592838 14340326 15078990 15799694 16493863 
1445.446 17154046 17774422 18350836 18880762 19362838 19796582 20182010 
1448.821 20519526 20809816 21053844 21252654 21407256 21518572 21587368 
1452.196 21614258 21599754 21544064 21446924 21307424 21124030 20894904 
1455.572 20618620 20294782 19924560 19510674 19056936 18567542 18046432 
1458.947 17497040 16922558 16326404 15712526 15085578 14450672 13812932 
1462.322 13177142 12547572 11928122 11322346 10733557 10164672 9617956 
1465.697 9094859 8596045 8121667 7671736 7246484 6846346 6471754 6122804 
1469.555 5798897 5498695 5220291 4961583 4720627 4495842 4285995 4090064 
1473.412 3907111 3736292 3576963 3428880 3292259 3167639 3055560 2956154 
1477.270 2868856 2792381 2724871 2664385 2609246 2558354 2511106 2467394 
1481.127 2427202 2390539 2357296 2327314 2300372 2276332 2254957 2235909 
1484.984 2218702 2202731 2187350 2172161 2157026 2142140 2127894 2114677 
1488.842 2102662 2091685 2081355 2071164 2060645 2049535 2037848 2025824 
1492.699 2013799 2002151 1991182 1981121 1972009 1963842 1956375 1949348 
1496.557 1942486 1935636 1928889 1922562 1917121 1913037 1910501 1909370 
1500.414 1909062 1908867 1908046 1906137 1903085 1899159 1894804 1890391 
1504.271 1886067 1881724 1877046 1871804 1865907 1859514 1852933 1846557 
1508.129 1840611 1835195 1830284 1825880 1822034 1818973 1816897 1815999 
1511.986 1816213 1817266 1818685 1819956 1820659 1820533 1819476 1817526 
1515.844 1814718 1811081 1806620 1801392 1795468 1789081 1782452 1775836 
1519.701 1769390 1763112 1756997 1750893 1744666 1738285 1731726 1725043 
1523.559 1718330 1711738 1705474 1699781 1694895 1690975 1688064 1685971 
1527.416 1684329 1682638 1680431 1677351 1673234 1668148 1662336 1656100 
1531.273 1649740 1643564 1637795 1632653 1628252 1624573 1621458 1618550 
1535.131 1615411 1611550 1606670 1600682 1593788 1586420 1579090 1572294 
1538.988 1566319 1561306 1557157 1553685 1550618 1547727 1544760 1541577 
1542.846 1538089 1534436 1530802 1527616 1525213 1523788 1523205 1523030 
1546.703 1522515 1521023 1518156 1513980 1509067 1504262 1500325 1497631 
1550.561 1496027 1494858 1493241 1490503 1486407 1481272 1475903 1471214 
1554.418 1467913 1466278 1466053 1466644 1467310 1467480 1466763 1465145 
1558.275 1462791 1459983 1457066 1454328 1452042 1450446 1449689 1449830 
1562.133 1450738 1452142 1453638 1454796 1455250 1454809 1453509 1451551 
1565.990 1449268 1447037 1445244 1444172 1444011 1444821 1446482 1448684 
1569.848 1450962 1452843 1453863 1453889 1453011 1451706 1450618 1450450 
1573.705 1451811 1455037 1460162 1466906 1474769 1483097 1491174 1498370 
1577.563 1504112 1508008 1509902 1509844 1508149 1505377 1502133 1499111 
1581.420 1496805 1495547 1495376 1496201 1497837 1500106 1502902 1506203 
1585.277 1510049 1514472 1519430 1524826 1530483 1536197 1541770 1547077 
1589.135 1552049 1556700 1561122 1565412 1569677 1574064 1578664 1583688 
1592.992 1589254 1595608 1602814 1610842 1619377 1627952 1635871 1642523 
1596.850 1647467 1650734 1652789 1654540 1656949 1660851 1666629 1674077 
1600.707 1682520 1691071 1698986 1705950 1712144 1718229 1725041 1733329 
1604.564 1743477 1755468 1768909 1783300 1798111 1812966 1827576 1841743 
1608.422 1855236 1867787 1879192 1889416 1898610 1907290 1916053 1925562 
1612.279 1936220 1948122 1960983 1974294 1987505 2000197 2012221 2023691 
1616.137 2034845 2045973 2057154 2068314 2079146 2089272 2098422 2106467 
1619.994 2113482 2119694 2125351 2130584 2135322 2139254 2141913 2142926 
1623.852 2141976 2139162 2134825 2129614 2124283 2119527 2115851 2113606 
1627.709 2112832 2113447 2115190 2117724 2120604 2123291 2125210 2125872 
1631.566 2124969 2122471 2118667 2114153 2109542 2105385 2101928 2099111 
1635.424 2096521 2093638 2090001 2085367 2079640 2073029 2065748 2058067 
1639.281 2050219 2042435 2034899 2027823 2021302 2015355 2009763 2004228 
1643.139 1998456 1992322 1985950 1979821 1974579 1970825 1968885 1968621 
1646.996 1969483 1970677 1971400 1971168 1969841 1967704 1965194 1962931 
1650.854 1961424 1961109 1962345 1965410 1970458 1977480 1986190 1996101 
1654.711 2006542 2016861 2026583 2035573 2043941 2052049 2060224 2068710 
1658.568 2077473 2086281 2094840 2102878 2110310 2117235 2123842 2130396 
1662.426 2137113 2144197 2151808 2160111 2169226 2179205 2189931 2201141 
1666.283 2212456 2223591 2234534 2245576 2257281 2270300 2285041 2301500 
1670.141 2319098 2336846 2353773 2369082 2382479 2394236 2404930 2415321 
1673.998 2425960 2437214 2449222 2462042 2475831 2490865 2507481 2525898 
1677.855 2546120 2567787 2590273 2612876 2634979 2656309 2676953 2697295 
1681.713 2717908 2739366 2762132 2786470 2812441 2839822 2868225 2897102 
1685.570 2925831 2953907 2981025 3007275 3033154 3059504 3087383 3117902 
1689.428 3151911 3189906 3231850 3277268 3325271 3374816 3424849 3474626 
1693.285 3523792 3572570 3621736 3672530 3726276 3784100 3846606 3913668 
1697.143 3984543 4058161 4133589 4210295 4288351 4368502 4451886 4539855 
1701.000 4633478 4733663 4840846 4955201 5076724 5205232 5340365 5481587 
1704.857 5628247 5779770 5935833 6096640 6262913 6435895 6616991 6807544 
1708.715 7008502 7220361 7443093 7676386 7919696 8172469 8434094 8704115 
1712.572 8981988 9267436 9560290 9860661 10168906 10485392 10810411 11144047 
1716.430 11485998 11835694 12192488 12555900 12925728 13302127 13685636 
1719.805 14077128 14477745 14889066 15313226 15753102 16212283 16695078 
1723.180 17206104 17749938 18330814 18952354 19617736 20329914 21092038 
1726.555 21908052 22782620 23721382 24730272 25815168 26981332 28233054 
1729.931 29573902 31007418 32537890 34171240 35915012 37777652 39766972 
1733.306 41888080 44141668 46523588 49025724 51638420 54352940 57163364 
1736.681 60066400 63059516 66137988 69292056 72505232 75754928 79014192 
1740.056 82254640 85448256 88568184 91587928 94480728 97219592 99778984 
1743.432 102136624 104275216 106181896 107846568 109259448 110410416 
1746.325 111290288 111894432 112225768 112296168 112124160 111730680 
1749.218 111134216 110348424 109382464 108244216 106943880 105496072 
1752.111 103918944 102231120 100448048 98579656 96630352 94601400 92494240 
1755.486 90313360 88067648 85770056 83435752 81080368 78718200 76361960 
1758.861 74022672 71710288 69434192 67203384 65026392 62911092 60864456 
1762.237 58892124 56997992 55183936 53449500 51792176 50207888 48692096 
1765.612 47240680 45850800 44521080 43251304 42041468 40890732 39796840 
1768.987 38755684 37761812 36808984 35891064 35002528 34138764 33295994 
1772.362 32470924 31660476 30861508 30070790 29284924 28500628 27715054 
1775.738 26926052 26132354 25333900 24531560 23727026 22922250 22119286 
1779.113 21319834 20525542 19737980 18958964 18190578 17435074 16694605 
1782.488 15970910 15265274 14578590 13911788 13266100 12643284 12045629 
1785.863 11475476 10934882 10425137 9946669 9498931 9080837 8690821 8327242 
1789.721 7988351 7672361 7377403 7101710 6843448 6601229 6373966 6161152 
1793.578 5962584 5778332 5608324 5452257 5309310 5178285 5057567 4945399 
1797.436 4840006 4739829 4643624 4550571 4460232 4372595 4287915 4206714 
1801.293 4129653 4057336 3990176 3928353 3871618 3819419 3770902 3725294 
1805.150 3681890 3640454 3601036 3563960 3529293 3496658 3464915 3432254 
1809.008 3396549 3356110 3310160 3259392 3205800 3152179 3101177 3054507 
1812.865 3012371 2973562 2936011 2897966 2858697 2819222 2782082 2750674 
1816.723 2728122 2716194 2714571 2720847 2730974 2740458 2745061 2741799 
1820.580 2729068 2706785 2676025 2638751 2597375 2554495 2512434 2473098 
1824.438 2437556 2406132 2378462 2353903 2331676 2311288 2292253 2274153 
1828.295 2256210 2237320 2216132 2191503 2162925 2130885 2096716 2062333 
1832.152 2029522 1999447 1972288 1947564 1924304 1901811 1879810 1858556 
1836.010 1838344 1819327 1801014 1782546 1762760 1740845 1716509 1690189 
1839.867 1662655 1634775 1607089 1579766 1552692 1525844 1499327 1473718 
1843.725 1449542 1427488 1407973 1391338 1378026 1368642 1363840 1364047 
1847.582 1368811 1376481 1384205 1388680 1387034 1378048 1362610 1343706 
1851.439 1325264 1310964 1302691 1300178 1300997 1301785 1299345 1291852 
1855.297 1279021 1261976 1242358 1221599 1200453 1179270 1158263 1138238 
1859.154 1120618 1107265 1099823 1099196 1104950 1115460 1128079 1140105 
1863.012 1148896 1152663 1150305 1141925 1128359 1111549 1093976 1078659 
1866.869 1068013 1063531 1064953 1070308 1076237 1079164 1076234 1066478 
1870.727 1050753 1031581 1012154 995383 983172 976378 974813 977936 984939 
1875.066 994921 1006582 1018201 1027522 1032308 1030860 1022631 1008318 
1878.924 989752 968976 947797 927048 906911 887071 867749 849638 834439 
1883.263 823823 819237 820935 828096 839029 851774 864527 876075 885533 
1887.603 892195 895149 893594 887026 875963 861846 847116 834312 825168 
1891.942 819952 817406 815290 811481 804945 796220 787257 780509 777771 
1896.282 779625 785114 792669 800648 808453 816543 826157 838096 852105 
1900.622 866155 876890 880558 874316 857364 831573 801032 771149 747241 
1904.961 733088 729949 736205 747615 758477 762942 756583 737743 708212 
1909.301 672848 638603 612688 600809 605400 625430 656362 691876 724981 
1913.640 750240 764253 766462 758625 744253 727519 712669 702663 698861 
1917.980 700575 704860 707332 703380 689515 665178 632986 598534 568745 
1922.320 549626 544063 550556 563393 574613 576369 563752 536136 497503 
1926.659 454730 415704 386750 371722 370980 382257 401391 423475 443345 
1930.999 456462 459323 450318 429796 400394 366246 331863 300397 272882 
1935.338 247994 223511 197854 172088 150484 139666 146037 173199 219508 
1939.678 278347 339412 392521 430685 452592 461962 465843 470782 480328 
1944.018 493254 504880 508869 500676 479114 447044 409629 372789 340217 
1948.357 313420 291712 273944 259942 251607 252155 264694 290042 325533 
1952.697 364298 396858 413319 406089 372014 313746 238866 158237 82971 22321 
1957.519 -18936 -40964 -48594 -48957 -50065 -57320 -72917 -95022 -119826 
1961.858 -142376 -158942 -166841 -165564 -155649 -138913 -118140 -98049 
1965.716 -84729 -85375 -105391 -146047 -201195 -257057 -294107 -292138 
1969.573 -236958 -126463 27438 199516 357887 471799 520819 498319 413513 
1973.913 287150 146527 18179 -75219 -118461 -103324 -29271 96888 260529 
1978.252 440984 613053 753962 847602 888673 883360 847041 799315 758409 
1982.592 736310 735893 750888 769639 778876 769065 736383 684196 620010 
1986.931 553442 492641 443306 407378 384877 373477 370376 370320 367111 
1991.271 352519 318454 258429 170508 59191 -64089 -183774 -282960 -348726 
1995.611 -375115 -364992 -327926 -277161 -224897 -179122 -142041 -111382 
1999.468 -83510 -57093 -35525 -27402 -43310 -92159 -176088 -288594 -413032 
2003.808 -527897 -610221 -642866 -618101 -540465 -424510 -291190 -161326 
2007.665 -51171 31017 83834 111077 117837 108416 85161 49400 1726 -55678 
2012.487 -120085 -187770 -256472 -325685 -397893 -477114 -567096 -668603 
2016.344 -777153 -881942 -967390 -1015109 -1008939 -938390 -802998 -613456 
2020.202 -391559 -166701 27661 161320 212244 171972 46356 -144070 -368536 
2024.541 -590964 -777725 -903840 -958034 -943895 -878391 -786407 -694309 
2028.399 -623787 -587163 -586100 -612865 -654179 -695753 -725013 -733437 
2032.256 -715079 -666554 -585682 -472485 -329517 -164557 10640 180708 331146 
2036.596 450361 534246 584436 607844 611103 597874 565720 508374 417483 
2040.935 289125 126937 -56039 -239319 -399402 -516009 -576164 -577222 
2044.793 -524982 -430299 -303923 -152716 21431 218684 437335 668463 893890 
2049.132 1088073 1224574 1283113 1256579 1152037 990131 798975 609522 449029 
2053.472 336536 279486 273918 306360 358873 413433 456205 478884 478942 
2057.812 457965 420763 373859 325617 285045 261127 260928 287876 340245 
2062.151 410953 488882 561598 618240 652312 662290 651466 625475 590810 
2066.491 552699 515240 481189 453414 434553 426836 431076 445890 467443 
2070.830 490887 511290 526018 534953 540384 545140 551011 557597 562755 
2075.170 563730 559702 552662 547820 551804 570211 605056 653956 710131 
2079.510 765075 810593 841507 855991 855604 843367 823194 798254 771618 
2083.849 746419 726436 715268 715977 729030 752071 779347 803483 817152 
2088.189 815379 796618 763018 718939 669567 618811 569133 521411 476257 
2092.528 435033 400524 376326 365998 371092 390234 418566 449370 475108 
2096.868 490080 491185 479007 456336 427652 397273 368546 343258 322142 
2101.208 305297 292868 285278 283261 287359 297312 311691 328129 343619 
2105.547 355757 363369 367250 369773 374240 383449 398572 418687 441238 
2109.887 462977 481862 497588 512586 530429 554620 586387 623756 661178 
2114.226 691171 706007 700130 671165 620713 553022 474244 390382 306876 
2118.566 228157 158063 100040 57341 32239 25449 34743 54938 78187 95348 
2123.388 97884 79628 37853 -26234 -108497 -202567 -301457 -398047 -486281 
2127.727 -560996 -618926 -659222 -684506 -700769 -717302 -744331 -790506 
2131.585 -859072 -945640 -1037617 -1116774 -1164233 -1166843 -1122562 
2134.960 -1042819 -949833 -870959 -829332 -838129 -896380 -990958 -1101853 
2138.817 -1209392 -1299608 -1367313 -1414216 -1445371 -1464932 -1473720 
2142.193 -1469748 -1451643 -1421841 -1389420 -1367509 -1370715 -1408057 
2145.568 -1479222 -1572656 -1669797 -1750387 -1800058 -1814500 -1801048 
2148.943 -1774652 -1752324 -1747488 -1766772 -1809765 -1871589 -1947066 
2152.318 -2033736 -2133461 -2253413 -2403567 -2595156 -2837658 -3134856 
2155.694 -3480178 -3852757 -4213874 -4508937 -4674948 -4659332 -4438853 
2159.069 -4038278 -3528008 -3006336 -2564678 -2260319 -2103757 -2063670 
2162.444 -2083760 -2104240 -2079760 -1992211 -1850850 -1683944 -1525891 
2165.819 -1402608 -1322083 -1275482 -1241721 -1198630 -1131830 -1040410 
2169.195 -936664 -841755 -778019 -762413 -800935 -888466 -1010564 -1149250 
2173.052 -1287382 -1413840 -1523722 -1618314 -1700498 -1773076 -1835174 
2176.427 -1882424 -1908644 -1908833 -1881142 -1828267 -1755732 -1671107 
2179.802 -1581140 -1491089 -1404635 -1325390 -1257677 -1206078 -1173515 
2183.178 -1158355 -1151692 -1138212 -1099399 -1020166 -894925 -732521 
2186.553 -554461 -391151 -271221 -213318 -219493 -274770 -352245 -421868 
2190.410 -460045 -456014 -413732 -348219 -279308 -224835 -195003 -191231 
2194.268 -207255 -234144 -263148 -289428 -312377 -334887 -360253 -389959 
2198.125 -421953 -450754 -469118 -470918 -454177 -422866 -386745 -359082 
2201.983 -352030 -371917 -416360 -473400 -524650 -550998 -539351 -487417 
2205.840 -404987 -312061 -231929 -184277 -178863 -213314 -273552 -339249 
2209.698 -388839 -405799 -381042 -313707 -209670 -79569 63549 205504 332113 
2214.037 430446 490574 507507 482414 423616 344913 262860 193973 150509 
2218.377 138749 158350 203662 265969 336367 407586 475419 538052 595477 
2222.716 647824 694137 731376 755172 760662 744659 707078 652111 587659 
2227.056 523385 468150 427366 401639 386888 376389 363618 344508 318935 
2231.396 290051 262920 242183 231126 230724 240789 260390 288744 324698 
2235.735 366502 410722 453173 489365 517171 537637 555438 576914 607528 
2240.075 648855 697239 743945 778282 790565 775569 733691 670413 594110 
2244.414 513566 436154 367507 312017 273408 255276 259922 286953 332576 
2248.754 389145 447126 497404 533996 555279 564265 566486 568311 574672 
2253.094 588612 611403 643087 682835 728879 777450 822650 856668 871916 
2257.433 863455 831494 782112 726311 676961 645250 637322 653134 687053 
2261.773 730208 773808 811308 839754 859474 872742 882596 891758 902204 
2266.112 915370 932029 952537 976638 1003420 1031313 1058695 1084172 1106700 
2270.452 1125819 1140938 1151763 1157932 1159824 1158843 1157953 1160783 
2274.309 1170507 1188512 1213266 1240403 1264290 1280000 1285300 1281459 
2278.167 1272815 1264634 1261124 1263869 1271857 1282620 1294506 1307647 
2282.024 1324649 1348837 1382436 1424541 1470774 1514274 1548137 1567670 
2285.882 1572017 1563861 1548236 1530013 1512655 1497379 1483816 1471310 
2289.739 1460079 1451424 1447340 1449108 1456447 1466965 1477034 1482734 
2293.596 1481558 1472889 1458294 1440423 1422146 1405624 1391976 1381426 
2297.454 1373906 1369416 1368020 1369620 1373769 1379357 1385118 1389768 
2301.311 1392788 1394224 1394725 1394824 1394528 1393187 1389840 1383898 
2305.169 1375701 1366757 1359491 1356305 1358773 1367086 1379854 1394846 
2309.026 1409738 1422845 1433638 1442371 1449974 1457269 1464794 1472827 
2312.884 1481540 1491316 1502754 1516495 1533101 1552583 1574360 1597304 
2316.741 1620069 1641216 1659816 1675482 1688954 1702145 1718250 1741246 
2320.598 1775048 1821895 1880914 1946886 2010376 2059077 2080610 2065488 
2324.456 2009705 1915972 1793032 1654037 1513463 1384624 1277057 1195515 
2328.313 1139731 1105755 1087658 1079434 1076294 1075260 1074866 1074557 
2332.171 1074123 1073260 1071552 1068640 1064500 1059420 1054018 1049013 
2336.028 1045022 1042407 1041362 1041812 1043561 1046406 1050067 1054270 
2339.885 1058733 1063127 1067179 1070628 1073264 1074936 1075534 1075096 
2343.743 1073802 1071936 1069864 1067838 1065811 1063423 1059933 1054485 
2347.600 1046443 1035646 1022638 1008581 994873 982884 973367 966458 961662 
2351.940 958225 955479 953007 950904 949383 948751 948969 949738 950413 
2356.280 950411 949171 946291 941636 934897 925783 914000 899287 881849 
2360.619 862293 841676 821307 802260 785014 769467 754800 740185 724871 
2364.959 708970 693198 678915 667704 660839 659064 662396 670255 681538 
2369.298 695111 709664 724035 737093 747823 755534 759829 760878 759417 
2373.638 756687 754004 752786 754081 758412 765751 775577 786796 797934 
2377.978 807274 813117 814068 809537 800030 787341 774354 764535 761025 
2382.317 765926 779484 800226 824945 849831 871322 887088 896388 900269 
2386.657 900898 901032 902954 908029 916300 926699 937295 945923 950677 
2390.996 950493 945160 935482 923074 909974 898263 889812 885871 887073 
2395.336 893207 903507 916576 930813 944457 956047 964596 969803 971996 
2399.676 972055 971006 969595 967991 965567 961191 953631 942229 927409 
2404.015 910817 895321 884089 879878 884396 897600 917793 942152 967298 
2408.355 990085 1007977 1019544 1024191 1022331 1015003 1003840 990948 
2412.212 978625 968953 963571 963214 967605 975848 986462 998181 1010074 
2416.552 1021772 1033273 1044481 1054861 1063189 1067717 1066691 1058771 
2420.409 1043657 1022278 996797 970300 946066 927003 915281 911704 915783 
2424.749 925836 939258 953093 964704 972199 974786 972829 967444 959898 
2429.088 951285 942019 932028 921270 909818 898680 889399 883797 883151 
2433.428 887603 895781 905257 912962 916537 914895 908644 899989 891925 
2437.768 887386 888343 895510 908223 924799 942886 960084 974198 983502 
2442.107 987069 984838 977942 968542 959475 953788 953846 960509 972941 
2446.447 988439 1003135 1013164 1015484 1008961 994654 975594 955874 939615 
2450.786 929847 927760 932507 941649 951993 960529 965377 966207 964041 
2455.126 960660 957688 955930 955034 953677 950258 943468 933250 920465 
2459.466 906780 893775 882360 872265 862471 851729 839570 826617 814919 
2463.805 807183 805835 812082 825393 843487 863238 881509 896155 906306 
2468.145 912339 915157 915484 913460 908545 899964 887394 871245 853053 
2472.484 834931 819133 807287 799937 796624 796177 797389 799644 803189 
2476.824 808959 818040 831038 847353 864927 880564 890775 892705 885164 
2481.164 869224 848026 826137 808163 797686 796324 803336 816148 831298 
2485.503 845444 856400 863433 867222 869384 871605 875298 880996 888560 
2489.843 897332 906159 914074 920186 924053 925648 925452 924148 922685 
2494.182 921830 921808 922486 923315 923819 923789 923642 923928 925309 
2498.522 927800 930493 931717 929724 923603 913954 903207 895090 893374 
2502.862 900552 916767 939668 965169 988793 1007053 1018425 1023491 1024057 
2507.201 1022140 1018815 1014112 1007075 996765 982868 966157 948243 930928 
2511.541 915674 902967 892825 885064 880071 878913 882978 893186 909055 
2515.880 928159 946526 959476 963085 955619 938086 914044 888728 867320 
2520.220 853692 849327 853236 862426 872942 881349 885310 884687 880969 
2524.560 877073 876111 880428 890687 905517 921763 935443 942971 942264 
2528.899 933655 919778 904985 893941 890409 896142 910547 931093 954004 
2533.239 975463 992564 1003751 1009221 1010481 1010021 1010569 1014629 
2537.096 1023696 1037919 1055816 1074556 1090417 1099767 1099993 1090171 
2540.954 1071300 1046237 1018799 992963 972028 958178 952230 953907 961989 
2545.293 974830 990264 1006311 1021081 1033361 1042878 1050192 1056597 
2549.151 1063431 1071360 1080034 1087910 1092776 1092607 1086410 1074574 
2553.008 1059028 1042198 1026337 1012762 1001703 992606 985018 979197 976424 
2557.348 978592 987429 1003642 1026316 1052982 1080230 1104642 1123584 
2561.205 1135651 1140572 1138874 1131566 1119838 1105326 1089997 1076379 
2565.063 1067117 1064443 1069441 1081679 1099240 1119250 1138730 1155400 
2568.920 1168104 1176651 1181441 1182868 1181049 1175890 1167431 1156403 
2572.777 1144321 1133235 1125290 1121995 1123747 1130025 1139607 1151384 
2576.635 1164625 1179148 1195009 1211931 1228852 1244176 1255920 1262707 
2580.492 1264327 1262021 1257957 1254568 1253521 1255028 1257893 1259972 
2584.350 1259203 1254414 1245935 1235573 1225997 1219978 1219512 1225547 
2588.207 1237592 1254213 1273151 1291865 1307827 1318743 1322941 1319695 
2592.064 1309288 1293447 1274848 1256819 1242549 1234532 1233744 1239894 
2595.922 1251316 1265685 1280652 1294216 1305035 1312471 1316243 1316504 
2599.779 1313524 1307798 1300221 1291945 1284486 1279247 1277304 1279189 
2603.637 1284574 1292701 1302507 1313191 1324457 1336505 1349913 1365181 
2607.494 1382040 1399633 1415983 1428937 1436346 1436944 1430702 1418930 
2611.352 1403967 1388535 1375037 1365039 1359060 1356603 1356661 1358235 
2615.209 1360616 1363735 1367996 1374048 1382446 1393350 1406366 1420733 
2619.066 1435397 1449303 1461633 1471989 1480345 1487173 1493185 1499235 
2622.924 1506000 1513878 1522878 1532499 1541984 1550467 1557277 1562159 
2626.781 1565137 1566493 1566533 1565310 1562578 1558087 1551643 1543757 
2630.639 1535453 1528313 1523910 1523411 1526917 1533420 1541121 1548020 
2634.496 1552727 1554949 1555694 1556793 1560327 1567716 1579165 1593632 
2638.354 1609091 1623253 1634326 1641332 1644303 1644035 1641584 1637923 
2642.211 1633640 1629054 1624368 1619974 1616395 1614415 1614603 1617120 
2646.068 1621415 1626469 1630813 1633031 1632287 1628446 1622173 1614679 
2649.926 1607289 1601143 1596670 1593718 1591487 1589006 1585373 1580136 
2653.783 1573354 1565573 1557467 1549591 1542213 1535090 1527591 1519019 
2657.641 1508758 1496532 1482455 1467019 1450803 1434414 1418208 1402303 
2661.498 1386572 1370820 1354841 1338466 1321730 1304740 1287756 1271268 
2665.355 1255749 1241727 1229532 1219324 1210891 1203849 1197742 1192375 
2669.213 1187936 1185138 1184897 1188034 1194758 1204472 1215639 1226202 
2673.070 1234050 1237728 1236796 1231807 1224138 1215481 1207288 1200615 
2676.928 1195912 1193322 1192856 1194505 1198190 1203572 1209907 1216038 
2680.785 1220547 1222320 1220681 1215737 1208160 1198981 1189046 1178892 
2684.643 1168601 1158217 1147956 1138501 1130894 1126279 1125303 1127807 
2688.500 1132695 1138377 1143116 1145841 1146434 1145613 1144513 1144168 
2692.357 1144931 1146380 1147477 1147142 1144715 1140277 1134584 1128807 
2696.215 1124049 1120912 1119362 1118849 1118553 1117670 1115721 1112534 
2700.072 1108262 1103221 1097808 1092349 1087077 1082111 1077460 1072924 
2703.930 1068342 1063641 1058992 1054930 1052224 1051796 1054227 1059656 
2707.787 1067449 1076468 1085264 1092569 1097602 1100200 1100758 1099848 
2711.645 1098048 1095613 1092615 1089107 1085408 1082134 1080148 1080313 
2715.502 1082974 1087880 1094096 1100196 1104862 1107040 1106491 1103504 
2719.359 1098944 1093736 1088718 1084380 1080860 1078166 1076109 1074606 
2723.217 1073531 1072820 1072445 1072471 1073016 1074254 1076331 1079320 
2727.074 1083021 1086924 1090318 1092381 1092483 1090394 1086351 1081139 
2730.932 1075723 1071247 1068604 1068400 1070864 1075850 1082923 1091315 
2734.789 1100213 1108658 1115706 1120606 1122918 1122594 1119944 1115636 
2738.646 1110511 1105394 1100962 1097738 1095988 1095769 1096997 1099602 
2742.504 1103317 1108014 1113457 1119452 1125643 1131698 1137159 1141630 
2746.361 1144678 1146202 1146302 1145474 1144296 1143292 1142775 1142672 
2750.219 1142265 1140874 1137770 1132724 1126129 1118933 1112141 1106710 
2754.076 1102861 1100189 1097913 1095028 1090981 1085817 1080117 1074867 
2757.934 1070795 1068327 1067250 1066957 1066783 1066287 1065541 1064906 
2761.791 1064962 1066173 1068576 1071912 1075573 1078977 1081549 1082884 
2765.648 1082759 1081033 1077679 1072918 1067258 1061458 1056571 1053544 
2769.506 1052931 1054744 1058187 1062104 1065198 1066550 1065874 1063603 
2773.363 1060627 1058021 1056610 1056793 1058545 1061623 1065668 1070605 
2777.221 1076426 1083327 1091382 1100611 1110680 1121208 1131435 1140670 
2781.078 1148096 1153040 1154970 1153803 1149851 1144091 1137837 1132512 
2784.936 1129280 1128647 1130435 1133799 1137696 1141193 1143945 1146306 
2788.793 1149061 1153168 1159256 1167493 1177264 1187749 1197799 1206499 
2792.650 1213212 1217609 1219736 1219787 1218155 1215335 1211989 1208849 
2796.508 1206493 1205288 1205168 1205853 1206801 1207711 1208640 1210207 
2800.365 1213283 1218788 1227267 1238609 1252029 1266412 1280483 1293471 
2804.223 1305047 1315340 1324708 1333318 1341105 1347691 1352644 1355942 
2808.080 1357897 1359485 1361845 1366042 1372632 1381446 1391706 1402309 
2811.938 1412106 1420445 1426969 1431825 1435259 1437467 1438582 1438696 
2815.795 1438121 1437499 1437877 1440541 1446635 1456794 1470823 1487742 
2819.652 1505861 1523326 1538556 1550679 1559570 1565850 1570512 1574608 
2823.510 1578733 1583258 1588079 1592958 1597782 1602703 1608138 1614799 
2827.367 1623323 1634138 1647219 1662091 1677881 1693442 1707583 1719401 
2831.225 1728284 1734211 1737666 1739742 1741895 1745724 1752707 1764104 
2835.082 1780613 1802431 1829247 1860457 1895093 1932415 1971624 2012311 
2838.939 2054258 2097689 2143054 2191257 2243454 2301052 2365433 2437850 
2842.797 2519139 2609717 2709558 2818383 2935814 3061734 3196155 3339116 
2846.654 3490420 3649071 3813028 3978776 4141717 4296277 4436674 4557506 
2850.512 4654388 4724409 4766103 4779450 4765702 4727065 4666377 4587171 
2854.369 4493212 4388523 4277054 4162291 4047000 3932971 3821166 3711728 
2858.227 3604524 3499666 3397618 3299483 3206751 3121015 3043519 2974805 
2862.084 2914706 2862438 2816939 2777106 2742103 2711386 2684633 2661543 
2865.941 2641883 2625411 2611932 2601564 2594609 2591542 2592803 2598810 
2869.799 2609674 2625505 2646493 2673225 2706427 2747062 2795607 2851724 
2873.656 2913917 2979742 3046139 3110201 3169850 3224287 3273775 3319402 
2877.514 3362231 3402756 3440543 3474440 3502931 3524794 3539412 3547113 
2881.371 3548975 3546415 3540928 3533699 3525604 3517261 3509003 3501294 
2885.229 3494350 3488376 3483434 3479404 3476080 3473337 3471024 3469124 
2889.086 3467597 3466453 3465674 3465287 3465580 3466985 3470144 3475708 
2892.943 3484150 3495475 3509278 3524971 3541895 3559762 3578675 3599295 
2896.801 3622305 3648262 3677187 3708453 3740904 3773205 3804130 3832960 
2900.658 3859597 3884504 3908648 3933293 3959596 3988752 4021481 4058192 
2904.516 4098773 4142682 4189097 4237247 4286507 4336847 4388690 4442876 
2908.373 4500418 4562370 4629601 4702864 4783141 4871644 4970007 5080046 
2912.230 5203387 5341018 5492937 5658065 5834340 6019262 6210131 6404397 
2916.088 6599632 6793508 6983534 7167142 7341730 7505093 7655646 7792531 
2919.945 7915546 8024619 8119569 8199614 8263670 8310551 8339623 8351250 
2923.803 8346938 8329227 8301092 8265518 8224794 8180584 8133957 8085792 
2927.660 8037041 7988955 7943008 7900607 7862925 7830620 7803940 7782922 
2931.518 7767508 7757842 7754378 7757801 7768909 7788578 7817602 7856898 
2935.375 7907124 7968909 8042721 8128503 8225713 8333365 8449887 8573539 
2939.232 8702301 8834351 8967644 9100165 9229501 9352946 9467351 9569408 
2943.090 9655888 9723877 9771062 9795748 9796813 9773777 9726512 9655393 
2946.947 9561382 9446175 9312211 9162857 9001734 8832788 8659514 8484751 
2950.805 8310369 8137537 7966779 7798470 7633062 7471362 7314188 7162302 
2954.662 7016110 6875504 6739910 6608582 6480831 6356480 6235844 6119814 
2958.520 6009564 5906263 5810838 5723718 5644850 5573637 5509067 5449525 
2962.377 5393143 5337825 5281620 5223266 5162496 5100254 5038687 4980621 
2966.234 4928794 4885300 4850830 4824770 4805280 4790023 4776671 4763521 
2970.092 4749582 4734649 4718937 4702916 4687135 4672353 4659344 4649274 
2973.949 4643348 4642834 4648593 4661120 4680377 4705975 4737293 4773808 
2977.807 4815250 4861511 4912745 4969143 5031095 5099196 5174127 5257014 
2981.664 5349019 5451256 5564583 5689578 5826168 5974135 6133056 6302740 
2985.521 6483074 6674235 6876222 7088805 7311051 7541351 7777135 8015304 
2989.379 8251840 8482589 8703221 8909734 9098896 9268480 9417339 9545375 
2993.236 9653140 9741400 9810591 9860854 9891733 9902771 9893655 9864525 
2997.094 9816291 9750247 9668027 9571227 9461392 9339926 9208293 9067938 
3000.951 8920263 8766529 8607597 8443917 8275579 8102613 7925263 7744425 
3004.809 7561399 7377823 7195157 7014435 6836047 6659822 6485370 6312532 
3008.666 6141435 5972629 5806981 5645312 5488278 5336412 5189907 5049010 
3012.523 4913722 4783761 4658493 4536809 4417289 4298624 4180061 4061754 
3016.381 3944742 3830629 3721064 3616951 3518375 3424503 3334239 3246768 
3020.238 3161962 3080576 3003670 2932067 2865710 2803653 2744132 2685365 
3024.096 2626207 2566598 2507599 2450733 2397488 2348607 2303984 2262760 
3027.953 2223853 2186413 2149973 2114673 2080687 2048167 2017083 1987312 
3031.811 1958813 1932013 1907575 1886366 1868864 1854805 1843099 1832012 
3035.668 1819626 1804342 1785353 1762873 1737677 1711091 1684328 1658562 
3039.525 1634547 1612944 1594152 1578355 1565522 1555184 1546517 1538735 
3043.383 1531021 1523245 1515804 1509533 1505445 1504163 1505657 1509264 
3047.240 1513578 1517260 1519001 1518077 1514147 1507417 1498283 1487490 
3051.098 1475908 1464742 1455333 1449019 1446701 1448556 1453766 1460759 
3054.955 1467355 1471691 1472558 1469770 1464339 1457882 1452202 1448763 
3058.813 1448193 1450388 1454471 1459241 1463500 1466182 1466679 1464828 
3062.670 1460862 1455347 1448988 1442473 1436275 1430629 1425300 1420144 
3066.527 1414822 1409407 1404226 1399803 1396674 1394993 1394461 1394516 
3070.385 1394283 1393021 1390412 1386568 1381808 1376614 1371182 1365667 
3074.242 1359923 1354116 1348585 1344041 1341246 1340653 1342099 1344853 
3078.100 1347628 1349385 1349432 1348025 1345865 1343942 1342904 1342651 
3081.957 1342304 1340667 1336750 1330356 1322195 1313887 1307136 1303408 
3085.814 1303157 1305922 1310525 1315492 1319623 1322185 1322929 1321916 
3089.672 1319217 1314781 1308513 1300392 1290604 1279821 1268963 1259023 
3093.529 1250881 1245137 1242019 1241468 1243069 1246130 1249772 1252867 
3097.387 1254129 1252594 1247764 1240072 1230855 1222113 1216125 1214759 
3101.244 1218992 1228515 1242004 1257314 1272205 1284746 1293511 1297887 
3105.102 1297819 1293709 1286336 1276654 1265899 1255308 1246087 1239098 
3108.959 1234758 1232911 1232978 1234032 1235264 1236058 1235844 1234360 
3112.816 1231262 1226353 1219370 1210574 1200568 1190747 1182798 1178492 
3116.674 1179133 1184931 1195107 1207821 1220695 1231698 1239419 1243648 
3120.531 1245040 1245034 1244861 1245346 1246352 1247025 1245985 1242188 
3124.389 1235004 1224872 1213067 1201457 1191903 1185587 1183010 1183778 
3128.246 1186721 1190606 1194220 1196914 1198354 1198602 1197718 1195967 
3132.104 1193356 1190157 1186885 1184544 1184140 1186762 1192896 1202271 
3135.961 1213693 1225476 1235869 1243779 1248839 1251728 1253641 1255797 
3139.818 1258751 1262305 1265450 1266810 1265218 1260285 1252544 1243372 
3143.676 1234524 1227597 1223475 1222243 1222946 1224238 1224520 1222677 
3147.533 1218330 1211992 1205021 1199185 1196232 1197331 1202590 1211094 
3151.391 1220824 1229513 1235139 1236614 1234041 1228790 1222735 1217786 
3155.248 1214966 1214287 1214810 1215006 1213609 1210058 1204680 1198656 
3159.105 1193232 1189497 1187535 1186691 1185615 1182954 1177724 1170010 
3162.963 1160782 1151721 1144878 1141986 1144011 1150858 1161410 1173839 
3166.820 1186103 1196530 1204197 1209294 1212729 1215933 1220081 1225618 
3170.678 1231983 1237747 1241053 1240499 1235618 1227224 1217142 1207800 
3174.535 1201034 1197810 1197631 1199033 1200012 1198983 1195353 1189810 
3178.393 1183936 1179792 1178983 1182318 1189427 1199078 1209382 1218669 
3182.250 1225597 1229698 1231151 1230752 1229406 1228016 1227042 1226514 
3186.107 1225911 1224595 1221862 1217433 1211512 1204821 1198459 1193620 
3189.965 1191146 1191476 1194322 1199227 1205350 1212158 1219277 1226656 
3193.822 1234228 1241975 1249542 1256632 1262837 1268136 1272656 1276889 
3197.680 1281198 1285712 1290024 1293321 1294607 1293176 1288790 1282090 
3201.537 1274318 1267091 1261778 1259377 1259855 1262627 1266395 1269822 
3205.395 1271621 1270976 1267575 1261773 1254263 1246259 1238950 1233612 
3209.252 1231008 1231440 1234587 1239623 1245412 1250796 1255053 1258013 
3213.109 1259974 1261732 1263974 1267215 1271211 1275326 1278302 1278924 
3216.967 1276254 1270141 1261306 1251208 1241841 1235054 1231967 1232937 
3220.824 1236933 1242394 1247426 1250650 1251592 1251111 1250673 1252261 
3224.682 1257192 1265822 1277184 1289468 1300579 1308954 1314050 1316513 
3228.539 1317585 1318689 1320473 1322755 1324411 1323971 1320408 1313601 
3232.396 1304619 1295333 1287947 1284106 1284449 1288437 1294503 1300734 
3236.254 1305246 1306750 1304790 1299701 1292412 1284201 1276357 1270070 
3240.111 1266067 1264511 1265046 1266697 1268023 1267703 1264476 1257855 
3243.969 1248098 1236289 1224023 1213228 1205599 1202458 1204547 1211887 
3247.826 1223757 1238834 1255155 1270418 1282221 1288551 1288101 1280802 
3251.684 1267621 1250741 1232846 1216830 1204974 1198814 1198719 1204226 
3255.541 1213913 1225932 1238150 1248534 1255296 1257387 1254436 1247149 
3259.398 1236941 1225848 1215831 1208481 1204638 1204260 1206728 1211180 
3263.256 1216735 1222892 1229388 1236040 1242421 1247975 1251871 1253530 
3267.113 1252732 1249870 1245816 1241750 1238557 1236861 1236671 1237761 
3270.971 1239813 1242849 1246937 1252360 1259009 1266362 1273389 1278820 
3274.828 1281592 1281463 1278716 1274567 1270253 1266759 1264436 1263011 
3278.686 1261827 1260500 1258953 1257735 1257799 1259827 1264048 1270115 
3282.543 1277039 1283822 1289642 1294201 1297609 1300172 1302011 1302883 
3286.400 1302250 1299639 1294795 1288060 1280235 1272320 1265250 1259629 
3290.258 1255624 1253168 1252174 1252721 1254918 1258888 1264433 1270959 
3294.115 1277499 1283193 1287379 1289937 1291194 1291769 1292024 1292114 
3297.973 1291707 1290540 1288423 1285821 1283427 1282048 1282037 1282997 
3301.830 1283604 1282124 1276946 1267349 1253698 1237648 1221572 1208056 
3305.688 1199088 1195971 1198764 1206828 1218564 1232017 1244890 1255080 
3309.545 1260993 1262194 1259579 1255225 1252043 1252535 1257821 1267062 
3313.402 1277425 1284878 1285630 1277772 1261890 1241273 1220697 1205160 
3317.260 1197943 1200013 1209888 1224590 1240706 1255642 1268008 1277516 
3321.117 1284329 1288446 1289333 1286188 1278399 1266120 1250462 1233490 
3324.975 1217459 1204381 1195444 1190950 1190667 1194097 1200807 1210477 
3328.832 1222520 1235969 1249233 1260455 1267985 1271086 1270223 1267199 
3332.689 1264253 1263533 1266033 1271320 1277567 1282390 1283567 1280140 
3336.547 1272518 1262642 1253120 1246363 1243866 1245775 1250820 1256983 
3340.404 1261999 1264358 1263413 1259775 1254953 1250867 1249203 1251105 
3344.262 1256717 1265371 1275538 1285518 1293555 1298228 1298773 1295133 
3348.119 1287944 1278481 1268546 1260008 1254435 1253014 1255737 1261977 
3351.977 1270157 1278676 1286089 1291677 1295551 1298327 1300690 1302884 
3355.834 1304249 1303528 1299047 1289582 1274908 1256090 1235260 1215213 
3359.691 1198451 1186669 1180374 1178983 1181083 1185059 1189261 1192353 
3363.549 1193243 1191110 1185628 1176975 1166027 1154470 1144473 1138319 
3367.406 1137717 1143267 1154206 1168783 1184446 1198956 1210498 1218453 
3371.264 1222997 1224997 1225556 1225652 1225996 1226960 1228635 1230964 
3375.121 1233711 1236549 1239004 1240625 1240994 1239987 1237658 1234313 
3378.979 1230255 1225644 1220421 1214531 1207826 1200588 1193462 1187452 
3382.836 1183644 1182717 1184739 1189079 1194370 1199199 1202344 1203341 
3386.693 1202449 1200617 1198989 1198594 1199794 1202376 1205480 1208075 
3390.551 1209289 1208769 1206766 1204139 1202044 1201591 1203598 1208338 
3394.408 1215427 1224207 1233774 1243366 1252462 1260892 1268711 1276136 
3398.266 1283233 1290038 1296470 1302403 1307623 1312207 1315941 1318731 
3402.123 1320203 1319924 1317256 1311879 1303656 1292905 1280286 1266811 
3405.980 1253446 1241184 1230830 1223048 1218473 1217678 1220914 1228353 
3409.838 1239463 1253311 1268293 1282654 1294523 1302404 1305451 1303468 
3413.695 1296966 1286937 1274589 1261166 1247500 1234152 1221234 1208588 
3417.553 1196054 1183814 1172496 1163391 1158062 1158009 1163883 1175288 
3421.410 1190467 1206773 1221153 1231422 1236387 1236584 1233566 1229518 
3425.268 1226247 1224703 1224876 1226250 1228289 1231232 1235918 1243847 
3429.125 1256074 1272902 1293232 1314832 1334687 1350236 1359777 1363113 
3432.982 1361158 1355759 1348854 1341913 1335912 1331299 1328040 1326251 
3436.840 1325770 1326497 1327924 1329374 1329883 1328620 1325254 1320184 
3440.697 1314412 1309305 1306004 1305094 1306013 1307392 1307230 1303833 
3444.555 1296280 1285029 1272130 1260736 1254349 1256045 1267278 1287837 
3448.412 1315354 1346100 1375743 1400300 1416801 1423878 1421549 1411114 
3452.270 1394513 1374145 1352308 1331449 1313635 1300702 1293679 1292982 
3456.127 1297689 1306303 1316919 1327932 1338428 1348465 1358748 1370065 
3459.984 1382715 1396169 1409095 1420104 1428257 1433621 1437307 1440936 
3463.842 1445656 1451779 1458229 1463196 1465046 1463267 1459006 1455253 
3467.699 1455386 1462422 1477642 1500019 1526504 1553059 1575757 1592014 
3471.557 1600884 1603071 1600363 1594806 1588293 1582174 1577404 1574679 
3475.414 1574432 1576955 1582109 1589522 1598545 1608467 1618952 1629965 
3479.271 1641855 1655160 1670090 1686542 1703910 1721506 1738677 1755376 
3483.129 1771743 1788268 1805138 1822061 1838172 1852431 1863830 1872216 
3486.986 1878312 1883672 1890251 1899688 1912920 1929846 1949424 1970159 
3490.844 1990305 2008618 2024266 2037022 2047156 2055263 2062176 2068868 
3494.701 2076490 2086180 2098856 2115095 2134736 2156900 2180025 2202207 
3498.559 2221423 2236293 2246027 2250973 2252166 2251334 2250243 2250223 
3502.416 2251899 2254942 2258209 2260170 2259361 2254864 2246676 2235609 
3506.273 2223209 2211042 2200300 2191536 2184538 2178458 2172330 2165516 
3510.131 2157887 2149926 2142388 2136027 2130999 2126784 2122130 2115634 
3513.988 2106009 2092686 2076091 2057652 2039174 2022535 2008845 1998470 
3517.846 1990821 1984787 1979355 1974063 1969147 1965459 1963944 1965289 
3521.703 1969304 1975118 1981253 1986277 1988986 1988785 1985508 1979106 
3525.561 1969367 1956028 1938877 1918232 1895242 1871917 1850707 1833754 
3529.418 1822052 1815023 1810572 1805836 1798057 1785729 1768806 1748884 
3533.275 1728238 1709186 1693436 1681755 1674489 1671662 1673643 1680955 
3537.133 1693815 1711621 1732398 1752875 1769114 1777481 1775623 1763287 
3540.990 1742263 1715813 1687937 1662312 1641549 1627013 1618726 1616015 
3544.848 1617291 1620894 1625069 1628329 1629703 1629033 1627081 1625413 
3548.705 1625705 1629456 1637106 1647896 1659726 1669917 1675782 1675558 
3552.563 1668777 1656593 1641324 1625921 1613182 1605165 1602621 1605065 
3556.420 1610807 1617646 1623404 1626697 1627335 1626399 1625833 1627770 
3560.277 1633498 1642912 1654416 1665327 1672710 1674810 1671457 1664474 
3564.135 1656917 1652164 1652745 1659560 1671584 1686359 1700889 1712460 
3567.992 1719050 1720060 1715737 1707001 1695321 1682443 1670280 1660794 
3571.850 1655432 1655081 1659385 1666992 1675547 1682573 1685864 1684380 
3575.707 1677936 1667239 1653463 1637755 1621027 1604248 1588628 1575808 
3579.564 1567550 1565365 1569674 1579366 1591662 1602668 1608412 1605966 
3583.422 1594235 1574321 1549246 1522897 1499341 1481610 1471338 1468609 
3587.279 1472093 1479527 1488092 1495206 1498625 1497277 1491293 1482198 
3591.137 1472235 1464457 1461265 1464117 1473086 1486349 1500818 1512948 
3594.994 1519092 1516493 1503873 1481795 1452377 1419312 1387015 1360079 
3598.852 1341932 1334655 1338106 1350292 1367910 1387329 1405346 1420203 
3602.709 1431342 1439473 1445462 1450103 1453623 1455723 1456086 1454701 
3606.566 1451989 1448854 1446153 1444488 1443716 1443293 1442364 1440432 
3610.424 1437329 1433307 1428729 1423775 1418301 1412125 1405090 1397655 
3614.281 1390677 1385425 1382722 1382809 1384964 1387808 1390170 1391589 
3618.139 1392753 1395516 1402065 1414062 1431763 1453744 1477382 1499648 
3621.996 1518155 1531857 1541140 1547685 1553554 1560479 1569614 1581361 
3625.854 1595417 1611141 1627720 1644488 1660667 1675733 1689469 1702054 
3629.711 1713890 1725547 1737221 1748533 1758377 1765231 1767583 1765139 
3633.568 1758654 1750450 1743632 1741197 1745203 1755971 1772335 1792154 
3637.426 1813114 1833460 1852326 1869748 1885968 1901120 1914800 1926237 
3641.283 1934443 1938974 1940098 1939035 1937838 1939060 1945122 1958106 
3645.141 1978688 2006312 2038450 2071130 2099331 2118358 2124984 2118845 
3648.998 2102744 2082390 2064581 2055640 2059269 2075768 2102021 2132908 
3652.855 2162840 2187459 2204379 2213326 2215226 2211564 2203590 2192299 
3656.713 2178512 2163444 2148645 2135882 2126384 2120263 2116438 2113018 
3660.570 2108073 2100607 2090829 2080262 2070578 2062859 2056823 2050920 
3664.428 2043012 2031560 2016429 1999326 1982874 1969579 1960600 1955137 
3668.285 1950399 1943137 1930718 1912574 1890515 1868170 1849735 1838287 
3672.143 1834935 1838573 1846287 1854520 1859973 1860365 1854561 1842645 
3676.000 1825232 1803481 1778536 1751629 1724043 1696848 1670969 1646812 
3679.857 1624167 1602332 1580457 1557878 1534581 1511479 1490110 1472471 
3683.715 1460137 1453935 1453362 1456768 1461481 1464581 1463515 1456901 
3687.572 1444862 1429072 1412392 1397892 1388013 1383854 1384700 1388619 
3691.430 1392748 1394558 1392310 1385802 1375887 1363983 1351298 1338328 
3695.287 1324577 1309133 1291081 1270398 1248193 1226713 1208860 1197252 
3699.145 1193605 1198169 1209688 1225869 1243959 1261214 1275719 1286606 
3703.002 1293909 1298506 1301582 1304424 1307935 1312512 1317882 1323340 
3706.859 1327920 1330843 1331684 1330607 1328277 1325513 1323070 1321346 
3710.717 1320105 1318888 1317075 1314382 1311043 1307716 1305380 1305078 
3714.574 1307382 1312379 1319822 1328968 1338924 1348846 1358037 1365866 
3718.432 1371783 1375304 1375942 1373299 1367336 1358239 1346877 1334481 
3722.289 1322742 1313487 1308161 1307634 1311734 1319119 1327391 1334010 
3726.146 1336647 1334268 1327443 1318363 1310091 1305516 1306532 1313128 
3730.004 1323440 1334452 1342963 1346839 1345467 1340042 1332709 1325735 
3733.861 1320431 1316872 1314147 1311061 1306813 1301853 1297466 1295599 
3737.719 1297551 1303524 1312196 1321320 1328398 1331805 1331577 1329337 
3741.576 1327771 1329592 1336326 1347690 1361458 1374193 1382427 1384106 
3745.434 1379291 1370295 1360820 1354686 1354435 1360407 1370588 1381148 
3749.291 1387565 1386077 1374990 1355266 1330215 1304623 1283639 1271235 
3753.148 1269757 1279320 1298277 1323988 1353334 1383283 1411175 1435022 
3757.006 1453215 1464769 1469492 1467959 1461425 1451898 1441552 1432373 
3760.863 1425656 1421753 1420163 1419691 1419005 1416898 1412790 1406732 
3764.721 1399175 1390962 1382785 1375073 1367924 1361140 1354366 1347478 
3768.578 1340676 1334414 1329599 1327149 1327722 1331482 1338089 1346438 
3772.436 1355041 1362449 1367300 1368861 1367006 1362187 1355147 1346881 
3776.293 1338476 1330762 1324371 1319784 1317176 1316233 1316464 1317150 
3780.150 1317659 1317688 1317540 1318075 1320365 1325347 1333185 1343061 
3784.008 1353117 1361001 1364526 1362486 1354831 1342899 1328764 1314665 
3787.865 1302359 1292898 1286572 1283332 1283103 1285962 1291910 1300709 
3791.723 1311372 1322279 1331339 1336842 1338115 1335788 1331839 1328953 
3795.580 1329299 1333805 1341608 1350149 1356219 1356874 1350841 1338932 
3799.438 1323785 1309435 1299753 1297621 1303916 1317515 1335728 1355141 
3803.295 1372516 1385703 1393543 1396033 1393858 1387944 1379397 1369206 
3807.152 1358379 1348058 1339592 1334329 1333417 1337378 1345857 1357585 
3811.010 1370258 1381217 1387861 1388419 1382289 1370144 1353971 1336420 
3814.867 1320141 1307286 1298965 1295076 1294450 1295416 1296447 1296815 
3818.725 1296583 1297027 1299793 1306539 1317983 1333451 1350685 1366636 
3822.582 1378046 1382511 1379287 1369663 1356409 1342960 1332448 1326815 
3826.439 1326292 1329654 1334833 1339821 1343084 1344122 1343179 1340905 
3830.297 1337735 1333976 1329511 1324343 1318712 1313349 1309277 1307636 
3834.154 1308940 1312998 1318695 1324536 1328725 1329891 1327380 1321588 
3838.012 1313692 1305512 1299152 1296430 1298632 1306015 1317542 1331319 
3841.869 1344574 1354406 1358761 1356774 1349267 1338561 1327558 1319108 
3845.727 1314753 1314661 1317318 1320515 1322068 1320473 1315729 1309043 
3849.584 1302484 1298212 1298015 1302665 1311972 1324794 1339331 1353603 
3853.441 1365626 1373869 1377594 1376891 1372659 1366313 1359541 1353618 
3857.299 1349304 1346625 1345028 1343740 1342129 1339950 1337359 1334573 
3861.156 1331710 1328459 1324059 1317659 1308806 1297747 1285678 1274395 
3865.014 1265832 1261576 1262224 1267454 1276093 1286724 1298016 1309157 
3868.871 1319784 1329937 1339731 1349204 1358150 1366233 1372999 1378279 
3872.729 1381931 1383901 1384164 1382680 1379241 1373354 1364709 1353034 
3876.586 1338417 1321467 1303272 1285683 1270706 1260544 1256764 1260145 
3880.443 1270146 1284970 1301860 1317744 1329705 1335874 1335469 1329267 
3884.301 1319068 1307389 1296797 1289434 1286506 1287976 1292717 1298783 
3888.158 1303877 1306116 1304460 1299077 1291224 1283007 1276619 1273685 
3892.016 1274779 1279485 1286596 1294633 1302372 1309126 1314594 1318659 
3895.873 1321124 1321730 1320281 1317138 1313254 1310475 1310611 1315030 
3899.730 1323605 1334513 1344526 1350112 1348415 1338626 1322150 1302504 
3903.588 1284003 1270660 1264965 1267467 1276971 1291146 1307452 1323698 
3907.445 1338253 1350164 1358789 1363747 1364934 1362399 1356756 1348943 
3911.303 1340031 1331053 1322869 1316160 1311449 1309507 1311001 1316704 
3915.160 1326750 1340551 1356422 1372286 1385735 1395210 1400250 1401627 
3919.018 1400699 1398947 1397024 1394577 1390492 1383511 1372992 1359563 
3922.875 1344900 1331558 1321921 1317576 1318642 1323981 1331655 1339396 
3926.732 1345396 1348591 1348625 1346089 1341898 1337248 1333173 1330673 
3930.590 1330049 1331052 1332699 1333794 1332999 1329565 1323738 1316808 
3934.447 1310730 1307645 1309120 1315522 1326013 1338703 1351253 1361597 
3938.305 1368353 1370915 1369412 1364395 1356496 1346476 1335218 1323944 
3942.162 1314063 1307155 1304393 1306251 1312165 1320701 1329951 1338124 
3946.020 1344085 1347544 1349053 1349508 1349685 1349877 1349699 1348202 
3949.877 1344449 1337780 1328102 1316101 1303068 1290522 1280111 1273326 
3953.734 1271013 1273742 1281276 1292826 1306942 1321775 1335464 1346263 
3957.592 1353075 1355672 1354502 1350780 1345735 1340663 1336263 1333001 
3961.449 1330782 1329568 1329307 1330302 1332793 1337111 1343085 1350291 
3965.307 1357884 1364896 1370559 1374382 1376563 1377658 1378673 1380736 
3969.164 1384735 1391479 1401249 1413979 1429048 1445303 1461033 1474192 
3973.021 1482669 1484867 1480001 1468507 1452070 1433293 1415111 1400340 
3976.879 1390773 1387090 1388666 1393990 1400883 1407008 1410355 1409689 
3980.736 1404793 1396440 1386568 1377813 1372819 1373584 1380867 1393502 
3984.594 1408883 1423616 1434320 1439035 1437424 1431072 1422626 1414752 
3988.451 1409115 1405887 1403819 1400950 1395788 1387706 1377503 1367139 
3992.309 1358585 1353842 1353859 1358877 1368671 1382750 1400517 1421213 
3996.166 1443464 1465137 1483411 1495399 1499093 1494103 1481975 1466064 
4000.023 1450430 1438764 
##END=
