##TITLE=3D-Fillies_PLA+_Blue_Filament_r3_ATR-Corrected
##JCAMP-DX=5.01  $$ Nicolet v. 1
##DATATYPE=INFRARED SPECTRUM
##ORIGIN=Curtin University
##OWNER=Nicolet
##LONGDATE=2024/07/18
##TIME=09:34:54
##SPECTROMETER/DATA SYSTEM=Nicolet iS50
##DATA PROCESSING=
Ratio against background
%Transmittance->Absorbance
ATR Correction
Truncated
ElementMultiply or ElementDivide
##COMMENTS=
Number of sample scans: 32
Collection length: 47.28 sec
Sample gain: 1.0
Background collected on: Thu Jul 18 09:29:57 2024 (GMT+08:00);
Number of background scans: 32
Background gain: 1.0
Sample spacing:  1.000
Number of scan points: 16672
Resolution points: 8192
Number of FFT points: 65536
Apodization: N-B strong;
Phase correction: Mertz;
Laser frequency: 15798.3 cm-1
Number of rejected sample scans: 0
Number of rejected background scans: 0
Bench serial number: AUP1200105;
##RESOLUTION=4.000
##XUNITS=1/CM
##YUNITS=ABSORBANCE
##FIRSTX=400.163452
##LASTX=4000.187744
##FIRSTY=0.066091
##MAXX=4000.187744
##MINX=400.163452
##MAXY=1.160999
##MINY=-0.033012
##XFACTOR=1.000000
##YFACTOR=1.000000E-008
##NPOINTS=7468
##DELTAX=0.482125
##ZPD=8192
##XYDATA=(X++(Y..Y))
400.163 6609083 6523742 6415168 6282979 6130488 5966658 5804181 5656463 
404.020 5533960 5440992 5374508 5324932 5279354 5225401 5154935 5065899 
407.877 4962362 4852592 4746453 4652626 4577014 4521879 4486051 4465315 
411.734 4453076 4441117 4420737 4384346 4327497 4250361 4158342 4060855 
415.591 3968624 3890080 3828591 3781265 3740469 3697032 3644501 3581873 
419.448 3514156 3450096 3398415 3363982 3345925 3337985 3331136 3317007 
423.305 3290791 3252365 3205660 3156385 3109918 3069716 3037324 3013031 
427.162 2996931 2989268 2990056 2998194 3010963 3024122 3033292 3035453 
431.019 3030233 3019876 3008112 2997868 2990282 2983366 2973308 2956340 
434.876 2931091 2899690 2867456 2840967 2825593 2823527 2833328 2850891 
438.733 2871492 2891568 2909705 2926196 2941812 2956308 2967790 2973120 
442.590 2969315 2955047 2931595 2902505 2872530 2845848 2824936 2810136 
446.447 2800310 2793826 2789511 2786719 2785106 2783710 2780787 2774116 
450.304 2762199 2745482 2727112 2712328 2706804 2714238 2734404 2762380 
454.161 2789604 2806262 2804335 2780002 2734735 2674603 2608411 2545263 
458.017 2492468 2454391 2432313 2424948 2429367 2441718 2457813 2473491 
461.874 2485003 2489428 2485121 2471630 2450652 2424460 2395606 2366219 
465.731 2337828 2311373 2287727 2267983 2253561 2245805 2245380 2251623 
469.588 2262421 2274496 2284311 2288940 2286830 2277878 2263048 2243635 
473.445 2220655 2194630 2165870 2134983 2103381 2073315 2047446 2028056 
477.302 2016273 2011578 2011986 2014599 2016474 2015292 2009760 1999512 
481.159 1984898 1966660 1945883 1923961 1902688 1884032 1869715 1860576 
485.016 1856106 1854370 1852596 1848149 1839710 1827892 1815246 1805236 
488.873 1800943 1803713 1812521 1824208 1834700 1840435 1839736 1833316 
492.730 1823812 1814571 1808265 1805576 1805740 1806414 1805100 1800214 
496.587 1791774 1781252 1771031 1763403 1759865 1760777 1765574 1773146 
500.444 1782398 1792423 1802569 1812176 1820433 1826307 1828830 1827388 
504.301 1822042 1813603 1803460 1793092 1783700 1775869 1769553 1764332 
508.158 1759725 1755521 1751889 1749284 1748221 1748975 1751536 1755576 
512.015 1760682 1766494 1772834 1779593 1786551 1793106 1798209 1800427 
515.871 1798304 1790855 1777992 1760771 1741313 1722298 1706346 1695210 
519.728 1689302 1687553 1687742 1687111 1683234 1674649 1661272 1644255 
523.585 1625571 1607224 1590638 1576122 1563354 1551323 1539159 1526632 
527.442 1514479 1504164 1497436 1495552 1498782 1506118 1515508 1524354 
531.299 1530267 1531573 1527676 1518906 1506240 1490783 1473565 1455416 
535.156 1437250 1420296 1406351 1397584 1396104 1403217 1418778 1440752 
539.013 1465438 1488139 1504272 1510550 1505821 1491394 1470655 1448132 
542.870 1428343 1414733 1409004 1410965 1418894 1430156 1441911 1451669 
546.727 1457595 1458630 1454494 1445535 1432765 1417656 1402034 1387734 
550.584 1376328 1368800 1365433 1365870 1369447 1375467 1383573 1393709 
554.441 1405931 1420028 1435197 1449859 1462202 1470431 1473547 1471726 
558.298 1466416 1459889 1454569 1452207 1453444 1457707 1463703 1470020 
562.155 1475813 1481073 1486535 1493137 1501436 1511132 1521008 1529237 
566.012 1534113 1534663 1531097 1524845 1518158 1513490 1512792 1517089 
569.869 1526287 1539358 1554724 1570702 1585815 1598981 1609526 1617038 
573.725 1621287 1622120 1619580 1614007 1606240 1597735 1590498 1586810 
577.582 1588789 1597843 1614197 1636681 1662916 1689834 1714485 1734794 
581.439 1750118 1761299 1770217 1778991 1789178 1801160 1814032 1826023 
585.296 1835233 1840344 1841191 1838697 1834577 1830667 1828388 1828361 
589.153 1830580 1834643 1840179 1847067 1855416 1865313 1876553 1888535 
593.010 1900422 1911473 1921480 1930979 1941114 1953155 1967908 1985211 
596.867 2003874 2021986 2037648 2049616 2057830 2063325 2067821 2072978 
600.724 2079820 2088447 2098205 2108164 2117695 2126719 2135764 2145538 
604.581 2156525 2168650 2181347 2193846 2205666 2216937 2228452 2241360 
608.438 2256627 2274579 2294785 2316256 2338002 2359533 2381203 2404059 
612.295 2429370 2457954 2489671 2523289 2556835 2588184 2615787 2639043 
616.152 2658344 2674703 2689220 2702651 2715241 2726915 2737682 2747980 
620.009 2758847 2771716 2788058 2808819 2834099 2863065 2894150 2925516 
623.866 2955545 2983157 3008047 3030552 3051473 3071716 3092066 3112868 
627.723 3133960 3154709 3174176 3191410 3205871 3217674 3227815 3238021 
631.579 3250398 3266775 3288177 3314407 3344039 3374787 3404213 3430423 
635.436 3452588 3471013 3486851 3501487 3515914 3530359 3544328 3556950 
639.293 3567578 3576263 3583992 3592455 3603545 3618689 3638360 3661860 
643.150 3687546 3713359 3737438 3758619 3776690 3792250 3806384 3820187 
647.007 3834433 3849416 3865047 3881051 3897233 3913598 3930426 3948029 
650.864 3966682 3986369 4006868 4027731 4048502 4068778 4088305 4106856 
654.721 4124173 4139845 4153364 4164243 4172287 4177823 4181838 4185868 
658.578 4191752 4201209 4215425 4234742 4258552 4285442 4313478 4340625 
662.435 4365189 4386036 4402853 4416055 4426692 4436133 4445824 4456933 
666.292 4470171 4485721 4503282 4522241 4541938 4561853 4581748 4601589 
670.149 4621456 4641357 4661134 4680413 4698768 4715834 4731483 4745808 
674.006 4759122 4771758 4783967 4795857 4807457 4818877 4830427 4842651 
677.863 4856233 4871740 4889380 4908852 4929233 4949268 4967720 4983660 
681.720 4996802 5007546 5016874 5026052 5036378 5048821 5063907 5081649 
685.577 5101586 5122937 5144712 5165919 5185676 5203348 5218664 5231720 
689.433 5242959 5253128 5263108 5273742 5285769 5299626 5315416 5332883 
693.290 5351461 5370435 5389085 5406885 5423661 5439645 5455350 5471370 
697.147 5488133 5505642 5523418 5540642 5556431 5570195 5581896 5592070 
701.004 5601647 5611518 5622152 5633250 5643808 5652317 5657322 5657883 
704.861 5653926 5646270 5636386 5625889 5615967 5606971 5598268 5588335 
708.718 5575258 5557237 5533125 5502809 5467183 5427899 5386864 5345599 
712.575 5304739 5263759 5221195 5175116 5123815 5066456 5003405 4936122 
716.432 4866663 4796907 4727900 4659445 4590174 4518008 4440890 4357414 
720.289 4267300 4171351 4071267 3969110 3866973 3766726 3670036 3578460 
724.146 3493631 3417255 3351007 3296301 3254073 3224616 3207668 3202487 
728.003 3208175 3223835 3248731 3282337 3324352 3374612 3433135 3500158 
731.860 3576117 3661683 3757614 3864585 3982947 4112464 4252146 4400131 
735.717 4553793 4709917 4865090 5016114 5160446 5296486 5423780 5542898 
739.574 5655141 5762104 5865264 5965640 6063772 6159771 6253627 6345372 
743.431 6435267 6523723 6611171 6697954 6784216 6870027 6955562 7041222 
747.287 7127754 7216042 7306824 7400362 7496263 7593402 7690253 7785155 
751.144 7876764 7964178 8046873 8124435 8196201 8260966 8316909 8361789 
755.001 8393297 8409523 8409262 8392216 8358916 8310437 8248123 8173226 
758.858 8086705 7989167 7880939 7762264 7633519 7495431 7349203 7196515 
762.715 7039404 6880038 6720477 6562478 6407313 6255787 6108335 5965142 
766.572 5826348 5692122 5562675 5438211 5318809 5204333 5094408 4988471 
770.429 4885934 4786287 4689296 4594936 4503509 4415320 4330601 4249257 
774.286 4170845 4094549 4019322 3944108 3868034 3790646 3711974 3632491 
778.143 3553034 3474542 3397917 3323757 3252348 3183556 3116934 3051808 
782.000 2987396 2922968 2857954 2792009 2725079 2657310 2588999 2520411 
785.857 2451804 2383321 2315153 2247673 2181614 2118119 2058667 2004762 
789.714 1957524 1917313 1883455 1854294 1827517 1800702 1771929 1740232 
793.571 1705805 1669827 1634112 1600527 1570559 1544961 1523730 1506240 
797.428 1491543 1478707 1467077 1456420 1446909 1438938 1432900 1428877 
801.285 1426456 1424705 1422369 1418143 1411295 1401798 1390566 1379139 
805.141 1369258 1362253 1358609 1357774 1358435 1359007 1358330 1356024 
808.998 1352651 1349416 1347643 1348210 1351280 1356277 1362210 1368117 
812.855 1373409 1377992 1382205 1386447 1390963 1395635 1400057 1403655 
816.712 1405949 1406646 1405686 1403196 1399404 1394655 1389464 1384537 
820.569 1380795 1379186 1380522 1385154 1392849 1402805 1413846 1424736 
824.426 1434505 1442645 1449129 1454355 1458919 1463446 1468500 1474425 
828.283 1481366 1489200 1497578 1505976 1513884 1521027 1527561 1534174 
832.140 1541980 1552240 1565970 1583634 1605102 1629696 1656600 1685181 
835.997 1715309 1747331 1781924 1819805 1861562 1907511 1957836 2012692 
839.854 2072225 2136479 2205189 2277631 2352672 2429022 2505740 2582598 
843.711 2660191 2739588 2821645 2906231 2991698 3074927 3152012 3219319 
847.568 3274607 3317748 3350781 3377406 3402065 3429015 3461846 3503267 
851.425 3555427 3620268 3699869 3796493 3912512 4050035 4210710 4395379 
855.282 4603942 4835149 5086459 5354012 5632813 5917216 6201588 6481085 
859.139 6752254 7013062 7262695 7500742 7726630 7939074 8136234 8316198 
862.995 8477582 8620010 8744111 8851167 8942366 9018279 9078630 9122515 
866.852 9148906 9157166 9147354 9120203 9076750 9017996 8944742 8857615 
870.709 8757264 8644626 8520815 8386960 8243792 8091422 7929353 7756912 
874.566 7573804 7380600 7178832 6970704 6758514 6544002 6328141 6111233 
878.423 5893543 5675972 5460429 5249760 5047218 4855668 4676904 4511438 
882.280 4358820 4218228 4089287 3972476 3869139 3781052 3709830 3656347 
886.137 3620451 3600997 3596090 3603388 3620340 3644332 3672824 3703493 
889.994 3734473 3764506 3793066 3820141 3845834 3869929 3891554 3909252 
893.851 3921413 3926843 3925408 3918197 3907296 3895092 3883505 3873412 
897.708 3864516 3855679 3845684 3833767 3820103 3805647 3791812 3779847 
901.565 3770454 3763642 3758869 3755341 3752300 3749141 3745401 3740722 
905.422 3734790 3727504 3719162 3710579 3703136 3698399 3697728 3701762 
909.279 3710175 3721743 3734693 3747239 3758077 3766545 3772653 3776643 
913.136 3778788 3779051 3777215 3773049 3766639 3758509 3749624 3741064 
916.993 3733701 3727866 3723276 3719150 3714552 3708721 3701339 3692535 
920.849 3682752 3672464 3662020 3651380 3640305 3628377 3615240 3600683 
924.706 3584769 3567718 3549892 3531691 3513566 3495970 3479385 3464316 
928.563 3451262 3440621 3432685 3427524 3425012 3424883 3426757 3430231 
932.420 3434918 3440446 3446524 3452886 3459358 3465879 3472551 3479685 
936.277 3487696 3497136 3508477 3522062 3537959 3555962 3575626 3596394 
940.134 3617724 3639249 3660908 3682992 3706156 3731320 3759546 3791872 
943.991 3829002 3871188 3918038 3968598 4021547 4075571 4129818 4184239 
947.848 4239737 4297933 4360722 4429612 4505058 4586166 4670791 4755959 
951.705 4838594 4916193 4987257 5051258 5108301 5158470 5201290 5235392 
955.562 5258566 5268156 5261558 5236769 5192652 5129077 5046802 4947357 
959.419 4832910 4706243 4570746 4430305 4289172 4151561 4021249 3901175 
963.276 3793259 3698380 3616604 3547472 3490291 3444315 3408798 3382991 
967.133 3366043 3357035 3355001 3359042 3368377 3382370 3400477 3422162 
970.990 3446852 3473862 3502519 3532179 3562350 3592784 3623444 3654533 
974.847 3686435 3719599 3754492 3791491 3830804 3872354 3915796 3960586 
978.703 4006099 4051832 4097550 4143341 4189565 4236675 4285010 4334610 
982.560 4385225 4436408 4487731 4538924 4590014 4641257 4692993 4745483 
986.417 4798871 4853168 4908401 4964842 5022857 5082977 5145653 5210973 
990.274 5278541 5347572 5417073 5486249 5554815 5623101 5692001 5762625 
994.131 5836029 5912871 5993363 6077362 6164451 6254155 6345982 6439431 
997.988 6533915 6628924 6724096 6819603 6916304 7015861 7120473 7232433 
1001.845 7353538 7484607 7625302 7774368 7930119 8091110 8256625 8426949 
1005.702 8603176 8786773 8979212 9181551 9394427 9618217 9853393 10100788 
1009.559 10361666 10637628 10930271 11240851 11569973 11917585 12283111 
1012.934 12665695 13064498 13478899 13908535 14353225 14812699 15286516 
1016.309 15773825 16273382 16783630 17302916 17829708 18362806 18901346 
1019.683 19444766 19992534 20543778 21096974 21649826 22199408 22742618 
1023.058 23276824 23800470 24313468 24817314 25314874 25809888 26306642 
1026.433 26809588 27323342 27852636 28402256 28976840 29580418 30215936 
1029.809 30884882 31587178 32321454 33085502 33876912 34693300 35532448 
1033.184 36391844 37268244 38157256 39053132 39948904 40836792 41708528 
1036.559 42555840 43370644 44145196 44872424 45546220 46161812 46715768 
1039.934 47205992 47631124 47990100 48281576 48504000 48656032 48737408 
1043.310 48749512 48695840 48581684 48413528 48198208 47942416 47652404 
1046.685 47334152 46993712 46637304 46271164 45901184 45532500 45169200 
1050.060 44814288 44469972 44138040 43820036 43517168 43230216 42959220 
1053.435 42703416 42461644 42232732 42016344 41813348 41626076 41458168 
1056.811 41314140 41198952 41117720 41075768 41078532 41131920 41242148 
1060.186 41415620 41658644 41977008 42375572 42858044 43426796 44082820 
1063.561 44825532 45652844 46561076 47545336 48599888 49718764 50896292 
1066.936 52127512 53408028 54733764 56100524 57503688 58938284 60399516 
1070.312 61883140 63385976 64905668 66440212 67987088 69542760 71102584 
1073.687 72661272 74213616 75754872 77280624 78785800 80263512 81704256 
1077.062 83095984 84425032 85678008 86843088 87910632 88872352 89719912 
1080.437 90443752 91032320 91473672 91757128 91875896 91828264 91617936 
1083.813 91252848 90743528 90101856 89340136 88470784 87506368 86459536 
1087.188 85342768 84168032 82946768 81689904 80408008 79111312 77809360 
1090.563 76510216 75219816 73941488 72676208 71423392 70182112 68952152 
1093.938 67734664 66531772 65345992 64179224 63032120 61903900 60792916 
1097.313 59697320 58615876 57548248 56495024 55457096 54435228 53429616 
1100.689 52439880 51465272 50505280 49560036 48630652 47719140 46828356 
1104.064 45961424 45121480 44311356 43533388 42789416 42080884 41409104 
1107.439 40775444 40181356 39628508 39118656 38653420 38234036 37861124 
1110.814 37534544 37253340 37015932 36820232 36663740 36543788 36457672 
1114.190 36402680 36376296 36376328 36401068 36449416 36520880 36615460 
1117.565 36733400 36874908 37039936 37228212 37439208 37672352 37927124 
1120.940 38202908 38498576 38812004 39139520 39475660 39813192 40143560 
1124.315 40457668 40746532 41001900 41216388 41383584 41497904 41554580 
1127.691 41549932 41481636 41349156 41153880 40898828 40588128 40226176 
1131.066 39816820 39362828 38865612 38325404 37741672 37113664 36440928 
1134.441 35723744 34963308 34161632 33321590 32446640 31540624 30607740 
1137.816 29652480 28679720 27694688 26702982 25710506 24723288 23747332 
1141.192 22788506 21852342 20943962 20068040 19228522 18428600 17670542 
1144.567 16955838 16285214 15658930 15076986 14539249 14045529 13595426 
1147.942 13188204 12822534 12496535 12207785 11953648 11731503 11539129 
1151.317 11374737 11237046 11125077 11037961 10974776 10934490 10915965 
1154.693 10918185 10940325 10981879 11042625 11122541 11221686 11340106 
1158.068 11477976 11635683 11813976 12014192 12238218 12488425 12767471 
1161.443 13078174 13423373 13806042 14229363 14696959 15213068 15782498 
1164.818 16410562 17102946 17865504 18704166 19625028 20634448 21739188 
1168.194 22946426 24263670 25698354 27257410 28946626 30770114 32729748 
1171.569 34824756 37051344 39402288 41866668 44429468 47071296 49768012 
1174.944 52490580 55204964 57872248 60449292 62889780 65146048 67171704 
1178.319 68924368 70368936 71479848 72243080 72656784 72731080 72486792 
1181.695 71953496 71167048 70166832 68992904 67683920 66275496 64799424 
1185.070 63283472 61751576 60223984 58717496 57245524 55818176 54442556 
1188.445 53123164 51862516 50661848 49521528 48441508 47421320 46460020 
1191.820 45556276 44708212 43913664 43170312 42475928 41828408 41225656 
1195.196 40665568 40145936 39664412 39218740 38806900 38427256 38078572 
1198.571 37759796 37469772 37206952 36969324 36754344 36559288 36381356 
1201.946 36218040 36067064 35926352 35793936 35667704 35545636 35425656 
1205.321 35305692 35183856 35058084 34926164 34785544 34633420 34466948 
1208.697 34283632 34081756 33860504 33619888 33360472 33082840 32787334 
1212.072 32473898 32142174 31791920 31423268 31036968 30634410 30217428 
1215.447 29788136 29348660 28901110 28447610 27990236 27531058 27071876 
1218.822 26614190 26158940 25706560 25257068 24810358 24366478 23925822 
1222.198 23489106 23057302 22631434 22212354 21800708 21396982 21001648 
1225.573 20615294 20238692 19872684 19518066 19175336 18844630 18525686 
1228.948 18217974 17920968 17634250 17357684 17091364 16835504 16590367 
1232.323 16356014 16132399 15919274 15716271 15522933 15338728 15163103 
1235.698 14995404 14834949 14681078 14533326 14391422 14255361 14125387 
1239.074 14001784 13884746 13774267 13670029 13571411 13477658 13387932 
1242.449 13301583 13218199 13137734 13060497 12987129 12918483 12855522 
1245.824 12799127 12749943 12708305 12674171 12647113 12626508 12611553 
1249.199 12601538 12595892 12594208 12596290 12602106 12611717 12625314 
1252.575 12643166 12665655 12693246 12726486 12765841 12811643 12863934 
1255.950 12922394 12986319 13054654 13126226 13199800 13274390 13349284 
1259.325 13424094 13498697 13573056 13647041 13720292 13792142 13861792 
1262.700 13928378 13991179 14049719 14103733 14153016 14197139 14235313 
1266.076 14266364 14288794 14301048 14301819 14290281 14266120 14229466 
1269.451 14180642 14119878 14047177 13962273 13864756 13754231 13630621 
1272.826 13494140 13345328 13184865 13013434 12831503 12639333 12437013 
1276.201 12224666 12002617 11771497 11532359 11286508 11035484 10780830 
1279.577 10524020 10266456 10009480 9754471 9502870 9256187 9015999 8783711 
1283.434 8560597 8347645 8145641 7955219 7777055 7611947 7460869 7325004 
1287.292 7205559 7103654 7020092 6955316 6909266 6881512 6871311 6877783 
1291.149 6899877 6936436 6986054 7046986 7117081 7193811 7274443 7356306 
1295.006 7436999 7514687 7588109 7656630 7720095 7778693 7832858 7883067 
1298.864 7929852 7973629 8014613 8052758 8087734 8118964 8145789 8167636 
1302.721 8184242 8195659 8202356 8205006 8204426 8201416 8196677 8190877 
1306.579 8184633 8178590 8173281 8169074 8166013 8163673 8161311 8157933 
1310.436 8152688 8145061 8135099 8123351 8110779 8098392 8087054 8077273 
1314.293 8069131 8062423 8056828 8052030 8047872 8044287 8041379 8039187 
1318.151 8037773 8037143 8037246 8038039 8039501 8041617 8044422 8047956 
1322.008 8052228 8057313 8063297 8070333 8078619 8088535 8100555 8115300 
1325.866 8133488 8155900 8183171 8215725 8253721 8296945 8344976 8397282 
1329.723 8453459 8513331 8577016 8644848 8717266 8794544 8876731 8963601 
1333.581 9054678 9149449 9247424 9348305 9452012 9558687 9668645 9782240 
1337.438 9899870 10021905 10148580 10280018 10416164 10556848 10701843 
1340.813 10850935 11004055 11161304 11322995 11489540 11661363 11838855 
1344.188 12022256 12211716 12407281 12608927 12816532 13029872 13248515 
1347.564 13471755 13698639 13928011 14158556 14388920 14617796 14843912 
1350.939 15066053 15283036 15493698 15696953 15891723 16077004 16251780 
1354.314 16415115 16566132 16703942 16827920 16937612 17032884 17113970 
1357.689 17181352 17235864 17278582 17310784 17333976 17349814 17360006 
1361.065 17366242 17369972 17372188 17373314 17373006 17370238 17363242 
1364.440 17349764 17327200 17292648 17243234 17175964 17088072 16977024 
1367.815 16840786 16678141 16488966 16274753 16038840 15786730 15526085 
1371.190 15266693 15019964 14798447 14615104 14482379 14411283 14410342 
1374.566 14484741 14635549 14859428 15148698 15491854 15874444 16280206 
1377.941 16692209 17094058 17470836 17809724 18100344 18334664 18506756 
1381.316 18612506 18649454 18616782 18515334 18347616 18117634 17830512 
1384.691 17492152 17108850 16687037 16233110 15753201 15252998 14737482 
1388.067 14210676 13675642 13134721 12589775 12042649 11495396 10950454 
1391.442 10410490 9878267 9356585 8848225 8356151 7883496 7433660 7010035 
1395.299 6615588 6252479 5921659 5622836 5354463 5114147 4899004 4706003 
1399.157 4532336 4375598 4233826 4105572 3989702 3885331 3791646 3707791 
1403.014 3632883 3565896 3505884 3451934 3403298 3359327 3319445 3283079 
1406.872 3249532 3218098 3188124 3159133 3130985 3103937 3078597 3055701 
1410.729 3035882 3019460 3006283 2995777 2987059 2979280 2971782 2964362 
1414.586 2957257 2951102 2946675 2944627 2945428 2949070 2955213 2963321 
1418.444 2972792 2983153 2994208 3006056 3019036 3033639 3050355 3069578 
1422.301 3091602 3116553 3144462 3175320 3209170 3246209 3286769 3331413 
1426.159 3380829 3435690 3496473 3563315 3635920 3713590 3795544 3881066 
1430.016 3970005 4062813 4160577 4264854 4377424 4500027 4634297 4781913 
1433.874 4944690 5124867 5325091 5548353 5797704 6075968 6385602 6728784 
1437.731 7107594 7524215 7980955 8480018 9022909 9609964 10239755 10909025 
1441.588 11612749 12344538 13097006 13861980 14630784 15394345 16143608 
1444.964 16869914 17565546 18224044 18840348 19410590 19931890 20402176 
1448.339 20820196 21185614 21499020 21761778 21975640 22142300 22263140 
1451.714 22339008 22370478 22357922 22301534 22201212 22056272 21865272 
1455.089 21626272 21337462 20997894 20608316 20171336 19691070 19172336 
1458.465 18619942 18038206 17431204 16803098 16158658 15503323 14842910 
1461.840 14183031 13528569 12883422 12250602 11632649 11031982 10451020 
1465.215 9892041 9356999 8847199 8363210 7905169 7472850 7065920 6683991 
1469.073 6326446 5992399 5680525 5389275 5117069 4862625 4625036 4403838 
1472.930 4198817 4009733 3836178 3677578 3533228 3402473 3284677 3179225 
1476.787 3085298 3001778 2927164 2859758 2797852 2740108 2685713 2634416 
1480.645 2586409 2542090 2501733 2465381 2432791 2403450 2376782 2352265 
1484.502 2329439 2308014 2287745 2268459 2250027 2232354 2215444 2199389 
1488.360 2184303 2170357 2157692 2146285 2136114 2126988 2118655 2110893 
1492.217 2103465 2096211 2089039 2081956 2074996 2068216 2061668 2055356 
1496.074 2049255 2043340 2037656 2032343 2027595 2023628 2020539 2018237 
1499.932 2016364 2014382 2011716 2007909 2002863 1996813 1990400 1984358 
1503.789 1979422 1976070 1974406 1974262 1975167 1976648 1978254 1979653 
1507.647 1980616 1980972 1980518 1979038 1976355 1972382 1967246 1961281 
1511.504 1954983 1948959 1943727 1939622 1936702 1934736 1933208 1931498 
1515.362 1928938 1924990 1919395 1912203 1903837 1895022 1886596 1879340 
1519.219 1873748 1869939 1867553 1865855 1863963 1861053 1856721 1850984 
1523.076 1844357 1837602 1831548 1826691 1823098 1820443 1817973 1814966 
1526.934 1810839 1805471 1799170 1792573 1786373 1781070 1776701 1772924 
1530.791 1769034 1764391 1758521 1751475 1743705 1735952 1728962 1723219 
1534.649 1718715 1715111 1711839 1708361 1704431 1700155 1695880 1692074 
1538.506 1689023 1686713 1684730 1682443 1679159 1674408 1668041 1660319 
1542.364 1651818 1643281 1635431 1628851 1623803 1620330 1618181 1616913 
1546.221 1616043 1615103 1613768 1611908 1609520 1606753 1603815 1600875 
1550.078 1598092 1595553 1593329 1591498 1590081 1589032 1588166 1587115 
1553.936 1585426 1582643 1578535 1573159 1566967 1560692 1555190 1551173 
1557.793 1549029 1548673 1549644 1551202 1552607 1553282 1552947 1551638 
1561.651 1549550 1547052 1544521 1542338 1540753 1539929 1539863 1540284 
1565.508 1540791 1540883 1540189 1538576 1536346 1534050 1532433 1532112 
1569.365 1533290 1535692 1538633 1541256 1542826 1543044 1542127 1540718 
1573.223 1539602 1539487 1540727 1543248 1546592 1550088 1553057 1554953 
1577.080 1555509 1554792 1553085 1550922 1548918 1547684 1547722 1549234 
1580.938 1552117 1555871 1559857 1563401 1566098 1567911 1569173 1570370 
1584.795 1571944 1574034 1576416 1578643 1580279 1581233 1581875 1583039 
1588.653 1585712 1590681 1598192 1607801 1618516 1629056 1638372 1645848 
1592.510 1651480 1655845 1659731 1663955 1668972 1674971 1681819 1689230 
1596.367 1696889 1704543 1712028 1719208 1726089 1732655 1739121 1745819 
1600.225 1753234 1761906 1772253 1784399 1798123 1812790 1827571 1841551 
1604.082 1854047 1864705 1873557 1880929 1887377 1893429 1899550 1905982 
1607.940 1912872 1920309 1928391 1937346 1947452 1959030 1972325 1987337 
1611.797 2003790 2021053 2038308 2054647 2069357 2082035 2092682 2101727 
1615.655 2109851 2117865 2126424 2136005 2146726 2158527 2171138 2184268 
1619.512 2197617 2210866 2223686 2235734 2246593 2255894 2263392 2268979 
1623.369 2272720 2274867 2275698 2275512 2274596 2273168 2271500 2269836 
1627.227 2268526 2267851 2268082 2269272 2271226 2273521 2275487 2276356 
1631.084 2275394 2272047 2266080 2257652 2247333 2236036 2224925 2215144 
1634.942 2207622 2202912 2200995 2201393 2203250 2205566 2207475 2208355 
1638.799 2207845 2205906 2202593 2198062 2192462 2185923 2178652 2170855 
1642.656 2162763 2154672 2146846 2139516 2132957 2127473 2123485 2121438 
1646.514 2121733 2124536 2129668 2136507 2144139 2151567 2157985 2162999 
1650.371 2166703 2169619 2172469 2175834 2180058 2185092 2190597 2196139 
1654.229 2201459 2206516 2211519 2216757 2222434 2228538 2234918 2241257 
1658.086 2247276 2252925 2258298 2263630 2269265 2275415 2282176 2289480 
1661.944 2297250 2305406 2313999 2323161 2333092 2343946 2355686 2368060 
1665.801 2380620 2392802 2404060 2414071 2422819 2430612 2438159 2446173 
1669.658 2455383 2466133 2478368 2491672 2505449 2519133 2532540 2545859 
1673.516 2559698 2574674 2591247 2609369 2628402 2647359 2665190 2681242 
1677.373 2695507 2708645 2721816 2736243 2752894 2772211 2793937 2817430 
1681.231 2841788 2866191 2890058 2913099 2935276 2956728 2977862 2999227 
1685.088 3021553 3045679 3072353 3102043 3134805 3170151 3207162 3244791 
1688.946 3282097 3318580 3354328 3389946 3426442 3464778 3505853 3550162 
1692.803 3597902 3648953 3703005 3759542 3817974 3877537 3937571 3997556 
1696.660 4057466 4117915 4180159 4246011 4317506 4396433 4483959 4580269 
1700.518 4684501 4795068 4910010 5027660 5147041 5268149 5391971 5520190 
1704.375 5654889 5798109 5951500 6116067 6292052 6479025 6676146 6882294 
1708.233 7096421 7317593 7545291 7779399 8020252 8268700 8525927 8793411 
1712.090 9072567 9364513 9669724 9987853 10317744 10657709 11005947 11360956 
1715.948 11721847 12088498 12461202 12840375 13226178 13618270 14016169 
1719.323 14419571 14828859 15245619 15672478 16112834 16570376 17048558 
1722.698 17550246 18077966 18634170 19221676 19843992 20505292 21210318 
1726.073 21964064 22771666 23638330 24569420 25570408 26646626 27802976 
1729.448 29043672 30372172 31791884 33307102 34923904 36650540 38496532 
1732.824 40470820 42579188 44822160 47194256 49685560 52284896 54983316 
1736.199 57776600 60664944 63650472 66733104 69906640 73156688 76461192 
1739.574 79793336 83125176 86430248 89683888 92861592 95936624 98879136 
1742.949 101657472 104241576 106606200 108732752 110608328 112223176 
1745.843 113567784 114632728 115410248 115897664 116099856 116029344 
1748.736 115703760 115142104 114361896 113378272 112205256 110857536 
1751.629 109351704 107705400 105935288 104055008 102074064 99998952 97835240 
1755.004 95590248 93274344 90901072 88485872 86044288 83590656 81137584 
1758.379 78696320 76277344 73890352 71544488 69247640 67006488 64826392 
1761.754 62712200 60668684 58700736 56812884 55008448 53288556 51651656 
1765.130 50093948 48610224 47195248 45844684 44555512 43325652 42153196 
1768.505 41035600 39969368 38950124 37973248 37034356 36129500 35254984 
1771.880 34406868 33580540 32770616 31971344 31177270 30383990 29588384 
1775.255 28788704 27984008 27173784 26357662 25535464 24707504 23874958 
1778.631 23039966 22205474 21374788 20551050 19736814 18934040 18144178 
1782.006 17368654 16609211 15868068 15147726 14450800 13779534 13135684 
1785.381 12520337 11934173 11377700 10851306 10355380 9890000 9454755 
1788.756 9048525 8669669 8316234 7986316 7678696 7392644 7127845 6883889 
1792.614 6659829 6453913 6263674 6086355 5919427 5761059 5610354 5467203 
1796.471 5332011 5205221 5087025 4977272 4875564 4781316 4693909 4612622 
1800.329 4536737 4465271 4397161 4331283 4266795 4203335 4141078 4080778 
1804.186 4023526 3970223 3921508 3877190 3836381 3797500 3758619 3717934 
1808.043 3674129 3626743 3576343 3524319 3472567 3422863 3376384 3333215 
1811.901 3292301 3251793 3209596 3164147 3115031 3063300 3011378 2962522 
1815.758 2920076 2886695 2863639 2850540 2845414 2845170 2846349 2845710 
1819.616 2840896 2830666 2814919 2794309 2770018 2743173 2714629 2684786 
1823.473 2653602 2620966 2586919 2551865 2516702 2482566 2450549 2421342 
1827.331 2395002 2370783 2347514 2323847 2298602 2271112 2241254 2209339 
1831.188 2176036 2142107 2108255 2075197 2043557 2013776 1986071 1960181 
1835.045 1935525 1911088 1885874 1859196 1830970 1801773 1772759 1745135 
1838.903 1719796 1696955 1676188 1656585 1637302 1617732 1597870 1578146 
1842.760 1559120 1541166 1524346 1508398 1493031 1478144 1464118 1451531 
1846.618 1441021 1432768 1426393 1420894 1415049 1407893 1399162 1389279 
1850.475 1379268 1370052 1362079 1354870 1347359 1338158 1326395 1312167 
1854.333 1296704 1282092 1270546 1263650 1261854 1264194 1268817 1273342 
1858.190 1275742 1274772 1270034 1261983 1251487 1239435 1226733 1213982 
1862.047 1201760 1190572 1180883 1172926 1166669 1161587 1156817 1151129 
1865.905 1143444 1132972 1119598 1103736 1086432 1068960 1052718 1038717 
1869.762 1027515 1019001 1012548 1007185 1002057 996796 991864 988558 988712 
1874.102 994076 1005486 1022056 1041123 1058253 1068547 1067731 1053555 
1877.959 1026506 990084 949742 911887 882146 864362 859816 867483 884229 
1882.299 905919 927997 946191 957200 959036 951429 935970 915851 895359 
1886.638 878912 869955 869943 878012 891228 905522 916907 922778 922443 
1890.978 917064 909016 900945 894728 891240 890199 890876 892340 894097 
1895.318 895797 897378 898311 897834 894535 887256 874965 857558 835595 
1899.657 810455 783702 756842 730816 706221 683286 662437 644377 630412 
1903.997 622226 621411 628633 643387 663281 684762 703660 716605 721907 
1908.336 720495 715299 710375 709036 712528 719163 725056 725564 717759 
1912.676 701705 681339 663057 653418 656441 671970 695144 718124 732679 
1917.016 733113 717897 690104 655483 620275 588882 562628 540192 518807 
1921.355 496015 470854 444081 417918 394708 376430 363979 357717 357390 
1925.695 362836 373709 389289 407825 426836 443106 454029 457747 454050 
1930.034 443916 429155 411309 391633 370581 348766 327036 306869 290130 
1934.374 278287 271551 268653 266565 261328 248803 225783 190563 144075 
1938.714 89776 34226 -13828 -44182 -48132 -20449 37660 117868 205262 282125 
1943.535 332296 346444 324647 276476 217729 165641 133451 127721 147529 
1947.875 186940 238041 293526 347382 393965 426866 437970 419033 364904 
1952.215 276589 163551 41802 -69633 -155137 -207275 -228893 -230824 -226854 
1956.554 -226961 -233251 -238121 -228572 -191228 -119743 -18377 97383 205545 
1960.894 283692 316121 297020 232141 135102 24689 -80538 -164463 -217108 
1965.233 -234676 -220398 -184129 -140644 -106790 -98840 -128254 -200227 
1969.091 -311719 -453135 -609358 -763511 -899201 -1003684 -1069177 -1094961 
1972.948 -1085386 -1049541 -996553 -933289 -858883 -764821 -635701 -455736 
1976.806 -215722 77909 401841 718973 989937 1184863 1292454 1320813 1292344 
1981.145 1233848 1167869 1106725 1051100 992752 920864 827004 710855 579233 
1985.485 445222 323103 225239 158556 124937 121287 142450 181278 230880 
1989.824 283353 331255 367164 385178 381519 355745 309781 248579 177719 
1994.164 104158 34881 -23093 -63121 -79339 -68710 -31767 26013 94511 160535 
1998.986 210804 234201 225335 184292 117149 33433 -55730 -141043 -216141 
2003.325 -278931 -330695 -375808 -418440 -462004 -506023 -546520 -576081 
2007.183 -586406 -570583 -527082 -459703 -378329 -294815 -220602 -162428 
2011.040 -122953 -99473 -87304 -81290 -78111 -75223 -70814 -61714 -43989 
2015.380 -14054 27769 74487 112032 121382 84444 -8946 -156173 -339886 
2019.719 -532427 -702013 -822671 -879491 -872432 -812566 -717170 -601574 
2023.577 -476395 -345226 -208920 -68650 70184 198439 304308 378379 415643 
2027.917 417085 386985 330691 250371 145354 13138 -145519 -323295 -502492 
2032.256 -657641 -759683 -784385 -718662 -566863 -348996 -97758 150483 
2036.114 362638 516254 601753 623172 594383 536066 469535 414074 382819 
2040.453 381830 409184 456213 509038 551896 569852 551816 493488 398342 
2044.793 278314 152893 45031 -21258 -27365 36573 167088 346989 546541 730486 
2049.615 865430 928963 913798 829330 697545 548563 413308 318359 279925 
2053.954 301730 373700 476306 585131 678818 743136 773791 774358 753696 
2058.294 720909 682605 641284 596059 545143 488541 429561 375469 334975 
2062.633 316267 323393 355293 405457 464108 520629 566758 597480 612316 
2066.973 613624 605540 592403 578111 565683 558378 558977 570780 595946 
2071.313 635119 685953 743416 799460 845266 872800 877160 857687 818906 
2075.652 769198 719599 680679 660752 663464 687571 727217 773825 818477 
2079.992 854175 877207 887742 888171 882177 872106 858616 840051 814249 
2084.331 779644 737216 690576 645588 607978 581659 566678 559521 553657 
2088.671 542158 519836 484812 438728 386079 332435 283157 242716 214838 
2093.010 202765 209903 238613 289563 359497 440811 521837 589807 633691 
2097.350 648148 634557 600874 558512 519165 490896 476948 475490 481947 
2101.690 491193 499870 506759 512572 518066 523506 527834 529835 529135 
2106.029 527179 527356 533852 549554 574935 606565 638291 662728 673702 
2110.369 667919 646242 612686 573656 535463 503441 480270 466441 460120 
2114.708 458429 457907 455792 450111 440588 427756 413059 397491 381093 
2119.048 362224 337987 304815 260282 203946 138221 67629 -2397 -67632 
2123.388 -125957 -178409 -227779 -277510 -329454 -383679 -437840 -489093 
2127.245 -535233 -576382 -614667 -654081 -698153 -749117 -806920 -869636 
2131.103 -933966 -996989 -1056282 -1110427 -1157843 -1196359 -1222647 
2134.478 -1233175 -1224693 -1196240 -1149453 -1089506 -1023981 -962375 
2137.853 -914315 -888982 -892671 -928619 -994377 -1082403 -1179946 -1272610 
2141.710 -1347139 -1396698 -1421927 -1432316 -1441206 -1462142 -1502018 
2145.086 -1559195 -1623664 -1681972 -1722587 -1742009 -1745626 -1746815 
2148.461 -1760326 -1797814 -1862624 -1950650 -2052199 -2156601 -2255396 
2151.836 -2344822 -2423419 -2493487 -2557363 -2620072 -2688268 -2771327 
2155.211 -2876296 -3004066 -3140639 -3255242 -3301229 -3230229 -3009094 
2158.587 -2642084 -2176877 -1697261 -1292906 -1031069 -934032 -980516 
2161.962 -1117502 -1283098 -1422866 -1503436 -1512844 -1458498 -1357581 
2165.337 -1231921 -1101753 -985750 -899606 -856732 -864907 -924204 -1023786 
2169.195 -1144319 -1260305 -1349029 -1395187 -1396936 -1364311 -1316679 
2172.570 -1274059 -1252518 -1258339 -1288906 -1333748 -1380025 -1414555 
2175.945 -1428667 -1417441 -1381305 -1324383 -1255019 -1183178 -1120525 
2179.320 -1075708 -1053472 -1051812 -1062991 -1075631 -1078928 -1065641 
2182.696 -1034300 -987502 -929484 -862599 -786830 -700266 -603288 -499850 
2186.553 -399556 -313681 -252067 -217231 -203330 -196869 -183598 -153233 
2190.410 -106245 -53062 -11456 1612 -24134 -86693 -173738 -266316 -347342 
2194.750 -406688 -445030 -471214 -498604 -537469 -590958 -652938 -710200 
2198.607 -747094 -750742 -715239 -643996 -547910 -443278 -347077 -273480 
2202.465 -230759 -220230 -236490 -269882 -307864 -339733 -356727 -354831 
2206.322 -333305 -294658 -242426 -181214 -115186 -49500 10709 59342 91366 
2210.662 103615 97236 76912 51171 29452 19476 24498 42908 68179 91984 106215 
2215.966 106209 90684 63174 29318 -3505 -28418 -39425 -32899 -7236 35795 
2220.788 91753 152898 210478 255664 282445 288077 274580 246428 209836 
2225.127 169734 129152 89034 49402 10611 -24861 -52891 -67948 -65373 -42486 
2229.949 51 59048 128912 203946 278566 348674 410994 463388 503952 531858 
2234.771 546744 550095 544001 532011 517388 503461 492228 485030 482071 
2239.110 483584 489169 498652 511235 526043 541644 556761 570400 582393 
2243.450 593085 603042 612210 619602 622887 619299 606251 582916 550650 
2247.790 513559 477523 449043 433232 432816 446943 472085 502222 531609 
2252.129 555411 571751 581343 587363 593560 603096 616705 632804 647580 
2256.469 656998 657854 649674 634308 616122 600100 590784 590858 601155 
2260.808 620707 647843 680755 718275 759730 804782 853058 903854 956304 
2265.148 1009441 1061840 1112094 1157942 1196729 1225407 1241799 1245435 
2269.005 1238528 1225764 1213757 1208699 1214874 1232818 1259493 1289123 
2272.863 1315753 1334780 1344983 1348149 1348236 1349393 1354426 1364002 
2276.720 1377286 1392720 1409685 1428805 1452227 1482293 1520527 1566534 
2280.578 1618066 1671137 1721458 1765014 1798966 1821462 1831688 1829407 
2284.435 1815162 1790173 1757042 1719153 1680878 1646337 1618742 1599669 
2288.292 1588889 1584678 1584719 1586880 1589735 1592607 1595117 1596888 
2292.150 1597201 1594820 1588933 1579083 1566033 1551281 1537003 1524884 
2296.007 1515974 1509811 1505160 1500275 1493858 1485600 1476449 1468115 
2299.865 1462623 1461228 1464273 1470700 1478864 1486761 1493144 1497694 
2303.722 1501323 1505512 1511851 1521208 1533340 1546882 1559764 1569857 
2307.580 1575762 1577233 1575309 1571729 1568567 1567441 1569308 1574263 
2311.437 1582052 1592172 1604484 1618882 1635461 1653858 1673295 1692564 
2315.294 1710478 1726078 1739327 1750858 1761980 1774171 1788863 1807418 
2319.152 1831461 1862934 1904157 1957150 2022187 2096473 2173061 2241130 
2323.009 2287793 2300813 2271967 2199376 2088236 1949959 1799632 1653087 
2326.867 1523637 1419774 1344352 1294728 1264685 1246639 1233902 1222099 
2330.724 1209496 1196349 1184004 1173765 1166487 1162310 1161064 1162563 
2334.582 1166825 1173867 1183715 1195996 1209858 1224064 1237165 1247724 
2338.439 1254703 1257355 1255393 1248941 1238445 1224687 1208681 1191516 
2342.296 1174425 1158446 1144417 1133085 1124962 1120449 1119729 1122553 
2346.154 1128285 1135506 1142573 1147638 1149423 1147535 1142749 1136827 
2350.011 1131935 1129703 1130911 1134743 1139396 1142467 1141905 1136636 
2353.869 1127004 1114316 1100482 1087196 1075436 1065196 1055780 1046157 
2357.726 1035551 1023538 1010369 996541 982638 969008 955611 942147 928095 
2362.066 913083 896946 879850 862363 845219 829271 815207 803516 794461 
2366.405 788057 784338 783423 785732 791799 802069 816529 834234 853312 
2370.745 871077 884701 891998 892243 886485 877419 868579 863346 863799 
2375.084 870212 880946 893218 903955 910836 912976 911086 906978 903106 
2379.424 901699 904292 911445 922748 936954 952291 966736 978440 985956 
2383.764 988683 986977 982191 976398 971960 970712 973757 980964 991169 
2388.103 1002569 1013352 1021974 1027689 1030552 1031223 1030847 1030671 
2391.961 1031896 1035586 1042377 1052544 1065608 1080563 1095719 1109182 
2395.818 1119193 1124739 1125664 1123032 1118673 1114778 1113034 1114310 
2399.676 1118078 1122748 1125916 1125282 1119194 1107602 1091904 1075116 
2403.533 1060995 1053170 1054178 1064805 1083756 1107825 1132587 1153566 
2407.390 1167016 1170937 1165160 1151424 1132585 1112135 1092997 1077389 
2411.248 1066079 1058898 1054646 1051966 1049656 1047160 1044533 1042366 
2415.105 1041306 1041611 1042676 1043450 1042477 1038737 1032011 1023259 
2418.963 1014205 1006921 1002710 1001703 1002704 1003609 1002358 997988 
2422.820 990902 983100 977135 975254 978310 985667 995208 1004536 1011765 
2427.160 1016326 1018948 1021271 1025049 1031307 1040079 1050515 1061298 
2431.017 1071060 1078581 1083077 1083739 1079866 1070998 1057184 1039301 
2434.875 1019239 999352 982166 969276 961182 956996 955295 954587 954295 
2439.214 954565 956499 960865 967926 976606 985184 991676 994861 994616 
2443.554 992149 989459 988453 990283 995123 1002150 1010040 1017482 1023635 
2447.893 1027890 1030124 1030261 1028612 1025684 1022615 1020890 1022354 
2451.751 1028247 1038967 1053368 1069058 1082876 1091796 1093539 1087409 
2455.608 1073971 1054957 1032463 1008633 985194 963666 944903 929694 918328 
2459.948 910698 906215 904033 903412 904148 906819 912650 923003 938739 
2464.287 959343 982778 1005353 1022745 1030724 1026445 1009266 980845 944979 
2468.627 906991 872621 847083 833878 834510 847793 870361 897163 922594 
2472.967 941634 951176 950270 940613 925635 909760 896892 889836 889488 
2477.306 895041 904296 914608 923334 928700 929900 927279 921980 915791 
2481.646 910322 907082 906603 908812 912831 917573 921886 925187 927318 
2485.985 928736 929938 931324 932951 934578 935890 936829 937684 939130 
2490.325 942017 946820 953557 961529 969505 976151 980182 980972 978210 
2494.665 972261 963740 953783 943564 934626 928373 925982 927788 933219 
2499.004 940623 947655 951823 951380 945595 935328 922390 909232 898011 
2503.344 890331 886873 887445 891280 897310 904339 911019 916069 918297 
2507.683 916907 911770 903623 894006 884940 878361 875578 876887 881459 
2512.023 887494 892741 895272 893630 887587 877982 866937 857225 851861 
2516.363 853049 861802 877024 895728 913575 926281 930684 926181 914813 
2520.702 900774 889021 883547 885940 894966 907071 917860 923559 922301 
2525.042 914522 902404 888772 876157 865835 858007 852017 847275 843434 
2529.381 840918 840242 842007 846325 853104 861822 872125 883618 895962 
2533.721 908413 919923 928939 934020 934325 930223 923306 916133 911644 
2538.061 912004 918267 929987 945429 962348 978486 992067 1002043 1007868 
2542.400 1009437 1006856 1000296 990433 978118 964702 951725 940651 932653 
2546.740 928353 927516 929667 933717 938620 943329 947273 950324 953078 
2551.079 956412 961479 969030 978999 990244 1000632 1007456 1008381 1002241 
2555.419 989676 973109 956137 942552 935091 934584 939906 948376 956902 
2559.759 962994 965725 965881 965550 967264 973089 983765 998662 1015648 
2564.098 1032207 1045892 1055208 1059955 1061158 1060533 1060063 1061121 
2567.956 1064266 1069054 1074402 1079031 1082087 1083365 1083448 1083256 
2571.813 1083708 1085176 1087394 1089629 1091280 1092105 1092886 1095090 
2575.670 1100569 1110714 1125995 1145535 1167373 1189042 1208383 1224019 
2579.528 1235793 1244425 1250994 1256373 1260777 1263608 1263965 1260964 
2583.385 1254292 1244459 1232822 1221146 1211148 1204204 1200964 1201482 
2587.243 1205432 1212226 1221527 1232984 1246354 1261214 1276941 1292476 
2591.100 1306603 1318053 1326084 1330459 1331698 1330849 1329149 1327674 
2594.958 1326876 1326558 1325916 1323926 1319531 1312167 1301761 1288888 
2598.815 1274558 1260198 1247427 1238008 1233611 1235365 1243681 1257747 
2602.672 1275577 1294386 1311275 1324114 1332471 1337722 1342818 1351035 
2606.530 1364885 1384870 1409092 1433852 1454617 1467626 1471050 1465497 
2610.387 1453625 1439104 1425456 1415038 1408665 1405875 1405547 1406613 
2614.245 1408433 1410965 1414384 1418935 1424560 1431020 1437975 1445170 
2618.102 1452509 1460000 1467573 1475026 1482034 1488403 1494193 1499872 
2621.959 1506080 1513533 1522380 1532236 1542096 1550858 1557623 1562230 
2625.817 1565312 1568061 1571693 1576853 1583569 1590870 1597583 1602638 
2629.674 1605503 1606611 1606914 1607757 1610341 1615368 1623122 1633268 
2633.532 1645083 1657664 1669977 1680993 1689745 1695586 1698307 1698121 
2637.389 1695824 1692294 1688487 1684873 1681570 1678380 1675074 1671740 
2641.247 1669035 1667892 1669369 1674044 1681699 1691312 1701240 1709741 
2645.104 1715621 1718479 1718792 1717583 1716009 1714852 1714443 1714515 
2648.961 1714613 1714293 1713366 1711949 1710299 1708604 1706810 1704730 
2652.819 1702016 1698400 1693775 1688317 1682287 1675942 1669400 1662613 
2656.676 1655298 1647257 1638250 1628194 1617091 1604903 1591543 1576874 
2660.534 1560656 1542809 1523420 1502822 1481577 1460400 1440094 1421285 
2664.391 1404483 1389974 1377812 1367738 1359235 1351560 1343910 1335524 
2668.249 1325929 1315078 1303510 1292108 1282027 1274162 1269095 1266756 
2672.106 1266591 1267786 1269573 1271566 1273847 1276854 1281116 1286868 
2675.963 1293761 1300818 1306739 1310096 1310018 1306359 1299782 1291686 
2679.821 1283560 1276662 1271567 1268104 1265539 1262874 1259426 1255033 
2683.678 1250109 1245470 1242017 1240289 1240314 1241661 1243557 1245274 
2687.536 1246487 1247179 1247682 1248356 1249363 1250533 1251334 1251270 
2691.393 1249989 1247625 1244585 1241589 1239115 1237253 1235526 1233202 
2695.250 1229507 1224104 1217363 1210394 1204598 1201273 1201226 1204268 
2699.108 1209416 1215199 1220162 1223264 1224170 1223149 1220871 1217976 
2702.965 1214909 1211913 1208988 1206225 1204041 1202943 1203564 1206307 
2706.823 1210979 1216850 1222724 1227284 1229580 1229300 1226860 1223168 
2710.680 1219356 1216306 1214362 1213361 1212687 1211658 1209776 1206892 
2714.538 1203327 1199588 1196301 1193960 1192890 1193192 1194832 1197727 
2718.395 1201798 1206861 1212701 1218888 1224933 1230187 1234049 1236045 
2722.252 1235817 1233338 1228733 1222404 1215042 1207432 1200386 1194732 
2726.110 1191112 1189844 1190839 1193761 1197998 1202877 1207857 1212621 
2729.967 1217002 1220873 1224068 1226241 1227070 1226171 1223524 1219467 
2733.825 1214814 1210690 1208258 1208370 1211404 1217012 1224417 1232458 
2737.682 1240053 1246295 1250659 1253007 1253503 1252549 1250539 1247951 
2741.540 1245252 1242809 1240906 1239701 1239175 1239181 1239555 1240205 
2745.397 1241121 1242442 1244315 1246704 1249407 1251880 1253489 1253709 
2749.254 1252198 1249150 1245059 1240581 1236258 1232265 1228335 1223879 
2753.112 1218426 1211727 1204169 1196507 1189774 1184912 1182278 1181637 
2756.969 1182259 1183111 1183392 1182740 1181193 1179350 1177875 1177305 
2760.827 1177991 1179860 1182617 1185901 1189334 1192482 1195048 1196719 
2764.684 1197279 1196793 1195586 1194369 1193948 1194850 1197180 1200297 
2768.542 1202942 1203671 1201304 1195562 1187269 1178139 1170380 1165863 
2772.399 1165593 1169358 1175870 1183370 1190147 1195182 1198427 1200437 
2776.256 1202253 1204757 1208423 1213272 1219061 1225504 1232423 1239764 
2780.114 1247424 1255125 1262121 1267638 1270885 1271525 1269956 1267222 
2783.971 1264692 1263699 1264878 1268100 1272480 1276749 1279853 1281279 
2787.829 1281388 1281180 1281897 1284594 1289673 1296754 1304848 1312748 
2791.686 1319343 1324190 1327338 1329616 1332063 1335700 1341323 1349279 
2795.543 1359318 1370832 1382923 1394607 1404945 1413290 1419237 1422662 
2799.401 1423742 1422974 1420891 1418178 1415436 1413125 1411640 1411103 
2803.258 1411562 1412933 1415046 1417865 1421316 1425406 1430195 1435719 
2807.116 1441913 1448609 1455561 1462422 1468947 1475021 1480787 1486546 
2810.973 1492759 1499870 1508116 1517479 1527704 1538358 1549017 1559548 
2814.831 1569951 1580594 1591791 1603681 1616050 1628112 1638864 1647170 
2818.688 1652336 1654332 1653990 1652881 1652841 1655559 1662039 1672341 
2822.545 1685549 1700223 1714752 1727873 1739008 1748247 1756161 1763509 
2826.403 1770859 1778421 1786166 1793753 1801143 1808374 1815750 1823720 
2830.260 1832615 1842581 1853446 1864953 1876732 1888706 1901011 1914101 
2834.118 1928590 1944956 1963601 1984699 2008252 2034177 2062459 2093299 
2837.975 2126961 2163916 2204590 2249421 2298711 2352708 2411566 2475513 
2841.833 2544763 2619893 2701794 2791688 2891224 3002017 3125568 3262776 
2845.690 3413576 3576946 3750580 3931244 4114864 4296796 4471990 4635268 
2849.547 4781475 4905881 5004580 5074865 5115681 5127666 5112841 5074439 
2853.405 5015919 4940650 4851576 4751291 4642156 4526673 4407749 4288371 
2857.262 4171242 4058412 3950711 3847815 3748643 3651887 3556804 3463760 
2861.120 3374115 3290132 3213992 3147523 3091317 3044800 3006491 2974449 
2864.977 2946944 2922915 2901974 2884587 2871628 2864042 2862628 2867631 
2868.834 2878871 2895729 2917325 2942906 2972015 3004611 3041085 3082098 
2872.692 3128184 3179447 3235233 3294279 3354712 3414588 3472287 3526964 
2876.549 3578563 3627678 3675072 3721270 3765976 3808108 3845918 3877306 
2880.407 3900519 3914515 3919337 3916042 3906481 3892826 3877277 3861499 
2884.264 3846406 3832335 3819060 3806057 3792854 3779332 3765709 3752576 
2888.122 3740849 3731426 3725117 3722385 3723293 3727584 3734728 3744085 
2891.979 3755065 3767235 3780437 3794711 3810414 3828072 3848081 3870741 
2895.836 3896055 3923709 3953060 3983349 4013953 4044395 4074596 4104595 
2899.694 4134652 4164873 4195269 4225873 4256582 4287608 4319426 4352556 
2903.551 4387510 4424486 4463330 4503364 4544053 4585057 4626746 4670341 
2907.409 4717655 4770794 4831602 4901203 4980019 5067821 5164127 5268612 
2911.266 5381316 5502813 5633877 5775340 5927809 6091458 6266185 6451431 
2915.124 6646280 6849199 7057836 7269054 7478887 7682948 7877084 8057944 
2918.981 8223235 8371960 8504030 8619820 8719426 8802672 8868932 8917543 
2922.838 8948262 8961567 8958855 8942327 8914359 8877440 8833817 8785302 
2926.696 8733603 8680390 8627319 8576049 8528019 8484112 8444759 8409730 
2930.553 8378684 8351293 8327830 8309144 8296873 8293135 8300068 8319642 
2934.411 8353051 8400666 8461979 8535714 8620215 8713685 8814549 8921800 
2938.268 9034740 9153087 9276397 9403804 9533613 9663142 9788948 9907038 
2942.125 10013275 10103970 10176046 10227328 10256311 10262366 10245428 
2945.501 10206132 10145585 10065477 9967765 9854711 9728222 9590162 9441880 
2949.358 9284563 9119415 8947837 8771680 8593035 8414210 8237172 8063337 
2953.216 7893387 7727413 7564967 7405735 7249657 7097113 6948910 6806184 
2957.073 6669990 6541127 6420190 6307362 6202683 6106097 6017364 5936111 
2960.930 5861732 5793131 5728977 5667716 5607964 5548937 5490421 5433029 
2964.788 5377908 5326419 5279591 5237729 5200402 5166480 5134430 5103093 
2968.645 5071949 5041364 5012720 4987879 4968700 4956504 4951539 4952936 
2972.503 4958867 4967082 4975576 4983040 4989255 4995208 5002770 5014270 
2976.360 5031988 5057683 5092132 5135276 5186221 5243575 5306020 5372724 
2980.218 5443540 5519280 5601494 5692177 5793323 5906496 6032547 6171595 
2984.075 6323260 6486884 6661897 6847949 7044740 7251944 7468620 7693088 
2987.932 7922905 8154951 8385949 8612783 8832872 9044041 9244456 9432142 
2991.790 9604955 9760331 9895766 10009122 10099178 10165760 10209762 
2995.165 10232757 10236466 10222275 10190962 10142838 10077986 9996518 
2998.540 9898924 9786161 9659549 9520465 9370356 9210517 9042519 8868015 
3002.398 8689096 8508062 8327090 8147859 7971168 7796925 7624180 7451634 
3006.255 7278019 7102772 6925828 6747913 6570083 6393537 6219351 6048363 
3010.113 5881269 5718537 5560495 5407326 5258914 5114888 4974669 4837746 
3013.970 4703771 4572820 4445491 4322491 4204635 4092198 3985028 3882287 
3017.827 3782847 3685560 3589610 3494656 3401024 3309338 3220509 3135473 
3021.685 3055078 2980166 2911468 2849663 2795030 2747422 2705994 2669158 
3025.542 2634725 2600391 2564124 2524686 2481710 2435956 2388720 2341528 
3029.400 2295625 2251797 2210369 2171278 2134595 2100392 2069350 2042000 
3033.257 2018984 2000260 1985361 1973133 1962055 1950688 1937900 1923303 
3037.115 1907181 1890228 1873334 1857223 1842242 1828330 1815232 1802703 
3040.972 1790611 1779169 1768807 1760067 1753358 1748915 1746679 1746403 
3044.829 1747549 1749615 1751865 1753616 1754108 1752523 1748268 1741013 
3048.687 1730880 1718616 1705285 1692319 1680968 1671989 1665547 1661008 
3052.544 1657410 1653636 1648857 1642878 1636222 1629748 1624512 1621161 
3056.402 1619653 1619294 1618955 1617651 1614952 1611432 1608577 1608328 
3060.259 1612337 1621204 1634047 1648549 1661505 1669781 1671257 1665363 
3064.116 1653331 1637462 1620459 1604491 1590680 1579013 1568876 1559477 
3067.974 1550487 1542112 1534846 1529151 1524978 1521606 1518129 1513706 
3071.831 1508251 1502558 1498089 1496491 1498744 1504810 1513442 1522480 
3075.689 1529728 1533597 1533621 1530592 1526221 1522386 1520675 1521707 
3079.546 1525052 1529378 1532942 1533966 1531315 1524851 1515463 1505050 
3083.404 1496060 1490797 1490730 1496059 1505441 1516399 1525974 1531788 
3087.261 1532679 1529132 1522758 1515802 1509973 1505830 1502658 1498782 
3091.118 1492595 1483330 1471494 1458848 1447722 1439949 1436330 1436098 
3094.976 1437420 1438079 1436364 1431570 1424399 1416282 1409159 1404659 
3098.833 1403767 1406704 1413067 1421861 1431821 1441536 1449478 1454347 
3102.691 1455207 1451869 1445037 1436093 1426980 1419643 1415497 1415165 
3106.548 1418380 1424322 1431920 1440209 1448489 1456293 1463414 1469526 
3110.406 1474337 1477484 1478807 1478254 1476117 1472655 1468149 1462671 
3114.263 1456181 1448635 1440107 1430836 1421312 1412057 1403604 1396358 
3118.120 1390594 1386623 1384864 1385631 1389219 1395523 1403919 1413228 
3121.978 1421975 1428666 1432359 1432726 1430217 1425867 1420792 1415926 
3125.835 1411938 1408964 1407087 1406121 1405940 1406272 1406814 1407072 
3129.693 1406524 1404981 1402619 1400267 1399183 1400730 1405832 1414555 
3133.550 1425945 1438232 1449201 1456982 1460441 1459563 1455239 1448971 
3137.407 1442260 1436314 1431575 1427749 1424258 1420293 1415476 1410078 
3141.265 1404953 1401425 1400809 1403938 1410729 1420196 1430604 1439994 
3145.122 1446817 1450547 1451770 1451898 1452615 1455199 1459881 1465798 
3148.980 1471327 1474706 1474795 1471454 1465411 1458101 1450820 1444318 
3152.837 1438775 1433769 1428909 1424027 1419588 1416213 1414560 1414628 
3156.695 1415943 1417480 1418109 1417226 1414979 1412287 1410546 1411025 
3160.552 1414584 1421382 1430828 1441907 1453394 1464080 1472852 1478703 
3164.409 1480899 1479048 1473358 1464677 1454615 1445166 1438282 1435563 
3168.267 1437754 1444774 1455881 1469763 1484881 1499592 1512078 1520457 
3172.124 1522941 1518124 1505579 1485984 1461528 1435359 1411153 1392225 
3175.982 1380926 1378201 1383716 1396261 1414023 1435135 1457713 1479898 
3179.839 1499760 1515466 1525467 1528970 1526228 1518688 1508640 1498826 
3183.697 1491663 1488668 1490302 1495765 1503642 1512044 1519285 1523850 
3187.554 1524913 1522068 1515538 1506036 1494705 1482881 1471951 1462952 
3191.411 1456431 1452376 1450362 1449587 1449282 1448795 1447645 1445510 
3195.269 1442166 1437591 1431955 1425879 1420293 1416376 1415188 1417307 
3199.126 1422532 1429890 1438182 1446146 1453244 1459722 1466514 1474702 
3202.984 1484953 1497063 1509779 1521383 1530168 1535091 1536288 1534887 
3206.841 1532604 1531222 1531872 1534875 1539846 1545990 1552599 1559318 
3210.698 1566168 1573504 1581511 1590187 1598974 1607183 1613930 1618546 
3214.556 1620642 1620314 1617895 1613707 1608128 1601210 1592727 1582322 
3218.413 1569618 1554518 1537473 1519584 1502480 1488349 1479241 1476669 
3222.271 1481248 1492532 1508979 1528488 1548881 1568386 1585976 1601476 
3226.128 1615165 1627487 1638677 1648368 1655745 1659759 1659509 1654517 
3229.986 1645116 1632388 1618034 1603969 1591949 1583088 1577659 1575055 
3233.843 1574066 1573206 1571446 1568505 1565194 1563280 1564825 1571598 
3237.700 1584307 1602252 1623287 1644548 1663082 1676767 1684938 1688362 
3241.558 1688776 1688190 1688115 1689062 1690596 1691577 1690827 1687705 
3245.415 1682156 1674875 1666765 1658500 1650299 1641802 1632268 1621078 
3249.273 1608186 1594300 1580978 1570180 1563867 1563282 1568841 1579557 
3253.130 1593601 1608600 1622208 1632724 1639468 1642843 1644036 1644508 
3256.988 1645341 1646993 1649006 1650244 1649636 1646362 1640596 1633222 
3260.845 1625704 1619507 1615450 1613634 1613260 1613236 1612622 1611142 
3264.702 1609182 1607636 1607391 1608953 1612135 1616271 1620397 1624096 
3268.560 1627327 1630842 1635510 1642053 1650528 1660310 1670315 1679501 
3272.417 1687187 1693361 1698253 1702159 1704869 1705526 1703021 1696473 
3276.275 1685979 1672935 1659954 1650058 1645774 1648082 1656117 1667211 
3280.132 1677957 1685265 1687382 1684286 1677447 1669133 1661476 1655755 
3283.990 1652256 1650462 1649636 1649482 1650153 1652477 1657292 1665105 
3287.847 1675786 1688357 1701307 1712905 1721606 1726195 1726039 1721105 
3291.704 1711832 1699234 1684812 1670288 1657405 1647524 1641350 1638785 
3295.562 1639036 1641120 1644200 1647943 1652616 1658793 1666841 1676529 
3299.419 1686817 1696234 1703265 1707111 1708146 1707809 1708202 1711309 
3303.277 1718226 1728658 1740988 1752913 1762115 1766940 1766787 1762065 
3307.134 1753748 1742800 1729985 1715749 1700533 1685059 1670636 1658963 
3310.991 1651814 1650434 1655070 1664536 1676650 1688556 1697756 1702459 
3314.849 1702139 1697574 1690329 1682293 1675278 1670551 1668926 1670658 
3318.706 1675662 1683593 1693686 1704751 1715186 1723107 1726665 1724666 
3322.564 1716839 1704254 1689204 1674585 1663362 1657709 1658350 1664454 
3326.421 1673804 1683291 1689904 1691253 1686310 1675430 1660162 1642984 
3330.279 1626527 1613182 1604531 1601359 1603433 1609895 1619319 1630365 
3334.136 1641650 1652101 1660890 1667513 1671489 1672692 1671100 1667113 
3337.993 1661525 1655444 1650223 1647104 1646905 1649818 1655386 1662612 
3341.851 1670210 1677105 1682468 1685904 1687358 1687007 1685176 1682268 
3345.708 1678911 1675901 1674168 1674544 1677433 1682500 1688578 1694053 
3349.566 1697126 1696551 1692156 1684841 1676322 1668620 1663276 1660987 
3353.423 1661372 1663309 1665402 1666507 1666027 1664051 1660916 1657262 
3357.281 1653484 1649941 1646870 1644630 1643403 1643504 1644731 1646577 
3361.138 1648007 1647849 1645089 1639286 1630743 1620553 1610339 1601767 
3364.995 1596339 1594978 1598059 1605347 1615998 1628617 1641273 1651700 
3368.853 1657738 1657761 1651302 1639354 1624173 1608798 1596176 1588193 
3372.710 1585426 1586828 1590489 1594446 1597466 1599435 1601280 1604223 
3376.568 1609214 1616356 1624710 1632864 1639425 1643779 1646267 1648019 
3380.425 1650293 1653995 1659046 1664462 1668553 1669743 1667067 1660637 
3384.282 1651519 1641502 1632425 1625772 1622272 1622015 1624436 1628718 
3388.140 1633945 1639138 1643527 1646362 1646857 1644638 1639566 1632164 
3391.997 1623373 1614774 1607946 1604242 1604299 1607870 1613727 1620030 
3395.855 1624821 1626759 1625237 1620847 1615148 1610209 1607944 1609539 
3399.712 1615233 1624050 1634328 1643960 1651088 1654525 1653996 1650069 
3403.570 1643871 1636851 1630171 1624460 1619739 1615473 1610910 1605432 
3407.427 1598926 1592030 1586058 1582412 1582213 1585634 1591581 1597905 
3411.284 1601742 1600723 1593452 1580271 1563157 1545377 1530370 1520985 
3415.142 1518719 1523427 1533819 1547773 1563150 1578270 1592010 1603878 
3418.999 1613643 1621476 1627592 1632474 1636818 1641473 1647103 1653813 
3422.857 1661042 1667549 1671559 1671541 1666533 1656646 1643359 1628820 
3426.714 1615631 1606159 1601862 1603293 1609628 1619295 1629884 1638903 
3430.572 1643994 1643433 1636559 1623799 1606817 1588188 1570833 1557418 
3434.429 1549749 1548598 1553347 1562503 1573975 1585623 1595606 1602737 
3438.286 1606336 1606584 1603930 1599421 1594253 1589684 1586841 1586476 
3442.144 1588750 1593514 1600217 1608237 1617079 1626339 1635763 1644913 
3446.001 1653097 1659436 1663133 1663619 1661103 1656645 1651804 1648372 
3449.859 1647701 1650336 1655965 1663457 1671588 1679224 1685752 1691078 
3453.716 1695168 1697974 1699022 1697626 1693093 1685269 1674722 1662806 
3457.573 1651374 1642257 1636601 1634732 1636130 1639626 1643993 1648314 
3461.431 1652173 1655685 1659186 1663164 1667898 1673456 1679829 1686958 
3465.288 1694856 1703477 1712681 1722120 1731202 1739323 1745970 1751142 
3469.146 1755177 1758944 1763446 1769578 1777841 1788191 1800232 1813557 
3473.003 1827890 1843509 1861009 1881186 1904577 1931023 1959451 1987986 
3476.861 2014235 2035905 2051313 2059809 2061918 2059037 2053116 2046096 
3480.718 2039576 2034598 2031513 2030286 2030520 2031842 2033995 2036968 
3484.575 2041041 2047023 2055769 2068347 2085438 2107257 2132905 2160873 
3488.433 2188854 2214702 2236665 2254272 2268317 2280629 2293521 2308990 
3492.290 2327965 2350310 2374651 2399143 2422105 2442534 2460266 2475884 
3496.148 2490378 2504477 2518464 2532043 2544448 2554794 2562385 2566889 
3500.005 2568434 2567679 2565508 2563089 2561577 2562190 2565706 2572598 
3503.863 2582434 2594221 2606154 2616177 2622138 2622463 2616322 2603880 
3507.720 2586246 2565098 2542352 2519910 2499144 2480964 2465629 2453035 
3511.577 2442802 2434636 2428337 2424011 2421588 2421010 2421602 2422289 
3515.435 2421426 2417415 2408929 2395718 2378492 2359156 2340042 2323577 
3519.292 2311169 2303246 2298778 2296109 2293096 2288056 2279948 2268568 
3523.150 2254331 2237935 2220162 2201629 2182844 2164185 2145987 2128485 
3527.007 2111572 2094905 2077643 2059039 2038513 2016325 1993567 1972214 
3530.865 1954509 1942499 1937100 1937803 1942596 1948552 1952375 1951645 
3534.722 1945234 1933827 1919584 1905859 1895809 1891939 1895116 1904418 
3538.579 1917308 1930321 1939883 1943354 1939698 1929638 1915608 1900958 
3542.437 1889061 1882485 1882219 1887574 1896521 1906196 1913829 1917254 
3546.294 1915575 1909066 1898795 1886332 1873189 1860520 1849121 1839541 
3550.152 1832220 1827731 1826551 1829133 1835455 1844971 1856587 1868839 
3554.009 1880213 1889647 1896473 1900678 1902462 1902172 1899924 1895743 
3557.866 1889735 1882377 1874779 1868623 1865796 1868019 1876118 1889832 
3561.724 1907673 1927504 1946853 1963555 1975827 1982673 1983287 1977179 
3565.581 1964094 1944318 1918857 1889911 1860425 1833844 1813049 1799692 
3569.439 1793666 1793178 1795514 1797744 1797939 1795380 1790737 1785399 
3573.296 1780933 1778311 1777844 1779078 1781403 1784220 1787253 1790431 
3577.154 1793478 1795806 1796348 1793927 1787571 1777219 1763758 1749226 
3581.011 1736036 1726527 1722019 1722479 1726372 1731094 1733740 1731968 
3584.868 1724527 1711943 1696115 1679611 1665086 1654042 1646660 1641787 
3588.726 1637442 1631966 1624830 1616863 1610072 1606634 1607620 1612465 
3592.583 1618574 1622352 1620392 1611141 1595366 1576341 1558407 1545488 
3596.441 1539437 1539632 1543100 1546148 1545801 1540987 1532896 1524382 
3600.298 1518443 1517249 1521175 1529066 1538793 1548196 1555650 1560368 
3604.156 1562000 1560351 1555143 1546218 1533925 1519530 1505120 1493182 
3608.013 1485622 1483044 1484353 1487268 1489193 1488692 1486100 1483569 
3611.870 1484371 1491408 1506000 1527161 1551668 1575036 1592873 1602209 
3615.728 1602204 1594212 1581364 1567618 1556883 1552369 1555845 1567521 
3619.585 1585863 1608199 1631040 1651006 1665667 1674088 1677016 1676584 
3623.443 1675242 1675452 1678346 1684128 1691916 1700799 1710086 1719910 
3627.300 1730867 1743700 1758773 1775761 1793655 1811105 1826956 1840585 
3631.157 1851602 1859981 1865610 1868317 1868151 1865683 1862324 1860171 
3635.015 1861356 1867283 1877904 1891528 1905243 1916327 1923047 1925755 
3638.872 1926669 1929415 1936995 1951110 1971117 1994333 2017118 2036330 
3642.730 2050342 2059760 2066662 2073969 2083970 2097646 2114288 2132039 
3646.587 2148474 2161521 2170040 2173598 2172770 2168437 2161761 2153968 
3650.445 2146382 2140327 2137102 2137728 2142757 2152130 2165138 2180629 
3654.302 2197268 2213839 2229028 2241913 2251399 2256574 2256786 2251847 
3658.159 2242174 2229107 2214599 2200875 2189866 2182801 2179670 2179256 
3662.017 2179568 2178354 2173584 2164162 2149890 2131469 2110228 2087765 
3665.874 2065448 2044333 2025197 2008384 1994103 1982563 1973950 1968462 
3669.732 1966222 1967083 1970383 1974988 1979165 1981063 1978687 1970864 
3673.589 1956977 1937666 1914459 1889487 1864673 1841199 1819053 1797015 
3677.447 1773188 1745773 1713946 1678274 1640912 1605028 1574228 1551442 
3681.304 1538431 1535517 1541520 1554190 1570709 1587912 1602692 1612187 
3685.161 1614026 1606935 1590789 1567054 1538567 1508945 1481835 1459989 
3689.019 1444418 1434689 1429080 1425874 1423852 1423013 1424125 1428335 
3692.876 1436088 1446512 1457642 1466405 1469845 1465811 1453695 1434361 
3696.734 1410094 1383724 1358352 1336746 1321240 1313554 1314392 1323314 
3700.591 1338483 1357008 1374970 1388894 1396313 1396594 1390971 1381980 
3704.448 1372393 1364327 1358537 1354640 1351893 1349877 1349025 1350699 
3708.306 1356252 1366218 1379497 1393363 1404307 1409264 1407016 1398639 
3712.163 1387346 1377291 1372035 1373442 1381352 1393945 1408851 1423948 
3716.021 1437983 1450445 1460872 1468345 1471407 1468316 1457813 1440197 
3719.878 1417219 1392199 1368545 1348978 1334531 1324632 1317591 1311929 
3723.736 1307024 1303748 1303867 1309000 1319635 1334518 1350515 1364101 
3727.593 1372099 1373186 1368131 1359374 1350242 1343526 1340721 1341629 
3731.450 1344807 1348347 1350604 1350928 1349518 1347323 1345226 1343803 
3735.308 1343103 1342652 1341727 1339978 1337267 1333855 1330431 1327756 
3739.165 1326465 1327161 1330231 1335950 1344246 1354844 1367233 1380502 
3743.023 1393663 1405689 1415642 1422770 1426596 1427005 1423958 1417843 
3746.880 1409298 1399498 1390047 1382761 1379294 1380524 1386164 1394664 
3750.738 1403579 1410341 1413067 1411230 1405994 1399452 1394087 1391620 
3754.595 1392350 1395252 1398142 1398698 1395375 1387846 1377139 1365375 
3758.452 1354928 1347931 1345680 1348716 1356753 1369052 1384359 1401029 
3762.310 1417075 1430436 1439022 1441496 1437654 1428489 1416164 1403258 
3766.167 1392086 1384121 1379402 1377187 1376028 1374643 1372263 1368648 
3770.025 1364137 1359248 1354496 1350360 1347420 1346421 1348194 1353395 
3773.882 1362015 1373235 1385292 1395939 1403246 1406012 1404437 1399606 
3777.740 1393170 1386581 1380533 1374977 1369407 1363621 1358010 1353586 
3781.597 1351623 1352971 1357326 1363451 1369338 1373179 1374138 1372720 
3785.454 1370517 1369414 1370777 1374722 1380123 1385045 1387512 1386347 
3789.312 1381320 1373151 1363095 1352302 1341937 1332989 1326699 1324296 
3793.169 1327175 1336037 1350363 1368230 1386561 1401892 1411457 1414262 
3797.027 1411194 1404850 1398227 1393835 1392705 1394582 1398086 1401844 
3800.884 1405070 1407611 1409962 1412352 1414437 1415010 1412609 1406089 
3804.741 1395449 1382022 1368110 1356433 1348962 1346336 1347892 1351765 
3808.599 1355981 1359169 1360932 1361816 1363109 1365981 1371144 1378641 
3812.456 1387502 1396212 1402862 1405601 1402898 1394064 1379517 1361042 
3816.314 1341443 1324122 1312293 1307882 1311261 1321144 1334946 1349633 
3820.171 1362768 1372998 1380396 1385997 1391101 1396627 1402501 1407813 
3824.029 1410981 1410827 1406684 1399129 1389718 1380535 1373755 1371102 
3827.886 1373308 1380234 1390756 1403214 1415701 1426400 1434004 1437911 
3831.743 1438258 1435762 1431563 1426709 1421982 1417395 1412652 1406987 
3835.601 1399756 1390717 1380318 1369583 1360116 1353569 1351213 1353819 
3839.458 1361389 1373168 1387903 1403938 1419414 1432648 1442034 1446569 
3843.316 1445659 1439533 1428986 1415573 1401104 1387661 1377067 1370841 
3847.173 1369650 1373447 1381293 1391675 1402574 1411895 1417835 1419054 
3851.031 1415076 1406309 1393925 1379736 1366022 1355059 1348715 1348086 
3854.888 1353237 1363193 1376076 1389595 1401481 1409968 1414257 1414588 
3858.745 1412083 1408430 1405150 1403391 1403398 1404670 1406020 1406131 
3862.603 1403893 1398544 1389955 1378485 1364870 1350169 1335775 1322993 
3866.460 1313242 1307647 1306906 1311073 1319529 1331050 1344061 1356894 
3870.318 1368207 1377221 1383587 1387484 1389403 1389939 1389814 1389508 
3874.175 1389435 1389699 1389807 1389281 1387278 1383307 1377353 1370284 
3878.032 1363654 1359303 1358954 1363334 1371797 1382467 1392621 1399485 
3881.890 1401215 1397330 1389033 1378724 1369217 1363082 1361850 1365458 
3885.747 1372675 1381400 1389283 1394468 1396135 1394541 1390921 1387079 
3889.605 1385003 1386110 1390896 1399010 1409038 1419316 1428102 1434119 
3893.462 1436795 1436114 1432388 1425993 1417254 1406432 1393993 1380732 
3897.320 1367976 1357262 1350087 1347415 1349353 1355146 1363390 1372600 
3901.177 1381735 1390299 1398461 1406678 1415406 1424801 1434669 1444762 
3905.034 1454818 1464708 1474353 1483465 1491183 1496265 1497233 1493029 
3908.892 1483584 1470153 1455282 1442042 1433256 1430518 1433805 1441420 
3912.749 1450697 1458840 1463963 1465269 1463291 1459205 1454361 1449476 
3916.607 1444419 1438419 1430337 1419426 1405711 1390292 1375054 1362550 
3920.464 1355123 1354570 1361546 1375559 1395066 1417739 1440983 1462362 
3924.322 1480062 1492876 1500407 1502756 1500395 1494017 1484330 1471990 
3928.179 1457613 1441645 1424480 1406565 1388503 1371199 1356007 1344554 
3932.036 1338521 1339118 1346349 1359019 1374531 1389576 1401063 1407045 
3935.894 1407336 1403774 1399448 1397634 1400751 1409474 1422542 1437377 
3939.751 1450953 1460900 1466044 1466526 1463281 1457361 1449332 1439153 
3943.609 1426470 1411163 1393890 1376324 1360983 1350489 1346845 1350713 
3947.466 1361187 1376068 1392259 1406780 1417177 1422113 1421231 1415307 
3951.323 1405461 1393185 1379824 1366580 1354443 1344270 1336895 1333123 
3955.181 1333615 1338731 1348379 1361769 1377503 1393586 1407994 1418811 
3959.038 1424803 1425559 1421565 1414025 1404777 1395830 1389238 1386760 
3962.896 1389669 1398536 1412899 1431215 1451113 1469706 1484237 1492940 
3966.753 1495362 1492535 1486431 1479424 1473450 1469305 1466858 1465152 
3970.611 1463287 1460837 1458135 1456056 1455542 1456860 1459480 1462194 
3974.468 1463526 1462641 1459750 1456234 1453966 1454927 1460033 1468850 
3978.325 1479623 1489628 1496019 1496400 1489624 1475731 1456022 1432719 
3982.183 1408683 1386984 1370498 1361484 1361223 1369744 1385628 1406322 
3986.040 1428621 1449224 1465572 1476168 1480917 1480856 1478010 1474562 
3989.898 1472488 1473159 1476977 1483384 1491274 1499032 1505485 1510137 
3993.755 1513429 1516723 1521806 1529962 1541592 1555551 1569634 1581143 
3997.613 1587829 1588743 1584469 1576838 1567989 1559379 1551423 
##END=
