##TITLE=3D-Fillies_PLA-Rainbow_Orange_Filament_r7_ATR-Corrected
##JCAMP-DX=5.01  $$ Nicolet v. 1
##DATATYPE=INFRARED SPECTRUM
##ORIGIN=Curtin University
##OWNER=Nicolet
##LONGDATE=2024/07/18
##TIME=16:23:17
##SPECTROMETER/DATA SYSTEM=Nicolet iS50
##DATA PROCESSING=
Ratio against background
%Transmittance->Absorbance
ATR Correction
Truncated
ElementMultiply or ElementDivide
##COMMENTS=
Number of sample scans: 32
Collection length: 47.28 sec
Sample gain: 1.0
Background collected on: Thu Jul 18 16:20:00 2024 (GMT+08:00);
Number of background scans: 32
Background gain: 1.0
Sample spacing:  1.000
Number of scan points: 16672
Resolution points: 8192
Number of FFT points: 65536
Apodization: N-B strong;
Phase correction: Mertz;
Laser frequency: 15798.3 cm-1
Number of rejected sample scans: 0
Number of rejected background scans: 0
Bench serial number: AUP1200105;
##RESOLUTION=4.000
##XUNITS=1/CM
##YUNITS=ABSORBANCE
##FIRSTX=400.163452
##LASTX=4000.187744
##FIRSTY=0.060354
##MAXX=4000.187744
##MINX=400.163452
##MAXY=0.910236
##MINY=-0.021351
##XFACTOR=1.000000
##YFACTOR=1.000000E-009
##NPOINTS=7468
##DELTAX=0.482125
##ZPD=8192
##XYDATA=(X++(Y..Y))
400.163 60354268 60114600 59793544 59349000 58709400 57817844 56659124 
403.538 55280756 53789788 52325268 51015660 49942300 49119896 48501268 
406.913 48003960 47543088 47059744 46531620 45968536 45396028 44839560 
410.288 44314848 43829960 43392708 43015832 42713792 42491908 42331972 
413.663 42183636 41969600 41605544 41027984 40219452 39218984 38114016 
417.038 37016684 36030184 35219520 34595924 34119708 33721940 33331904 
420.412 32903466 32425988 31922300 31433664 31001650 30653808 30397358 
423.787 30222570 30110266 30040658 29996440 29962002 29918586 29842222 
427.162 29706032 29488412 29184894 28818348 28439950 28121104 27936054 
430.537 27939360 28148854 28536678 29036158 29558148 30018968 30357716 
433.912 30548308 30597282 30531456 30381860 30171822 29914080 29616716 
437.286 29292788 28967732 28678834 28466290 28358100 28355880 28429552 
440.661 28521302 28562010 28491990 28279698 27931026 27487264 27012232 
444.036 26575672 26237600 26037662 25990746 26087560 26298474 26577842 
447.411 26869664 27115100 27261950 27275934 27149278 26904622 26590228 
450.786 26268206 25997278 25817792 25742466 25754844 25817182 25882632 
454.161 25908526 25865960 25744610 25552152 25311146 25053610 24816046 
457.535 24633266 24532456 24526954 24613048 24770130 24966408 25166958 
460.910 25343398 25479656 25572402 25625586 25641838 25612156 25524172 
464.285 25358042 25100078 24753548 24344054 23916722 23525824 23219282 
467.660 23025922 22948086 22963848 23036060 23125012 23199128 23241028 
471.035 23247634 23225594 23185976 23139446 23093572 23052444 23016642 
474.409 22984130 22950658 22911102 22860306 22795252 22715046 22620600 
477.784 22511916 22385260 22232138 22040822 21802254 21516854 21200796 
481.159 20887302 20621044 20447798 20400642 20489038 20694484 20973300 
484.534 21267336 21517912 21679174 21727780 21666424 21522136 21338976 
487.909 21168896 21059848 21046292 21140882 21331870 21586008 21857344 
491.284 22100288 22282538 22393332 22444318 22461690 22473656 22496880 
494.658 22535502 22578002 22608078 22616048 22606180 22596634 22611378 
498.033 22668122 22769380 22899842 23033412 23145156 23223048 23272038 
501.408 23309524 23353714 23411022 23469332 23501288 23475920 23374198 
504.783 23199582 22979520 22755838 22569204 22443476 22377008 22345280 
508.158 22311352 22241070 22114652 21931272 21706418 21462976 21223470 
511.532 21003506 20811188 20648360 20513198 20401342 20306086 20217556 
514.907 20124548 20017220 19891502 19751220 19607020 19471568 19353022 
518.282 19250012 19151770 19043694 18916466 18773570 18633656 18525308 
521.657 18476774 18503800 18602690 18751320 18917008 19067990 19183358 
525.032 19253946 19283640 19276814 19232940 19144522 19002326 18803802 
528.406 18560282 18298214 18052822 17855628 17722832 17648616 17608818 
531.781 17571366 17510844 17419132 17307412 17198926 17116130 17068836 
535.156 17048298 17030962 16989512 16905914 16780260 16631339 16489021 
538.531 16381586 16324775 16315956 16336888 16362112 16369516 16347796 
541.906 16298803 16233658 16165914 16104275 16049426 15994752 15930397 
545.281 15848428 15747078 15631178 15510434 15395590 15294425 15209590 
548.655 15138569 15074681 15010790 14942023 14868306 14795535 14734871 
552.030 14700238 14704396 14754414 14848260 14972823 15106022 15221298 
555.405 15294515 15310206 15268901 15185314 15085581 15000412 14955901 
558.780 14967200 15034519 15144473 15275647 15405202 15515949 15599501 
562.155 15657237 15695944 15723422 15743995 15755991 15752699 15725110 
565.529 15667034 15578420 15467172 15347997 15238430 15155227 15109958 
568.904 15107200 15145675 15220238 15325237 15457259 15615482 15800988 
572.279 16013918 16250465 16501389 16751841 16982872 17175288 17312870 
575.654 17386532 17395856 17349896 17265768 17165570 17072510 17007142 
579.029 16983874 17008494 17078044 17181936 17305490 17433446 17553550 
582.404 17658942 17748188 17824600 17893862 17961732 18032832 18110064 
585.778 18194920 18287778 18387976 18493722 18600912 18703396 18793448 
589.153 18863958 18910232 18932282 18935278 18928022 18919872 18916902 
592.528 18919418 18921066 18910568 18876462 18811494 18717154 18605004 
595.903 18495318 18412648 18379082 18408420 18501434 18644546 18812540 
599.278 18973568 19097164 19160738 19155818 19089246 18981982 18863388 
602.652 18764252 18709820 18714092 18778146 18891320 19035530 19190866 
606.027 19340470 19473932 19588064 19686070 19774458 19861092 19952318 
609.402 20052308 20162572 20282284 20409342 20541050 20675068 20810224 
612.777 20946520 21085892 21231114 21385000 21549374 21724164 21907554 
616.152 22097184 22291028 22489278 22694390 22910564 23141450 23387890 
619.527 23645912 23906776 24158650 24389684 24591374 24761756 24904918 
622.901 25030666 25150290 25274332 25408872 25555440 25711766 25873852 
626.276 26038940 26207008 26381650 26569302 26778042 27015194 27285616 
629.651 27590492 27925806 28283042 28649426 29009912 29348650 29651480 
633.026 29907460 30110010 30256602 30348306 30388960 30384804 30344896 
636.401 30281754 30211748 30154970 30132062 30161372 30254126 30411786 
639.775 30625164 30876722 31144728 31409026 31654506 31873514 32064598 
643.150 32229892 32372010 32492344 32591150 32669500 32731574 32785852 
646.525 32844588 32921690 33029236 33175424 33363346 33592444 33860752 
649.900 34167008 34511340 34894584 35315484 35768232 36240852 36715552 
653.275 37170400 37583024 37933532 38207252 38395696 38497336 38517260 
656.650 38466740 38362228 38223344 38070972 37923560 37794280 37689812 
660.024 37610648 37553216 37513968 37492304 37491972 37520308 37585104 
663.399 37691424 37838812 38021440 38229692 38453552 38685544 38922044 
666.774 39162272 39406712 39654108 39901036 40142108 40372504 40590176 
670.149 40797408 41000312 41206252 41422056 41650548 41889852 42134344 
673.524 42375884 42606444 42818820 43008404 43172892 43312972 43432116 
676.898 43537104 43637120 43741968 43859484 43992428 44137860 44285832 
680.273 44423572 44540088 44630976 44701124 44764656 44841972 44952924 
683.648 45112224 45323924 45581176 45867496 46161892 46443708 46697268 
687.023 46915200 47098864 47257268 47404400 47555372 47723596 47916868 
690.398 48136944 48379100 48634764 48894884 49153264 49408828 49666048 
693.773 49932556 50215916 50520152 50844148 51181828 51525160 51867632 
697.147 52207024 52546384 52893556 53257752 53648116 54071052 54530652 
700.522 55028476 55564236 56134216 56730180 57336420 57930804 58486060 
703.897 58975704 59380688 59695064 59928304 60103208 60249400 60394920 
707.272 60558428 60745724 60949512 61154524 61343876 61504752 61631668 
710.647 61726480 61796168 61849068 61892628 61931708 61969340 62008124 
714.021 62051732 62105864 62178740 62281804 62430604 62646628 62960320 
717.396 63413732 64063264 64980760 66253072 67979856 70269168 73231624 
720.771 76972120 81580360 87119960 93616192 101044800 109321488 118295928 
724.146 127750296 137405792 146936672 155993344 164232400 171349040 
727.039 177107824 181364112 184071232 185272704 185083088 183662064 
729.931 181189456 177844752 173793744 169179792 164121584 158711968 
732.824 153020496 147098416 140985568 134719248 128343392 121915216 
735.717 115507384 109206080 103103512 97288616 91837896 86809568 82241152 
739.091 78151584 74546320 71421176 68765648 66563048 64788864 63409016 
742.466 62379120 61647936 61161776 60871588 60737608 60731656 60836108 
745.841 61039200 61330296 61696448 62121952 62590256 63088396 63610464 
749.216 64158872 64742236 65370508 66049120 66774420 67531432 68295728 
752.591 69037544 69727320 70340552 70859544 71272944 71573512 71754848 
755.966 71809560 71729008 71505416 71134448 70617440 69962464 69183144 
759.340 68295904 67317088 66260764 65137976 63957780 62729240 61462836 
762.715 60171972 58871620 57577176 56302584 55058468 53851160 52683236 
766.090 51553892 50460272 49398248 48363784 47353660 46366820 45404876 
769.465 44472916 43578308 42729088 41931108 41185448 40486176 39821776 
772.840 39176564 38534960 37885176 37222372 36549036 35873836 35208780 
776.214 34566500 33957852 33391614 32873608 32407268 31992086 31622790 
779.589 31287714 30968856 30644362 30292630 29897664 29453364 28965566 
782.964 28449686 27926606 27416240 26933278 26485002 26071976 25691646 
786.339 25342072 25023494 24738792 24491166 24282272 24110802 23973472 
789.714 23866854 23789738 23743972 23732776 23757296 23812406 23884800 
793.089 23952878 23991514 23976890 23893138 23735190 23509566 23231346 
796.463 22920818 22598952 22285710 21998976 21755122 21568688 21451602 
799.838 21410500 21444534 21543310 21688586 21856558 22022858 22166594 
803.213 22275528 22345306 22378534 22382174 22363930 22329918 22282844 
806.588 22222780 22147372 22053476 21938736 21802654 21647954 21480844 
809.963 21310362 21147538 21002364 20881920 20788162 20717514 20662010 
813.337 20612068 20559654 20501092 20438000 20376462 20324386 20289110 
816.712 20274538 20280824 20304324 20339202 20379222 20418358 20451800 
820.087 20476236 20490032 20494292 20494132 20498890 20521394 20575816 
823.462 20673342 20818326 21005488 21219762 21439178 21640558 21805382 
826.837 21924702 22001044 22046994 22080524 22119540 22177226 22259368 
830.212 22365334 22490770 22630708 22782756 22947914 23129366 23329908 
833.586 23550100 23787178 24035850 24289762 24545722 24805372 25076642 
836.961 25372660 25709598 26102670 26563134 27095602 27696892 28357070 
840.336 29060916 29790942 30530788 31266846 31990218 32697204 33387448 
843.711 34062304 34721768 35362528 35976532 36551980 37075144 37533956 
847.086 37921252 38237628 38492648 38703872 38895012 39093084 39325660 
850.460 39618808 39996500 40479912 41088312 41838968 42747288 43825544 
853.835 45081728 46517832 48128916 49902244 51818184 53852448 55978632 
857.210 58171388 60409252 62675796 64958676 67247728 69531368 71793760 
860.585 74013480 76164656 78220480 80157448 81960184 83623896 85154248 
863.960 86564712 87872080 89091312 90233312 91302896 92300984 93226992 
867.335 94081992 94870760 95601024 96281680 96917496 97504728 98026704 
870.709 98452184 98736272 98825744 98666232 98210656 97426872 96302376 
874.084 94844712 93079448 91044000 88782400 86339856 83760952 81088272 
877.459 78362400 75622624 72905360 70243400 67663424 65185040 62821388 
880.834 60580456 58467360 56487304 54646932 52954468 51418848 50047836 
884.209 48846684 47817052 46957216 46262144 45724460 45333544 45076140 
887.583 44934876 44889300 44916316 44992288 45095468 45207888 45316816 
890.958 45414516 45497424 45565312 45619812 45663752 45700732 45734292 
894.333 45767232 45800476 45832328 45858552 45873396 45871332 45848508 
897.708 45803560 45737096 45650336 45543304 45413996 45259820 45079308 
901.083 44875716 44658712 44444788 44254208 44106824 44016824 43989148 
904.458 44018140 44089676 44184928 44284724 44373812 44442888 44489440 
907.832 44517020 44533544 44550284 44579172 44631360 44714212 44830284 
911.207 44975512 45140584 45313904 45485268 45650324 45812484 45982224 
914.582 46173716 46399040 46663332 46961976 47280448 47598768 47897004 
917.957 48160672 48384348 48572372 48736268 48890808 49049424 49221648 
921.332 49411008 49615904 49831360 50050532 50267088 50476260 50675772 
924.706 50866600 51052504 51240252 51437820 51654388 51898112 52175168 
928.081 52488740 52838180 53218984 53622792 54037700 54449856 54844816 
931.456 55210036 55536464 55821188 56066960 56281736 56476040 56660056 
934.831 56840656 57020152 57196004 57363160 57515172 57646608 57754096 
938.206 57836496 57894108 57928756 57943320 57943000 57935740 57932236 
941.581 57945492 57988364 58071228 58199764 58374588 58591816 58845352 
944.955 59129940 59442456 59783116 60154672 60560488 61003636 61485476 
948.330 62006260 62565452 63162448 63796332 64464964 65163308 65882712 
951.705 66610224 67329400 68022192 68669712 69253496 69754448 70151976 
955.080 70423192 70543440 70488560 70239536 69786608 69132416 68293528 
958.455 67297568 66179632 64976312 63721568 62445688 61174732 59933548 
961.829 58746772 57640312 56638632 55761744 55021040 54417104 53939512 
965.204 53570056 53287584 53073208 52913960 52803480 52740236 52724188 
968.579 52752664 52818600 52910396 53014524 53119112 53217072 53308028 
971.954 53397368 53494080 53606624 53740600 53895896 54067348 54246484 
975.329 54424272 54594368 54754824 54908824 55063652 55228752 55412868 
978.703 55622132 55859152 56123156 56410840 56718280 57042384 57381760 
982.078 57735324 58101928 58478516 58859388 59237232 59604376 59955768 
985.453 60290820 60613892 60934132 61262180 61606932 61973884 62362476 
988.828 62768460 63185988 63610748 64041168 64479864 64931788 65402576 
992.203 65896376 66414892 66957488 67522240 68108480 68716864 69350568 
995.578 70014648 70715664 71460576 72255936 73107872 74020576 74995272 
998.952 76028672 77111768 78229584 79363464 80493784 81605584 82691288 
1002.327 83755040 84812096 85886608 87008024 88206552 89509400 90938408 
1005.702 92510096 94236832 96129216 98197536 100455096 102918680 105610304 
1009.077 108557656 111795176 115363616 119310768 123689472 128555520 
1011.970 133961976 139950816 146541488 153716688 161406336 169476000 
1014.862 177720048 185867376 193600080 200587920 206531792 211209216 
1017.755 214510672 216457136 217195040 216969344 216084592 214861872 
1020.648 213600496 212549712 211894368 211750816 212172544 213161968 
1023.540 214684624 216683584 219092192 221844464 224881152 228154384 
1026.433 231629072 235283424 239108864 243108288 247294528 251686784 
1029.326 256306560 261173520 266302400 271699872 277364800 283289184 
1032.219 289459168 295856448 302457760 309233856 316148032 323156448 
1035.113 330207552 337245280 344211680 351048960 357701344 364114944 
1038.006 370237312 376017504 381407072 386360416 390837184 394801856 
1040.899 398223648 401075872 403335584 404984352 406012384 406420160 
1043.792 406221024 405441248 404115552 402283456 399985792 397262784 
1046.685 394156896 390717344 387003840 383088224 379051552 374977280 
1049.578 370942528 367008768 363218336 359593152 356138720 352849632 
1052.471 349715264 346724320 343865024 341127584 338502176 335981248 
1055.364 333561280 331246496 329052512 327008160 325156384 323553568 
1058.257 322267392 321374336 320957248 321101632 321891200 323402784 
1061.150 325701632 328836096 332836608 337715712 343473888 350103552 
1064.043 357596032 365943488 375138784 385172608 396028000 407676672 
1066.936 420078016 433179744 446923008 461245376 476085536 491385184 
1069.829 507088352 523140416 539486144 556069056 572831296 589713408 
1072.722 606657088 623604800 640501312 657293184 673929600 690360768 
1075.615 706538944 722416576 737947776 753084288 767773696 781956608 
1078.509 795563264 808510080 820702528 832037184 842409344 851717120 
1081.402 859869440 866785024 872395136 876641024 879478720 880884352 
1084.295 880861824 879449536 876719488 872767936 867703296 861630784 
1087.188 854647808 846842304 838305088 829138048 819459328 809398080 
1090.081 799081728 788617536 778081088 767511808 756921920 746309184 
1092.974 735672128 725020928 714377152 703768896 693222464 682755648 
1095.867 672375424 662081024 651866048 641721280 631635136 621589568 
1098.760 611559488 601514240 591421952 581258368 571013248 560691968 
1101.653 550313280 539901696 529480512 519065504 508668736 498303040 
1104.546 487992160 477778240 467725632 457917280 448449056 439419712 
1107.439 430924032 423045120 415852032 409399520 403726784 398857728 
1110.332 394800768 391547456 389072256 387333600 386275168 385828320 
1113.225 385917248 386461248 387379424 388594816 390036544 391643808 
1116.118 393367744 395171552 397030976 398931936 400868352 402839136 
1119.011 404847392 406897440 408994304 411142208 413340672 415582208 
1121.905 417849152 420111168 422326816 424445024 426409184 428161472 
1124.798 429645440 430808224 431601152 431981952 431915360 431378080 
1127.691 430360608 428869632 426925440 424558080 421799168 418675040 
1130.584 415201472 411381536 407207744 402665504 397737312 392407712 
1133.477 386665600 380505760 373930976 366951936 359587968 351867424 
1136.370 343825568 335502880 326943296 318192256 309296416 300304576 
1139.263 291268288 282243136 273288256 264465056 255835328 247458320 
1142.156 239388288 231673360 224353712 217460816 211018272 205041968 
1145.049 199541520 194521712 189983632 185926896 182349152 179246240 
1147.942 176611120 174432400 172693456 171372496 170443840 169879680 
1150.835 169652448 169736976 170110144 170751088 171638000 172746672 
1153.728 174049296 175514704 177110704 178808080 180583760 182422496 
1156.621 184318512 186272192 188287520 190369536 192521632 194745264 
1159.514 197040912 199409680 201854336 204380304 206996016 209712336 
1162.407 212543200 215505488 218620592 221914272 225417328 229165184 
1165.301 233196672 237553328 242278736 247418608 253021984 259141472 
1168.194 265834240 273162112 281190240 289986336 299618528 310153920 
1171.087 321655584 334180000 347772768 362463616 378260288 395143744 
1173.980 413061664 431923680 451596480 471899328 492599648 513410560 
1176.873 533991392 553954816 572880896 590339584 605919232 619255616 
1179.766 630059392 638136192 643396992 645857920 645632704 642916992 
1182.659 637969472 631089088 622593600 612799680 602008640 590495680 
1185.552 578505920 566252544 553919232 541663552 529617920 517891360 
1188.445 506569216 495711744 485355584 475514944 466186080 457354496 
1191.338 449001728 441112384 433677472 426695552 420169792 414104480 
1194.231 408499776 403349088 398638144 394346880 390452224 386931360 
1197.124 383764192 380933728 378425984 376228704 374328768 372710912 
1200.017 371356256 370241600 369340192 368622080 368056672 367615840 
1202.910 367275200 367016160 366824128 366687040 366589760 366510176 
1205.803 366416352 366267264 366016576 365619584 365039936 364254944 
1208.697 363256832 362050432 360647360 359059616 357295392 355356672 
1211.590 353241504 350946976 348473056 345825056 343013120 340052032 
1214.483 336957952 333747936 330439200 327049696 323598208 320104352 
1217.376 316587968 313067808 309560928 306082784 302648032 299271328 
1220.269 295967296 292749344 289628160 286609248 283693024 280873920 
1223.162 278144288 275495392 272920704 270416192 267980224 265612416 
1226.055 263312048 261078480 258912064 256814544 254790544 252846336 
1228.948 250989760 249227664 247564928 246005072 244550800 243206368 
1231.841 241978208 240875824 239909824 239090688 238427360 237926704 
1234.734 237593984 237435584 237458400 237670672 238079104 238687440 
1237.627 239492960 240486192 241651296 242968656 244416688 245975136 
1240.520 247623440 249341968 251108384 252897504 254680640 256427472 
1243.413 258107696 259692752 261158320 262482880 263649616 264645520 
1246.306 265463264 266103504 266577248 266905792 267120160 267257216 
1249.199 267355792 267451552 267574016 267745648 267981744 268290960 
1252.093 268677120 269138528 269669792 270262464 270907488 271597280 
1254.986 272327936 273100960 273921664 274796608 275731072 276726176 
1257.879 277779680 278886880 280043616 281247712 282499328 283799456 
1260.772 285145920 286529952 287935584 289340128 290717216 292040320 
1263.665 293285248 294429184 295449920 296321536 297012896 297488960 
1266.558 297712352 297648288 297268896 296555936 295500576 294102272 
1269.451 292365120 290295904 287901792 285192096 282177600 278873312 
1272.344 275299296 271480576 267446960 263231312 258866720 254383440 
1275.237 249807760 245159504 240453120 235699840 230910608 226099216 
1278.130 221283968 216487104 211733136 207045248 202442976 197940832 
1281.023 193548400 189272784 185120576 181099376 177217392 173483008 
1283.916 169902528 166479680 163215648 160109792 157161760 154371872 
1286.809 151741424 149271712 146962992 144813072 142818032 140973376 
1289.702 139275216 137720864 136308976 135036640 133897560 132880104 
1292.595 131967264 131138832 130374552 129658280 128980504 128338440 
1295.489 127734560 127173248 126657528 126188176 125762880 125378224 
1298.382 125031680 124722328 124451736 124221352 124031504 123878848 
1301.275 123756432 123654280 123560728 123464728 123356120 123226952 
1304.168 123070416 122880512 122651664 122379312 122060296 121693152 
1307.061 121278640 120819632 120320152 119784536 119216608 118618592 
1309.954 117990968 117331160 116633992 115891832 115095952 114238840 
1312.847 113316760 112332576 111297528 110230568 109156888 108103688 
1315.740 107095952 106152888 105285096 104494552 103776024 103119536 
1318.633 102512208 101940904 101393696 100859856 100331648 99803736 99275280 
1322.008 98749376 98233440 97737584 97272560 96847392 96467752 96135224 
1325.384 95847648 95601744 95394576 95225760 95097896 95017584 94993064 
1328.759 95034096 95149896 95349384 95639640 96026080 96512192 97098672 
1332.134 97783912 98562856 99428568 100371584 101381160 102444552 103547440 
1335.509 104673568 105805168 106924336 108014384 109061440 110057016 
1338.402 110997744 111885200 112724496 113522608 114287072 115024496 
1341.295 115742064 116447752 117151864 117868216 118613208 119406360 
1344.188 120267216 121214160 122261208 123416600 124682384 126053200 
1347.082 127518896 129065696 130678608 132344616 134053472 135798704 
1349.975 137576752 139384288 141216656 143065088 144916064 146750592 
1352.868 148546992 150281696 151932288 153479200 154906912 156204288 
1355.761 157364608 158385008 159266288 160011872 160628400 161124304 
1358.654 161510624 161799568 162003904 162136848 162211712 162241072 
1361.547 162237520 162212960 162178784 162143760 162111920 162080704 
1364.440 162038288 161962912 161823856 161584400 161205680 160650864 
1367.333 159889424 158899408 157669824 156201280 154506480 152612944 
1370.226 150562928 148416416 146251088 144159920 142247472 140623488 
1373.119 139393872 138652352 138471344 138894816 139933760 141565232 
1376.012 143733440 146355520 149327776 152532576 155846304 159145664 
1378.905 162313072 165241728 167837920 170023808 171737360 172932640 
1381.798 173580080 173664608 173185728 172154000 170589136 168517520 
1384.691 165971616 162991296 159625680 155934784 151988432 147861200 
1387.584 143624528 139338400 135045520 130768448 126514272 122280840 
1390.478 118065384 113870912 109709992 105603760 101580344 97670160 93903144 
1393.853 90306800 86904248 83714408 80751000 78022488 75531272 73274568 
1397.228 71244928 69432392 67825360 66412264 65182724 64127364 63239612 
1400.603 62514388 61950200 61548868 61316036 61259776 61389928 61714752 
1403.979 62237676 62953524 63845260 64881912 66017740 67193448 68338832 
1407.354 69377752 70233168 70833776 71120344 71052336 70611704 69806424 
1410.729 68670000 67257784 65640456 63896084 62101404 60324992 58620700 
1414.104 57026872 55565044 54243832 53061424 52010024 51078708 50255688 
1417.479 49529540 48889084 48324924 47828892 47394688 47018844 46699936 
1420.855 46439108 46237888 46098020 46018908 45997384 46026844 46097168 
1424.230 46196008 46310340 46428464 46542092 46647804 46748744 46853876 
1427.605 46977568 47138160 47355780 47650196 48039640 48538980 49159724 
1430.980 49909544 50792400 51809316 52959912 54243712 55662432 57220692 
1434.356 58927616 60795336 62837244 65066292 67494008 70130232 72986008 
1437.731 76075416 79417552 83036384 86957696 91204072 95789960 100716848 
1441.106 105971720 111526560 117341144 123364088 129535664 135788576 
1443.999 142049744 148242960 154292752 160127232 165681712 170899440 
1446.892 175732176 180141232 184098288 187588000 190609376 193175120 
1449.785 195307296 197031280 198368016 199330720 199922944 200142224 
1452.678 199983200 199441968 198515968 197203536 195501216 193403680 
1455.572 190905360 188004800 184708960 181034992 177009488 172664240 
1458.465 168033168 163150512 158051696 152776352 147368960 141878480 
1461.358 136353376 130837336 125365424 119963248 114649448 109441200 
1464.251 104357088 99419424 94652120 90078936 85718912 81586752 77692568 
1467.626 74043352 70644208 67497912 64602984 61952716 59533052 57324692 
1471.001 55304564 53449296 51737868 50152852 48680272 47308620 46027580 
1474.376 44827420 43699080 42634780 41628412 40674692 39768916 38906032 
1477.752 38079296 37280940 36503096 35739072 34984388 34238236 33502608 
1481.127 32782186 32082244 31407572 30760656 30141368 29546836 28971606 
1484.502 28410564 27859360 27317164 26786888 26274916 25789132 25336558 
1487.877 24921572 24543928 24199552 23883304 23589986 23317300 23066460 
1491.253 22840122 22641612 22472160 22329212 22208872 22106870 22021554 
1494.628 21955198 21913758 21905860 21939016 22018456 22144860 22316752 
1498.003 22532210 22791676 23099772 23464338 23894024 24393822 24961428 
1501.378 25583476 26235136 26881366 27479646 27985044 28355156 28554844 
1504.754 28561338 28368526 27988684 27451628 26800570 26085878 25356154 
1508.129 24651438 23999040 23412694 22894868 22440654 22042108 21691786 
1511.504 21384676 21117870 20890062 20699482 20542416 20413538 20305194 
1514.879 20209584 20119722 20031058 19941926 19853996 19770008 19692814 
1518.255 19623558 19560064 19499028 19435516 19366676 19292404 19217050 
1521.630 19148558 19095082 19063640 19056174 19070208 19098486 19132138 
1525.005 19162892 19185808 19200198 19208348 19214362 19221942 19232282 
1528.380 19243718 19251770 19251584 19238554 19210172 19166370 19109328 
1531.756 19042692 18971478 18900116 18832848 18772178 18719942 18675360 
1535.131 18636660 18600812 18564266 18524080 18478894 18429490 18379430 
1538.506 18334262 18301540 18287772 18297798 18332014 18386290 18451208 
1541.881 18514116 18561882 18583190 18571438 18526336 18453434 18362088 
1545.257 18263320 18166192 18076488 17995002 17919052 17844118 17765400 
1548.632 17679798 17586086 17485478 17380762 17276416 17177714 17090458 
1552.007 17020034 16969986 16940694 16928642 16926082 16923096 16910386 
1555.382 16882074 16837890 16783528 16728872 16685022 16660828 16660640 
1558.758 16683105 16723214 16773200 16826822 16879360 16928908 16975094 
1562.133 17017748 17056658 17091080 17120474 17145628 17167714 17189064 
1565.508 17212024 17238662 17270852 17310148 17358892 17419122 17492776 
1568.883 17580294 17679556 17786686 17897100 18008018 18120248 18239890 
1572.259 18376904 18543310 18748858 18998060 19288276 19609066 19944268 
1575.634 20274510 20580076 20843572 21050692 21190866 21257584 21248220 
1579.009 21164920 21015414 20812480 20573114 20316476 20060694 19821034 
1582.384 19608344 19429194 19287262 19183264 19116776 19084046 19078730 
1585.760 19091178 19109300 19120944 19116916 19092382 19048626 18991266 
1589.135 18928300 18866810 18811246 18762144 18717132 18672364 18625020 
1592.510 18573858 18520604 18468672 18422900 18388324 18369028 18368342 
1595.885 18388336 18429632 18491762 18573880 18675196 18796496 18940150 
1599.260 19109570 19308772 19539718 19801158 20087148 20388658 20695234 
1602.636 20998730 21295518 21589256 21888450 22204898 22548746 22924682 
1606.011 23328932 23749176 24166052 24556882 24900178 25179240 25384056 
1609.386 25512552 25569324 25563252 25505810 25408416 25281186 25132138 
1612.761 24967528 24791616 24608274 24420500 24231498 24044206 23861946 
1616.137 23687548 23523832 23374124 23242304 23132318 23047828 22990950 
1619.512 22960320 22951404 22955958 22964232 22966898 22958682 22938576 
1622.887 22910396 22880310 22854314 22835636 22823788 22815044 22806178 
1626.262 22795468 22785806 22783590 22796860 22832306 22892238 22973840 
1629.638 23069332 23168682 23262008 23342330 23405940 23452594 23484236 
1633.013 23504206 23516066 23524238 23532972 23546914 23570492 23605736 
1636.388 23653952 23712952 23780238 23851996 23925874 23999352 24070344 
1639.763 24135646 24190588 24230150 24250098 24249680 24232430 24207390 
1643.139 24186450 24181546 24201828 24250528 24325364 24419480 24523652 
1646.514 24629642 24731128 24825056 24909316 24983172 25045924 25097900 
1649.889 25140168 25176342 25211854 25252486 25302946 25365738 25440142 
1653.264 25523960 25615720 25715778 25827608 25956002 26104626 26273622 
1656.640 26458292 26649718 26837250 27012550 27172476 27320578 27466166 
1660.015 27621864 27799976 28009804 28256616 28541288 28862046 29215138 
1663.390 29596498 30001426 30425092 30861782 31306062 31752992 32199632 
1666.765 32644596 33088744 33533342 33979208 34426172 34872372 35315488 
1670.141 35753828 36187192 36617672 37049216 37486732 37934380 38394472 
1673.516 38866912 39349100 39836612 40324592 40809932 41292212 41774708 
1676.891 42264616 42770968 43303116 43866776 44462976 45086252 45725980 
1680.266 46367844 46998388 47607680 48191676 48752968 49299896 49843816 
1683.642 50396964 50969740 51569660 52200604 52863216 53555868 54276728 
1687.017 55024040 55798268 56601680 57438824 58315892 59239608 60215900 
1690.392 61249320 62343408 63501344 64727256 66028164 67413504 68894760 
1693.767 70483064 72187400 74012344 75960256 78034056 80241448 82600952 
1697.143 85143408 87910544 90952752 94320800 98060968 102209728 106793280 
1700.518 111830792 117341624 123352904 129906728 137060304 144884480 
1703.411 153454848 162844512 173116464 184318592 196482192 209622224 
1706.304 223737616 238810624 254805152 271664064 289309696 307646592 
1709.197 326567200 345954784 365682752 385610016 405570496 425366656 
1712.090 444769152 463525792 481377920 498081760 513429120 527262688 
1714.983 539491392 550099648 559153280 566795200 573227072 578677440 
1717.876 583360896 587443776 591026560 594148992 596813824 599015680 
1720.769 600763776 602086592 603024064 603611200 603869120 603804928 
1723.662 603425408 602754880 601845312 600772288 599618816 598452416 
1726.555 597307904 596185920 595062720 593913152 592726976 591520064 
1729.448 590327360 589188416 588133312 587177088 586322688 585575616 
1732.342 584956224 584507968 584292352 584378560 584828544 585690496 
1735.235 587001408 588796608 591123776 594049344 597656704 602035264 
1738.128 607267520 613416064 620522368 628609920 637693184 647785024 
1741.021 658894848 671021504 684139648 698188544 713069632 728648512 
1743.914 744764160 761236736 777869056 794442432 810715968 826429760 
1746.807 841320000 855142720 867695104 878824384 888420032 896393152 
1749.700 902654656 907107840 909658432 910236352 908823232 905459136 
1752.593 900232128 893252800 884623360 874421504 862701440 849511040 
1755.486 834914624 819009344 801930176 783839168 764910912 745317056 
1758.379 725221568 704778112 684133760 663433728 642817856 622416448 
1761.272 602344896 582699712 563557696 544977920 527005152 509671680 
1764.165 492997632 476990976 461648320 446958176 432904608 419472992 
1767.058 406653216 394438016 382819424 371782080 361297888 351324192 
1769.951 341806272 332682432 323892480 315382336 307107648 299032704 
1772.844 291126752 283362816 275714752 268159024 260675616 253250304 
1775.738 245873488 238537456 231232672 223946128 216661056 209362048 
1778.631 202041616 194706096 187378304 180094640 172897168 165825184 
1781.524 158906880 152157296 145582320 139185600 132975848 126970784 
1784.417 121194752 115672104 110419704 105442200 100731184 96272944 92054216 
1787.792 88069768 84323600 80824608 77580176 74589016 71837528 69303152 
1791.167 66958092 64777404 62742284 60841068 59066504 57411960 55868784 
1794.542 54426820 53075092 51806268 50616836 49506360 48473868 47514988 
1797.918 46619288 45771788 44955952 44158088 43371228 42596716 41842712 
1801.293 41122460 40450016 39837428 39292076 38813864 38394632 38016880 
1804.668 37657492 37291636 36900032 36475012 36025244 35572680 35145944 
1808.043 34769120 34451452 34182944 33935548 33675072 33372682 33017986 
1811.419 32621176 32210090 31816956 31466254 31165282 30903454 30658944 
1814.794 30410258 30145466 29867120 29588354 29325222 29086214 28867634 
1818.169 28655692 28433132 28190596 27932204 27676132 27446238 27262752 
1821.544 27130986 27039090 26960022 26859670 26708104 26486178 26191152 
1824.920 25834306 25437836 25029178 24636252 24282700 23987026 23758006 
1828.295 23593894 23481652 23397642 23311844 23194416 23021434 22780778 
1831.670 22474016 22115158 21726324 21333730 20961588 20629584 20350550 
1835.045 20129704 19963678 19840814 19743414 19648466 19533082 19378470 
1838.421 19173762 18918278 18621444 18300114 17976254 17671998 17407604 
1841.796 17199146 17055980 16980736 16965840 16994114 17040500 17075426 
1845.171 17071896 17010768 16885640 16703550 16482489 16246445 16019465 
1848.546 15820228 15659858 15540040 15454481 15390385 15329509 15253977 
1851.922 15148332 15004381 14826544 14631647 14446950 14300912 14214618 
1855.297 14192847 14221318 14272527 14314243 14325602 14304261 14269934 
1858.672 14254017 14287747 14385216 14535013 14700733 14832967 14884243 
1862.047 14826200 14656711 14400202 14096708 13789528 13512394 13285209 
1865.423 13112993 12993432 12921325 12894182 12911783 12973910 13076900 
1868.798 13211606 13363591 13515114 13647458 13744835 13793654 13786043 
1872.173 13720576 13604540 13455903 13302671 13178164 13114648 13132541 
1875.548 13234378 13402371 13603038 13796139 13947614 14037473 14063427 
1878.924 14037778 13977651 13895958 13795410 13667380 13497291 13272966 
1882.299 12993141 12671265 12333260 12013528 11746636 11561583 11476235 
1885.674 11495708 11614698 11816139 12075217 12359773 12633198 12857335 
1889.049 12999738 13038039 12967248 12801495 12572643 12323763 12099896 
1892.425 11936920 11855586 11856060 11920767 12020540 12123176 12200445 
1895.800 12235871 12223740 12169638 12083229 11976944 11859708 11737707 
1899.175 11612853 11483230 11344435 11189569 11008738 10793190 10538080 
1902.550 10248709 9940977 9643161 9389323 9211362 9129389 9146126 9247925 
1906.408 9412198 9618198 9855494 10126250 10437821 10789644 11161090 
1909.783 11503820 11751015 11834954 11713467 11387320 10909628 10373254 
1913.158 9885581 9538461 9379731 9407563 9579753 9833493 10112046 10380222 
1917.016 10629444 10863674 11087008 11286348 11431560 11483498 11411960 
1920.391 11209727 10900721 10532232 10162691 9839337 9589535 9412247 9290463 
1924.248 9199640 9121675 9049352 8985317 8932865 8888197 8836344 8754328 
1928.106 8620706 8426750 8183175 7921797 7688380 7534163 7501186 7616062 
1931.963 7881615 8280770 8776343 9320838 9861026 10344922 10726087 10969551 
1935.821 11051239 10964877 10721051 10352465 9911877 9471754 9114237 8920378 
1939.678 8948836 9221635 9710182 10338830 11001493 11590695 12027353 
1943.053 12286495 12396248 12425927 12452220 12520251 12630847 12738107 
1946.428 12771839 12669507 12404349 11997283 11499639 10974702 10461537 
1949.804 9971049 9488379 9003265 8533079 8137088 7901289 7903829 8174025 
1953.661 8667469 9265183 9820434 10204400 10359461 10319440 10190692 
1957.036 10103368 10155543 10370919 10693750 11018504 11250053 11344159 
1960.412 11333455 11300031 11321051 11421395 11543018 11564510 11356377 
1963.787 10836308 10025394 9044967 8088457 7358769 7014949 7124290 7667436 
1967.644 8559857 9685302 10924879 12175260 13335872 14315807 15030380 
1971.020 15421685 15471683 15209994 14706219 14040348 13271209 12426471 
1974.395 11500739 10506071 9506119 8643323 8127819 8180451 8943256 10402131 
1978.252 12364217 14515616 16517207 18115630 19193940 19774770 19962970 
1981.627 19883768 19615584 19174920 18527074 17628626 16477033 15148208 
1985.003 13789781 12599109 11762361 11401938 11543268 12108159 12940279 
1988.378 13850583 14663883 15251219 15548134 15551700 15296012 14837355 
1991.753 14228838 13516194 12737526 11929994 11139755 10428097 9860116 
1995.128 9498055 9378696 9500372 9816259 10246693 10695904 11081391 11360557 
1998.986 11536579 11652622 11766654 11916903 12106977 12294356 12408729 
2002.361 12382646 12182035 11818672 11348465 10842918 10350733 9867932 
2005.736 9335124 8660923 7765790 6638388 5373819 4161617 3254472 2895659 
2009.594 3254831 4373684 6151097 8349020 10640895 12668357 14112493 14753578 
2013.451 14520769 13505623 11945324 10165513 8505855 7235969 6509832 6340208 
2017.309 6628975 7224691 7979596 8792258 9609034 10403052 11134031 11718582 
2021.166 12049440 12026032 11615624 10895219 10052672 9344559 9005314 
2024.541 9166052 9804944 10735175 11671180 12312048 12431579 11938831 
2027.917 10894602 9472860 7913477 6461298 5318559 4621674 4429345 4715615 
2031.774 5373459 6231173 7080689 7720730 8023528 7974016 7685624 7362581 
2035.631 7232465 7458522 8081384 8997025 9990714 10808517 11235693 11154813 
2039.489 10569083 9582242 8364719 7101673 5970427 5108621 4622311 4573940 
2043.346 4985801 5823962 6997557 8371634 9796581 11153303 12387396 13523383 
2047.204 14645494 15839085 17135206 18465278 19662600 20510800 20818802 
2050.579 20489446 19551060 18151856 16515639 14886918 13480822 12442285 
2053.954 11825587 11597459 11659500 11880842 12140316 12347066 12458175 
2057.329 12468006 12399788 12281829 12137623 11971178 11771490 11520448 
2060.705 11209971 10854867 10498014 10202983 10035204 10034992 10198245 
2064.080 10471889 10765675 10985096 11065049 10996253 10831171 10659247 
2067.455 10574535 10632328 10824630 11083543 11305574 11395508 11300561 
2070.830 11034418 10669541 10307907 10045667 9938844 9992342 10166354 
2074.206 10403879 10652285 10885498 11106338 11333813 11586609 11869432 
2077.581 12166569 12450882 12693369 12877126 13001516 13077875 13119301 
2080.956 13132137 13111389 13045070 12921126 12738276 12506873 12247504 
2084.331 11975979 11697694 11401525 11062501 10657985 10184237 9664946 
2087.707 9153330 8716022 8410865 8261003 8245445 8297524 8329496 8262687 
2091.564 8056919 7727988 7347512 7018454 6845827 6900043 7197033 7692124 
2095.421 8297208 8906829 9427580 9798570 9996890 10032285 9937172 9755006 
2099.279 9532517 9317572 9155715 9084985 9128486 9285891 9534182 9829127 
2103.136 10121553 10369298 10551349 10669531 10743178 10796672 10844265 
2106.511 10884886 10906734 10897006 10858294 10812074 10800618 10867726 
2109.887 11040142 11310353 11633674 11934573 12129775 12153818 11978633 
2113.262 11621147 11137874 10608571 10115467 9726086 9483287 9400658 9464724 
2117.119 9637767 9864744 10077403 10206097 10187548 9981485 9577828 9002600 
2120.977 8311384 7577213 6868088 6231609 5682328 5200053 4740800 4254838 
2124.834 3707627 3094853 2447111 1824235 1295200 914514 699237 616555 584089 
2129.174 490766 225115 -286566 -1054190 -2008391 -3014417 -3903677 -4519363 
2133.031 -4757994 -4598852 -4099961 -3377586 -2561844 -1761962 -1041687 
2136.406 -429135 63226 416491 595817 561001 295266 -171655 -750838 -1318875 
2140.746 -1755578 -1992165 -2041187 -1992142 -1972684 -2089397 -2377036 
2144.121 -2773941 -3142669 -3323980 -3204655 -2773103 -2135689 -1488744 
2147.497 -1064316 -1066332 -1610131 -2709188 -4275153 -6149478 -8141393 
2150.872 -10060664 -11749472 -13109569 -14121933 -14855144 -15453522 
2153.765 -16096681 -16942776 -18055608 -19345794 -20568766 -21351088 
2156.658 -21300196 -20121974 -17749030 -14412639 -10608717 -6961618 -4034076 
2160.033 -2147693 -1334856 -1409794 -2073675 -3019745 -3996748 -4814978 
2163.408 -5348317 -5518018 -5306920 -4758613 -3994951 -3174543 -2464662 
2166.784 -1978545 -1744929 -1695851 -1699813 -1622725 -1381915 -991078 
2170.159 -561317 -255059 -230736 -580243 -1290765 -2243964 -3250367 -4098342 
2174.016 -4608670 -4676223 -4287745 -3526458 -2550484 -1572347 -817842 
2177.392 -482434 -690875 -1456141 -2660638 -4062017 -5338933 -6160648 
2180.767 -6277434 -5598419 -4221750 -2411155 -527410 1083525 2174861 2657581 
2184.624 2595675 2159611 1557877 985697 580610 424791 553961 974665 1677314 
2188.964 2630066 3768579 4990645 6150683 7085253 7638288 7698168 7224812 
2192.821 6262611 4936171 3426203 1943024 692226 -158035 -499072 -307236 
2196.679 354800 1343246 2461552 3493867 4259983 4653278 4673339 4424759 
2200.536 4085483 3850510 3876987 4226878 4848307 5591467 6249991 6628482 
2204.394 6597574 6136671 5333254 4361434 3430008 2726435 2373594 2404764 
2208.251 2766230 3344748 4001040 4608924 5087293 5410309 5609472 5751114 
2212.108 5909062 6139181 6459657 6839172 7214566 7509072 7663304 7657869 
2215.966 7522559 7325345 7150953 7070576 7119862 7290691 7542382 7828793 
2219.823 8120453 8420641 8763742 9189283 9718770 10329293 10949103 11475504 
2223.681 11808408 11884899 11702883 11320073 10834339 10344015 9921554 
2227.056 9588442 9327133 9099616 8882257 8681847 8544060 8536366 8718724 
2230.913 9117248 9706811 10409171 11116901 11713578 12106460 12242327 
2234.289 12118584 11776756 11291486 10756440 10263165 9891504 9692824 
2237.664 9683532 9845387 10132266 10485495 10850854 11191056 11493434 
2241.039 11764769 12015995 12249035 12444000 12560866 12550615 12376500 
2244.414 12029694 11541057 10976013 10419628 9953321 9637615 9499300 9535481 
2248.272 9718976 10011952 10372922 10762889 11142396 11471957 11716165 
2251.647 11848394 11860749 11771658 11625349 11481490 11398564 11415966 
2255.022 11540417 11744572 11975639 12176504 12304267 12347492 12327099 
2258.397 12290861 12296367 12391244 12598411 12907078 13275494 13642459 
2261.773 13943124 14127738 14170907 14081804 13893778 13659456 13432544 
2265.148 13256476 13155754 13133747 13178249 13269439 13383749 13503832 
2268.523 13612853 13696088 13737884 13722578 13644257 13508623 13340833 
2271.898 13183834 13089505 13105333 13254824 13529879 13887654 14263296 
2275.274 14585603 14802596 14896606 14889499 14837123 14811232 14874668 
2278.649 15066600 15387564 15802005 16248427 16656738 16966050 17137748 
2282.024 17162680 17058976 16863596 16622320 16379077 16167101 16005781 
2285.399 15903201 15858999 15868040 15923508 16017277 16137749 16269227 
2288.775 16390523 16476873 16506877 16467227 16357733 16193112 15998203 
2292.150 15802711 15631249 15497631 15402564 15338722 15295472 15266565 
2295.525 15254789 15269657 15323316 15422369 15561132 15721858 15877182 
2298.900 15996991 16057864 16047681 15968177 15831955 15656186 15459310 
2302.276 15256351 15060624 14883834 14739067 14639733 14596773 14616410 
2305.651 14695436 14820016 14970572 15123771 15260133 15366983 15438932 
2309.026 15477117 15486099 15471844 15440712 15400705 15363245 15342341 
2312.401 15351840 15403286 15499354 15633699 15792031 15956996 16114337 
2315.777 16257653 16389186 16516034 16645601 16778826 16911734 17038068 
2319.152 17158220 17284762 17444222 17669104 17983916 18386840 18839314 
2322.527 19266212 19568998 19651708 19447748 18939306 18164764 17207492 
2325.902 16178219 15189713 14333831 13665576 13198445 12907043 12744522 
2329.278 12656116 12596755 12538234 12471012 12399621 12334775 12286641 
2332.653 12261488 12260659 12282209 12320992 12370827 12424287 12472055 
2336.028 12503620 12510668 12485893 12429355 12346292 12248456 12150202 
2339.403 12067443 12012661 11994030 12014158 12070562 12156277 12261200 
2342.779 12374346 12483384 12579268 12654518 12706438 12735332 12744716 
2346.154 12738521 12720907 12693676 12658090 12614767 12565364 12513104 
2349.529 12460350 12409789 12360544 12308916 12248834 12174768 12084039 
2352.904 11979002 11866595 11757470 11660695 11582040 11520801 11472876 
2356.280 11431647 11393322 11357035 11326816 11307564 11302846 11310923 
2359.655 11325488 11334049 11324738 11287505 11217820 11115677 10984702 
2363.030 10829792 10656012 10466919 10268842 10069218 9880393 9715978 
2366.405 9590535 9513257 9487490 9508424 9566988 9652275 9756622 9877275 
2370.263 10015511 10173417 10350532 10539339 10725876 10891068 11014469 
2373.638 11080937 11082709 11022296 10911757 10769371 10617640 10477560 
2377.013 10368548 10304056 10291105 10328691 10408171 10514606 10628503 
2380.388 10730740 10807125 10851330 10867643 10868886 10873638 10898981 
2383.764 10955859 11044221 11152833 11261256 11346080 11387939 11377368 
2387.139 11318097 11227374 11131266 11058403 11033034 11069270 11168670 
2390.514 11321527 11509471 11713066 11914299 12101934 12272109 12426007 
2393.889 12568026 12702813 12830679 12948168 13046984 13115938 13144552 
2397.265 13124353 13052821 12935888 12786012 12621215 12461768 12323763 
2400.640 12216949 12140765 12085887 12039443 11989276 11931443 11871734 
2404.015 11827471 11819288 11864774 11970660 12128691 12315772 12500536 
2407.390 12651174 12744313 12770450 12734472 12651049 12539396 12415593 
2410.766 12290378 12167390 12046469 11924947 11802421 11680101 11560820 
2414.141 11449187 11349731 11266502 11204116 11167516 11159064 11178125 
2417.516 11218242 11267204 11309381 11328324 11314861 11269707 11204919 
2420.891 11143109 11108681 11121841 11191377 11312633 11468932 11637168 
2424.267 11796887 11933535 12042377 12125905 12189140 12234102 12256545 
2427.642 12245962 12191178 12085424 11933242 11751633 11570310 11422322 
2431.017 11336738 11330111 11401507 11530782 11688081 11837878 11950403 
2434.392 12006936 12001317 11938816 11830835 11690174 11529560 11360499 
2437.768 11196868 11055073 10956102 10919074 10957494 11072315 11247421 
2441.143 11451812 11646182 11792550 11866485 11862607 11794787 11692722 
2444.518 11591934 11522481 11502475 11534972 11609520 11707380 11805207 
2447.893 11881343 11917725 11900711 11823288 11687002 11502995 11292687 
2451.269 11084144 10908056 10789628 10740115 10756428 10817837 10895124 
2454.644 10957821 10983068 10962700 10901796 10816202 10727539 10654720 
2458.019 10613380 10611679 10652270 10732056 10843414 10971377 11094052 
2461.394 11185718 11218569 11173530 11045196 10847820 10615526 10395064 
2464.770 10235490 10175398 10233142 10403118 10656467 10950441 11238491 
2468.145 11478624 11642338 11715239 11697841 11601837 11447972 11261889 
2471.520 11071459 10902504 10774878 10699269 10672470 10680344 10700146 
2474.895 10707200 10684433 10625956 10540941 10449107 10374561 10337042 
2478.271 10345273 10393471 10465744 10541120 10602419 10641835 10663163 
2481.646 10678107 10700531 10738580 10791937 10850716 10901207 10930351 
2485.021 10935049 10921032 10902351 10894312 10905248 10932419 10962353 
2488.396 10974054 10951105 10887244 10794443 10697699 10630264 10620151 
2491.771 10680653 10805646 10970079 11140444 11284516 11382816 11432376 
2495.147 11445445 11441976 11439673 11448489 11466500 11484602 11494517 
2498.522 11494057 11490503 11500419 11540474 11621077 11739235 11879071 
2501.897 12013612 12116696 12169262 12166405 12117324 12040793 11957522 
2505.272 11881697 11818014 11761695 11703850 11636243 11558034 11474255 
2508.648 11395322 11330480 11281827 11244166 11204137 11148458 11065695 
2512.023 10956421 10829379 10702723 10596548 10529282 10511196 10545013 
2515.398 10623866 10736003 10864953 10991856 11096578 11157360 11156122 
2518.773 11082471 10938899 10744875 10536143 10358141 10254131 10256849 
2522.149 10374883 10591877 10869696 11159600 11415636 11605972 11718279 
2525.524 11759082 11747708 11706971 11654877 11603363 11556905 11515765 
2528.899 11480707 11453426 11437315 11433903 11443622 11463600 11489262 
2532.274 11519090 11555541 11603967 11670996 11762574 11876522 12006064 
2535.650 12136858 12253016 12340415 12388921 12394677 12358167 12283034 
2539.025 12174787 12043796 11901374 11764869 11653430 11585693 11575124 
2542.400 11624054 11721963 11846662 11969458 12063083 12108418 12100138 
2545.775 12048197 11973212 11902297 11862153 11871140 11936792 12054462 
2549.151 12208137 12374278 12527344 12646210 12717083 12738728 12719924 
2552.526 12677928 12630699 12591413 12563922 12541814 12512504 12461178 
2555.901 12380121 12271376 12148726 12034439 11952925 11924249 11960517 
2559.276 12061256 12214948 12401054 12593010 12761892 12879600 12925396 
2562.652 12888916 12774853 12605003 12413294 12239846 12119711 12072667 
2566.027 12098311 12176577 12275000 12363832 12425773 12463389 12497745 
2569.402 12558807 12671646 12844581 13064316 13298484 13505966 13651445 
2572.777 13717167 13705757 13638921 13547461 13459769 13395972 13362725 
2576.153 13357539 13374555 13409462 13464261 13544850 13657208 13802575 
2579.528 13973029 14152742 14321294 14458401 14549476 14589635 14581176 
2582.903 14533876 14460547 14373408 14282688 14198098 14126410 14074385 
2586.278 14048116 14050476 14080175 14130117 14188240 14238568 14266852 
2589.654 14263250 14227317 14168252 14104818 14058320 14048500 14086163 
2593.029 14169780 14284929 14408667 14515046 14583498 14603284 14577156 
2596.404 14517996 14444955 14376858 14324263 14290911 14271763 14258363 
2599.779 14243910 14226051 14209927 14203571 14215371 14248475 14298709 
2603.155 14355688 14405525 14436770 14445386 14435823 14419170 14408981 
2606.530 14416810 14445370 14490396 14540598 14585217 14616722 14635099 
2609.905 14647528 14663814 14692546 14736370 14790112 14843876 14886000 
2613.280 14909273 14913692 14906965 14901286 14908338 14935232 14981464 
2616.656 15040182 15100242 15151628 15188525 15211198 15226748 15245385 
2620.031 15279512 15339697 15432564 15559636 15716447 15891928 16069964 
2623.406 16231427 16358316 16438151 16466849 16451517 16407581 16354632 
2626.781 16310841 16286023 16281063 16288111 16296050 16295768 16284352 
2630.156 16266033 16250186 16244233 16251188 16266549 16279969 16280914 
2633.532 16265402 16236864 16209029 16198713 16219920 16277634 16364696 
2636.907 16462872 16550014 16606241 16621694 16597765 16547566 16489277 
2640.282 16442146 16419057 16424716 16456304 16504334 16557798 16606666 
2643.657 16644355 16668277 16679674 16683247 16683709 16686484 16693793 
2647.033 16705114 16716609 16722681 16718427 16700897 16671788 16636161 
2650.408 16601058 16572803 16554516 16544605 16537538 16526813 16508147 
2653.783 16480731 16448131 16415790 16387537 16363295 16336808 16298082 
2657.158 16236575 16145403 16024914 15882691 15731324 15583226 15447241 
2660.534 15323819 15206525 15084199 14945760 14785484 14604983 14413897 
2663.909 14226168 14056901 13917978 13815125 13747549 13709092 13692529 
2667.284 13689728 13695510 13706218 13720773 13736050 13749628 13756678 
2670.659 13751819 13731645 13694445 13643615 13585153 13528286 13481526 
2674.035 13451872 13441746 13449549 13469551 13494043 13515851 13530939 
2677.410 13537953 13540212 13543098 13552000 13570337 13597303 13627873 
2680.785 13654766 13669986 13668399 13649367 13617918 13583127 13555703 
2684.160 13543923 13550314 13570391 13593982 13607317 13598953 13562663 
2687.536 13501228 13425000 13349020 13288605 13254036 13248660 13265821 
2690.911 13295610 13324150 13340878 13339569 13319037 13282702 13235433 
2694.286 13181647 13125496 13069510 13016574 12970306 12934683 12912147 
2697.661 12903521 12906279 12914913 12923460 12927305 12924911 12918264 
2701.037 12912335 12912287 12921019 12937267 12957050 12974304 12983504 
2704.412 12982376 12972639 12959544 12949344 12948208 12959582 12983656 
2707.787 13017627 13056508 13094136 13124149 13140465 13138266 13114264 
2711.162 13068186 13003740 12927645 12850076 12781934 12732585 12708758 
2714.538 12711379 12737643 12780559 12832406 12884637 12930242 12963852 
2717.913 12982812 12985571 12972847 12947637 12914401 12879332 12848988 
2721.288 12828663 12822274 12830928 12853445 12886642 12926787 12970502 
2724.663 13014693 13057162 13096815 13133200 13166852 13198236 13227984 
2728.039 13257011 13284039 13306409 13320010 13319984 13303582 13270247 
2731.414 13224361 13172969 13124950 13088448 13067593 13061472 13065239 
2734.789 13072585 13077453 13078110 13076382 13078318 13090617 13117960 
2738.164 13161090 13216713 13278963 13340690 13396930 13446306 13489912 
2741.540 13531236 13573955 13619814 13667161 13711952 13746456 13762947 
2744.915 13754324 13716528 13650196 13561660 13461965 13365553 13288356 
2748.290 13242166 13233806 13261457 13315741 13380640 13437918 13471616 
2751.665 13471304 13435394 13370972 13291040 13212003 13149457 13114391 
2755.041 13111148 13137075 13184610 13242505 13300239 13349679 13387405 
2758.416 13413866 13432571 13448418 13463528 13477997 13488030 13489088 
2761.791 13477195 13451503 13414606 13373895 13336691 13309387 13295312 
2765.166 13292906 13298839 13308756 13321180 13338517 13365227 13406877 
2768.542 13465422 13538188 13616084 13686772 13737804 13761460 13756148 
2771.917 13728442 13689299 13651541 13625104 13614555 13619244 13633511 
2775.292 13651041 13665875 13675504 13679743 13680070 13677699 13673183 
2778.667 13665406 13653996 13638666 13621843 13608273 13603364 13611875 
2782.042 13636046 13673468 13719015 13764298 13801670 13826733 13839115 
2785.418 13843285 13847455 13862086 13894464 13949462 14026814 14121206 
2788.793 14224240 14326474 14418834 14495142 14552294 14589910 14610684 
2792.168 14619573 14621350 14621344 14623964 14633046 14649346 14673432 
2795.543 14703244 14736441 14769183 14799025 14823251 14839505 14847787 
2798.919 14848656 14845205 14841753 14843837 14856726 14883807 14926213 
2802.294 14979539 15037302 15091418 15135210 15167351 15192071 15219150 
2805.669 15259699 15322671 15410433 15517349 15631851 15738767 15826307 
2809.044 15889084 15929721 15956793 15981700 16013131 16053721 16101409 
2812.420 16149869 16193435 16229935 16261436 16293231 16330993 16378503 
2815.795 16435962 16501287 16572408 16648669 16731963 16824658 16927902 
2819.170 17037726 17145226 17238744 17307468 17346830 17360604 17361106 
2822.545 17363974 17383638 17426082 17488184 17558758 17623282 17671016 
2825.921 17699490 17716570 17737268 17779166 17854536 17966452 18106378 
2829.296 18255976 18392602 18495020 18548918 18550460 18508376 18440658 
2832.671 18371394 18325742 18323238 18375438 18481144 18627798 18794078 
2836.046 18954710 19086872 19173936 19210138 19200414 19158114 19101660 
2839.422 19051690 19025204 19035696 19091598 19195136 19343956 19531968 
2842.797 19749352 19986960 20236946 20495402 20762528 21041588 21336736 
2846.172 21648358 21970534 22290306 22589316 22849186 23057076 23210246 
2849.547 23316822 23396974 23475142 23575094 23715050 23902946 24135352 
2852.923 24401526 24684328 24965650 25228504 25460018 25653024 25806992 
2856.298 25927010 26023696 26111130 26202470 26308934 26436530 26586250 
2859.673 26753168 26931492 27114842 27298176 27480054 27660942 27841138 
2863.048 28024434 28214212 28417390 28643382 28903784 29210110 29570468 
2866.424 29986700 30453332 30958074 31486682 32025718 32567314 33108144 
2869.799 33650460 34195832 34743868 35289684 35824448 36339824 36830100 
2873.174 37297376 37749080 38197564 38653612 39123156 39603832 40084364 
2876.549 40546624 40970196 41335320 41627704 41839780 41972356 42032956 
2879.925 42035068 41994332 41927624 41846500 41757732 41661648 41551312 
2883.300 41418428 41255804 41060944 40838304 40598456 40353432 40114700 
2886.675 39888960 39678092 39481912 39300000 39135932 38997600 38895676 
2890.050 38839652 38833784 38875336 38954252 39057108 39171880 39291636 
2893.426 39415108 39546040 39689200 39845596 40011264 40176608 40330832 
2896.801 40465588 40577612 40671024 40754360 40837924 40928164 41025988 
2900.176 41124532 41211104 41271196 41292852 41269220 41201348 41099572 
2903.551 40980980 40866128 40775012 40722828 40716668 40752560 40818100 
2906.927 40895996 40970440 41032768 41084672 41137772 41211016 41322536 
2910.302 41484012 41696504 41950464 42230488 42522148 42817948 43118408 
2913.677 43433920 43775692 44151064 44557476 44982068 45404324 45802312 
2917.052 46162356 46480600 46766420 47038648 47317936 47621588 47957752 
2920.427 48324664 48712216 49107348 49496188 49870156 50225908 50565360 
2923.803 50895412 51224956 51565772 51930324 52330440 52777392 53278548 
2927.178 53836396 54448324 55105824 55795800 56506456 57225344 57948412 
2930.553 58678328 59424444 60203208 61033140 61932616 62916116 63992940 
2933.928 65166160 66435376 67797192 69251144 70798504 72445432 74198232 
2937.304 76061912 78034760 80106192 82254536 84450352 86657264 88839336 
2940.679 90963992 93003296 94935440 96742776 98408008 99914912 101245608 
2944.054 102383768 103315936 104031960 104528096 104803872 104863952 
2946.947 104714520 104364912 103828752 103126384 102284608 101337272 
2949.840 100320352 99268032 98207568 97155912 96119144 95096248 94083856 
2953.216 93082584 92099760 91148184 90244064 89399936 88621352 87903304 
2956.591 87231896 86590592 85964720 85347000 84740072 84152504 83594848 
2959.966 83071984 82579088 82099296 81610128 81086392 80510776 79877784 
2963.341 79195936 78484704 77768216 77068168 76396960 75757144 75140488 
2966.717 74536208 73933888 73328040 72719888 72114232 71515408 70923448 
2970.092 70333552 69734480 69117432 68478192 67823056 67167840 66536820 
2973.467 65954120 65439716 65003268 64642996 64349948 64112716 63923748 
2976.842 63781672 63692108 63663556 63701740 63805572 63966796 64173108 
2980.218 64411780 64679324 64982012 65338148 65771512 66306464 66958672 
2983.593 67732432 68619136 69603864 70669856 71806352 73010544 74287992 
2986.968 75645848 77087176 78604784 80178664 81776432 83359328 84888704 
2990.343 86331168 87662544 88866424 89933992 90857208 91628216 92237328 
2993.719 92675640 92937520 93021880 92934424 92685560 92287912 91751320 
2997.094 91081456 90279824 89343744 88271448 87066048 85738496 84305840 
3000.469 82793056 81226568 79631328 78025968 76423024 74825456 73231272 
3003.844 71634008 70027608 68409376 66781744 65153448 63538396 61954812 
3007.219 60419324 58945092 57537180 56191420 54895180 53630284 52376276 
3010.595 51116456 49841904 48552656 47258296 45974520 44718468 43505956 
3013.970 42346896 41244780 40195980 39193292 38227796 37292212 36382188 
3017.345 35495924 34635544 33803584 33001218 32228522 31484116 30764990 
3020.720 30070106 29400648 28761208 28156862 27595456 27079616 26609608 
3024.096 26179798 25781764 25405392 25041886 24684798 24330656 23978236 
3027.471 23625900 23272732 22917502 22561846 22212612 21880602 21581850 
3030.846 21332050 21141616 21010250 20928048 20873394 20821576 20750650 
3034.221 20647642 20509576 20342788 20156764 19959064 19750714 19527824 
3037.597 19283662 19017614 18738158 18466640 18232458 18065634 17988336 
3040.972 18006508 18107946 18263270 18436548 18594262 18711438 18779768 
3044.347 18805454 18804236 18795752 18795452 18810816 18840106 18873502 
3047.722 18899128 18906520 18890044 18849786 18793528 18731008 18673078 
3051.098 18627124 18596232 18578354 18567034 18553554 18530422 18493026 
3054.473 18441556 18380736 18319586 18267866 18235742 18228862 18248992 
3057.848 18291414 18345766 18398908 18437778 18450448 18433002 18386964 
3061.223 18323122 18254736 18196718 18159980 18148330 18156644 18174832 
3064.599 18190972 18194554 18182384 18157750 18128574 18105362 18093478 
3067.974 18093436 18098650 18099020 18084028 18049138 17994024 17926106 
3071.349 17856108 17794550 17748860 17721932 17712124 17715420 17726662 
3074.724 17742346 17760514 17780852 17802232 17824340 17846868 17868884 
3078.100 17891528 17915938 17942726 17971290 17996650 18012190 18009734 
3081.475 17981820 17925538 17842646 17741098 17631664 17525408 17431034 
3084.850 17354344 17296684 17258170 17237972 17235692 17250612 17280456 
3088.225 17318294 17353234 17369940 17354090 17295608 17193028 17055988 
3091.601 16903670 16759101 16643966 16571753 16544763 16553257 16579194 
3094.976 16602747 16607305 16584866 16536556 16472135 16404888 16345935 
3098.351 16302451 16275266 16258467 16245404 16228383 16205225 16176132 
3101.726 16145883 16121246 16106689 16104719 16113985 16131578 16154177 
3105.102 16180215 16211366 16252629 16308697 16382603 16471751 16567916 
3108.477 16656609 16720407 16744385 16718708 16642636 16526161 16385138 
3111.852 16240748 16112190 16013240 15949549 15918510 15910326 15912162 
3115.227 15912117 15900796 15874945 15835715 15788846 15740603 15696531 
3118.603 15659653 15628936 15601240 15573117 15542371 15511093 15484304 
3121.978 15471630 15480401 15515760 15575727 15652047 15731644 15801420 
3125.353 15851840 15883416 15903367 15925631 15964359 16027847 16113590 
3128.728 16210062 16297236 16356101 16373109 16347915 16291635 16223058 
3132.104 16162651 16125124 16114267 16122524 16134042 16132005 16104005 
3135.479 16046146 15962617 15864141 15761960 15664591 15573931 15487873 
3138.854 15400537 15309072 15212640 15116400 15026760 14952149 14896248 
3142.229 14859379 14837767 14825094 14817576 14814584 14819697 14839984 
3145.604 14881979 14948541 15036841 15136662 15234202 15315216 15368408 
3148.980 15391232 15388734 15373993 15362306 15368878 15402593 15464725 
3152.355 15547901 15638923 15721206 15778681 15799064 15775153 15706079 
3155.730 15596059 15453550 15288799 15113337 14937527 14769934 14616909 
3159.105 14483419 14373810 14292001 14241700 14226308 14247317 14301887 
3162.481 14383691 14480240 14577358 14661370 14722099 14757199 14771849 
3165.856 14778131 14789499 14816886 14864969 14928767 14996937 15052609 
3169.231 15081332 15074497 15033145 14969163 14900064 14845925 14821943 
3172.606 14834395 14878093 14937965 14994132 15027991 15028784 14996393 
3175.982 14942824 14885834 14845325 14833742 14853872 14897109 14949301 
3179.357 14995227 15025618 15041213 15051165 15068043 15102725 15157673 
3182.732 15226069 15294173 15347149 15375717 15379965 15371088 15364345 
3186.107 15374782 15410310 15467099 15532555 15588637 15619412 15616752 
3189.483 15582351 15527523 15467016 15414726 15377923 15355546 15339576 
3192.858 15318897 15284519 15233761 15172290 15114439 15078512 15082072 
3196.233 15136483 15241563 15385987 15546861 15697194 15811462 15873453 
3199.608 15879920 15841022 15777880 15714074 15670525 15660118 15683938 
3202.984 15733952 15796004 15853353 15892144 15903663 15885754 15843343 
3206.359 15787706 15736245 15708301 15721953 15789246 15910329 16072441 
3209.734 16250864 16414618 16534841 16593631 16587941 16531195 16447837 
3213.109 16363164 16297646 16260337 16248446 16251959 16260002 16265890 
3216.485 16269082 16272923 16282696 16300023 16321775 16342349 16355803 
3219.860 16360519 16358651 16357213 16362363 16376259 16395235 16408170 
3223.235 16404033 16370500 16305078 16211858 16104026 15998330 15912503 
3226.610 15859630 15845457 15868157 15917148 15975783 16025025 16048199 
3229.986 16035331 15985869 15911058 15830599 15767986 15743697 15768683 
3233.361 15841886 15950771 16074544 16192071 16288284 16355896 16396953 
3236.736 16417949 16426144 16426422 16418882 16401459 16371546 16329242 
3240.111 16277263 16219731 16162185 16106904 16054539 16003793 15954336 
3243.487 15907366 15867339 15841214 15837915 15864844 15926909 16026312 
3246.862 16159045 16316863 16485522 16646080 16777626 16862258 16887424 
3250.237 16853094 16770145 16660035 16547611 16455440 16397260 16377445 
3253.612 16391106 16429203 16484983 16554749 16638286 16734848 16839302 
3256.988 16940078 17019156 17060348 17054024 17002454 16921140 16834348 
3260.363 16767533 16739622 16757187 16815106 16899080 16993256 17082980 
3263.738 17160476 17220040 17259376 17275174 17263596 17220470 17146216 
3267.113 17047956 16936744 16827586 16733313 16660271 16608369 16571244 
3270.489 16541567 16513309 16484927 16459282 16440211 16429357 16425746 
3273.864 16423885 16418403 16406223 16387779 16367247 16348463 16331101 
3277.239 16308904 16269231 16198790 16088998 15941605 15771005 15603887 
3280.614 15470586 15399670 15407318 15495545 15649771 15845086 16052255 
3283.990 16243335 16399603 16513210 16587434 16634917 16674370 16725739 
3287.365 16806434 16926950 17087760 17277854 17477078 17659500 17799942 
3290.740 17881046 17897134 17857020 17782216 17700210 17636638 17609612 
3294.115 17624014 17671346 17735388 17795582 17834120 17839604 17807706 
3297.490 17739514 17639892 17515354 17372424 17220174 17069110 16934176 
3300.866 16831192 16775329 16777226 16838898 16954300 17108500 17282150 
3304.241 17454876 17608270 17727470 17803460 17831232 17810318 17745910 
3307.616 17646984 17527284 17403124 17289146 17196448 17128478 17080470 
3310.991 17043772 17007178 16963572 16912518 16859894 16815142 16786822 
3314.367 16777486 16782926 16792592 16795588 16785694 16765008 16745094 
3317.742 16741637 16770206 16837946 16937970 17052278 17152044 17209200 
3321.117 17203236 17128778 16997504 16836910 16682524 16569765 16525829 
3324.492 16563321 16678277 16853910 17064180 17281124 17478636 17637170 
3327.868 17741182 17782828 17757714 17668386 17522308 17336002 17132356 
3331.243 16940074 16785726 16689314 16656656 16679173 16734660 16795414 
3334.618 16836180 16843310 16818016 16774939 16735537 16720507 16740039 
3337.993 16792692 16864720 16936210 16987464 17007048 16992144 16951708 
3341.369 16900500 16856790 16835808 16846754 16890196 16959100 17039680 
3344.744 17113228 17162682 17175812 17148786 17089100 17013130 16941520 
3348.119 16893456 16881074 16905508 16957008 17019414 17074764 17108900 
3351.494 17114844 17092474 17046944 16986904 16921456 16859362 16810628 
3354.870 16783698 16785772 16820804 16886104 16972014 17063696 17144716 
3358.245 17202228 17229920 17228902 17205132 17165470 17113634 17049840 
3361.620 16969914 16872504 16760647 16645500 16541710 16464951 16426276 
3364.995 16427277 16460527 16513076 16570602 16622281 16662914 16692387 
3368.371 16711935 16724151 16729707 16730066 16727040 16725816 16731260 
3371.746 16746536 16769724 16792126 16800974 16782568 16728545 16640350 
3375.121 16529858 16416403 16321812 16264187 16254293 16295537 16382290 
3378.496 16505070 16650651 16802180 16941640 17051130 17115438 17128192 
3381.872 17094588 17031948 16966688 16925562 16926724 16973718 17053050 
3385.247 17139564 17205334 17229008 17203874 17136952 17047300 16957746 
3388.622 16887700 16849216 16846954 16879002 16940380 17023026 17117072 
3391.997 17210124 17286488 17331600 17334744 17293178 17213708 17110322 
3395.373 17000772 16899276 16813920 16746189 16693695 16653825 16628405 
3398.748 16622333 16642233 16690958 16764766 16854322 16945958 17029078 
3402.123 17098994 17158102 17213574 17272142 17334614 17396074 17447050 
3405.498 17478750 17489328 17484500 17476120 17476656 17491352 17517708 
3408.874 17544074 17556842 17547318 17518132 17482186 17460416 17472260 
3412.249 17528266 17625712 17747564 17869236 17964498 18014212 18010000 
3415.624 17954810 17862608 17751368 17640674 17548522 17488204 17467522 
3418.999 17488210 17545126 17628550 17725992 17824726 17913862 17989022 
3422.375 18048944 18097518 18138296 18174844 18207492 18234412 18253864 
3425.750 18262980 18261186 18248816 18226096 18194744 18154302 18107066 
3429.125 18056826 18010026 17976326 17966886 17990468 18053410 18155852 
3432.500 18291370 18448242 18610356 18760318 18881756 18960826 18988614 
3435.875 18963726 18890168 18777160 18638182 18486606 18334660 18192372 
3439.251 18067124 17965502 17894536 17860586 17868860 17920178 18009142 
3442.626 18122952 18244196 18353932 18436554 18484662 18497996 18483594 
3446.001 18450118 18404144 18349378 18287194 18217014 18141386 18065042 
3449.376 17994816 17935904 17888316 17845000 17794724 17726618 17634886 
3452.752 17523802 17406564 17303306 17233830 17212270 17243504 17323046 
3456.127 17438986 17576520 17720942 17858110 17975044 18060348 18102768 
3459.502 18096012 18041102 17947080 17833308 17722994 17639930 17600718 
3462.877 17612920 17674236 17776212 17909704 18065778 18238880 18422858 
3466.253 18608070 18778474 18914852 18996482 19010992 18959168 18857638 
3469.628 18734664 18623774 18552208 18533944 18565048 18627602 18696584 
3473.003 18749628 18775534 18777674 18772704 18783236 18830032 18924182 
3476.378 19063388 19232862 19410452 19573290 19705244 19801044 19866626 
3479.754 19916224 19966186 20030886 20115242 20214004 20316076 20405198 
3483.129 20469666 20502682 20508446 20496422 20481934 20478096 20493690 
3486.504 20532706 20593864 20674722 20775638 20898032 21047896 21228530 
3489.879 21440778 21678572 21928902 22175706 22402420 22599398 22764620 
3493.255 22905580 23036602 23173078 23327002 23502508 23694078 23888900 
3496.630 24069322 24216498 24315566 24356250 24336992 24261304 24140832 
3500.005 23991240 23832550 23685610 23570930 23503710 23491156 23529866 
3503.380 23607488 23702708 23793120 23859382 23890504 23887182 23859552 
3506.756 23824004 23796944 23790658 23808212 23845610 23893172 23938742 
3510.131 23973336 23991990 23993278 23980618 23956012 23920410 23872618 
3513.506 23809680 23729462 23631130 23517522 23394312 23268952 23150068 
3516.881 23044526 22957540 22889108 22835328 22788166 22736256 22669066 
3520.257 22578064 22460292 22320362 22167262 22014138 21871166 21742256 
3523.632 21623628 21504616 21373388 21221526 21050568 20874618 20715330 
3527.007 20596524 20534664 20532612 20575940 20639426 20690246 20702914 
3530.382 20665076 20579686 20464750 20343268 20236590 20155382 20097762 
3533.758 20051158 20000034 19931460 19840440 19732082 19618712 19513864 
3537.133 19428818 19368200 19332972 19317680 19319598 19336838 19370948 
3540.508 19424308 19498480 19588952 19686352 19776172 19842712 19871342 
3543.883 19852872 19786224 19677688 19540812 19394162 19258544 19153246 
3547.259 19092664 19083832 19123802 19197706 19283782 19357260 19394190 
3550.634 19380866 19314632 19205134 19070120 18929596 18799892 18690060 
3554.009 18601066 18529574 18469862 18419678 18378180 18345734 18321510 
3557.384 18300734 18275784 18240322 18193042 18141336 18100952 18089206 
3560.760 18117436 18183996 18270162 18344528 18371020 18323572 18194634 
3564.135 18002592 17786032 17594766 17475636 17457568 17547530 17728006 
3567.510 17964512 18216552 18442970 18614194 18710668 18722412 18649872 
3570.885 18501284 18292568 18047902 17798422 17576092 17409762 17317400 
3574.260 17299380 17340036 17410776 17477580 17511330 17495594 17431552 
3577.636 17338130 17243126 17178676 17169840 17228034 17348014 17510144 
3581.011 17683974 17836746 17939506 17973622 17934128 17826894 17668958 
3584.386 17480606 17282742 17092656 16922598 16778938 16663957 16577182 
3587.761 16515858 16475545 16450603 16434906 16421249 16403139 16376728 
3591.137 16340695 16296593 16250676 16210161 16183347 16177699 16196715 
3594.512 16240403 16302280 16372116 16435955 16480066 16496124 16481595 
3597.887 16442001 16389385 16337844 16296530 16267503 16241115 16200254 
3601.262 16125510 16004091 15834305 15630249 15418692 15231942 15099419 
3604.638 15038977 15053049 15128154 15240324 15362542 15471525 15556041 
3608.013 15613778 15654024 15691502 15741913 15815418 15915649 16037667 
3611.388 16169639 16296821 16404938 16485026 16534530 16556701 16560240 
3614.763 16552525 16540207 16524496 16505754 16481556 16452873 16424300 
3618.139 16401777 16391607 16397547 16418759 16450394 16487496 16527154 
3621.514 16572038 16628698 16704414 16804058 16924970 17060242 17199812 
3624.889 17338092 17475816 17621484 17784454 17972036 18177318 18379760 
3628.264 18548348 18651054 18665088 18585310 18425560 18215648 17988794 
3631.640 17775662 17598646 17471006 17400668 17392262 17448502 17566002 
3635.015 17731284 17918190 18089812 18210306 18252216 18211722 18108916 
3638.390 17983780 17883732 17846956 17888962 18003312 18164682 18342096 
3641.765 18512860 18670746 18824410 18990104 19180418 19395736 19622510 
3645.141 19836410 20011378 20132084 20192260 20200070 20169936 20116540 
3648.516 20051496 19982766 19917696 19866202 19841150 19856384 19920258 
3651.891 20030958 20173802 20321110 20441862 20506610 20498770 20416714 
3655.266 20274662 20096642 19910254 19738068 19593212 19479246 19391144 
3658.642 19322042 19264582 19217660 19182634 19161596 19154542 19156084 
3662.017 19154184 19133740 19079638 18986090 18859600 18719084 18594146 
3665.392 18515014 18502210 18560440 18672154 18805540 18920160 18981682 
3668.767 18970400 18886902 18750114 18591530 18441160 18322508 18244688 
3672.143 18204748 18191634 18192050 18195176 18193504 18184068 18165396 
3675.518 18136126 18095390 18041342 17972494 17887248 17781892 17652490 
3678.893 17495214 17308952 17098636 16877814 16667316 16490310 16367625 
3682.268 16310483 16316565 16369740 16445620 16517576 16565004 16574083 
3685.644 16541086 16467983 16360061 16224969 16074061 15921272 15788333 
3689.019 15697576 15667284 15703902 15795721 15911039 16004154 16028358 
3692.394 15947916 15750067 15449890 15086807 14712966 14379382 14126306 
3695.769 13975227 13928998 13975292 14094507 14263200 14457917 14656666 
3699.145 14838172 14984115 15080358 15121927 15114491 15073131 15020002 
3702.520 14976886 14958775 14969889 15003298 15045143 15078326 15089458 
3705.895 15070230 15019261 14938905 14832994 14706109 14563087 14410862 
3709.270 14260844 14129031 14033397 13987973 14000456 14067276 14173076 
3712.646 14296903 14415808 14514141 14585063 14631913 14663621 14688631 
3716.021 14711906 14728601 14727782 14697249 14628053 14521176 14388045 
3719.396 14250542 14135391 14066721 14059592 14118376 14231540 14376717 
3722.771 14525304 14648051 14721408 14733900 14687737 14599968 14499227 
3726.146 14419016 14389863 14431719 14545984 14717874 14918124 15111965 
3729.522 15268708 15369988 15414275 15413645 15387804 15358338 15338100 
3732.897 15331594 15334446 15340298 15343653 15343761 15341619 15337726 
3736.272 15325586 15293695 15225797 15109763 14945707 14750000 14553017 
3739.647 14391505 14296974 14284190 14344427 14450832 14566902 14660614 
3743.023 14717189 14743865 14766295 14818523 14923983 15087720 15290598 
3746.398 15494930 15656600 15737215 15716547 15595688 15395562 15151151 
3749.773 14901949 14684692 14527588 14446822 14447676 14523909 14659381 
3753.148 14828148 14997981 15135736 15212136 15210322 15126874 14976215 
3756.524 14784715 14586531 14415321 14297593 14248176 14271363 14359515 
3759.899 14499098 14671288 14855610 15032202 15184200 15297369 15368041 
3763.274 15399336 15403826 15400134 15405001 15429894 15476582 15534998 
3766.649 15588388 15617726 15610653 15564630 15487461 15395531 15306732 
3770.025 15235187 15187456 15161530 15149723 15142703 15132782 15114151 
3773.400 15086180 15047474 14998537 14939493 14873744 14806213 14746244 
3776.775 14704694 14690913 14708702 14753648 14812505 14869483 14909163 
3780.150 14922821 14911704 14887436 14866199 14862783 14884786 14930571 
3783.526 14985858 15032050 15049403 15024872 14953628 14842503 14705911 
3786.901 14564740 14439117 14345624 14296300 14294066 14335270 14408407 
3790.276 14497146 14582742 14647076 14677583 14668042 14621984 14551698 
3793.651 14474172 14410702 14382857 14407770 14498021 14658852 14888021 
3797.027 15174923 15501191 15841067 16165599 16443871 16648129 16757959 
3800.402 16764155 16670240 16490052 16246872 15967667 15679916 15406646 
3803.777 15166924 14973982 14837361 14761389 14744178 14776583 14842463 
3807.152 14918675 14981793 15012084 14998830 14944441 14863296 14780349 
3810.528 14722480 14711603 14758822 14861743 15003951 15160740 15304836 
3813.903 15415304 15482183 15506849 15501788 15486140 15476737 15484055 
3817.278 15508861 15541588 15566539 15567099 15531770 15456318 15348150 
3820.653 15223355 15102879 15008959 14958462 14961243 15017452 15116883 
3824.029 15244090 15379013 15500165 15590012 15635353 15631178 15579012 
3827.404 15488942 15375562 15254862 15141434 15046169 14974955 14928439 
3830.779 14903039 14895052 14901411 14920836 14954363 15004555 15072446 
3834.154 15156642 15250861 15344466 15421811 15468518 15468926 15417363 
3837.530 15314718 15173430 15015177 14866398 14751730 14689535 14685861 
3840.905 14735077 14821288 14924862 15028081 15120928 15201978 15277400 
3844.280 15354384 15436016 15516905 15581867 15612118 15589505 15506803 
3847.655 15369536 15199050 15026737 14884635 14799254 14781548 14825743 
3851.031 14910373 15003526 15070820 15083784 15027450 14903476 14729887 
3854.406 14537721 14362921 14237175 14179948 14194865 14268807 14375640 
3857.781 14485344 14571998 14620892 14632908 14621191 14603795 14594910 
3861.156 14599185 14608493 14607477 14582192 14529142 14459814 14399636 
3864.531 14379092 14421442 14532137 14694683 14876797 15039973 15154331 
3867.907 15209625 15217471 15207081 15210916 15253825 15340096 15454866 
3871.282 15567082 15643856 15663417 15619003 15523808 15405670 15295930 
3874.657 15222699 15201401 15234261 15310024 15409657 15509192 15586323 
3878.032 15622625 15607448 15539085 15427124 15287899 15145409 15020409 
3881.408 14930155 14879718 14864308 14868880 14876568 14873741 14854165 
3884.783 14821471 14785650 14759564 14752432 14767512 14802995 14854468 
3888.158 14917392 14991382 15078003 15179735 15295152 15416456 15529605 
3891.533 15617673 15664380 15660463 15604733 15504728 15373198 15223680 
3894.909 15067886 14913500 14764820 14624710 14495646 14381014 14283160 
3898.284 14203132 14140411 14091746 14055577 14033340 14030905 14056750 
3901.659 14119488 14223312 14362376 14521440 14678861 14810498 14900287 
3905.034 14941283 14940909 14912856 14876178 14842366 14816381 14791827 
3908.410 14758645 14707819 14637254 14554654 14477525 14424950 14413397 
3911.785 14451119 14534214 14648975 14777899 14901496 15006557 15084692 
3915.160 15134449 15158042 15161216 15150123 15133787 15120066 15118916 
3918.535 15137148 15177658 15236652 15304702 15366089 15406519 15415230 
3921.911 15390378 15339160 15277180 15223710 15195936 15203971 15248216 
3925.286 15319112 15402102 15479472 15537564 15569015 15574736 15562595 
3928.661 15544012 15529893 15527331 15533968 15541919 15536727 15504195 
3932.036 15434056 15325776 15188425 15040661 14904447 14800685 14740955 
3935.412 14728296 14754827 14806625 14868434 14927891 14979207 15021977 
3938.787 15058178 15091226 15122966 15151422 15174483 15190437 15200333 
3942.162 15210887 15231200 15273396 15346847 15456317 15596944 15753049 
3945.537 15900366 16009197 16051276 16007565 15875271 15673121 15436361 
3948.913 15211855 15045797 14969351 14993093 15101883 15261559 15429872 
3952.288 15568250 15654067 15682675 15665421 15620796 15567166 15515115 
3955.663 15467414 15421160 15373834 15327159 15288414 15265137 15264617 
3959.038 15286326 15322996 15362989 15395971 15415988 15425013 15431924 
3962.414 15447712 15480857 15534152 15603495 15680011 15752710 15810577 
3965.789 15843928 15847843 15820721 15767196 15696945 15630260 15588507 
3969.164 15595177 15663698 15794225 15969276 16158596 16324598 16436188 
3972.539 16476318 16446423 16365221 16257552 16148269 16052924 15973777 
3975.915 15906317 15842430 15777465 15712755 15654279 15607498 15576932 
3979.290 15561658 15561150 15576474 15615360 15689394 15811106 15982393 
3982.665 16193159 16415598 16613459 16749281 16798896 16756134 16637769 
3986.040 16474448 16301239 16146937 16027013 15942538 15887653 15853830 
3989.416 15836671 15839919 15871987 15938891 16044252 16182750 16343990 
3992.791 16513566 16679322 16831772 16964632 17072268 17148384 17182944 
3996.166 17165896 17088132 16950172 16760835 16540449 16316693 16119258 
3999.541 15973954 15894962 15882699 
##END=
