##TITLE=3D-Fillies_PLA-Rainbow_Salmon-Pink_Filament_r5_ATR-Corrected
##JCAMP-DX=5.01  $$ Nicolet v. 1
##DATATYPE=INFRARED SPECTRUM
##ORIGIN=Curtin University
##OWNER=Nicolet
##LONGDATE=2024/07/18
##TIME=16:47:51
##SPECTROMETER/DATA SYSTEM=Nicolet iS50
##DATA PROCESSING=
Ratio against background
%Transmittance->Absorbance
ATR Correction
Truncated
ElementMultiply or ElementDivide
##COMMENTS=
Number of sample scans: 32
Collection length: 47.29 sec
Sample gain: 1.0
Background collected on: Thu Jul 18 16:45:46 2024 (GMT+08:00);
Number of background scans: 32
Background gain: 1.0
Sample spacing:  1.000
Number of scan points: 16672
Resolution points: 8192
Number of FFT points: 65536
Apodization: N-B strong;
Phase correction: Mertz;
Laser frequency: 15798.3 cm-1
Number of rejected sample scans: 0
Number of rejected background scans: 0
Bench serial number: AUP1200105;
##RESOLUTION=4.000
##XUNITS=1/CM
##YUNITS=ABSORBANCE
##FIRSTX=400.163452
##LASTX=4000.187744
##FIRSTY=0.061725
##MAXX=4000.187744
##MINX=400.163452
##MAXY=0.932524
##MINY=-0.023949
##XFACTOR=1.000000
##YFACTOR=1.000000E-009
##NPOINTS=7468
##DELTAX=0.482125
##ZPD=8192
##XYDATA=(X++(Y..Y))
400.163 61724528 59554176 57566440 55904964 54605260 53625788 52875800 
403.538 52256072 51692964 51154784 50643688 50173912 49745832 49328924 
406.913 48862044 48273012 47505832 46546628 45434204 44255420 43121172 
410.288 42136108 41369768 40840460 40515124 40324444 40182796 40010644 
413.663 39749084 39365404 38852892 38224888 37508652 36739068 35953840 
417.038 35188844 34473908 33828340 33258464 32758616 32314204 31910316 
420.412 31538614 31203308 30921706 30718910 30618948 30634772 30759798 
423.787 30965304 31204090 31420722 31564706 31602390 31524644 31346336 
427.162 31100062 30824538 30552364 30302898 30080844 29879682 29690512 
430.537 29508912 29339336 29193702 29084672 29015984 28981748 28962460 
433.912 28932678 28871544 28771350 28643222 28512698 28410214 28357270 
437.286 28355732 28384268 28405312 28379414 28281082 28110632 27896068 
440.661 27685096 27529516 27468318 27515822 27658664 27863370 28088440 
444.036 28298182 28471076 28600228 28687634 28735154 28738614 28686064 
447.411 28562828 28360304 28083510 27755050 27411368 27094204 26839338 
450.786 26668844 26586852 26583240 26640304 26740358 26869970 27020072 
454.161 27182118 27343138 27483152 27576934 27601098 27542266 27404482 
457.535 27209992 26993458 26791368 26627768 26506106 26407656 26298332 
460.910 26142350 25916288 25618772 25272574 24916532 24589962 24328794 
464.285 24147476 24041274 23991872 23977222 23980688 23994940 24021114 
467.660 24063262 24121496 24188094 24248258 24284520 24283298 24238788 
471.035 24153948 24036892 23895656 23734110 23550698 23342264 23109720 
474.409 22862746 22621756 22414208 22267322 22199464 22213850 22296726 
477.784 22421310 22554486 22664912 22728914 22732936 22673384 22554966 
481.159 22388264 22189054 21977060 21774524 21603440 21480572 21413144 
484.534 21396256 21413616 21443114 21464160 21465302 21448538 21428472 
487.909 21426770 21463146 21547218 21674274 21825530 21974702 22097446 
491.284 22179780 22224346 22250118 22287666 22370006 22523184 22756300 
494.658 23063886 23421344 23793022 24140306 24430490 24643802 24775708 
498.033 24835606 24841920 24814758 24770326 24716738 24654546 24579898 
501.408 24488092 24378022 24252772 24118390 23980804 23842692 23702360 
504.783 23555304 23397390 23227890 23051486 22876316 22710432 22556964 
508.158 22411300 22262004 22094928 21900064 21677898 21442234 21218328 
511.532 21036242 20921300 20885912 20924252 21012870 21116280 21195528 
514.907 21217496 21161810 21024500 20817370 20564076 20294694 20038892 
518.282 19820466 19653580 19540866 19474822 19440526 19420002 19396456 
521.657 19358038 19299024 19220498 19128658 19032818 18943798 18872012 
525.032 18824470 18808058 18823442 18865512 18922500 18977490 19011638 
528.406 19008514 18959068 18864538 18736336 18593142 18454430 18335444 
531.781 18243042 18175624 18126350 18087884 18056654 18034424 18026080 
535.156 18035570 18061390 18094026 18117196 18112320 18064034 17965906 
538.531 17821988 17645900 17456530 17273022 17110686 16979356 16883090 
541.906 16821644 16791368 16784912 16790734 16792954 16772758 16712146 
545.281 16598513 16429907 16216910 15981864 15753157 15558133 15415550 
548.655 15330737 15294987 15289477 15291017 15279839 15244136 15182653 
552.030 15103650 15022161 14955573 14920312 14928779 14988005 15098566 
555.405 15254518 15442788 15646391 15844312 16014989 16140342 16208835 
558.780 16217588 16172133 16084258 15968999 15841212 15713345 15595216 
562.155 15494754 15419143 15375226 15368643 15401077 15468311 15559047 
565.529 15655989 15740423 15797419 15820961 15816312 15798470 15786763 
568.904 15798319 15841657 15914023 16003458 16093871 16171910 16232476 
572.279 16279824 16325437 16381817 16457161 16551472 16656771 16761316 
575.654 16854624 16932728 16999730 17066014 17144154 17243634 17367492 
579.029 17511396 17666150 17820572 17965186 18093310 18201216 18286352 
582.404 18346506 18378784 18381808 18356482 18308310 18246924 18184674 
585.778 18133384 18101816 18093324 18105644 18132524 18165500 18196392 
589.153 18218338 18227186 18221476 18202936 18177128 18153626 18145560 
592.528 18167458 18232030 18346482 18508576 18705948 18917302 19116400 
595.903 19277870 19383260 19424848 19407070 19344546 19258158 19169300 
599.278 19095700 19047836 19028294 19032568 19052472 19079138 19106040 
602.652 19130834 19154844 19181944 19215832 19257918 19306416 19357434 
606.027 19406956 19454004 19502510 19561416 19641924 19753336 19898802 
609.402 20072850 20261876 20448806 20618656 20764396 20889982 21008894 
612.777 21139502 21297602 21491010 21716624 21962788 22214602 22460378 
616.152 22696842 22929454 23168874 23424206 23697476 23979678 24252652 
619.527 24494492 24688078 24826778 24918252 24981870 25042826 25123886 
622.901 25239396 25391200 25570584 25761776 25948646 26119342 26269782 
626.276 26403782 26531440 26666222 26821926 27010170 27238456 27508652 
629.651 27816220 28150138 28494188 28829680 29139274 29410440 29638546 
633.026 29826488 29983042 30118700 30241864 30356218 30460878 30552732 
636.401 30630286 30696474 30759832 30833036 30928692 31055194 31213992 
639.775 31398832 31597986 31797782 31986676 32157562 32308672 32442286 
643.150 32563086 32676608 32788492 32904632 33031370 33175010 33340972 
646.525 33531502 33744928 33974396 34209932 34440840 34659076 34862224 
649.900 35054904 35247608 35454596 35689740 35962956 36276988 36626168 
653.275 36996240 37366788 37714172 38015632 38253268 38416696 38504516 
656.650 38523192 38484792 38403876 38294424 38168880 38038404 37913744 
660.024 37807080 37731816 37700848 37723724 37803600 37935724 38108196 
663.399 38305588 38513180 38721080 38925540 39128212 39332708 39540908 
666.774 39751576 39960536 40163696 40360328 40555260 40758440 40981440 
670.149 41233120 41515532 41822604 42141640 42457252 42755420 43026308 
673.524 43265024 43470292 43642292 43782144 43892376 43979196 44053576 
676.898 44131612 44231304 44367304 44546024 44762568 45001408 45240604 
680.273 45458988 45642756 45788684 45904064 46002736 46099584 46205628 
683.648 46325836 46459608 46603768 46755332 46913676 47080580 47258756 
687.023 47449680 47652108 47862148 48073908 48282044 48482744 48674532 
690.398 48858692 49038080 49216544 49398252 49587688 49789180 50006480 
693.773 50242388 50498012 50772952 51065828 51375632 51703880 52055328 
697.147 52438104 52862616 53338052 53869380 54454424 55082316 55734700 
700.522 56388916 57022900 57620220 58173432 58685076 59165272 59626640 
703.897 60078348 60521020 60944912 61332112 61662432 61921124 62105392 
707.272 62227440 62312656 62392760 62497260 62645204 62840448 63072040 
710.647 63318684 63555792 63762492 63925104 64039088 64107200 64137324 
714.021 64140828 64132900 64133132 64166592 64263968 64460904 64796308 
717.396 65312676 66057800 67089400 68480128 70321720 72725056 75814976 
720.771 79718696 84550296 90392520 97278504 105177136 113982040 123506584 
724.146 133487000 143593440 153451520 162672640 170891824 177805312 
727.039 183202304 186981328 189149152 189802512 189099568 187228688 
729.931 184382080 180736944 176446048 171634368 166400800 160823120 
732.824 154963328 148874704 142608688 136219488 129767600 123319184 
735.717 116943984 110711752 104688752 98935752 93507568 88453680 83818104 
739.091 79638464 75943384 72748424 70053032 67838864 66070796 64701112 
742.466 63675316 62938528 62440688 62139056 61998408 61990280 62091524 
745.841 62283928 62554284 62894992 63303748 63781372 64328864 64944284 
749.216 65620376 66344240 67099340 67868944 68637880 69394384 70127984 
752.591 70826600 71473744 72047736 72523344 72876064 73087696 73150480 
755.966 73068088 72852976 72521288 72086544 71554976 70924368 70186808 
759.340 69333608 68361608 67277392 66098392 64850680 63564032 62265568 
762.715 60975452 59704492 58455156 57224608 56008588 54805740 53619048 
766.090 52456348 51328152 50245148 49215224 48241320 47320612 46444940 
769.465 45603064 44783184 43975396 43174712 42381660 41602000 40845812 
772.840 40123196 39441912 38803824 38203976 37631664 37072280 36512008 
776.214 35940888 35355732 34761180 34168008 33590952 33044372 32539148 
779.589 32079838 31663154 31277996 30906998 30529024 30122900 29672002 
782.964 29167998 28613692 28024498 27425976 26850040 26328926 25888956 
786.339 25545666 25301570 25147222 25063882 25028996 25020914 25023044 
789.714 25025352 25024466 25022152 25021394 25024308 25028766 25027930 
793.089 25009838 24959960 24863772 24711010 24498396 24231590 23924820 
796.463 23598692 23276012 22978520 22723164 22520902 22377176 22292948 
799.838 22266070 22292216 22364576 22473244 22605524 22746330 22880264 
803.213 22995816 23086002 23150096 23192152 23218280 23233612 23239438 
806.588 23233060 23208596 23159886 23082772 22977286 22847412 22699800 
809.963 22542482 22383466 22229860 22088586 21966032 21867998 21798574 
813.337 21758448 21743722 21745730 21752120 21749968 21728658 21682552 
816.712 21612580 21525628 21432954 21347442 21281192 21243562 21240092 
820.087 21272202 21337300 21429450 21540590 21661916 21785058 21904148 
823.462 22016584 22123558 22229478 22340036 22461104 22596376 22746092 
826.837 22906916 23072094 23232862 23380096 23506606 23608658 23687210 
830.212 23748304 23801962 23860880 23937402 24041738 24180734 24357510 
833.586 24571940 24822966 25108322 25425556 25771106 26140544 26528366 
836.961 26929212 27340250 27762840 28203576 28673640 29185086 29747626 
840.336 30364442 31031222 31737294 32469224 33214562 33964904 34715620 
843.711 35463488 36203048 36923212 37606868 38233724 38785360 39250340 
847.086 39628480 39931264 40179484 40398788 40615380 40853144 41132484 
850.460 41471212 41885720 42391708 43004572 43739212 44609296 45628108 
853.835 46808596 48163528 49703916 51436228 53358308 55456156 57702636 
857.210 60059088 62481028 64923688 67349184 69729072 72045240 74286872 
860.585 76446312 78516392 80488280 82353008 84103096 85734496 87247744 
863.960 88647144 89939872 91134144 92239624 93267512 94231104 95146232 
867.335 96028952 96893080 97745984 98584392 99391760 100137040 100776624 
870.709 101257736 101524936 101526584 101222608 100589240 99622664 98337272 
874.084 96761960 94933000 92887888 90659912 88277408 85764856 83147112 
877.459 80451968 77711688 74961304 72235424 69564840 66973300 64478948 
880.834 62095600 59836232 57715060 55748096 53951336 52338196 50916684 
884.209 49688480 48649740 47792724 47107720 46584136 46210184 45971088 
887.583 45848084 45818180 45855816 45935772 46036572 46142772 46245464 
890.958 46341576 46430756 46513812 46590736 46660508 46721032 46770000 
894.333 46804724 46822196 46818884 46790400 46732552 46642896 46521996 
897.708 46374084 46207736 46034112 45865940 45715464 45592540 45503704 
901.083 45450600 45429928 45433412 45449056 45464400 45469748 45461624 
904.458 45444656 45430476 45434240 45468460 45537708 45635544 45745660 
907.832 45847312 45922528 45963328 45975244 45976020 45989204 46036344 
911.207 46130192 46270828 46447820 46645348 46848844 47050672 47251476 
914.582 47458956 47682940 47931168 48205960 48503816 48817224 49137400 
917.957 49455972 49765876 50061076 50335380 50582564 50797244 50977400 
921.332 51125968 51251776 51368344 51490904 51632236 51799700 51993744 
924.706 52209140 52437840 52672876 52910972 53154508 53409956 53685584 
928.081 53988644 54323020 54688344 55079996 55490940 55912492 56335992 
931.456 56752660 57153992 57531304 57876500 58183212 58447924 58670884 
934.831 58856208 59010184 59139108 59246840 59333008 59393252 59421544 
938.206 59412640 59366384 59289692 59196788 59107184 59041968 59019412 
941.581 59051708 59143004 59289528 59482056 59708520 59957048 60218952 
944.955 60489632 60769560 61063760 61380600 61730220 62123296 62569028 
948.330 63074068 63641592 64271524 64960212 65700732 66482672 67291800 
951.705 68109776 68914600 69681520 70384664 70999880 71505304 71882528 
955.080 72115392 72188264 72085464 71792224 71297704 70599432 69707936 
958.455 68648736 67460976 66191548 64887276 63587800 62320128 61098664 
961.829 59928692 58813000 57757076 56773032 55879128 55095828 54440452 
965.204 53922716 53541520 53285936 53137496 53073996 53073208 53114832 
968.579 53181888 53260612 53340480 53414620 53480052 53538176 53594512 
971.954 53658072 53739920 53850328 53997824 54186552 54414860 54674704 
975.329 54952076 55228860 55486020 55708612 55889044 56030720 56147160 
978.703 56258584 56386828 56548044 56749020 56985268 57244648 57512608 
982.078 57778504 58040048 58303768 58582060 58888172 59230136 59608340 
985.453 60014980 60437224 60861536 61277764 61681388 62073968 62459888 
988.828 62845892 63238808 63644552 64067976 64513156 64983040 65478996 
992.203 66000328 66544756 67109136 67691680 68293224 68918552 69575696 
995.578 70275064 71026888 71839936 72720248 73671048 74692968 75783920 
998.952 76938584 78147368 79396256 80666976 81939536 83195552 84423072 
1002.327 85619704 86794784 87968608 89170344 90434096 91795000 93285984 
1005.702 94936032 96768880 98802704 101050728 103522040 106223448 109162984 
1009.077 112353248 115816040 119586432 123713840 128260760 133296832 
1011.970 138888944 145087504 151910592 159327952 167247616 175508240 
1014.862 183880096 192076960 199780832 206675984 212490208 217032400 
1017.755 220221824 222098864 222817664 222619696 221798464 220661072 
1020.648 219492592 218530960 217953008 217869504 218331120 219338192 
1023.540 220855840 222827984 225191184 227884192 230855360 234065216 
1026.433 237486448 241103312 244909280 248905520 253099136 257501568 
1029.326 262127376 266992176 272110208 277491904 283141568 289055488 
1032.219 295220864 301615776 308210144 314968544 321853600 328827584 
1035.113 335855232 342902080 349930976 356897824 363746528 370406880 
1038.006 376798048 382834848 388437184 393539296 398095712 402079936 
1040.899 405482336 408301184 410537792 412192736 413267008 413763392 
1043.792 413689152 413056992 411884224 410191776 408005440 405357376 
1046.685 402290720 398862688 395144512 391217152 387164896 383066432 
1049.578 378989376 374985920 371094272 367341792 363746944 360320928 
1052.471 357067680 353981952 351049696 348250368 345562528 342970816 
1055.364 340472928 338083648 335835648 333776160 331962880 330459200 
1058.257 329331936 328648576 328479040 328893504 329961792 331750496 
1061.150 334320480 337723808 342003328 347192064 353314880 360387552 
1064.043 368416800 377396864 387308576 398116672 409771328 422211616 
1066.936 435371008 449181792 463579520 478504512 493899968 509711328 
1069.829 525884448 542365120 559099648 576034496 593115584 610286656 
1072.722 627486976 644651776 661714496 678608960 695274432 711655296 
1075.615 727700160 743358464 758577344 773301504 787474368 801042816 
1078.509 813957184 826167936 837619840 848242880 857951552 866646528 
1081.402 874227968 880606464 885713920 889501440 891934784 892985088 
1084.295 892626432 890844416 887653184 883111744 877333120 870475776 
1087.188 862725312 854264768 845251968 835807936 826019264 815949056 
1090.081 805653824 795191616 784626560 774022848 763437056 752910080 
1092.974 742464512 732104320 721819136 711587712 701383488 691177792 
1095.867 680944960 670667328 660339264 649968832 639575168 629182784 
1098.760 618811904 608471232 598153984 587840192 577503872 567121472 
1101.653 556680128 546181440 535640832 525082176 514535424 504032608 
1104.546 493611520 483318240 473211872 463365536 453864224 444799296 
1107.439 436260512 428327968 421067744 414529760 408749312 403748288 
1110.332 399537920 396118752 393478944 391591904 390414496 389886784 
1113.225 389935328 390477792 391430016 392711616 394250816 395985248 
1116.118 397863840 399843200 401887968 403969056 406064608 408159872 
1119.011 410248704 412332096 414418080 416517440 418641856 420798432 
1121.905 422987264 425197600 427407360 429580480 431669120 433614240 
1124.798 435348672 436801056 437900928 438583936 438796928 438502112 
1127.691 437679680 436327008 434456672 432091616 429261344 425996000 
1130.584 422323840 418268352 413847872 409073632 403950624 398477312 
1133.477 392647200 386450816 379879072 372926176 365592864 357888288 
1136.370 349831296 341449760 332781568 323873760 314782688 305572768 
1139.263 296314208 287078528 277935392 268947168 260168256 251644704 
1142.156 243416400 235521456 227997968 220884512 214218848 208032976 
1145.049 202351392 197186560 192540992 188407264 184773184 181624096 
1147.942 178945312 176721760 174937888 173575184 172611936 172023040 
1150.835 171780928 171857744 172225696 172857920 173727920 174808528 
1153.728 176072224 177491936 179041968 180700704 182451728 184283664 
1156.621 186190128 188167024 190211488 192321408 194495296 196733456 
1159.514 199038912 201417472 203876976 206425904 209072656 211825024 
1162.407 214692496 217687632 220829216 224143744 227665152 231434160 
1165.301 235495936 239897840 244688544 249917248 255634256 261891664 
1168.194 268743776 276247584 284462752 293451296 303277216 314005344 
1171.087 325699456 338418976 352213984 367119680 383149152 400288384 
1173.980 418488896 437661536 457670912 478328896 499389696 520547936 
1176.873 541441472 561661632 580771712 598330944 613924416 627190592 
1179.766 637846720 645708160 650697408 652847360 652292864 649253824 
1182.659 644012864 636887104 628203776 618279616 607408832 595857216 
1185.552 583861440 571630144 559344192 547156800 535191168 523541152 
1188.445 512272064 501426400 491029920 481098656 471644352 462677344 
1191.338 454205856 446234496 438761408 431776512 425263200 419201024 
1194.231 413568864 408349408 403530912 399107584 395076736 391436160 
1197.124 388180352 385298144 382770912 380574688 378681376 377062848 
1200.017 375692864 374550176 373618080 372882560 372330048 371943296 
1202.910 371698144 371562528 371497280 371460000 371409408 371309216 
1205.803 371131744 370857952 370476096 369977248 369352416 368589632 
1208.697 367672608 366583200 365303232 363817536 362117728 360203712 
1211.590 358084032 355775040 353298432 350677568 347933600 345082432 
1214.483 342132384 339086048 335942176 332700704 329367232 325956352 
1217.376 322491776 319004800 315528992 312096160 308731072 305449856 
1220.269 302259264 299159200 296144768 293210272 290351168 287564800 
1223.162 284852128 282214368 279654208 277172608 274768736 272439072 
1226.055 270178624 267981472 265843296 263762208 261740096 259782672 
1228.948 257898144 256096576 254387264 252779328 251280752 249900048 
1231.841 248646720 247532224 246568912 245769024 245142080 244694112 
1234.734 244426016 244335840 244419136 244671712 245090656 245675616 
1237.627 246427072 247345136 248427584 249667968 251055264 252574240 
1240.520 254205552 255926432 257711440 259531824 261355616 263149088 
1243.413 264877296 266506640 268007360 269355008 270531872 271526912 
1246.306 272336352 272963232 273417952 273718592 273891168 273969376 
1249.199 273991936 274000608 274035040 274128928 274306656 274581216 
1252.093 274953952 275416864 275956512 276557952 277208576 277900832 
1254.986 278633536 279409728 280235680 281117376 282059392 283063744 
1257.879 284130624 285260032 286451936 287707136 289025152 290402496 
1260.772 291829504 293289120 294756864 296203200 297596224 298904736 
1263.665 300100640 301159424 302059968 302782240 303306368 303612704 
1266.558 303680704 303489952 303019776 302250496 301163008 299740512 
1269.451 297969888 295844864 293368224 290553184 287422272 284005024 
1272.344 280334016 276440320 272352000 268092240 263681328 259138192 
1275.237 254482512 249735408 244919776 240058448 235173696 230286016 
1278.130 225413936 220573712 215780512 211048288 206390160 201818528 
1281.023 197345344 192981632 188737936 184624800 180651904 176827984 
1283.916 173160192 169653776 166311328 163133200 160118080 157263280 
1286.809 154566320 152025760 149641328 147414576 145347696 143442368 
1289.702 141698480 140112640 138677632 137382640 136214368 135158016 
1292.595 134199960 133327288 132529408 131796848 131120784 130492032 
1295.489 129901528 129341512 128805904 128293704 127808320 127357720 
1298.382 126952616 126603008 126315888 126092120 125926000 125805408 
1301.275 125714464 125636328 125555472 125460464 125344248 125203568 
1304.168 125038328 124848968 124635848 124397200 124129616 123827688 
1307.061 123484744 123094528 122652112 122154160 121600232 120991592 
1309.954 120331000 119621040 118863216 118057368 117202024 116295584 
1312.847 115338200 114333768 113291312 112225208 111154704 110100896 
1315.740 109084200 108121376 107223176 106393160 105628760 104923112 
1318.633 104267184 103653024 103074584 102527816 102010552 101520408 
1321.526 101054472 100608576 100178904 99762504 99359544 98973048 98609096 
1324.901 98274632 97976168 97717760 97501680 97328408 97199000 97116688 
1328.277 97087456 97119680 97222624 97404624 97671696 98026728 98470984 
1331.652 99004496 99628144 100343472 101151848 102052600 103040640 104104920 
1335.027 105228176 106388232 107560336 108720536 109847888 110926320 
1337.920 111945744 112900752 113791232 114620824 115396760 116129216 
1340.813 116830848 117515456 118196736 118887920 119600784 120346304 
1343.706 121135240 121979168 122890624 123882792 124967424 126154232 
1346.599 127447232 128846600 130346416 131937264 133607272 135343744 
1349.492 137134224 138965968 140826928 142703760 144582864 146448128 
1352.385 148282672 150068256 151785984 153417328 154945616 156356720 
1355.279 157641296 158794256 159814912 160705664 161470064 162112432 
1358.172 162637120 163049632 163358496 163576080 163719600 163809216 
1361.065 163865888 163908544 163950176 163997568 164049600 164097792 
1363.958 164128080 164121632 164055488 163903872 163638928 163231968 
1366.851 162655520 161884704 160899712 159687024 158241472 156569360 
1369.744 154691456 152646400 150492912 148311312 146200144 144270992 
1372.637 142639600 141416800 140697328 140551712 141019808 142107744 
1375.530 143787552 146000720 148661744 151665456 154892224 158216176 
1378.423 161511152 164657888 167549632 170094976 172219776 173866496 
1381.316 174993216 175572784 175592976 175055024 173973696 172373824 
1384.209 170286768 167748752 164798576 161478080 157834992 153923152 
1387.102 149802560 145535760 141181760 136791328 132401944 128038528 
1389.995 123714376 119436688 115210552 111043960 106948608 102941968 
1392.888 99045024 95282240 91678656 88258280 85041776 82043696 79272008 
1396.264 76727480 74405584 72299168 70401896 68709480 67220464 65934600 
1399.639 64849944 63961572 63260368 62734576 62373812 62172872 62134608 
1403.014 62269748 62593616 63119524 63850888 64775476 65860324 67053376 
1406.389 68285968 69480104 70554232 71429848 72036520 72316808 72230528 
1409.765 71758896 70909064 69714568 68234104 66544832 64732952 62882452 
1413.140 61065132 59334248 57722480 56243952 54899496 53682972 52586332 
1416.515 51601444 50722572 49944424 49262844 48672920 48170568 47751888 
1419.890 47413176 47151584 46963148 46842492 46782712 46774944 46809252 
1423.266 46874616 46959044 47049532 47133472 47199824 47242092 47262000 
1426.641 47270728 47289456 47346280 47471216 47690192 48020880 48470744 
1430.016 49038956 49720996 50513732 51418916 52443756 53599712 54898208 
1433.391 56348612 57956936 59726100 61658388 63758544 66034860 68500160 
1436.767 71171464 74069496 77218176 80643296 84371144 88425328 92822848 
1440.142 97569976 102658976 108067888 113761056 119692680 125809896 
1443.035 132054256 138361952 144663696 150885184 156948560 162777104 
1445.928 168300400 173458736 178207584 182518608 186378944 189789664 
1448.821 192761088 195308320 197446176 199186064 200534560 201494016 
1451.714 202065552 202252176 202059232 201493216 200558064 199251616 
1454.607 197564384 195481568 192988880 190079456 186759328 183048960 
1457.500 178979936 174589248 169914768 164992256 159858640 154553792 
1460.393 149122688 143614368 138077520 132554680 127079176 121674248 
1463.286 116356528 111140680 106044112 101087824 96295680 91690976 87293984 
1466.662 83120512 79182840 75490448 72050736 68868328 65943128 63268988 
1470.037 60832184 58613532 56589720 54736780 53031988 51454628 49986512 
1473.412 48611608 47315844 46087936 44918656 43802556 42735064 41712688 
1476.787 40731044 39784976 38869092 37979940 37117256 36284184 35485768 
1480.163 34726040 34005156 33317350 32651748 31994928 31334962 30665212 
1483.538 29986104 29304448 28631218 27978764 27357782 26776416 26240036 
1486.913 25751960 25313240 24923108 24578250 24272122 23995804 23740212 
1490.288 23497770 23264780 23042892 22837624 22655842 22504204 22385990 
1493.664 22300864 22245350 22215014 22205470 22214630 22242720 22292786 
1497.039 22369784 22481040 22635600 22844692 23120252 23473558 23913050 
1500.414 24440792 25050002 25723642 26433316 27141342 27802500 28368226 
1503.789 28791888 29032952 29064044 28875564 28478906 27906496 27207244 
1507.165 26438154 25656040 24907232 24224468 23624358 23111404 22681036 
1510.540 22324568 22032010 21793440 21598862 21437930 21300536 21176600 
1513.915 21058462 20941820 20825748 20713294 20609030 20517254 20439894 
1517.290 20375972 20321560 20271678 20221968 20170936 20120022 20073648 
1520.666 20037064 20014116 20005076 20006060 20009954 20009216 19998070 
1524.041 19975044 19943832 19911186 19884252 19868340 19862946 19862704 
1527.416 19859590 19845254 19815146 19769992 19715728 19660644 19612006 
1530.791 19573054 19541702 19512000 19476584 19429948 19370476 19301134 
1534.167 19227670 19155790 19089990 19031640 18979962 18933908 18893220 
1537.542 18859108 18833572 18818606 18814224 18818598 18828376 18840360 
1540.917 18852766 18865602 18879962 18896850 18915484 18932442 18942458 
1544.292 18940058 18920282 18881212 18823314 18748842 18660894 18562356 
1547.667 18455236 18342156 18225760 18110256 18001132 17903824 17822554 
1551.043 17759340 17713138 17681214 17659038 17642130 17626736 17610324 
1554.418 17591790 17571284 17550340 17531442 17517772 17512348 17517504 
1557.793 17533152 17557282 17585558 17612632 17633832 17646976 17652270 
1561.168 17652626 17652448 17655986 17666324 17685276 17713544 17750336 
1564.544 17795078 17846448 17903176 17962812 18023180 18081406 18136408 
1567.919 18188404 18240328 18296982 18364510 18449348 18556858 18690708 
1571.294 18852706 19042842 19259020 19498070 19754358 20021248 20290282 
1574.669 20552800 20800186 21024980 21221856 21386618 21516680 21609834 
1578.045 21663978 21677130 21648760 21579542 21472152 21331380 21163758 
1581.420 20976246 20776568 20572020 20370592 20180176 20008444 19861398 
1584.795 19742602 19652134 19586266 19539012 19503740 19474884 19449360 
1588.170 19426198 19405300 19386766 19369030 19349278 19324848 19294330 
1591.546 19258478 19220000 19182692 19149322 19120758 19095492 19071400 
1594.921 19047888 19027402 19016794 19025530 19063306 19137066 19248754 
1598.296 19395208 19569510 19763802 19972548 20193648 20428544 20680760 
1601.671 20953658 21248118 21561874 21890528 22228356 22571214 22917124 
1605.047 23266260 23619902 23978326 24338684 24693802 25032140 25339728 
1608.422 25602678 25810560 25957852 26046290 26083328 26080950 26052180 
1611.797 26007982 25954560 25891900 25814728 25714440 25582378 25412702 
1615.172 25205856 24969154 24715920 24463460 24229462 24027902 23867046 
1618.548 23748118 23665810 23611316 23574218 23545312 23518776 23491832 
1621.923 23465760 23442670 23425010 23413178 23405388 23398486 23389514 
1625.298 23377308 23364308 23355588 23357722 23376512 23415326 23472898 
1628.673 23544002 23621512 23697792 23767190 23826906 23876318 23916700 
1632.049 23950058 23977496 24001316 24023514 24047966 24079042 24121338 
1635.424 24178288 24250356 24334820 24426964 24520742 24610764 24692862 
1638.799 24764162 24821834 24863170 24885116 24885788 24865228 24827814 
1642.174 24781250 24736004 24702798 24689638 24700774 24735714 24791552 
1645.550 24864468 24952224 25054560 25171714 25303428 25446324 25593684 
1648.925 25736680 25866802 25978826 26072268 26151928 26226304 26304698 
1652.300 26394326 26498674 26617016 26745454 26879216 27014606 27150386 
1655.675 27287962 27430946 27584296 27753684 27943356 28156138 28391460 
1659.051 28645050 28910202 29178232 29442206 29698904 29950210 30203406 
1662.426 30468714 30755482 31068756 31407260 31763800 32128080 32490264 
1665.801 32845262 33194442 33545188 33908396 34294396 34709624 35155444 
1669.176 35627040 36116644 36614816 37113536 37607452 38094132 38573808 
1672.552 39048804 39523132 40000656 40485604 40981172 41489268 42009940 
1675.927 42541728 43083260 43633276 44191496 44758884 45336904 45927476 
1679.302 46531172 47148272 47778224 48419824 49072388 49733756 50401804 
1682.677 51071408 51737248 52393368 53035912 53664688 54283748 54901492 
1686.052 55528208 56174668 56850964 57566104 58328920 59148544 60033756 
1689.428 60992028 62027044 63137472 64317360 65559620 66859864 68220976 
1692.803 69655488 71184296 72832008 74620304 76562704 78661896 80912248 
1696.178 83308792 85854072 88567192 91484600 94657976 98145376 102003648 
1699.553 106281144 111015104 116235024 121969048 128251272 135128384 
1702.447 142659824 150913680 159960496 169865824 180686048 192466400 
1705.340 205240816 219031616 233848352 249681280 266495312 284225856 
1708.233 302779968 322042560 341889120 362194048 382832864 403674272 
1711.126 424565504 445316768 465694816 485429024 504231168 521819936 
1714.019 537951168 552439040 565172160 576123456 585354560 593010048 
1716.912 599299840 604468224 608755264 612359168 615416064 617998784 
1719.805 620135040 621832640 623101376 623962240 624443520 624570368 
1722.698 624359488 623819712 622964288 621826560 620467328 618969088 
1725.591 617420160 615893056 614427648 613027776 611673344 610338240 
1728.484 609008128 607690816 606411008 605199616 604082752 603076160 
1731.377 602190080 601441984 600864832 600511936 600450368 600748224 
1734.270 601462144 602631552 604286080 606456576 609191808 612562112 
1737.163 616657408 621573376 627395584 634187136 641985792 650809984 
1740.056 660669824 671571968 683518592 696495424 710456064 725308864 
1742.949 740915584 757100672 773668288 790418048 807151680 823669696 
1745.843 839761216 855198208 869740224 883151104 895219072 905775040 
1748.736 914695744 921892736 927300032 930859904 932523840 932260672 
1751.629 930068864 925977408 920040512 912320832 902877376 891760576 
1754.522 879023680 864739968 849019072 832013184 813907392 794900928 
1757.415 775185984 754931456 734282688 713365120 692297024 671196672 
1760.308 650185600 629384640 608908224 588859072 569325120 550377920 
1763.201 532075296 514459200 497556064 481373760 465903296 451121152 
1766.094 436995328 423493600 410590816 398270144 386522304 375339008 
1768.987 364704064 354587296 344942496 335709888 326823360 318219520 
1771.880 309845024 301661856 293644544 285777760 278047232 270436032 
1774.773 262919184 255466096 248043984 240623856 233185248 225719824 
1777.666 218231856 210735696 203252736 195807728 188425936 181131264 
1780.559 173945200 166886096 159968720 153205024 146604560 140177632 
1783.452 133937064 127900320 122088928 116526600 111234272 106225344 
1786.345 101503416 97060592 92880424 88942152 85226584 81719320 78413088 
1789.721 75307120 72402816 69701624 67200424 64889988 62756768 60783776 
1793.096 58956088 57262856 55698996 54262152 52949748 51753884 50659252 
1796.471 49642408 48676436 47736860 46809396 45892220 44996608 44141564 
1799.846 43345764 42620840 41966536 41371596 40818428 40289756 39773424 
1803.222 39265016 38765716 38276892 37797788 37322244 36841404 36347320 
1806.597 35838384 35321368 34811244 34326292 33882924 33489860 33146504 
1809.972 32843012 32564230 32293904 32018218 31727608 31416890 31084194 
1813.347 30731982 30365060 29993434 29631340 29297004 29009878 28787368 
1816.723 28639886 28568764 28563040 28602474 28659354 28704078 28709376 
1820.098 28654572 28528698 28330416 28067542 27754412 27407858 27043272 
1823.473 26671924 26300676 25932778 25569610 25214350 24872418 24549616 
1826.848 24251494 23977850 23723562 23477396 23227370 22964504 22686238 
1830.224 22397822 22109550 21831018 21567342 21315712 21067896 20813228 
1833.599 20546732 20271766 20002054 19757720 19558638 19418094 19336658 
1836.974 19302700 19294546 19286818 19256872 19188464 19076082 18921516 
1840.349 18733320 18521786 18296150 18062284 17821564 17571112 17307442 
1843.725 17027560 16732594 16428413 16126871 15841065 15583714 15362359 
1847.100 15178557 15027945 14903855 14800056 14713875 14645316 14595577 
1850.475 14561359 14534990 14502114 14448100 14362137 14244201 14105537 
1853.850 13965887 13845377 13757577 13702000 13665912 13628741 13572718 
1857.226 13490828 13391816 13295956 13228663 13206172 13229388 13278679 
1860.601 13320789 13317281 13238846 13073907 12834867 12552329 12269556 
1863.976 12028795 11862386 11785762 11797839 11882064 12015104 12172092 
1867.351 12332015 12479228 12602210 12693130 12744470 12748388 12701320 
1870.727 12604934 12472250 12325851 12197603 12117925 12109014 12175331 
1874.102 12300939 12453373 12593287 12687030 12719019 12694186 12636558 
1877.477 12576818 12539229 12532525 12544403 12547432 12512133 12417289 
1880.852 12261800 12064320 11857929 11677485 11549183 11479872 11459582 
1884.228 11467010 11479696 11483457 11477333 11469875 11474708 11497742 
1887.603 11532772 11558685 11545708 11466077 11306051 11074311 10804183 
1890.978 10544542 10348758 10256943 10286032 10422474 10629539 10856343 
1894.353 11055206 11191525 11252113 11241730 11178605 11083224 10975189 
1897.729 10868770 10775181 10702841 10658706 10643941 10648940 10651194 
1901.104 10619442 10523092 10347379 10103397 9834412 9603728 9478590 9504224 
1904.961 9687909 9992421 10346622 10668709 10894156 10991044 10969930 
1908.336 10870453 10744282 10632291 10555184 10508620 10475305 10434919 
1911.712 10377581 10301937 10215160 10123085 10028024 9925286 9814228 
1915.087 9700241 9603674 9549256 9563670 9657124 9820314 10020985 10216525 
1918.944 10363731 10433948 10416987 10320004 10157850 9946037 9691783 
1922.320 9400379 9074987 8731208 8393901 8101110 7889191 7786987 7800982 
1926.177 7917476 8101526 8310471 8502021 8646395 8729586 8754310 8733887 
1930.034 8688577 8637366 8594534 8561378 8530148 8478076 8377142 8196341 
1933.892 7916456 7533696 7070106 6568671 6088347 5689956 5422848 5310829 
1937.749 5350917 5512994 5754598 6031594 6313673 6591320 6877493 7194518 
1941.607 7566406 7997817 8467626 8923742 9293992 9503220 9496652 9252239 
1945.464 8793400 8184836 7516809 6881561 6360170 6005028 5844385 5883218 
1949.322 6117665 6532021 7103286 7787536 8522827 9222439 9795823 10163138 
1953.179 10281120 10151713 9822465 9364113 8852432 8333483 7822707 7305186 
1957.036 6759099 6181214 5611471 5132371 4858578 4901627 5335246 6161104 
1960.894 7307692 8634994 9966657 11122985 11958482 12380816 12368539 
1964.269 11959440 11243103 10325456 9310895 8274023 7267806 6316385 5448817 
1968.126 4703785 4153613 3880442 3965502 4442754 5286862 6392720 7610798 
1971.984 8765190 9713464 10359503 10681413 10700312 10479004 10094693 
1975.359 9645832 9248137 9051715 9214253 9869208 11049857 12659171 14453942 
1979.217 16115874 17336634 17921932 17830682 17190512 16232781 15231068 
1982.592 14406431 13883479 13661740 13659118 13750622 13847791 13910452 
1985.967 13964852 14059016 14227990 14451512 14653423 14717488 14535876 
1989.342 14046397 13266761 12287838 11255158 10315216 9583874 9112248 
1992.718 8886358 8834199 8863830 8885266 8839875 8709928 8516703 8301190 
1996.575 8111535 7977722 7912053 7903074 7934183 7983689 8044051 8107655 
2000.432 8169221 8201439 8160306 7986740 7639963 7118988 6497963 5919526 
2004.290 5578627 5655913 6263077 7379489 8843279 10378992 11692053 12563560 
2008.147 12922646 12856383 12563562 12262257 12110678 12148573 12306425 
2011.522 12446326 12432406 12186865 11729609 11150341 10584082 10137422 
2014.898 9866436 9749003 9718850 9680849 9566754 9333584 8979117 8510907 
2018.755 7938643 7255438 6459920 5556223 4591312 3649528 2845920 2284990 
2022.613 2023874 2033292 2195142 2319511 2217438 1761232 962815 -16915 
2026.470 -882271 -1305049 -1015618 78615 1858180 3991104 6043420 7595707 
2030.327 8393295 8409961 7863802 7125986 6605566 6594310 7208007 8337252 
2034.185 9732017 11081581 12134846 12740404 12877918 12603855 12008957 
2037.560 11169598 10138552 8952241 7666715 6362714 5165320 4208388 3618068 
2041.417 3468371 3781737 4511781 5576796 6861955 8248751 9614196 10854467 
2045.275 11883985 12664535 13200374 13559876 13833019 14116572 14456488 
2048.650 14827539 15122467 15193027 14900376 14178970 13054371 11651990 
2052.025 10151237 8750029 7604304 6801618 6343068 6161400 6146461 6193641 
2055.883 6225412 6209994 6144065 6041666 5911572 5760982 5596137 5443054 
2059.740 5346216 5369511 5568127 5970421 6551627 7238237 7923555 8506129 
2063.598 8920491 9165882 9290418 9376797 9492338 9664751 9861577 10011302 
2067.455 10033377 9880879 9565752 9163953 8788805 8553276 8524936 8710076 
2071.313 9049290 9447540 9811788 10083425 10253683 10363234 10471805 
2074.688 10640878 10900320 11250542 11659938 12083936 12477340 12807909 
2078.063 13053314 13205389 13259270 13218575 13088153 12882519 12619643 
2081.438 12321416 12005116 11680394 11346973 11001223 10640010 10272276 
2084.813 9920375 9619355 9404107 9303479 9325048 9458287 9668926 9913913 
2088.671 10139623 10294008 10323345 10183129 9837126 9275981 8518270 7626420 
2092.528 6695223 5844116 5186837 4808813 4740719 4955969 5374501 5894968 
2096.386 6417439 6873384 7224906 7467672 7610990 7670031 7655799 7581231 
2100.243 7465520 7342894 7254753 7246100 7345844 7561400 7870298 8232184 
2104.101 8596065 8923642 9191739 9400334 9560771 9692598 9807708 9914273 
2107.958 10012353 10104626 10192073 10285009 10387327 10503353 10622628 
2111.333 10726612 10787115 10773148 10656977 10422424 10067661 9608527 
2114.708 9078795 8524863 8000642 7558484 7233379 7039847 6961915 6962723 
2118.566 6991891 7006217 6977313 6903244 6798430 6685226 6576303 6467344 
2122.423 6333139 6144230 5874128 5521651 5103466 4655068 4207958 3776422 
2126.281 3347437 2889899 2370056 1776315 1133901 508508 -9452 -330375 
2130.138 -395778 -199401 208106 730897 1246509 1640323 1821033 1744529 
2133.996 1414597 884069 238835 -415575 -983720 -1395307 -1630507 -1721638 
2137.853 -1752781 -1828979 -2054693 -2494597 -3160969 -4000592 -4921893 
2141.228 -5811608 -6573281 -7137903 -7473520 -7570501 -7439328 -7100127 
2144.604 -6596622 -6003787 -5441827 -5061460 -5017397 -5416287 -6278639 
2147.979 -7506209 -8906252 -10228916 -11247656 -11812331 -11901370 -11604674 
2151.354 -11102096 -10593237 -10261062 -10229641 -10577785 -11335650 
2154.247 -12523575 -14131142 -16119914 -18362930 -20637448 -22593868 
2157.140 -23827206 -23949258 -22743306 -20257186 -16865758 -13152756 
2160.033 -9743286 -7100563 -5430774 -4674310 -4607211 -4930869 -5389450 
2163.408 -5785966 -6016525 -6030549 -5814499 -5363714 -4692405 -3843628 
2166.784 -2906752 -2018037 -1339898 -1016108 -1139997 -1709967 -2641279 
2170.159 -3772486 -4930814 -5956292 -6756185 -7297996 -7611346 -7741581 
2173.534 -7727157 -7576900 -7274354 -6791800 -6122820 -5295720 -4386925 
2176.909 -3504370 -2760948 -2240444 -1984718 -1965275 -2101669 -2263394 
2180.285 -2306557 -2104290 -1590621 -783830 191980 1137877 1820865 2053767 
2184.142 1744020 951352 -131681 -1218515 -2018851 -2313766 -2030587 -1254696 
2188.000 -211801 814556 1558976 1860544 1692161 1167330 491991 -91187 
2191.857 -379515 -251727 304319 1202414 2275504 3327366 4166835 4657687 
2195.714 4743150 4463277 3940405 3356957 2896152 2710089 2863009 3331534 
2199.572 4005238 4730621 5351581 5755957 5886598 5762736 5444482 5022365 
2203.429 4587122 4215837 3962824 3860926 3913346 4096578 4355337 4615527 
2207.287 4792990 4827119 4699866 4452947 4181431 4010147 4047349 4348966 
2211.144 4887219 5560502 6211018 6684407 6862939 6713169 6280225 5681210 
2215.001 5059437 4552474 4256004 4213263 4415162 4822802 5382636 6049389 
2218.859 6784778 7563068 8353968 9118902 9796982 10320421 10619279 10650990 
2222.716 10411854 9952657 9369901 8793197 8347727 8129818 8177240 8465201 
2226.574 8914775 9423016 9889686 10248377 10471274 10570074 10572658 
2229.949 10509588 10393910 10228590 10006978 9738637 9445381 9175989 8984221 
2233.806 8919157 9004912 9232650 9559558 9924207 10256351 10499751 10616510 
2237.664 10596538 10452869 10216436 9931169 9645936 9403156 9234745 9149858 
2241.521 9133536 9146673 9137690 9053766 8862842 8558166 8168637 7746484 
2245.379 7354767 7047053 6854873 6779806 6801355 6885538 7002922 7137635 
2249.236 7293293 7487348 7741716 8068809 8465441 8905915 9349483 9748591 
2253.094 10064005 10273860 10381949 10415047 10416293 10433474 10508307 
2256.469 10667142 10920207 11261730 11676343 12139713 12621996 13085143 
2259.844 13483875 13765362 13882173 13798741 13511412 13054349 12502158 
2263.219 11953005 11512588 11262245 11240432 11431864 11774047 12176164 
2266.594 12550014 12829263 12989333 13044939 13039106 13023061 13036952 
2269.970 13096045 13188171 13279584 13330001 13308340 13207464 13048481 
2273.345 12881521 12769389 12776599 12945003 13283337 13760306 14311464 
2276.720 14853355 15306343 15614589 15758079 15754817 15652046 15507505 
2280.095 15375123 15288742 15261735 15289295 15361328 15466502 15602384 
2283.471 15769552 15971035 16203798 16457571 16715055 16958152 17169806 
2286.846 17339414 17461608 17533408 17551998 17514790 17420676 17276742 
2290.221 17098642 16913400 16750963 16636893 16582016 16578011 16595636 
2293.596 16596807 16542874 16412560 16205536 15947383 15677828 15443086 
2296.972 15278853 15203918 15214530 15289092 15395016 15498363 15570492 
2300.347 15592646 15558209 15471636 15345694 15200741 15060547 14950602 
2303.722 14892217 14899597 14974177 15104925 15269485 15440113 15591354 
2307.097 15707739 15787056 15841085 15888687 15949057 16031535 16133809 
2310.473 16239945 16327769 16376322 16374914 16327944 16254865 16183320 
2313.848 16142441 16153209 16223367 16345406 16501205 16666917 16819692 
2317.223 16943424 17033170 17095224 17147540 17217230 17336600 17535968 
2320.598 17835392 18234228 18705004 19189602 19607224 19867320 19890598 
2323.974 19626502 19067696 18252292 17256552 16180802 15131812 14203097 
2327.349 13461990 12939679 12631506 12502093 12498118 12562211 12643533 
2330.724 12705733 12729479 12710756 12655874 12578592 12494006 12415339 
2334.099 12352382 12309050 12284106 12271918 12264892 12256848 12245426 
2337.475 12232042 12222962 12225403 12245651 12285203 12340388 12402586 
2340.850 12461510 12508919 12540089 12555869 12560655 12559309 12555682 
2344.225 12548201 12532456 12502390 12453191 12384934 12303510 12219459 
2347.600 12145066 12089537 12057139 12043784 12039559 12031003 12006284 
2350.976 11957913 11886430 11799704 11710036 11630429 11570984 11535258 
2354.351 11520423 11517494 11515119 11500819 11467727 11412666 11336976 
2357.726 11246017 11144916 11038414 10927768 10812904 10692393 10565998 
2361.101 10436962 10311285 10195689 10097057 10019499 9960104 9914447 
2364.477 9874388 9833998 9790427 9746999 9709172 9683126 9670293 9667194 
2368.334 9665677 9657346 9637202 9609763 9587064 9586558 9622606 9699995 
2372.191 9809955 9931714 10038771 10109188 10132927 10117585 10083482 
2375.567 10057950 10062695 10106639 10182179 10269368 10344582 10389823 
2378.942 10398774 10378985 10346203 10318345 10306814 10312805 10329559 
2382.317 10346239 10354393 10353618 10350208 10356689 10384722 10440862 
2385.692 10522980 10621669 10721525 10808083 10869579 10902159 10907559 
2389.068 10893122 10868360 10843105 10824644 10817462 10822926 10839443 
2392.443 10864696 10894686 10926772 10958710 10991143 11025992 11067276 
2395.818 11121091 11192906 11287391 11405129 11541803 11685619 11819704 
2399.193 11922261 11973232 11957699 11872409 11726265 11541301 11345033 
2402.569 11167631 11032833 10956501 10943163 10991327 11093387 11241013 
2405.944 11423449 11628484 11838720 12034798 12196445 12307636 12362108 
2409.319 12365632 12333690 12286304 12240112 12202549 12169985 12130778 
2412.694 12072311 11987537 11879201 11757161 11633874 11517670 11407500 
2416.070 11294547 11168451 11024757 10869697 10723418 10611744 10558970 
2419.445 10576378 10660208 10790417 10938929 11078764 11190449 11266979 
2422.820 11309468 11324055 11315512 11283989 11228662 11147654 11044852 
2426.195 10927724 10808124 10695641 10597749 10515018 10445754 10387763 
2429.571 10342755 10317164 10320758 10362579 10445016 10564195 10709080 
2432.946 10865686 11020991 11167007 11299975 11419718 11525816 11613443 
2436.321 11673933 11695181 11665081 11575848 11426237 11223917 10984399 
2439.696 10730388 10489401 10288791 10155506 10108019 10154861 10290302 
2443.072 10494397 10734103 10971830 11168856 11297467 11342525 11306836 
2446.447 11207813 11072959 10932990 10816498 10742744 10723144 10757142 
2449.822 10838223 10955428 11098127 11257071 11426114 11600590 11775243 
2453.197 11940455 12082654 12183227 12224860 12194843 12092233 11928945 
2456.573 11731053 11530651 11359670 11241237 11183519 11179043 11208408 
2459.948 11247260 11275741 11281332 11263680 11230687 11194305 11164337 
2463.323 11146401 11138519 11135170 11129759 11118977 11102580 11084772 
2466.698 11072155 11069284 11075741 11086662 11093210 11085456 11055877 
2470.073 11000817 10922666 10828448 10726260 10623794 10525928 10436389 
2473.449 10355181 10284703 10227694 10186723 10163372 10155085 10154908 
2476.824 10152828 10140469 10115922 10086232 10069042 10085261 10153323 
2480.199 10279483 10453677 10649465 10831908 10967930 11036702 11035191 
2483.574 10978144 10893060 10809615 10751919 10732546 10752432 10803608 
2486.950 10872622 10946407 11011650 11057761 11076732 11064963 11025351 
2490.325 10967221 10904988 10856323 10831992 10834837 10856620 10881416 
2493.700 10891698 10877445 10839892 10791134 10749879 10732578 10748938 
2497.075 10798808 10876031 10975196 11094224 11235733 11401915 11587105 
2500.451 11771981 11924868 12009453 12000286 11892787 11713084 11510119 
2503.826 11343747 11263854 11294615 11427050 11621307 11822889 11976388 
2507.201 12042942 12005946 11870549 11656228 11388359 11094997 10800512 
2510.576 10529506 10305077 10145952 10062720 10051377 10091625 10152482 
2513.952 10198484 10204139 10163117 10091381 10024246 10002189 10058806 
2517.327 10205439 10427017 10685793 10931665 11117812 11214149 11215958 
2520.702 11140396 11024477 10907428 10823682 10790553 10808232 10862990 
2524.077 10935678 11008988 11074555 11134231 11195879 11266095 11347337 
2527.453 11430984 11502734 11545309 11549545 11515669 11456287 11392648 
2530.828 11347121 11336911 11367039 11432446 11521027 11617709 11709260 
2534.203 11786082 11842651 11873178 11872549 11835991 11762127 11654173 
2537.578 11522315 11382179 11251782 11144293 11069322 11027223 11013844 
2540.954 11020016 11036988 11055841 11070276 11075439 11070645 11059376 
2544.329 11053554 11067487 11117115 11211155 11346745 11504824 11655224 
2547.704 11765091 11811090 11788149 11714749 11622547 11547819 11514905 
2551.079 11529040 11574443 11626190 11660176 11667935 11660564 11666100 
2554.455 11714147 11826892 12005420 12231560 12472562 12693824 12868499 
2557.830 12984956 13045722 13063622 13053383 13029071 12999083 12967710 
2561.205 12935555 12901238 12859697 12804398 12729927 12635241 12528586 
2564.580 12428861 12362363 12356007 12426415 12571927 12768870 12979518 
2567.956 13160407 13278357 13319780 13293594 13225003 13144584 13076209 
2571.331 13029442 12998697 12969318 12927078 12867145 12795805 12730137 
2574.706 12691106 12696934 12756797 12868314 13018661 13188091 13354926 
2578.081 13499288 13608087 13678011 13715696 13736171 13758299 13799221 
2581.457 13866393 13956118 14053675 14139234 14195095 14215776 14208544 
2584.832 14194109 14196498 14235237 14314956 14425095 14540577 14631882 
2588.207 14673703 14654104 14575577 14454436 14315184 14184941 14085780 
2591.582 14033540 14033890 14081900 14162037 14251164 14321532 14349443 
2594.958 14321805 14242257 14131587 14024027 13954761 13949944 14015368 
2598.333 14135732 14280309 14414139 14510602 14562951 14582845 14596547 
2601.708 14631128 14705545 14820448 14960748 15100414 15212780 15280933 
2605.083 15302224 15288078 15260451 15242006 15250077 15291603 15360818 
2608.458 15441977 15513710 15555053 15552580 15503196 15417228 15315627 
2611.834 15226096 15175045 15180658 15247077 15363823 15507401 15649203 
2615.209 15761908 15827382 15840145 15807722 15747240 15680853 15629213 
2618.584 15609049 15627582 15684310 15770636 15872227 15971839 16054409 
2621.959 16109694 16135396 16137656 16129071 16124455 16136941 16173074 
2625.335 16232597 16308824 16391706 16473647 16548917 16617056 16679479 
2628.710 16737336 16789820 16832688 16860892 16869200 16856900 16825390 
2632.085 16780594 16729679 16678566 16631247 16590016 16555326 16527623 
2635.460 16507523 16496725 16496638 16507542 16529270 16560044 16598281 
2638.836 16641852 16688457 16734814 16777193 16809382 16826036 16823866 
2642.211 16803664 16770922 16734883 16706740 16695121 16703947 16729932 
2645.586 16763398 16790564 16797536 16774435 16718123 16631886 16525326 
2648.961 16412864 16308738 16225684 16171906 16149998 16156053 16181180 
2652.337 16212907 16237335 16241983 16218448 16162889 16077166 15967954 
2655.712 15845070 15719919 15602765 15502090 15422801 15365891 15329847 
2659.087 15309236 15297637 15287193 15270671 15240652 15191322 15117225 
2662.462 15013433 14877888 14710311 14515617 14303369 14089562 13892164 
2665.838 13729227 13613000 13547163 13525291 13532475 13549680 13559733 
2669.213 13551356 13523733 13482230 13436952 13396493 13365333 13341593 
2672.588 13319459 13292300 13257870 13219310 13185484 13166348 13171591 
2675.963 13203377 13257237 13321527 13381445 13422897 13436895 13420098 
2679.339 13375729 13312483 13239788 13167068 13100975 13045915 13002698 
2682.714 12970163 12946153 12927981 12912141 12895842 12876301 12851624 
2686.089 12821536 12787121 12751523 12718432 12691724 12673019 12661062 
2689.464 12652613 12641637 12623449 12596061 12562624 12531609 12514559 
2692.840 12521760 12559810 12628009 12717620 12815392 12905985 12977649 
2696.215 13023781 13043457 13040185 13017572 12977415 12919432 12842901 
2699.590 12749977 12646901 12544971 12458390 12399463 12375439 12384162 
2702.965 12417415 12461632 12504691 12538890 12562413 12579871 12597336 
2706.341 12619704 12648603 12681412 12712872 12737629 12752690 12757410 
2709.716 12753236 12742163 12725182 12702112 12671314 12630876 12580799 
2713.091 12521982 12458151 12395660 12341876 12304802 12291803 12308990 
2716.466 12357012 12431706 12522902 12615955 12695302 12747818 12767198 
2719.842 12754524 12717154 12667105 12615675 12570241 12534001 12506135 
2723.217 12484914 12469342 12461332 12464543 12482077 12515862 12564451 
2726.592 12623461 12689164 12758364 12829965 12903426 12977370 13046592 
2729.967 13103766 13140290 13148742 13128553 13086208 13033509 12984910 
2733.343 12952229 12942059 12953591 12981618 13018263 13058041 13097829 
2736.718 13138183 13179288 13220313 13257410 13285252 13299429 13298284 
2740.093 13285383 13266696 13249652 13240500 13240992 13249385 13260536 
2743.468 13269763 13273012 13267622 13252664 13226293 13187500 13135073 
2746.844 13070671 12998608 12927354 12867216 12827495 12813540 12825549 
2750.219 12858560 12905127 12958989 13016009 13075073 13135821 13196225 
2753.594 13250285 13288957 13302175 13283642 13234274 13163468 13087008 
2756.969 13021057 12977893 12961135 12965248 12978879 12988727 12986373 
2760.344 12970985 12948654 12931031 12928945 12949517 12992585 13052140 
2763.720 13116810 13174655 13214088 13227785 13212491 13170504 13107003 
2767.095 13032639 12958809 12898308 12862262 12857270 12883716 12935959 
2770.470 13002234 13068902 13123627 13158497 13171186 13166234 13151430 
2773.845 13137179 13131934 13142209 13170244 13215766 13275535 13344071 
2777.221 13415052 13481130 13536712 13578163 13604826 13620504 13631718 
2780.596 13645542 13667570 13699395 13737101 13773425 13799872 13810472 
2783.971 13802696 13781103 13752225 13724739 13704616 13694104 13691243 
2787.346 13692397 13695700 13702367 13716793 13744771 13790620 13853408 
2790.722 13926695 13999266 14058853 14096471 14109298 14102838 14087670 
2794.097 14077363 14082039 14107985 14154743 14216512 14284492 14350905 
2797.472 14409185 14458102 14498594 14534597 14571362 14614712 14668125 
2800.847 14732923 14806391 14882327 14951436 15003645 15030767 15029309 
2804.223 15000760 14952916 14896116 14841840 14799501 14775312 14773142 
2807.598 14794230 14839054 14907068 14994704 15094532 15195064 15280833 
2810.973 15338814 15361534 15353413 15330099 15317437 15342152 15424179 
2814.348 15568567 15763184 15981523 16190711 16362458 16481221 16549040 
2817.724 16582249 16605811 16643491 16710913 16809900 16931852 17059922 
2821.099 17177338 17271952 17339200 17383040 17412668 17439652 17474706 
2824.474 17526102 17597834 17689536 17797900 17915338 18032350 18138190 
2827.849 18224010 18284376 18319458 18334852 18342068 18354140 18382498 
2831.225 18433810 18507614 18596218 18687426 18767234 18825910 18858764 
2834.600 18869318 18866518 18863718 18872936 18901814 18952658 19021372 
2837.975 19101286 19185718 19270566 19357646 19453266 19567282 19708506 
2841.350 19883374 20091724 20330426 20590608 20864446 21144850 21428770 
2844.726 21714574 22004852 22299524 22598778 22899358 23196456 23484298 
2848.101 23757198 24011776 24246178 24460764 24657826 24840730 25014368 
2851.476 25183166 25352048 25525246 25704224 25888978 26076134 26260874 
2854.851 26437092 26600544 26747728 26879216 26996832 27103554 27201810 
2858.227 27292358 27373450 27443824 27503086 27553648 27601998 27657922 
2861.602 27733164 27837228 27976254 28149792 28354072 28581568 28828114 
2864.977 29092760 29380500 29700678 30063948 30477668 30942978 31453744 
2868.352 31998902 32565850 33144950 33732812 34331508 34946236 35579576 
2871.728 36227740 36878604 37512280 38107796 38647124 39122900 39537760 
2875.103 39904504 40239100 40555776 40861016 41152332 41418984 41647328 
2878.478 41825680 41949180 42018256 42040696 42024536 41978264 41906020 
2881.853 41809072 41687120 41539460 41367580 41175628 40968128 40750620 
2885.229 40527564 40302584 40080636 39867828 39673256 39508176 39383432 
2888.604 39308144 39285076 39310792 39374860 39462164 39557516 39648740 
2891.979 39728332 39796388 39859312 39926424 40009884 40119708 40261672 
2895.354 40437064 40640784 40862444 41086492 41296668 41476572 41614184 
2898.729 41703704 41747572 41754624 41739612 41718132 41704308 41706864 
2902.105 41730496 41772616 41829264 41894396 41963120 42033368 42103032 
2905.480 42172828 42243444 42316768 42396192 42485116 42588812 42710996 
2908.855 42854360 43017032 43194740 43381308 43572456 43767880 43973480 
2912.230 44200572 44462948 44773568 45139072 45557844 46021256 46515232 
2915.606 47025108 47537844 48047144 48548272 49040904 49523232 49992512 
2918.981 50442792 50868408 51265276 51631864 51971140 52287920 52588744 
2922.356 52879316 53164896 53449728 53737944 54035104 54347288 54681508 
2925.731 55042740 55435272 55859168 56313732 56796696 57308620 57851260 
2929.107 58429560 59050200 59721784 60453000 61250772 62122008 63070068 
2932.482 64096040 65198748 66373804 67614576 68915248 70272288 71686568 
2935.857 73165456 74722040 76371296 78127672 80000816 81988968 84080248 
2939.232 86250000 88465424 90687480 92875000 94990392 97000288 98876072 
2942.608 100597040 102145080 103505632 104666248 105616224 106346280 
2945.501 106851312 107131656 107193672 107050472 106721488 106230320 
2948.394 105601792 104859072 104023712 103112472 102139888 101118856 
2951.287 100061856 98982496 97896936 96820720 95771544 94762408 93804304 
2954.662 92901568 92053144 91253056 90491160 89756280 89038600 88330968 
2958.037 87630320 86937488 86256776 85593192 84950688 84330208 83730776 
2961.413 83146808 82571512 81996920 81417816 80830816 80237760 79642696 
2964.788 79052832 78473192 77904704 77342544 76775856 76188584 75565440 
2968.163 74897472 74183296 73433968 72668400 71907960 71171008 70466360 
2971.538 69792776 69140088 68497496 67857928 67225744 66615468 66049360 
2974.914 65551244 65138796 64819016 64588064 64433268 64338884 64291032 
2978.289 64280800 64305940 64368428 64474620 64632952 64853960 65149544 
2981.664 65533496 66018320 66613540 67323616 68145584 69072064 70091736 
2985.039 71194464 72373224 73624520 74947224 76340408 77798272 79311776 
2988.415 80866384 82444744 84026120 85588968 87106896 88549528 89882328 
2991.790 91069000 92075888 92876760 93458408 93820864 93975016 93939288 
2995.165 93732664 93370840 92864872 92221760 91445936 90543304 89521104 
2998.540 88390096 87162944 85855152 84482720 83062680 81609696 80135440 
3001.916 78645096 77134888 75593808 74008488 72367888 70670432 68928696 
3005.291 67167248 65419264 63717112 62084348 60530776 59052160 57633944 
3008.666 56257816 54907036 53569720 52239884 50914312 49592568 48275372 
3012.041 46966452 45673304 44409024 43189840 42031212 40944056 39930664 
3015.417 38983616 38090764 37237716 36413940 35613848 34837088 34086116 
3018.792 33362716 32666470 31994156 31342064 30707612 30088216 29483976 
3022.167 28893124 28313202 27741538 27175156 26615288 26067740 25541200 
3025.542 25046892 24592858 24184184 23819424 23495084 23206566 22950480 
3028.917 22724688 22526130 22348670 22181800 22012852 21831412 21634526 
3032.293 21429840 21234624 21068064 20945080 20867312 20820062 20776688 
3035.668 20705808 20583720 20400914 20166470 19902876 19638946 19400832 
3039.043 19205494 19057116 18951926 18880540 18832124 18797500 18769502 
3042.418 18742214 18710724 18670634 18621122 18565456 18511310 18467176 
3045.794 18440526 18434440 18445444 18464946 18483948 18496600 18503006 
3049.169 18508086 18522488 18555446 18612086 18690380 18781934 18873108 
3052.544 18950878 19002918 19023364 19011588 18971062 18909172 18833910 
3055.919 18751238 18665156 18577402 18488710 18398346 18308062 18221048 
3059.295 18142022 18075206 18022452 17981296 17945270 17907278 17861356 
3062.670 17806372 17748904 17699236 17670540 17672396 17707386 17770076 
3066.045 17849368 17931050 18002876 18057524 18092610 18109986 18111492 
3069.420 18099904 18077078 18044650 18006026 17966670 17931426 17903602 
3072.796 17881646 17859580 17830080 17786322 17727172 17658812 17593124 
3076.171 17543732 17519524 17521240 17540410 17560724 17564510 17536558 
3079.546 17470976 17371672 17252492 17133388 17036800 16981652 16980278 
3082.921 17033830 17133138 17257112 17378648 17470830 17512086 17495144 
3086.297 17425670 17321576 17205024 17094870 16999302 16915730 16833172 
3089.672 16740542 16634826 16524214 16427051 16363565 16349109 16384019 
3093.047 16452860 16528992 16582109 16587600 16533919 16423430 16270040 
3096.422 16094916 15919555 15764095 15645156 15577597 15570360 15626388 
3099.798 15740102 15896678 16071310 16237903 16373049 16462887 16505821 
3103.173 16509844 16488155 16450737 16402898 16341299 16261145 16158475 
3106.548 16036510 15904834 15778961 15673062 15596831 15552045 15536221 
3109.923 15542590 15566372 15604547 15655665 15717024 15782055 15839281 
3113.299 15874716 15875503 15835682 15755439 15644480 15517417 15389175 
3116.674 15272499 15175221 15101420 15051316 15022925 15014382 15021091 
3120.049 15039301 15062847 15087132 15107348 15122022 15130633 15134333 
3123.424 15133528 15128014 15115695 15096041 15068321 15034204 14996408 
3126.800 14957664 14916808 14871964 14818092 14751000 14671318 14584695 
3130.175 14502245 14437909 14403331 14405864 14443320 14507854 14585735 
3133.550 14663955 14732342 14787098 14829588 14867054 14907680 14959352 
3136.925 15024279 15100265 15177226 15240752 15275170 15267419 15211799 
3140.301 15114191 14989832 14860504 14747981 14666054 14616314 14588241 
3143.676 14563530 14526070 14467012 14392357 14319152 14271525 14269289 
3147.051 14319731 14414138 14529238 14633627 14698300 14703925 14645943 
3150.426 14534563 14390662 14239036 14103834 14002582 13945838 13933510 
3153.802 13958865 14007769 14062078 14103726 14118663 14100219 14051760 
3157.177 13986377 13922564 13879025 13869518 13898279 13960253 14041292 
3160.552 14125952 14198266 14249962 14279233 14290306 14292589 14296359 
3163.927 14309341 14334297 14369119 14405219 14430840 14433568 14404061 
3167.302 14341041 14250642 14148025 14050899 13976554 13935824 13931046 
3170.678 13955555 13999071 14050138 14103028 14155402 14210235 14268278 
3174.053 14327186 14380059 14418065 14434501 14430844 14414849 14402786 
3177.428 14408375 14438861 14489898 14545845 14585842 14590824 14552890 
3180.803 14477780 14381134 14284678 14204393 14147417 14108114 14075297 
3184.179 14037357 13990239 13940549 13902681 13892202 13919152 13980883 
3187.554 14063437 14145810 14207182 14235805 14232726 14209676 14186300 
3190.929 14180221 14203087 14255023 14328775 14411852 14492286 14561948 
3194.304 14618265 14662082 14695858 14721831 14740747 14752821 14759328 
3197.680 14761874 14764100 14766755 14770375 14770457 14762717 14742544 
3201.055 14709391 14667013 14623658 14587902 14565862 14556685 14555229 
3204.430 14552914 14542978 14525207 14507535 14503920 14529399 14593541 
3207.805 14695943 14822661 14951039 15052920 15104416 15089482 15004111 
3211.181 14857210 14665977 14454280 14249756 14077678 13961274 13915507 
3214.556 13946747 14046962 14197476 14369363 14531632 14656697 14730426 
3217.931 14751058 14732255 14695771 14664017 14653277 14671537 14714604 
3221.306 14772895 14833791 14885643 14921003 14937159 14934102 14914744 
3224.682 14883499 14847063 14812020 14785066 14768803 14763446 14763383 
3228.057 14761914 14751145 14730429 14703325 14680865 14674512 14692927 
3231.432 14736558 14796434 14856871 14901629 14919116 14906399 14869632 
3234.807 14820724 14771480 14729371 14695703 14668525 14643614 14622601 
3238.183 14608949 14611452 14634339 14678163 14733396 14783978 14810703 
3241.558 14797929 14739342 14639274 14513019 14381638 14267381 14187844 
3244.933 14152271 14161976 14209269 14280483 14358346 14425262 14465670 
3248.308 14469991 14434732 14366072 14275534 14180189 14096785 14040126 
3251.684 14020339 14041028 14100796 14193571 14309902 14438473 14563609 
3255.059 14671681 14747094 14780129 14766726 14711883 14628132 14533779 
3258.434 14447038 14381439 14342329 14328306 14330642 14340729 14351799 
3261.809 14363309 14378645 14404248 14443295 14495135 14552124 14601487 
3265.185 14630420 14628863 14595381 14536629 14468024 14409677 14380408 
3268.560 14394348 14455006 14555415 14678407 14800567 14897479 14948634 
3271.935 14941636 14875580 14757788 14603596 14431510 14259836 14104128 
3275.310 13977212 13887865 13842995 13846126 13898054 13993971 14124479 
3278.686 14274454 14426025 14561849 14667087 14734589 14763113 14757153 
3282.061 14723615 14669187 14598044 14511934 14412944 14304700 14196321 
3285.436 14101113 14035564 14014641 14048702 14137218 14271316 14431770 
3288.811 14595918 14740755 14849741 14914042 14934739 14920399 14884455 
3292.187 14841115 14803166 14777995 14768801 14774052 14788455 14804407 
3295.562 14814408 14811940 14794576 14763518 14725385 14689785 14669298 
3298.937 14673319 14708709 14773489 14859285 14950522 15028086 15073617 
3302.312 15072610 15018527 14914440 14771072 14606996 14442997 14301204 
3305.688 14196435 14137992 14124456 14147316 14191880 14243095 14289346 
3309.063 14326973 14358852 14394064 14440476 14502081 14574017 14643536 
3312.438 14693231 14708789 14683978 14625113 14549922 14481369 14441427 
3315.813 14443303 14486691 14560394 14645224 14721756 14775208 14798464 
3319.188 14793947 14768537 14731675 14693245 14660252 14639703 14634711 
3322.564 14646955 14672993 14704601 14728875 14731343 14699205 14626986 
3325.939 14519687 14390660 14259936 14146219 14062983 14014689 13996563 
3329.314 13998589 14009641 14021474 14029743 14034116 14034810 14031600 
3332.689 14022148 14006111 13985721 13968336 13965895 13992349 14056524 
3336.065 14161241 14297807 14448944 14592769 14707486 14777214 14795440 
3339.440 14762814 14688931 14585629 14466430 14342843 14226722 14127241 
3342.815 14052896 14008506 13996992 14015903 14060892 14122567 14192995 
3346.190 14262998 14327425 14381904 14422619 14446207 14447392 14419775 
3349.566 14358526 14261506 14134533 13988929 13842736 13715127 13623141 
3352.941 13574754 13568745 13594025 13634344 13673554 13702676 13721481 
3356.316 13739055 13769545 13825871 13912763 14025075 14147538 14259482 
3359.691 14343587 14389493 14396506 14374729 14335737 14289647 14239047 
3363.067 14178644 14098646 13990947 13853630 13695240 13533559 13391095 
3366.442 13288108 13238681 13247781 13310257 13415440 13550962 13705015 
3369.817 13866564 14027389 14177789 14306815 14405655 14465035 14481546 
3373.192 14455852 14396624 14314239 14222237 14130779 14048673 13979535 
3376.568 13925172 13885257 13858318 13844820 13845100 13860072 13892230 
3379.943 13943727 14015933 14109991 14222404 14344928 14464895 14563963 
3383.318 14624003 14627785 14567020 14444286 14273397 14076430 13880339 
3386.693 13707436 13572786 13479452 13420652 13383699 13355917 13328579 
3390.069 13300779 13276035 13262730 13265523 13286234 13322260 13369757 
3393.444 13424641 13487032 13558864 13643204 13738590 13839457 13933771 
3396.819 14009825 14058971 14082902 14091947 14102926 14128807 14174365 
3400.194 14228925 14271329 14276992 14229858 14129906 13998978 13870752 
3403.570 13782680 13760046 13807992 13909475 14034458 14150824 14238633 
3406.945 14295013 14335111 14381373 14452966 14558003 14689540 14828885 
3410.320 14956985 15058984 15130878 15179266 15217274 15255640 15303383 
3413.695 15361772 15429090 15502031 15579458 15660111 15743192 15826529 
3417.071 15904972 15971998 16024159 16059281 16081356 16095074 16106622 
3420.446 16120004 16137630 16160993 16193870 16241319 16309876 16401848 
3423.821 16511979 16625354 16719036 16768444 16756685 16678341 16545443 
3427.196 16383018 16221711 16087815 15998794 15958093 15959302 15990723 
3430.572 16041912 16107369 16186636 16282024 16395839 16525678 16664771 
3433.947 16800232 16916864 16998204 17028102 16994916 16894816 16732395 
3437.322 16523540 16293235 16070850 15882634 15745513 15662268 15621960 
3440.697 15606872 15599959 15592232 15589003 15603979 15653772 15748201 
3444.073 15884064 16042123 16194703 16311102 16372137 16371425 16318990 
3447.448 16236287 16148601 16076487 16032763 16018374 16026735 16045613 
3450.823 16061146 16062118 16039971 15992500 15924435 15844911 15769182 
3454.198 15710782 15681170 15682548 15708687 15745591 15777415 15791075 
3457.573 15782163 15754728 15721140 15695769 15691010 15713004 15761770 
3460.949 15830943 15914047 16003901 16095176 16183814 16266333 16338438 
3464.324 16397454 16441979 16475374 16504716 16538246 16582122 16637158 
3467.699 16696626 16748097 16776804 16771816 16728695 16654760 16565230 
3471.074 16480792 16422966 16408499 16447067 16540438 16681431 16858556 
3474.450 17056008 17258314 17450220 17621690 17766774 17885568 17982950 
3477.825 18066604 18145504 18226524 18311892 18401020 18487610 18563252 
3481.200 18620234 18653528 18663820 18657294 18647258 18648904 18677312 
3484.575 18742082 18845332 18979722 19130188 19281060 19418058 19535090 
3487.951 19632498 19717876 19797896 19878992 19960818 20040562 20113884 
3491.326 20181722 20250280 20331054 20436138 20573516 20742744 20936452 
3494.701 21140682 21344056 21537058 21718268 21887912 22045278 22184710 
3498.076 22297378 22374206 22412232 22418850 22414052 22422084 22464254 
3501.452 22548942 22669574 22804972 22932290 23033838 23107962 23166902 
3504.827 23231400 23318442 23431576 23555960 23665398 23730140 23730926 
3508.202 23665242 23547128 23398880 23240450 23080228 22912656 22721204 
3511.577 22491586 22221082 21924704 21633964 21388418 21223234 21159436 
3514.953 21195758 21312518 21474330 21642580 21781818 21866844 21885212 
3518.328 21835826 21728252 21578312 21404224 21224664 21054066 20902368 
3521.703 20771690 20659088 20554740 20449304 20332850 20199684 20050882 
3525.078 19892348 19734376 19591054 19474800 19395212 19356438 19354584 
3528.454 19376644 19405934 19421612 19407330 19353714 19262060 19143966 
3531.829 19017316 18902376 18815492 18765088 18752122 18769022 18804426 
3535.204 18844102 18875728 18888026 18874350 18830538 18758354 18662780 
3538.579 18554250 18443206 18341400 18253928 18182344 18120838 18061686 
3541.955 17995638 17917814 17827862 17731478 17639110 17561928 17511218 
3545.330 17495184 17516932 17574456 17658504 17755536 17844752 17906050 
3548.705 17922160 17885816 17801390 17685776 17563956 17462452 17401392 
3552.080 17388402 17416712 17468010 17518842 17548254 17543490 17502148 
3555.456 17433876 17356648 17292390 17262678 17284088 17364394 17498616 
3558.831 17669736 17847724 17999646 18093978 18113972 18059242 17950662 
3562.206 17819724 17700708 17615818 17570432 17549760 17527050 17475304 
3565.581 17377672 17235932 17068482 16904586 16774714 16699906 16689854 
3568.957 16739564 16835072 16957156 17084190 17194158 17267194 17286756 
3572.332 17246720 17153414 17029206 16907368 16825490 16811116 16872178 
3575.707 16992066 17134518 17253772 17311822 17290906 17198656 17061914 
3579.082 16917234 16795308 16712924 16668290 16647149 16632002 16609170 
3582.458 16574938 16534576 16494924 16462581 16435031 16405674 16363584 
3585.833 16299512 16209014 16092438 15954107 15800860 15639061 15476037 
3589.208 15320308 15179926 15062939 14974274 14913581 14874856 14847415 
3592.583 14822491 14795036 14768295 14753688 14765287 14812598 14898167 
3595.958 15010947 15132069 15238669 15313650 15350732 15357484 15352077 
3599.334 15357024 15389795 15456666 15549946 15648920 15726469 15757388 
3602.709 15726220 15633546 15493466 15333944 15185489 15074274 15014175 
3606.084 15005085 15033392 15079684 15125265 15160601 15185685 15209807 
3609.459 15244202 15294668 15356866 15417150 15455578 15454258 15407130 
3612.835 15322154 15220722 15133895 15090937 15112783 15206350 15364423 
3616.210 15567812 15792459 16014535 16216112 16384697 16517000 16615052 
3619.585 16686833 16743120 16794090 16849074 16911230 16977652 17042028 
3622.960 17093076 17122536 17124938 17102086 17060048 17007798 16952016 
3626.336 16898162 16846602 16798070 16755112 16725508 16720561 16752677 
3629.711 16829048 16948598 17098588 17259092 17408944 17530622 17616558 
3633.086 17671482 17705114 17729502 17750732 17767946 17773470 17759136 
3636.461 17723842 17678912 17646158 17653982 17725074 17868978 18074406 
3639.837 18313702 18547608 18741692 18876514 18955090 19000100 19045854 
3643.212 19123388 19250680 19422626 19616030 19797890 19936764 20015004 
3646.587 20034904 20014424 19983410 19969040 19988942 20043862 20120476 
3649.962 20194414 20240934 20241158 20188202 20087814 19958972 19826434 
3653.338 19719116 19660064 19663276 19728150 19839520 19968096 20079418 
3656.713 20140104 20130978 20047478 19904558 19729086 19552488 19400286 
3660.088 19288436 19217692 19183022 19173274 19183902 19213202 19264868 
3663.463 19341730 19440370 19544816 19633804 19677700 19653726 19547726 
3666.839 19361396 19112076 18826950 18537616 18272730 18049620 17877016 
3670.214 17749392 17655924 17582240 17516904 17454012 17394918 17345406 
3673.589 17314340 17307384 17325036 17359806 17397540 17418044 17401736 
3676.964 17331970 17199996 17004814 16755784 16470645 16176123 15901159 
3680.340 15676405 15525510 15460179 15475012 15549104 15647987 15736545 
3683.715 15785072 15781343 15730765 15653543 15572482 15505461 15452976 
3687.090 15401343 15325153 15202808 15023698 14798790 14555478 14329655 
3690.465 14154996 14052354 14023221 14056023 14129194 14221764 14315723 
3693.841 14400819 14470750 14523163 14554954 14567972 14565426 14554224 
3697.216 14543391 14539477 14542855 14547226 14541207 14512677 14456057 
3700.591 14375919 14282900 14192210 14115116 14055078 14008269 13969002 
3703.966 13933931 13909994 13909453 13946555 14025408 14137605 14257152 
3707.342 14352199 14391868 14361635 14266181 14127812 13976650 13839596 
3710.717 13729922 13647629 13582679 13525904 13473826 13432780 13412439 
3714.092 13420384 13453525 13498711 13535222 13545048 13518619 13462505 
3717.467 13394577 13339056 13317309 13343882 13421284 13545562 13706055 
3720.843 13889235 14078451 14253560 14390279 14466313 14464204 14382303 
3724.218 14235780 14059104 13895226 13785476 13756505 13815193 13945141 
3727.593 14117987 14301116 14469476 14609350 14717849 14798195 14852372 
3730.968 14878865 14872802 14828058 14745862 14635569 14514896 14406309 
3734.344 14331152 14303789 14328611 14399638 14502537 14619213 14732173 
3737.719 14826300 14893834 14931507 14941187 14928857 14900892 14865543 
3741.094 14830933 14804322 14794468 14807261 14849467 14921725 15019919 
3744.469 15130915 15236813 15318317 15360003 15355214 15307316 15227823 
3747.844 15130141 15025922 14919675 14811656 14702234 14597934 14515552 
3751.220 14480301 14518156 14643573 14850084 15104110 15354727 15543791 
3754.595 15628174 15588229 15439363 15224025 15000120 14822536 14729968 
3757.970 14732989 14817060 14947657 15082069 15181694 15220237 15187350 
3761.345 15092573 14958154 14815913 14698179 14631372 14626705 14680675 
3764.721 14772922 14874890 14957502 15000974 14999744 14960350 14896383 
3768.096 14820809 14739930 14653995 14558966 14455856 14354111 14272636 
3771.471 14233370 14252839 14331697 14456104 14597073 14723331 14810762 
3774.846 14850264 14848879 14824896 14796237 14776661 14768321 14766796 
3778.222 14764637 14758311 14749329 14743881 14746901 14759650 14776574 
3781.597 14790217 14791848 14779320 14754518 14724272 14692374 14660213 
3784.972 14621089 14570058 14502442 14423038 14342351 14276206 14235868 
3788.347 14226666 14242025 14271444 14302264 14329799 14357592 14396926 
3791.723 14458193 14546731 14654312 14763194 14850805 14898483 14899363 
3795.098 14858879 14794656 14729407 14680892 14661307 14670024 14699942 
3798.473 14739649 14777078 14800929 14802679 14775336 14716096 14625710 
3801.848 14510144 14382361 14259381 14156971 14087967 14057081 14062551 
3805.224 14094595 14141782 14193686 14242169 14280998 14307747 14319614 
3808.599 14315443 14295869 14264834 14232643 14212796 14220199 14266832 
3811.974 14356412 14483987 14634800 14789236 14926381 15030289 15089967 
3815.349 15103991 15078728 15026021 14960674 14896712 14846393 14816870 
3818.725 14809294 14819464 14839338 14861388 14878336 14887877 14889630 
3822.100 14885885 14875878 14856413 14818918 14754955 14659147 14534554 
3825.475 14393449 14257304 14148369 14084044 14069448 14096291 14144245 
3828.850 14190421 14216266 14215879 14195913 14174273 14170039 14197303 
3832.226 14258379 14342402 14430673 14503468 14547197 14558638 14545471 
3835.601 14521149 14498359 14484026 14475201 14461630 14429842 14371363 
3838.976 14286703 14187527 14093206 14026199 14003962 14034728 14113250 
3842.351 14225306 14347930 14460186 14543575 14588440 14594124 14567425 
3845.727 14518996 14464515 14419021 14395115 14402706 14445920 14522329 
3849.102 14624362 14737876 14847696 14938626 14999844 15024770 15012098 
3852.477 14964784 14887831 14788580 14676044 14561165 14456962 14376183 
3855.852 14328632 14318826 14342010 14388015 14440995 14487928 14521849 
3859.228 14544299 14565594 14599022 14654006 14730041 14816681 14894181 
3862.603 14940199 14937544 14879744 14771169 14627703 14467939 14310732 
3865.978 14168874 14051276 13960785 13897540 13860507 13846469 13851685 
3869.353 13870991 13899480 13934182 13974452 14023789 14086721 14167911 
3872.729 14265042 14373073 14482304 14582893 14669267 14742326 14807373 
3876.104 14872182 14939469 15006905 15062435 15091660 15080832 15025133 
3879.479 14929609 14807614 14677165 14554347 14450183 14367922 14306789 
3882.854 14265102 14243131 14243601 14268470 14316452 14379635 14445434 
3886.229 14497873 14525648 14523424 14497294 14459333 14425521 14409506 
3889.605 14419092 14455066 14511981 14583477 14663185 14745519 14826966 
3892.980 14902058 14964419 15004279 15012518 14982478 14912458 14807659 
3896.355 14679661 14545130 14422817 14331087 14286750 14300892 14378359 
3899.730 14513575 14691977 14887000 15068401 15202646 15264663 15241890 
3903.106 15140174 14980503 14796667 14624551 14495862 14426920 14419172 
3906.481 14458806 14523780 14588248 14631839 14641873 14615985 14559522 
3909.856 14482795 14397169 14312310 14233966 14164757 14104550 14053871 
3913.231 14014818 13993010 13996304 14034513 14113540 14233538 14385629 
3916.607 14552822 14710516 14833432 14901782 14907413 14854890 14763188 
3919.982 14657582 14565975 14508414 14496570 14529020 14597257 14686098 
3923.357 14782961 14876050 14956970 15019020 15056684 15064175 15039909 
3926.732 14986764 14916278 14844993 14793121 14777474 14803319 14864890 
3930.108 14944475 15019353 15069416 15084013 15065228 15023829 14975457 
3933.483 14933381 14903395 14884839 14875747 14874283 14885049 14914896 
3936.858 14969617 15048040 15137281 15215093 15257115 15245683 15179461 
3940.233 15073980 14957020 14858612 14799833 14783595 14796208 14810667 
3943.609 14801274 14751023 14659368 14539751 14414179 14303086 14221510 
3946.984 14173800 14157466 14166316 14193635 14234419 14284710 14338977 
3950.359 14392463 14440550 14483241 14526865 14583971 14668829 14790436 
3953.734 14947497 15126283 15299710 15437895 15515815 15522601 15463116 
3957.110 15358509 15237350 15130455 15060456 15040191 15068489 15134917 
3960.485 15218833 15297481 15346750 15347689 15289822 15177365 15024886 
3963.860 14860592 14716011 14618969 14585899 14618945 14704484 14821460 
3967.235 14945238 15056850 15145155 15208546 15250592 15276596 15292517 
3970.611 15302072 15308047 15313355 15319465 15328362 15336861 15342709 
3973.986 15341514 15333280 15322117 15316135 15325039 15354277 15400007 
3977.361 15448810 15480868 15478623 15432482 15348821 15247185 15153378 
3980.736 15090556 15069230 15081966 15109480 15126218 15112075 15059183 
3984.112 14975257 14878132 14789511 14725912 14694395 14693508 14714603 
3987.487 14747960 14786256 14825361 14863144 14898404 14931137 14961745 
3990.862 14991294 15023784 15063621 15113607 15173081 15238045 15300355 
3994.237 15352536 15390708 15415668 15433424 15450113 15470951 15495530 
3997.613 15519315 15536292 15541639 15537363 15528675 15525064 15535361 
##END=
