##TITLE=3D-Fillies_PLA+_Blue_Filament_r5_ATR-Corrected
##JCAMP-DX=5.01  $$ Nicolet v. 1
##DATATYPE=INFRARED SPECTRUM
##ORIGIN=Curtin University
##OWNER=Nicolet
##LONGDATE=2024/07/18
##TIME=09:47:36
##SPECTROMETER/DATA SYSTEM=Nicolet iS50
##DATA PROCESSING=
Ratio against background
%Transmittance->Absorbance
ATR Correction
Truncated
ElementMultiply or ElementDivide
##COMMENTS=
Number of sample scans: 32
Collection length: 47.28 sec
Sample gain: 1.0
Background collected on: Thu Jul 18 09:43:38 2024 (GMT+08:00);
Number of background scans: 32
Background gain: 1.0
Sample spacing:  1.000
Number of scan points: 16672
Resolution points: 8192
Number of FFT points: 65536
Apodization: N-B strong;
Phase correction: Mertz;
Laser frequency: 15798.3 cm-1
Number of rejected sample scans: 0
Number of rejected background scans: 0
Bench serial number: AUP1200105;
##RESOLUTION=4.000
##XUNITS=1/CM
##YUNITS=ABSORBANCE
##FIRSTX=400.163452
##LASTX=4000.187744
##FIRSTY=0.061956
##MAXX=4000.187744
##MINX=400.163452
##MAXY=1.110558
##MINY=-0.030844
##XFACTOR=1.000000
##YFACTOR=1.000000E-008
##NPOINTS=7468
##DELTAX=0.482125
##ZPD=8192
##XYDATA=(X++(Y..Y))
400.163 6195561 6173227 6144444 6108344 6064740 6014420 5956889 5889405 
404.020 5808070 5709545 5593464 5463554 5327357 5194204 5072613 4967863 
407.877 4881250 4810771 4753117 4705852 4668672 4643104 4630877 4631535 
411.734 4640450 4648519 4643687 4614010 4551326 4453865 4327265 4183115 
415.591 4035930 3899384 3783152 3691088 3621389 3568090 3523832 3482186 
419.448 3439575 3395512 3352073 3312303 3279036 3253959 3237581 3229589 
423.305 3229535 3236990 3251465 3271636 3294817 3316606 3331472 3333961 
427.162 3320365 3290102 3246352 3195439 3145434 3104128 3077370 3067878 
431.019 3075142 3095858 3124932 3156315 3184300 3203685 3210466 3202248 
434.876 3178762 3142148 3096881 3049103 3005436 2971317 2949813 2940735 
438.733 2940932 2945224 2948143 2945502 2935736 2920260 2903188 2890057 
442.590 2886288 2895510 2918396 2952109 2990680 3026123 3050284 3056767 
446.447 3042709 3009499 2962597 2910030 2860254 2819931 2792523 2777976 
450.304 2773726 2776239 2782602 2791314 2802193 2815432 2830540 2845622 
454.161 2857606 2863144 2860050 2848217 2829886 2808738 2788537 2771599 
458.017 2758038 2745905 2732364 2715097 2693533 2669212 2645174 2624784 
461.874 2610401 2602448 2599357 2597760 2594539 2586733 2572612 2551756 
465.731 2524986 2493945 2460932 2428583 2399670 2376671 2361315 2353969 
469.588 2353371 2356644 2359940 2359409 2352309 2337787 2317171 2293458 
473.445 2270330 2250933 2236958 2228217 2222992 2218748 2213191 2205055 
477.302 2194573 2183193 2173026 2165939 2162794 2163072 2164928 2165690 
481.159 2162641 2153726 2138159 2116495 2090490 2062572 2035298 2010827 
485.016 1990667 1975465 1965071 1958560 1954453 1950869 1945915 1938132 
488.873 1927040 1913492 1899686 1888811 1884181 1888230 1901611 1922733 
492.730 1947992 1972622 1991878 2002042 2001829 1991928 1974851 1954147 
496.587 1933577 1916506 1905489 1902111 1906903 1919275 1937476 1958675 
500.444 1979265 1995534 2004506 2004707 1996620 1982478 1965617 1949400 
504.301 1936310 1927362 1922215 1919656 1918389 1917663 1917476 1918372 
508.158 1920905 1925106 1930294 1935271 1938889 1940620 1940988 1941424 
512.015 1943807 1949639 1959356 1971921 1984986 1995491 2000529 1998175 
515.871 1988048 1971325 1950511 1928735 1909118 1894084 1884987 1881908 
519.728 1883723 1888371 1893338 1896159 1894947 1888855 1878242 1864581 
523.585 1850079 1837031 1827161 1820940 1817871 1816282 1814079 1809469 
527.442 1801692 1791259 1779836 1769633 1762619 1759766 1760670 1763637 
531.299 1766225 1766083 1761643 1752659 1740186 1726140 1712613 1701213 
535.156 1692607 1686507 1681924 1677692 1672934 1667309 1661011 1654499 
539.013 1648170 1642079 1635971 1629469 1622489 1615563 1609999 1607633 
542.870 1610325 1619178 1633967 1652801 1672386 1688771 1698410 1699176 
546.727 1691034 1676031 1657729 1640142 1626605 1618917 1617091 1619657 
550.584 1624489 1629672 1634171 1638030 1642070 1647331 1654491 1663498 
554.441 1673603 1683660 1692568 1699493 1704384 1707538 1709552 1711045 
558.298 1712605 1714720 1717842 1722341 1728477 1736217 1745217 1754859 
562.155 1764463 1773546 1782085 1790437 1799235 1808873 1819218 1829475 
566.012 1838327 1844469 1847206 1846859 1844833 1843255 1844233 1849122 
569.869 1857992 1869519 1881394 1891015 1896277 1896150 1890956 1882189 
573.725 1872067 1863000 1857041 1855525 1858936 1866965 1878755 1893205 
577.582 1909296 1926309 1943910 1962104 1981043 2000736 2020925 2040970 
581.439 2059955 2076874 2090854 2101263 2107844 2110611 2109805 2105884 
585.296 2099529 2091778 2084013 2077894 2075052 2076698 2083267 2094212 
589.153 2108138 2123139 2137344 2149341 2158473 2164803 2168881 2171487 
593.010 2173360 2175158 2177524 2181158 2186840 2195200 2206499 2220319 
596.867 2235460 2250155 2262449 2270730 2274212 2273146 2268741 2262815 
600.724 2257334 2253969 2253818 2257319 2264303 2274139 2285932 2298704 
604.581 2311581 2323953 2335609 2346778 2358102 2370382 2384360 2400446 
608.438 2418587 2438314 2458948 2479883 2500856 2522038 2543969 2567318 
612.295 2592611 2619962 2648949 2678700 2708045 2735852 2761262 2783908 
616.152 2804013 2822302 2839829 2857696 2876761 2897413 2919508 2942469 
620.009 2965536 2988086 3009856 3031025 3051992 3073116 3094405 3115328 
623.866 3134952 3152256 3166593 3178002 3187329 3195982 3205498 3217072 
627.723 3231204 3247686 3265783 3284604 3303419 3321776 3339498 3356544 
631.579 3372904 3388593 3403806 3419089 3435317 3453556 3474685 3498955 
635.436 3525701 3553378 3579916 3603354 3622441 3637024 3648087 3657378 
639.293 3666882 3678232 3692335 3709320 3728624 3749273 3770189 3790359 
643.150 3808959 3825381 3839295 3850695 3859929 3867650 3874736 3882105 
647.007 3890569 3900693 3912823 3927111 3943579 3962217 3982933 4005444 
650.864 4029307 4053859 4078402 4102320 4125245 4147050 4167809 4187570 
654.721 4206265 4223618 4239310 4253175 4265426 4276709 4287982 4300248 
658.578 4314202 4330029 4347378 4365555 4383841 4401716 4418972 4435665 
662.435 4451911 4467726 4483008 4497625 4511637 4525430 4539701 4555235 
666.292 4572570 4591673 4611801 4631644 4649694 4664713 4676117 4684129 
670.149 4689631 4693837 4697861 4702482 4707970 4714202 4720921 4727934 
674.006 4735308 4743402 4752789 4764107 4777893 4794391 4813495 4834725 
677.863 4857285 4880219 4902608 4923800 4943463 4961711 4979017 4995964 
681.720 5013060 5030523 5048252 5065880 5082960 5099110 5114186 5128270 
685.577 5141543 5154156 5166143 5177393 5187766 5197258 5206188 5215233 
689.433 5225388 5237714 5253079 5271851 5293692 5317546 5341802 5364591 
693.290 5384275 5399815 5411070 5418886 5424874 5430996 5439028 5449992 
697.147 5463923 5479850 5496121 5510960 5522990 5531615 5537109 5540399 
701.004 5542682 5545000 5548003 5551822 5556270 5560923 5565356 5569131 
704.861 5571745 5572545 5570720 5565444 5556078 5542440 5524961 5504581 
708.718 5482578 5460148 5438126 5416819 5395927 5374821 5352735 5328944 
712.575 5302886 5274104 5242152 5206562 5166816 5122489 5073360 5019486 
716.432 4961169 4898824 4832741 4762940 4689088 4610573 4526807 4437530 
720.289 4343065 4244510 4143650 4042725 3944027 3849529 3760625 3678017 
724.146 3601869 3532135 3468908 3412740 3364761 3326526 3299660 3285389 
728.003 3284148 3295368 3317606 3348943 3387560 3432339 3483243 3541343 
731.860 3608506 3686782 3777693 3881680 3997855 4124064 4257421 4394942 
735.717 4534127 4673437 4812295 4950893 5089657 5228759 5367688 5505179 
739.574 5639362 5768195 5889947 6003644 6109284 6207717 6300374 6388793 
743.431 6474235 6557408 6638387 6716878 6792508 6865197 6935509 7004691 
747.287 7074589 7147310 7224760 7308202 7397838 7492706 7590739 7689181 
751.144 7785096 7875910 7959884 8036154 8104554 8165110 8217526 8260704 
755.001 8292702 8311007 8313113 8297223 8262747 8210391 8141898 8059453 
758.858 7965071 7860207 7745700 7622061 7489855 7350121 7204450 7054795 
762.715 6903180 6751290 6600372 6451231 6304488 6160776 6020843 5885412 
766.572 5754916 5629260 5507734 5389224 5272620 5157260 5043219 4931278 
770.429 4822602 4718224 4618626 4523548 4432172 4343499 4256866 4172176 
774.286 4089970 4011051 3936017 3864870 3796862 3730654 3664848 3598412 
778.143 3531070 3463237 3395745 3329323 3264180 3199824 3135249 3069407 
782.000 3001705 2932398 2862560 2793745 2727409 2664277 2604045 2545447 
785.857 2486711 2426281 2363384 2298457 2233047 2169360 2109613 2055393 
789.714 2007279 1964821 1926806 1891757 1858330 1825624 1793251 1761245 
793.571 1729908 1699667 1671015 1644506 1620652 1599855 1582186 1567214 
797.428 1553996 1541185 1527358 1511497 1493292 1473357 1453001 1433892 
801.285 1417515 1404790 1395880 1390324 1387470 1386743 1387894 1390959 
805.141 1396051 1403008 1411119 1419198 1425747 1429447 1429531 1426126 
808.998 1420126 1413020 1406394 1401597 1399459 1400221 1403681 1409330 
812.855 1416550 1424645 1432852 1440355 1446286 1449886 1450665 1448614 
816.712 1444224 1438466 1432559 1427688 1424749 1424158 1425873 1429489 
820.569 1434476 1440338 1446791 1453775 1461370 1469718 1478871 1488658 
824.426 1498700 1508379 1516971 1523764 1528268 1530329 1530274 1528916 
828.283 1527404 1527039 1528941 1533801 1541737 1552245 1564465 1577412 
832.140 1590368 1603082 1615892 1629518 1644978 1663203 1684857 1710330 
835.997 1739770 1773281 1811044 1853368 1900576 1952815 2009847 2071018 
839.854 2135268 2201472 2268715 2336595 2405379 2475819 2548912 2625358 
843.711 2705207 2787584 2870619 2951742 3028068 3096896 3156181 3204834 
847.568 3242951 3271731 3293427 3311101 3328316 3348891 3376554 3414679 
851.425 3466095 3532948 3616788 3718617 3839032 3978412 4136904 4314375 
855.282 4510355 4723835 4953222 5196257 5450136 5711594 5977092 6242937 
859.139 6505452 6761065 7006433 7238659 7455445 7655295 7837643 8002821 
862.995 8151847 8286135 8407012 8515412 8611539 8694815 8764022 8817551 
866.852 8853779 8871479 8870032 8849628 8811185 8756162 8686271 8603124 
870.709 8508031 8401825 8284918 8157380 8019145 7870158 7710485 7540339 
874.566 7360121 7170424 6972066 6766203 6554334 6338289 6120189 5902287 
878.423 5686749 5475549 5270381 5072623 4883424 4703747 4534489 4376527 
882.280 4230837 4098456 3980480 3877977 3791786 3722291 3669216 3631480 
886.137 3607308 3594430 3590521 3593599 3602325 3616026 3634520 3657674 
889.994 3684998 3715309 3746772 3777123 3804197 3826411 3843130 3854685 
893.851 3862186 3867003 3870283 3872607 3873863 3873304 3869991 3863087 
897.708 3852260 3837815 3820725 3802422 3784455 3768195 3754523 3743684 
901.565 3735344 3728761 3723054 3717575 3712050 3706624 3701747 3697883 
905.422 3695249 3693661 3692493 3690923 3688223 3683957 3678221 3671528 
909.279 3664664 3658376 3653218 3649418 3646910 3645447 3644720 3644359 
913.136 3644009 3643202 3641490 3638455 3633920 3628017 3621207 3614133 
916.993 3607319 3600862 3594262 3586496 3576385 3562984 3546115 3526504 
920.849 3505699 3485643 3468060 3453965 3443397 3435483 3428851 3422110 
924.706 3414270 3405004 3394531 3383389 3372114 3361000 3349947 3338653 
928.563 3326800 3314292 3301416 3288878 3277598 3268539 3262412 3259422 
932.420 3259229 3260982 3263512 3265686 3266738 3266504 3265532 3264907 
936.277 3265910 3269586 3276354 3285897 3297229 3309112 3320540 3331189 
940.134 3341536 3352839 3366688 3384572 3407469 3435680 3468931 3506550 
943.991 3547861 3592230 3639156 3688160 3738604 3789754 3840854 3891418 
947.848 3941494 3991749 4043371 4097738 4156006 4218723 4285713 4356086 
951.705 4428527 4501546 4573681 4643468 4709296 4769294 4821144 4862231 
955.562 4889909 4901832 4896340 4872612 4830682 4771330 4695874 4606089 
959.419 4504072 4392258 4273488 4150828 4027447 3906363 3790136 3680732 
963.276 3579547 3487455 3405103 3332999 3271535 3220949 3181050 3151148 
967.133 3129979 3115850 3106930 3101581 3098666 3097652 3098597 3101934 
970.990 3108271 3118104 3131754 3149309 3170676 3195648 3223916 3255065 
974.847 3288540 3323615 3359488 3395370 3430641 3465018 3498644 3531960 
978.703 3565649 3600342 3636387 3673775 3712167 3750988 3789768 3828288 
982.560 3866759 3905836 3946379 3989246 4035033 4083825 4135279 4188648 
986.417 4243099 4297922 4352735 4407549 4462572 4518124 4574458 4631553 
990.274 4689199 4747030 4804718 4862188 4919629 4977552 5036640 5097580 
994.131 5160879 5226762 5295189 5366004 5439070 5514428 5592395 5673553 
997.988 5758513 5847788 5941573 6039660 6141525 6246501 6354034 6463914 
1001.845 6576377 6692075 6811856 6936604 7066986 7203439 7346266 7495794 
1005.702 7652657 7817878 7992856 8179145 8378149 8590786 8817366 9057582 
1009.559 9310772 9576239 9853636 10143171 10445620 10762091 11093752 
1012.934 11441457 11805543 12185746 12581371 12991577 13415554 13852769 
1016.309 14302889 14765583 15240209 15725555 16219698 16720167 17224142 
1019.683 17728966 18232514 18733312 19230460 19723354 20211348 20693474 
1023.058 21168548 21635460 22093696 22543832 22987794 23428818 23871114 
1026.433 24319228 24777574 25250018 25739732 26249254 26780722 27336004 
1029.809 27916786 28524518 29160202 29824266 30516532 31236064 31981298 
1033.184 32749930 33538824 34343948 35160084 35980804 36798560 37604840 
1036.559 38390736 39147352 39866316 40540240 41162984 41729708 42236860 
1039.934 42681892 43063200 43379936 43632072 43820340 43946408 44012776 
1043.310 44022588 43979244 43886144 43746480 43563176 43339332 43078504 
1046.685 42784992 42464000 42121316 41762964 41394676 41021536 40647884 
1050.060 40277148 39912056 39554684 39206428 38868012 38539616 38220944 
1053.435 37911704 37611944 37322432 37044752 36781196 36534500 36307488 
1056.811 36103068 35924248 35774672 35659116 35583916 35557260 35588944 
1060.186 35689680 35870256 36140468 36508056 36977988 37552148 38229456 
1063.561 39006428 39878000 40838488 41882248 43004112 44199224 45462604 
1066.936 46788504 48169888 49598356 51064628 52559512 54075092 55605628 
1070.312 57147916 58700644 60263224 61834156 63409852 64984060 66548400 
1073.687 68093536 69610632 71092448 72533832 73931112 75281384 76581424 
1077.062 77827056 79012784 80131992 81177096 82139696 83010720 83781032 
1080.437 84442032 84986336 85408680 85705920 85876584 85920072 85836040 
1083.813 85624464 85286208 84824408 84245248 83558032 82774272 81906328 
1087.188 80965968 79963944 78910408 77815752 76691344 75549376 74401632 
1090.563 73257968 72124680 71003968 69894632 68793648 67698000 66606140 
1093.938 65518444 64436644 63362872 62298720 61244828 60201096 59167320 
1097.313 58143596 57130576 56129240 55140372 54164188 53200428 52248560 
1100.689 51308352 50380148 49464908 48563960 47678572 46809664 45957964 
1104.064 45124336 44310208 43517976 42750792 42012268 41305812 40634220 
1107.439 39999448 39402924 38845776 38329340 37855184 37424992 37040128 
1110.814 36701184 36407772 36158568 35951456 35783896 35653132 35556320 
1114.190 35490508 35452740 35440064 35449968 35480716 35531636 35603240 
1117.565 35696928 35814540 35957700 36127360 36323572 36545500 36791648 
1120.940 37060036 37348352 37653860 37973104 38301776 38634388 38964252 
1124.315 39283600 39583660 39855164 40088676 40275364 40407652 40480052 
1127.691 40489648 40436284 40322008 40150388 39925252 39649896 39326436 
1131.066 38955744 38538016 38073140 37561204 37002800 36398868 35750616 
1134.441 35059432 34326852 33554776 32745776 31903028 31030386 30132166 
1137.816 29212850 28276986 27329152 26374024 25416600 24462198 23516442 
1141.192 22584998 21673370 20786544 19928942 19104260 18315504 17565134 
1144.567 16855110 16186957 15561822 14980413 14443097 13949803 13500182 
1147.942 13093437 12728405 12403386 12116162 11863987 11643756 11452252 
1151.317 11286560 11144321 11024024 10924963 10847054 10790505 10755453 
1154.693 10741619 10748294 10774323 10818440 10879444 10956488 11049187 
1158.068 11157682 11282550 11424788 11585731 11767088 11970951 12199678 
1161.443 12455875 12742242 13061441 13415970 13808252 14240733 14716156 
1164.818 15237898 15810215 16438401 17128756 17888398 18724916 19646012 
1168.194 20659194 21771600 22989946 24320562 25769434 27342064 29043142 
1171.569 30875898 32841284 34937040 37156804 39489616 41919480 44425276 
1174.944 46980768 49554752 52111132 54609360 57005204 59252332 61304756 
1178.319 63119800 64661264 65902156 66826452 67429944 67719728 67712928 
1181.695 67434752 66916180 66191328 65295052 64261068 63120604 61901800 
1185.070 60629684 59326268 58010544 56698464 55402892 54133528 52897328 
1188.445 51699120 50542456 49430304 48365444 47350424 46387224 45476760 
1191.820 44618696 43811448 43052740 42340036 41671184 41044520 40458824 
1195.196 39912960 39405632 38935144 38499576 38096960 37725696 37384500 
1198.571 37072364 36788212 36530556 36297228 36085548 35892524 35715236 
1201.946 35551204 35398504 35255556 35120996 34993236 34870524 34750732 
1205.321 34631528 34510436 34384920 34252356 34110080 33955476 33786104 
1208.697 33600028 33395984 33173412 32932386 32673278 32396478 32102206 
1212.072 31790552 31461582 31115612 30753360 30376014 29985008 29581910 
1215.447 29168182 28745186 28314180 27876484 27433610 26987186 26538920 
1218.822 26090482 25643324 25198656 24757520 24320868 23889546 23464420 
1222.198 23046202 22635440 22232490 21837482 21450438 21071440 20700618 
1225.573 20338220 19984504 19639670 19303818 18976936 18658974 18350070 
1228.948 18050546 17761048 17482366 17215364 16960708 16718708 16489226 
1232.323 16271661 16065007 15868044 15679483 15498158 15323111 15153803 
1235.698 14990087 14832202 14680594 14535829 14398316 14268225 14145419 
1239.074 14029467 13919860 13816144 13718051 13625532 13538657 13457446 
1242.449 13381688 13310960 13244620 13182025 13122781 13066880 13014758 
1245.824 12967145 12924932 12888813 12859161 12835965 12818909 12807564 
1249.199 12801479 12800449 12804367 12813275 12827177 12845998 12869510 
1252.575 12897398 12929381 12965320 13005289 13049608 13098700 13153082 
1255.950 13213021 13278556 13349274 13424414 13502918 13583629 13665369 
1259.325 13747174 13828292 13908182 13986461 14062810 14136942 14208543 
1262.700 14277323 14342940 14404951 14462735 14515352 14561559 14599833 
1266.076 14628594 14646414 14652260 14645585 14626275 14594457 14550368 
1269.451 14494111 14425686 14345026 14252193 14147447 14031242 13904059 
1272.826 13766159 13617478 13457537 13285595 13100997 12903436 12693284 
1276.201 12471556 12239802 11999830 11753428 11502127 11247215 10989707 
1279.577 10730596 10470863 10211547 9953772 9698550 9446905 9199773 8958164 
1283.434 8723267 8496576 8279800 8074852 7883585 7707636 7548266 7406252 
1287.292 7282030 7175712 7087241 7016450 6963123 6926994 6907668 6904618 
1291.149 6917152 6944301 6984735 7036786 7098366 7167122 7240570 7316413 
1295.006 7392743 7468194 7541933 7613506 7682582 7748808 7811615 7870314 
1298.864 7924236 7972959 8016430 8055004 8089321 8120154 8148120 8173698 
1302.721 8197113 8218356 8237368 8253985 8268085 8279567 8288318 8294384 
1306.579 8297866 8299099 8298570 8296836 8294355 8291397 8287876 8283456 
1310.436 8277676 8270233 8261168 8250961 8240531 8231041 8223568 8218906 
1314.293 8217380 8218810 8222548 8227731 8233341 8238397 8242024 8243562 
1318.151 8242661 8239298 8233849 8227064 8220013 8213835 8209602 8208014 
1322.008 8209391 8213585 8220144 8228519 8238264 8249255 8261724 8276180 
1325.866 8293359 8313934 8338464 8367239 8400369 8437890 8479865 8526509 
1329.723 8578267 8635610 8698992 8768535 8843963 8924530 9009212 9096952 
1333.581 9186938 9278827 9372779 9469352 9569206 9672853 9780379 9891479 
1337.438 10005537 10121894 10240086 10360072 10482293 10607545 10736813 
1340.813 10871048 11011040 11157282 11310056 11469416 11635251 11807375 
1344.188 11985493 12169281 12358309 12552184 12750562 12953189 13159859 
1347.564 13370429 13584623 13801965 14021665 14242560 14463256 14682132 
1350.939 14897639 15108329 15312950 15510362 15699436 15878876 16047177 
1354.314 16202611 16343483 16468395 16576546 16667920 16743298 16804102 
1357.689 16852080 16889046 16916590 16935970 16948176 16953910 16953842 
1361.065 16948640 16939034 16925772 16909540 16890808 16869674 16845680 
1364.440 16817788 16784264 16742858 16690825 16625184 16542991 16441432 
1367.815 16318224 16171855 16001973 15809788 15598556 15373737 15143132 
1371.190 14916527 14705150 14520802 14374974 14278027 14238499 14262585 
1374.566 14353707 14512289 14735430 15016876 15346999 15713193 16100575 
1377.941 16493018 16874444 17230080 17547392 17816570 18030358 18183608 
1381.316 18272732 18295422 18250604 18138718 17961932 17724172 17430782 
1384.691 17087994 16702367 16280353 15828133 15351579 14856227 14347284 
1388.067 13829347 13306256 12780890 12255274 11730690 11208176 10688825 
1391.442 10174134 9666079 9167204 8680510 8209377 7757262 7327584 6923408 
1395.299 6547118 6200230 5883150 5595302 5335185 5100753 4889700 4699794 
1399.157 4529040 4375782 4238616 4116257 4007436 3910819 3824982 3748544 
1403.014 3680166 3618694 3563041 3512204 3465180 3421017 3378919 3338378 
1406.872 3299401 3262404 3228208 3197667 3171397 3149526 3131575 3116655 
1410.729 3103759 3092003 3080934 3070519 3060988 3052647 3045750 3040348 
1414.586 3036391 3033943 3033174 3034380 3037908 3043909 3052234 3062450 
1418.444 3073984 3086352 3099313 3113071 3128039 3144793 3163811 3185387 
1422.301 3209660 3236758 3266818 3300066 3336744 3376941 3420578 3467370 
1426.159 3517118 3569775 3625743 3685788 3750865 3821804 3899125 3982812 
1430.016 4072492 4167771 4268476 4375024 4488353 4609963 4741600 4885148 
1433.874 5042633 5216194 5408241 5621506 5858996 6123885 6419287 6748222 
1437.731 7113531 7517873 7963539 8452197 8984496 9559530 10174730 10825706 
1441.588 11506724 12211009 12931253 13659815 14388892 15110433 15816417 
1444.964 16499101 17151410 17767314 18341870 18871310 19352738 19784082 
1448.339 20164062 20492322 20769440 20996906 21176844 21311594 21403444 
1451.714 21454244 21465396 21437720 21371390 21265770 21119492 20930492 
1455.089 20696464 20415612 20087404 19713106 19295986 18840718 18352628 
1458.465 17836792 17297586 16738598 16162948 15573627 14973806 14366920 
1461.840 13756476 13146140 12539548 11940430 11352577 10779718 10225274 
1465.215 9691884 9181220 8694000 8230213 7789606 7372031 6977635 6606697 
1469.073 6259424 5935650 5634644 5355165 5095646 4854408 4629833 4420487 
1472.930 4225150 4042788 3872696 3714515 3568181 3433885 3311787 3201732 
1476.787 3103090 3014720 2935241 2863297 2797928 2738686 2685524 2638432 
1480.645 2597100 2560676 2527823 2496952 2466709 2436343 2405814 2375687 
1484.502 2346887 2320137 2295823 2273803 2253581 2234537 2216204 2198405 
1488.360 2181293 2165271 2150728 2137943 2126933 2117418 2108935 2100911 
1492.217 2092761 2084100 2074698 2064603 2054027 2043364 2033007 2023310 
1496.074 2014502 2006718 1999927 1994078 1989085 1984796 1981047 1977597 
1499.932 1974206 1970705 1967018 1963297 1959800 1956838 1954613 1953044 
1503.789 1951781 1950224 1947752 1943958 1938778 1932629 1926239 1920407 
1507.647 1915780 1912652 1910891 1910076 1909563 1908772 1907295 1904899 
1511.504 1901573 1897507 1892986 1888285 1883644 1879160 1874740 1870198 
1515.362 1865277 1859774 1853771 1847558 1841693 1836776 1833305 1831429 
1519.219 1830914 1831158 1831408 1830901 1829181 1826106 1821874 1816804 
1523.076 1811248 1805441 1799458 1793280 1786860 1780192 1773385 1766564 
1526.934 1759942 1753700 1747985 1742927 1738521 1734700 1731277 1728009 
1530.791 1724550 1720735 1716558 1712197 1708082 1704565 1701874 1699911 
1534.649 1698229 1696185 1693095 1688470 1682144 1674290 1665319 1655816 
1538.506 1646386 1637621 1630121 1624436 1620965 1619856 1620813 1623084 
1542.364 1625492 1626775 1625948 1622588 1617119 1610609 1604431 1599833 
1546.221 1597426 1597047 1597865 1598636 1598204 1595802 1591232 1584862 
1550.078 1577374 1569602 1562279 1555999 1551126 1547871 1546198 1545904 
1553.936 1546489 1547290 1547602 1546784 1544521 1540837 1536101 1530918 
1557.793 1525928 1521685 1518506 1516550 1515735 1515903 1516836 1518310 
1561.651 1520080 1521990 1523915 1525890 1527992 1530366 1533086 1536083 
1565.508 1539093 1541737 1543677 1544689 1544771 1544141 1543111 1541879 
1569.365 1540512 1538890 1536797 1534112 1530915 1527486 1524215 1521437 
1573.223 1519308 1517774 1516677 1515819 1515178 1514884 1515166 1516196 
1577.080 1517984 1520345 1523056 1526008 1529298 1533302 1538449 1545062 
1580.938 1553023 1561799 1570469 1578029 1583666 1587053 1588353 1588052 
1584.795 1586859 1585412 1584211 1583639 1583959 1585457 1588302 1592543 
1588.653 1597923 1603959 1609938 1615205 1619315 1622196 1624124 1625631 
1592.510 1627188 1629177 1631778 1635062 1639181 1644346 1650869 1659009 
1596.367 1668698 1679587 1691010 1702268 1712849 1722678 1732134 1741846 
1600.225 1752452 1764239 1777092 1790487 1803816 1816507 1828297 1839172 
1604.082 1849249 1858639 1867297 1875104 1882008 1888189 1894155 1900716 
1607.940 1908700 1918731 1931060 1945427 1961247 1977706 1994063 2009729 
1611.797 2024302 2037589 2049537 2060245 2070007 2079308 2088780 2099080 
1615.655 2110596 2123389 2137059 2150898 2164124 2176231 2187124 2197112 
1619.512 2206736 2216482 2226523 2236599 2246171 2254579 2261372 2266480 
1623.369 2270192 2273050 2275609 2278158 2280775 2283243 2285290 2286713 
1627.227 2287519 2287874 2288061 2288282 2288630 2288984 2289070 2288530 
1631.084 2287114 2284691 2281418 2277657 2273966 2270988 2269272 2269097 
1634.942 2270337 2272483 2274603 2275682 2274829 2271522 2265866 2258419 
1638.799 2250144 2242112 2235231 2230050 2226667 2224741 2223672 2222742 
1642.656 2221322 2218919 2215329 2210607 2204973 2198907 2192906 2187559 
1646.514 2183335 2180537 2179324 2179669 2181388 2184239 2187875 2191936 
1650.371 2195988 2199556 2202224 2203635 2203679 2202589 2200904 2199365 
1654.229 2198695 2199455 2201815 2205618 2210470 2215976 2221734 2227654 
1658.086 2233742 2240146 2246949 2254075 2261228 2268062 2274229 2279633 
1661.944 2284467 2289245 2294647 2301360 2309865 2320242 2332216 2345236 
1665.801 2358652 2371908 2384767 2397315 2409896 2422936 2436689 2451139 
1669.658 2465896 2480384 2493995 2506394 2517667 2528333 2539174 2550940 
1673.516 2564149 2578840 2594622 2610772 2626532 2641405 2655298 2668487 
1677.373 2681575 2695151 2709741 2725647 2743037 2761880 2782207 2804061 
1681.231 2827490 2852481 2879001 2906821 2935595 2964966 2994544 3024068 
1685.088 3053370 3082413 3111257 3139945 3168532 3197076 3225610 3254195 
1688.946 3282910 3311892 3341487 3372123 3404462 3439269 3477342 3519315 
1692.803 3565508 3615861 3669874 3726749 3785513 3845361 3905781 3966816 
1696.660 4028967 4093206 4160708 4232758 4310453 4394521 4485245 4582301 
1700.518 4684885 4791886 4902226 5015203 5130775 5249587 5372863 5502144 
1704.375 5638830 5783919 5937798 6100256 6270736 6448666 6633784 6826216 
1708.233 7026532 7235461 7453745 7681824 7919820 8167571 8424785 8691267 
1712.090 8966992 9252238 9547364 9852760 10168599 10494726 10830698 11175802 
1715.948 11529253 11890387 12258705 12634031 13016380 13406011 13803352 
1719.323 14209032 14624000 15049636 15487871 15941140 16412517 16905410 
1722.698 17423574 17970766 18550834 19167442 19824066 20524164 21271134 
1726.073 22068686 22920942 23832666 24809276 25856510 26980018 28184924 
1729.448 29475548 30855486 32328228 33898028 35570572 37352912 39252592 
1732.824 41275860 43425544 45699612 48090996 50589424 53184320 55867636 
1736.199 58635436 61486984 64421804 67435792 70517888 73648920 76803000 
1739.574 79951016 83064768 86119368 89093384 91966608 94717440 97321320 
1742.949 99751592 101982320 103991512 105763064 107286832 108556792 
1745.843 109569192 110322096 110816064 111055816 111050856 110815080 
1748.736 110364368 109714128 108878008 107867992 106695816 105374376 
1751.629 103918024 102341376 100657328 98875600 97002400 95042056 92999152 
1755.004 90880696 88696936 86460800 84186400 81887432 79576240 77263768 
1758.379 74960184 72675464 70419264 68200752 66027676 63906116 61840488 
1761.754 59834476 57891692 56016236 54212396 52483816 50832516 49258288 
1765.130 47758688 46330000 44968180 43669816 42432548 41254552 40133684 
1768.505 39066808 38049188 37074996 36137928 35232312 34353740 33499282 
1771.880 32667080 31855590 31062878 30286092 29521546 28765056 28012416 
1775.255 27259990 26505000 25745646 24981050 24211258 23436982 22659502 
1778.631 21880602 21102356 20327006 19556808 18793960 18040514 17298364 
1782.006 16569333 15855365 15158626 14481494 13826652 13196677 12593934 
1785.381 12019998 11475591 10960509 10473669 10013501 9578312 9166592 
1788.756 8777227 8409507 8063186 7738228 7434784 7152858 6892176 6652017 
1792.614 6431254 6228330 6041488 5869040 5709407 5561376 5423792 5295571 
1796.471 5175369 5061707 4953020 4848112 4746349 4647987 4554034 4465892 
1800.329 4384762 4311202 4244668 4183697 4126122 4069680 4012476 3953437 
1804.186 3892300 3829584 3766417 3704126 3644147 3587829 3536158 3489676 
1808.043 3448288 3411262 3377293 3344848 3312518 3279384 3245083 3209817 
1811.901 3173923 3137620 3100659 3062553 3022747 2981174 2938658 2896929 
1815.758 2858407 2825509 2799967 2782234 2771220 2764736 2759978 2754394 
1819.616 2746228 2734750 2720134 2703077 2684385 2664639 2643963 2622039 
1823.473 2598275 2571796 2541952 2508404 2471303 2431510 2390444 2349872 
1827.331 2311536 2276795 2246320 2220127 2197742 2178511 2161935 2147534 
1831.188 2134924 2123374 2111459 2097369 2079097 2055140 2025101 1990015 
1835.045 1952228 1914807 1880692 1851947 1829351 1812578 1800427 1791648 
1838.903 1785140 1780068 1775685 1771007 1764618 1754921 1740448 1720308 
1842.760 1694699 1664770 1632530 1600198 1569715 1542486 1519128 1499673 
1846.618 1483640 1470195 1458135 1446046 1432524 1416504 1397777 1377313 
1850.475 1357304 1340576 1329848 1326813 1331271 1341236 1353337 1363765 
1854.333 1369438 1368719 1361753 1350070 1335912 1321431 1308139 1296762 
1858.190 1287383 1279740 1273620 1268780 1264839 1261141 1256520 1249560 
1862.047 1238913 1223858 1204594 1182586 1160009 1139312 1122526 1110597 
1865.905 1103244 1099204 1096804 1094667 1092202 1089724 1088241 1088692 
1869.762 1091308 1095308 1098826 1099624 1095834 1086755 1073291 1057772 
1873.620 1043366 1033063 1028863 1031329 1039418 1050936 1063180 1073402 
1877.477 1079395 1079666 1073668 1062054 1046639 1030373 1016847 1009485 
1881.334 1010470 1019744 1034707 1050648 1061858 1063528 1053150 1031435 
1885.192 1002064 970450 942202 921560 910591 909230 915984 928710 945217 
1889.531 963294 980636 994783 1003300 1004647 999046 988804 978170 972027 
1893.871 974116 985619 1004444 1025940 1044730 1056692 1060710 1058732 
1897.729 1054944 1053696 1057564 1066342 1077236 1086242 1089931 1086869 
1901.586 1078029 1066076 1054056 1044182 1037204 1032497 1029001 1025984 
1905.443 1023565 1022520 1023616 1026926 1031627 1036042 1038531 1038083 
1909.301 1034592 1028888 1021727 1013346 1002981 989221 970731 947327 920520 
1913.640 893676 870871 855989 851384 856991 870530 887883 904292 915503 
1917.980 918535 912127 896706 873824 846073 816248 787428 762618 744638 
1922.320 735958 738366 752484 777438 810381 846542 880042 904574 914865 
1926.659 908138 884757 848660 806252 764863 730824 707748 695705 691583 
1930.999 690156 685915 674438 653523 623576 586889 547195 508370 474256 
1935.338 447914 431468 425669 430019 442224 458942 476304 490823 500310 
1939.678 504792 506321 508769 516621 534059 563842 606510 660322 721014 
1944.018 782442 837738 879773 903461 906325 889518 857620 817456 776452 
1948.357 740624 713259 694731 683525 677669 676279 679548 688204 701749 
1952.697 716713 726569 723438 700530 655776 593945 526377 468892 436741 
1957.036 440244 480828 550300 633153 710622 767031 794182 793223 774140 
1961.376 751276 739350 748753 783230 839007 906334 971634 1020887 1042135 
1965.716 1027459 974479 885919 769249 635438 497141 367692 260439 187498 
1970.055 158655 179843 250496 362348 498733 637061 753018 827270 852120 
1974.395 835118 799267 778411 806503 908400 1089932 1333800 1603245 1852295 
1978.734 2038258 2134094 2132261 2043880 1891654 1702914 1502990 1311743 
1982.592 1142472 1002165 892970 814394 764373 740987 741923 764313 803492 
1986.931 853584 906098 952295 984199 996555 988770 964865 932844 902164 
1991.271 880758 873092 878611 892097 905766 912133 906050 886437 855249 
1995.611 816448 773528 728601 682375 635284 589310 549655 523903 520364 
1999.950 544985 597822 671285 751099 819173 859528 862624 829139 770127 
2004.290 703368 648712 621650 629048 667766 725839 788152 841123 876864 
2008.629 893814 894809 883192 860472 824540 771408 697521 602394 490843 
2012.969 371958 257808 160564 88652 45728 30100 35051 51255 68874 79500 
2017.791 79044 67886 52200 41576 46721 76137 132399 211250 301682 389107 
2022.613 460788 508692 532817 539698 539543 541420 549713 562766 575071 
2026.952 580169 574411 559360 540713 526253 523091 534494 560830 600721 
2031.292 652839 717708 796815 890166 995294 1105087 1209411 1297691 1361275 
2035.631 1395255 1397422 1366985 1303208 1204314 1071111 908788 729608 
2039.489 552991 401943 297094 250436 261647 318506 401725 491479 574081 
2043.828 644179 704937 763387 825835 894750 968138 1042053 1113357 1181260 
2048.168 1246602 1309509 1365891 1406439 1418950 1392400 1321816 1211138 
2052.025 1073299 927891 796749 699243 647741 645390 686397 757944 844454 
2056.365 930688 1004365 1057447 1086235 1090811 1074413 1041753 997875 
2060.222 946444 888854 824560 752581 673363 590698 511927 446752 404522 
2064.562 391301 407715 449618 509561 579977 655240 732584 810472 886436 
2068.902 955287 1009189 1039862 1042353 1018242 976621 931824 898574 886618 
2073.241 897008 921793 947568 960703 953331 926173 887644 850657 827285 
2077.581 824317 841721 873431 910275 943822 968397 982000 985190 979688 
2081.920 967169 949075 927273 904631 885065 873046 871797 882603 904086 
2086.260 932743 964468 995792 1024420 1049095 1068038 1078041 1074255 
2090.117 1050960 1004042 933127 842831 742750 645234 562045 501106 464443 
2094.457 448084 444058 443636 440640 433679 425988 423873 433657 458991 
2098.797 499571 550649 604734 653682 691071 713890 723255 723898 722414 
2103.136 725319 736994 758396 786663 816043 839474 851160 847960 830618 
2107.476 803381 772886 745908 727638 720274 722658 731443 742122 750634 
2111.815 754601 753066 746293 734598 717521 693507 660442 616514 561620 
2116.155 498084 430822 366346 311177 270142 244673 232650 229084 227622 
2120.495 222829 211616 194046 172901 152025 134969 123467 116681 111895 
2124.834 105330 93560 74590 48058 15038 -22353 -62114 -102581 -143062 
2129.174 -183761 -225440 -269547 -317550 -370501 -428030 -488029 -546303 
2133.031 -597159 -635058 -656441 -661730 -655635 -646123 -641476 -647694 
2136.889 -665064 -688701 -710608 -723268 -723255 -714036 -704551 -706800 
2140.746 -730755 -780368 -852150 -936606 -1022260 -1100401 -1168279 -1229864 
2144.604 -1292739 -1363670 -1444049 -1526879 -1598537 -1642045 -1643923 
2147.979 -1598796 -1512368 -1401022 -1287765 -1196101 -1144781 -1143735 
2151.354 -1192486 -1282803 -1401944 -1537625 -1682112 -1834398 -1998516 
2154.729 -2181095 -2384892 -2603456 -2816807 -2991078 -3084406 -3057249 
2158.104 -2886203 -2577300 -2168678 -1722568 -1305745 -968566 -732950 
2161.480 -591695 -517079 -474647 -433710 -375525 -295433 -200160 -103308 
2165.337 -18091 47071 90565 118334 139616 164610 199397 244139 292080 330897 
2170.159 345944 324874 261635 159929 34564 -91258 -190940 -240020 -223733 
2174.499 -140701 -4597 158697 316510 437883 499280 490246 414139 287544 
2178.838 135922 -10411 -122271 -176391 -160166 -74126 67886 242629 421891 
2183.178 579976 698613 769865 795980 786891 755176 713322 670599 631932 
2187.517 598952 569901 541225 508607 467697 416373 355765 291507 234010 
2191.857 196192 189968 222512 292236 388215 491817 581711 639652 655123 
2196.197 628177 568354 490768 411360 342114 289398 253468 230349 214596 
2200.536 201695 188623 174523 159784 145596 133954 127470 129085 141510 
2204.876 165943 201800 245644 292496 337066 375838 408333 437053 466206 
2209.215 499545 538438 580503 620201 650698 666194 664206 646194 617490 
2213.555 585057 555903 534832 523474 520636 523672 529686 537128 546428 
2217.895 559614 579484 607948 644886 686950 728146 760826 777690 773659 
2222.234 748091 704653 651516 599379 559165 539723 546305 579474 635495 
2226.574 707333 786329 863637 931715 985846 1024116 1047901 1060527 1066337 
2230.913 1068713 1069041 1066603 1059123 1044342 1021526 992992 963341 
2234.771 938291 922342 916806 919270 924219 925368 918390 902629 881640 
2239.110 861604 848772 847202 857487 876790 900722 925128 947667 967863 
2243.450 986173 1002714 1015913 1022940 1020642 1007192 983114 951710 917778 
2247.790 885826 858801 837183 819918 805407 793335 785139 783750 792537 
2252.129 813915 848390 894802 950574 1012852 1078776 1145310 1208867 1265019 
2256.469 1308960 1336882 1347426 1342951 1329425 1314796 1306670 1309309 
2260.326 1322522 1341406 1358381 1365942 1359560 1338796 1307533 1271989 
2264.184 1238608 1212167 1194799 1186293 1185033 1189299 1198174 1211441 
2268.041 1229624 1253237 1282456 1317045 1355832 1396824 1436949 1472104 
2271.898 1497420 1508272 1501473 1477055 1438879 1394313 1353141 1325025 
2275.756 1317045 1331831 1366823 1415196 1467910 1516059 1553200 1576505 
2279.613 1587092 1589216 1589022 1592676 1605220 1629483 1665460 1710313 
2283.471 1759086 1805538 1843302 1867348 1875002 1866322 1844125 1813242 
2287.328 1779354 1747740 1722254 1704772 1695009 1691006 1689942 1688777 
2291.186 1685233 1677958 1666858 1652649 1636560 1619872 1603473 1587811 
2295.043 1573049 1559442 1547414 1537933 1532189 1531266 1535477 1544252 
2298.900 1555793 1567626 1577159 1582344 1582490 1578298 1571772 1565600 
2302.758 1562425 1564132 1571274 1582865 1596680 1609454 1618074 1619942 
2306.615 1614006 1601154 1583979 1566334 1552227 1544782 1545408 1553674 
2310.473 1567698 1585168 1604212 1624139 1645207 1667979 1692434 1717099 
2314.330 1739346 1756058 1765112 1766354 1762114 1756654 1754605 1759503 
2318.188 1772789 1793763 1820632 1852114 1888334 1930954 1981827 2040721 
2322.045 2103594 2161908 2203892 2217443 2193608 2129403 2028652 1901436 
2325.902 1761577 1623577 1499808 1398365 1322282 1269954 1236586 1216087 
2329.760 1202613 1191815 1181178 1169670 1157369 1145089 1133851 1124870 
2333.617 1119192 1117727 1120796 1128201 1138990 1151671 1164477 1175659 
2337.475 1183839 1188143 1188301 1184626 1177899 1169241 1159928 1151358 
2341.332 1144597 1140494 1139386 1141191 1145391 1151171 1157574 1163548 
2345.189 1167953 1169821 1168331 1163074 1154307 1142824 1130101 1117761 
2349.047 1107227 1099105 1093318 1088874 1084579 1079463 1073337 1066815 
2352.904 1061291 1058200 1058330 1061518 1066473 1071171 1073386 1071546 
2356.762 1064917 1054039 1040152 1024840 1009627 995452 982670 971140 960395 
2361.101 949742 938588 926326 912535 896900 879398 860264 840154 820143 
2365.441 801542 785748 774082 767492 766431 770682 779575 791857 805990 
2369.781 820438 833802 845058 853603 859307 862383 863327 862789 861632 
2374.120 860911 861895 865847 873952 886857 904479 925790 948744 970638 
2378.460 988671 1000220 1003654 998507 985682 967376 946692 927357 912980 
2382.799 906466 909366 921582 941233 965067 989155 1010010 1025183 1034104 
2387.139 1037876 1038860 1039742 1042749 1048869 1057894 1068492 1078967 
2390.996 1087653 1093526 1096117 1095593 1092441 1087260 1080634 1073181 
2394.854 1065404 1057842 1050830 1044642 1039229 1034544 1030492 1027152 
2398.711 1024774 1023696 1024231 1026364 1029824 1034080 1038547 1042734 
2402.569 1046481 1049756 1052653 1055318 1057855 1060386 1063239 1066843 
2406.426 1071640 1077728 1084552 1090743 1094307 1093293 1086526 1074119 
2410.283 1057948 1040992 1026766 1018152 1016612 1021982 1032521 1045876 
2414.141 1059529 1071604 1080978 1087161 1090015 1089658 1086445 1081264 
2417.998 1075498 1071179 1070445 1074959 1085234 1100328 1117934 1134902 
2421.856 1148114 1155037 1154399 1146260 1131754 1112812 1091901 1071555 
2425.713 1054167 1041565 1034895 1034118 1038198 1045131 1052718 1059146 
2429.571 1063625 1066512 1069058 1072630 1078019 1084802 1091336 1095112 
2433.428 1093724 1085622 1070559 1049740 1025372 999990 975875 954591 937075 
2437.768 923522 913894 908076 906014 907905 914185 925132 941006 961247 
2442.107 984407 1007785 1027647 1039933 1041340 1030439 1008617 980109 
2445.965 951458 929599 920426 927045 949009 982717 1022462 1062033 1096073 
2450.304 1121063 1135390 1138971 1132758 1118210 1097096 1071455 1043692 
2454.162 1016361 991964 972349 958583 950602 947684 948658 952542 958431 
2458.501 965688 973770 981847 988949 994286 997608 999631 1001704 1005639 
2462.841 1012640 1022742 1034332 1044634 1050257 1048697 1039234 1023258 
2466.698 1004136 986173 973345 968262 971538 981965 997071 1014027 1030381 
2471.038 1044395 1055018 1061734 1064125 1061990 1055320 1044741 1031600 
2474.895 1018059 1006576 999370 997751 1001697 1009688 1019258 1027638 
2478.753 1032614 1033212 1029880 1024215 1018589 1015078 1015192 1019332 
2482.610 1026854 1036440 1046553 1055698 1062845 1067267 1068838 1067681 
2486.468 1064377 1059932 1055818 1053634 1055037 1060995 1071538 1085427 
2490.325 1100381 1113509 1122214 1124817 1121113 1112502 1101300 1090104 
2494.182 1080992 1074931 1071724 1070478 1070217 1070466 1071625 1074824 
2498.040 1081434 1092379 1107595 1125848 1144931 1162442 1176185 1184949 
2501.897 1188672 1188147 1184603 1179339 1173193 1166667 1159905 1153207 
2505.755 1147237 1143086 1141912 1144743 1151882 1162627 1175309 1187553 
2509.612 1196852 1201076 1198993 1190316 1176026 1157736 1137785 1118604 
2513.469 1102641 1091915 1087866 1090978 1100759 1115546 1132792 1149255 
2517.327 1161866 1168092 1166586 1157465 1142284 1123481 1104008 1086563 
2521.184 1073046 1064384 1060613 1061010 1064800 1071091 1079327 1089138 
2525.042 1100061 1111462 1122149 1130668 1135537 1135931 1132044 1125480 
2528.899 1119109 1116419 1120662 1133784 1155665 1183790 1213764 1240161 
2532.757 1257880 1263282 1255107 1234575 1205056 1171152 1137714 1108711 
2536.614 1086691 1072543 1065548 1063925 1065486 1068304 1071115 1073715 
2540.471 1076868 1081995 1090457 1103151 1120046 1140108 1161398 1181968 
2544.329 1200266 1215632 1228414 1239683 1250472 1261274 1271697 1280580 
2548.186 1286374 1287950 1284963 1278216 1269219 1259877 1251712 1245416 
2552.044 1240829 1237300 1233805 1229863 1225475 1221248 1218269 1217677 
2555.901 1220399 1226966 1237297 1250657 1265686 1280492 1292826 1300722 
2559.759 1302726 1298500 1289037 1276335 1263011 1251504 1243333 1238887 
2563.616 1237523 1237944 1239148 1240730 1243216 1247688 1255016 1265514 
2567.473 1278460 1292213 1304836 1314890 1321924 1326670 1330797 1336115 
2571.331 1343902 1354314 1366283 1377783 1386647 1391008 1390103 1384188 
2575.188 1374539 1362918 1351208 1341084 1333592 1329512 1329000 1331998 
2579.046 1338222 1347113 1357808 1369269 1380354 1389938 1397396 1402543 
2582.903 1405794 1407998 1410055 1412668 1415993 1419727 1423471 1426861 
2586.760 1430217 1434304 1440268 1448823 1459823 1471828 1482317 1488497 
2590.618 1488339 1481744 1470832 1459603 1452800 1454272 1465467 1484905 
2594.475 1508352 1530200 1545104 1549620 1543062 1527352 1506275 1484069 
2598.333 1464450 1449754 1441038 1438348 1441041 1448290 1458982 1471749 
2602.190 1484871 1496514 1505094 1509744 1510749 1509358 1507381 1506619 
2606.048 1508097 1511842 1517006 1522234 1526263 1528499 1529018 1528486 
2609.905 1527725 1527464 1528053 1529624 1532257 1536198 1541870 1549553 
2613.762 1559365 1570840 1582927 1594273 1603567 1609911 1613189 1614075 
2617.620 1613669 1613306 1614034 1616330 1620104 1624735 1629314 1633138 
2621.477 1635791 1637396 1638517 1640061 1642937 1647720 1654313 1662029 
2625.335 1669801 1676385 1681011 1683492 1684464 1684949 1686072 1688476 
2629.192 1692119 1696497 1700753 1704532 1708092 1712291 1718403 1727289 
2633.050 1738906 1752125 1764977 1775193 1781228 1782689 1780469 1776501 
2636.907 1772789 1770832 1771129 1773069 1775497 1777269 1777798 1777234 
2640.764 1776289 1775822 1776501 1778408 1781249 1784581 1788020 1791407 
2644.622 1794697 1797962 1800916 1803159 1804129 1803478 1801356 1798342 
2648.479 1795425 1793399 1792638 1792803 1792960 1791868 1788509 1782383 
2652.337 1773755 1763367 1752227 1740985 1730017 1719323 1708697 1698068 
2656.194 1687785 1678409 1670550 1664492 1659889 1655767 1650750 1643291 
2660.052 1632209 1617031 1597968 1575801 1551681 1526734 1501955 1478136 
2663.909 1455825 1435646 1418171 1404035 1393713 1387403 1384810 1385168 
2667.766 1387288 1389793 1391432 1391459 1389616 1386357 1382524 1379075 
2671.624 1376681 1375604 1375386 1375150 1373955 1371029 1366220 1360000 
2675.481 1353385 1347520 1343313 1341043 1340450 1340692 1340924 1340465 
2679.339 1339252 1337642 1336338 1335806 1336109 1336682 1336419 1334178 
2683.196 1329112 1321113 1311079 1300565 1291588 1285927 1284691 1287990 
2687.053 1294901 1303804 1312702 1319757 1323751 1324331 1321792 1317206 
2690.911 1311780 1306667 1302554 1299585 1297473 1295530 1293046 1289468 
2694.768 1284680 1278942 1272923 1267452 1263416 1261474 1261998 1265051 
2698.626 1270167 1276741 1283805 1290428 1295743 1299160 1300523 1299985 
2702.483 1298153 1295705 1293400 1291765 1291098 1291337 1292202 1293266 
2706.341 1294095 1294307 1293568 1291757 1288912 1285149 1280750 1276167 
2710.198 1271801 1268006 1264963 1262590 1260580 1258588 1256350 1253765 
2714.055 1251007 1248430 1246433 1245309 1245121 1245733 1247018 1248859 
2717.913 1251229 1254400 1258565 1263805 1269996 1276689 1283249 1289100 
2721.770 1293869 1297417 1299754 1301115 1301601 1301275 1300072 1298111 
2725.628 1295648 1293119 1291129 1290151 1290334 1291411 1292737 1293587 
2729.485 1293459 1292316 1290660 1289332 1289121 1290520 1293319 1296660 
2733.343 1299333 1300194 1298537 1294396 1288550 1282373 1277302 1274558 
2737.200 1274746 1277812 1282953 1289049 1294808 1299156 1301431 1301504 
2741.057 1299741 1296792 1293466 1290497 1288400 1287514 1287897 1289529 
2744.915 1292404 1296428 1301393 1306809 1312008 1315928 1317586 1316114 
2748.772 1311345 1303840 1295033 1286813 1281180 1279682 1282874 1290269 
2752.630 1300240 1310722 1319410 1324660 1325760 1323075 1317972 1312460 
2756.487 1308626 1308061 1311624 1319069 1329215 1340336 1350509 1358115 
2760.344 1362210 1362652 1359984 1355150 1349213 1343043 1337158 1331706 
2764.202 1326641 1321807 1317211 1312837 1308785 1305168 1301947 1299106 
2768.059 1296468 1293875 1291161 1288232 1285052 1281657 1278197 1275106 
2771.917 1272933 1272273 1273608 1277061 1282234 1288273 1294026 1298415 
2775.774 1300778 1301079 1299966 1298424 1297459 1297758 1299472 1302341 
2779.632 1305947 1309972 1314483 1319667 1325822 1332939 1340524 1347815 
2783.489 1353979 1358468 1361315 1363109 1364727 1366886 1369755 1372869 
2787.346 1375432 1376791 1376880 1376389 1376720 1379454 1385677 1395466 
2791.204 1407757 1420886 1432934 1442667 1449724 1454686 1458629 1462516 
2795.061 1466631 1470502 1473044 1473166 1470241 1464565 1457265 1450019 
2798.919 1444460 1441799 1442413 1446107 1452103 1459605 1467936 1476797 
2802.776 1486075 1495714 1505677 1515719 1525633 1535241 1544618 1554036 
2806.634 1563844 1574447 1585828 1597694 1609226 1619509 1627569 1632698 
2810.491 1634705 1633957 1631424 1628314 1625930 1625387 1627499 1632596 
2814.348 1640804 1652051 1666110 1682890 1702118 1723354 1745793 1768196 
2818.206 1789161 1807170 1821197 1830820 1836606 1839813 1842101 1845159 
2822.063 1850078 1857163 1865913 1875189 1883823 1890882 1895938 1899285 
2825.921 1901473 1903224 1905042 1907127 1909479 1912108 1915119 1919072 
2829.778 1924580 1932357 1942738 1955573 1970205 1985731 2001302 2016604 
2833.635 2031931 2048182 2066599 2088244 2113885 2143547 2176688 2212547 
2837.493 2250411 2289937 2331262 2374943 2421716 2472362 2527578 2587990 
2841.350 2654309 2727549 2808813 2899423 3000468 3112671 3236168 3370521 
2845.208 3514889 3668291 3829765 3998389 4173027 4351965 4532553 4710835 
2849.065 4881656 5038911 5176173 5287579 5368438 5416070 5429889 5411722 
2852.923 5365220 5295372 5207799 5107961 5000587 4889315 4776513 4663590 
2856.780 4551254 4439845 4329628 4220932 4114185 4009941 3908585 3810729 
2860.637 3717097 3628716 3546827 3472864 3408140 3353379 3308717 3273380 
2864.495 3245959 3224868 3208518 3195817 3186329 3179995 3177099 3177828 
2868.352 3182271 3190208 3201453 3215991 3234069 3256303 3283375 3315902 
2872.210 3354059 3397474 3445173 3495902 3548325 3601443 3654728 3708161 
2876.067 3762116 3816956 3872712 3928807 3983990 4036349 4083770 4124351 
2879.925 4156663 4180150 4195200 4202676 4203912 4200191 4192498 4181622 
2883.782 4168038 4152434 4135523 4118294 4101821 4087025 4074516 4064357 
2887.639 4056261 4049861 4044824 4041288 4039777 4041283 4046684 4056679 
2891.497 4071297 4090020 4111674 4134763 4157696 4179233 4198647 4215910 
2895.354 4231522 4246546 4262153 4279523 4299385 4322017 4347246 4374407 
2899.212 4402914 4432254 4462256 4493161 4525369 4559160 4594636 4631430 
2903.069 4668925 4706463 4743594 4780439 4817615 4856184 4897360 4942267 
2906.927 4991622 5045845 5104892 5168766 5237512 5311424 5391168 5477814 
2910.784 5572560 5676746 5791524 5917687 6055584 6204939 6365031 6534842 
2914.641 6713234 6899336 7092362 7291481 7495375 7701849 7907406 8107403 
2918.499 8296536 8469734 8622980 8754117 8862890 8950791 9020111 9073031 
2922.356 9110974 9134255 9142404 9134855 9111533 9073479 9022968 8963121 
2926.214 8897491 8829433 8761699 8696266 8634544 8577418 8525573 8479574 
2930.071 8439779 8406354 8379252 8358215 8343077 8333847 8330840 8334762 
2933.928 8346624 8367534 8398475 8440260 8493474 8558433 8635156 8723545 
2937.786 8823142 8933046 9051681 9176928 9305939 9435256 9561142 9679873 
2941.643 9787954 9882499 9961182 10022283 10064615 10087288 10089594 
2945.019 10071049 10031389 9970793 9889892 9789928 9672642 9540223 9394842 
2948.876 9238818 9074073 8902542 8726041 8546466 8365877 8186541 8010616 
2952.733 7839943 7675791 7518512 7367659 7222217 7080921 6942723 6807232 
2956.591 6674929 6546802 6424378 6309051 6201651 6102275 6010291 5924504 
2960.448 5843666 5766832 5693529 5623843 5557983 5496154 5438103 5383183 
2964.306 5330419 5279081 5228772 5179857 5133359 5090391 5051962 5018420 
2968.163 4989331 4963655 4940203 4918108 4897195 4878230 4862472 4851515 
2972.021 4846607 4848365 4856576 4870335 4888060 4908106 4928827 4948983 
2975.878 4968001 4986239 5004997 5026491 5053453 5088598 5133878 5189976 
2979.735 5256160 5330444 5410528 5494594 5582111 5674266 5773657 5883536 
2983.593 6006672 6144713 6297672 6463980 6641346 6827384 7020305 7219022 
2987.450 7423115 7632201 7845475 8061375 8277532 8490933 8698263 8896119 
2991.308 9081156 9250119 9400041 9528185 9632612 9712260 9767402 9799387 
2995.165 9810521 9803397 9780328 9742872 9691712 9626803 9547913 9455032 
2999.022 9348800 9230611 9102429 8966540 8824880 8678970 8529465 8376393 
3002.880 8219257 8057482 7890717 7718993 7542980 7363843 7183025 7001949 
3006.737 6821918 6643750 6467872 6294490 6123895 5956579 5793305 5635326 
3010.595 5483670 5339166 5201930 5071281 4945727 4823372 4702398 4581395 
3014.452 4459918 4338413 4218210 4101071 3988779 3882707 3783518 3691141 
3018.310 3604732 3523057 3444777 3368828 3294469 3221524 3150309 3081232 
3022.167 3014945 2951919 2892538 2837024 2785589 2738394 2695600 2657175 
3026.024 2622778 2591662 2562712 2534464 2505458 2474566 2441270 2405692 
3029.882 2368590 2331180 2294698 2260095 2227993 2198607 2171894 2147649 
3033.739 2125700 2105995 2088390 2072785 2058821 2045937 2033358 2020172 
3037.597 2005634 1989121 1970541 1950098 1928619 1907321 1887757 1871541 
3041.454 1860003 1853808 1852813 1855694 1860293 1863810 1863562 1857545 
3045.312 1845080 1827118 1806093 1785525 1768996 1759390 1758205 1765014 
3049.169 1777630 1792802 1806864 1816842 1820870 1818913 1812230 1803104 
3053.026 1793976 1786712 1782226 1780179 1779527 1778781 1776794 1773123 
3056.884 1768148 1762822 1758254 1755205 1753726 1753273 1752748 1751206 
3060.741 1748163 1743937 1739597 1736407 1735488 1737396 1741629 1747046 
3064.599 1752115 1755508 1756412 1754825 1751344 1746759 1741844 1737051 
3068.456 1732504 1728193 1724292 1721297 1719918 1720868 1724417 1730244 
3072.313 1737064 1743196 1746719 1746198 1741054 1731936 1720441 1708851 
3076.171 1699467 1694231 1694001 1698418 1705955 1714147 1720036 1721009 
3080.028 1715355 1702753 1684557 1663452 1642881 1626235 1615954 1613033 
3083.886 1616832 1625494 1636570 1647784 1657616 1665381 1671192 1675627 
3087.743 1678975 1681445 1682950 1683296 1682533 1681054 1679408 1678208 
3091.601 1677702 1677715 1677696 1676899 1674774 1671340 1666970 1662548 
3095.458 1658975 1657043 1656864 1658328 1660736 1663468 1665993 1668071 
3099.315 1669765 1671502 1673894 1677535 1682925 1690314 1699445 1709787 
3103.173 1720340 1730055 1737980 1743637 1746857 1748067 1747713 1746180 
3107.030 1743427 1739077 1732807 1724470 1714659 1704732 1696503 1691768 
3110.888 1691581 1695914 1703360 1711686 1718333 1721242 1719377 1712851 
3114.745 1702843 1691014 1679088 1668540 1660456 1655527 1654183 1656604 
3118.603 1662582 1671491 1682109 1693014 1702603 1709767 1714137 1716120 
3122.460 1716699 1717059 1717973 1719549 1721051 1721463 1719653 1715220 
3126.317 1708456 1700380 1692647 1686644 1683515 1683701 1687005 1692881 
3130.175 1700587 1709388 1718665 1727830 1736326 1743626 1749299 1753291 
3134.032 1755759 1757397 1759077 1761663 1765691 1771184 1777732 1784440 
3137.890 1790508 1795229 1798329 1799817 1799925 1798736 1796334 1792666 
3141.747 1787784 1782130 1776559 1772380 1771005 1773651 1780805 1791995 
3145.604 1805860 1820460 1833460 1842967 1847520 1846640 1840568 1830318 
3149.462 1817401 1803699 1791062 1781245 1775394 1774015 1776720 1782389 
3153.319 1789520 1796697 1802985 1808080 1812445 1816769 1821572 1826885 
3157.177 1832008 1835851 1837435 1836464 1833562 1830352 1828817 1830698 
3161.034 1836783 1846597 1858410 1869739 1878172 1881763 1879808 1872707 
3164.892 1861907 1849594 1838129 1829765 1826312 1828632 1836664 1849209 
3168.749 1864091 1878712 1890624 1898120 1900955 1900157 1897783 1896217 
3172.606 1897187 1901249 1907625 1914462 1919595 1921337 1918983 1913225 
3176.464 1905896 1899398 1896175 1898042 1905943 1919698 1937989 1958755 
3180.321 1979499 1997590 2011035 2018560 2020139 2016722 2009986 2001836 
3184.179 1993908 1987166 1981932 1978057 1975497 1974500 1975688 1979983 
3188.036 1988051 1999980 2015161 2032258 2049641 2065808 2079674 2090679 
3191.894 2098553 2103058 2103977 2101019 2094407 2085032 2074645 2065846 
3195.751 2061257 2062965 2071748 2086866 2106122 2126612 2145508 2160708 
3199.608 2171252 2177190 2179360 2178740 2176191 2172317 2167395 2161707 
3203.466 2155608 2149475 2143750 2138756 2134678 2131688 2130099 2130355 
3207.323 2133146 2139154 2148684 2161488 2176489 2192058 2206337 2217800 
3211.181 2225614 2229970 2231775 2232413 2233116 2234522 2236524 2238353 
3215.038 2239024 2237801 2234650 2230199 2225768 2222863 2222699 2225859 
3218.896 2232131 2240702 2250404 2260066 2268636 2275593 2280545 2283349 
3222.753 2283962 2282415 2278924 2274043 2268519 2263298 2259259 2256979 
3226.610 2256610 2258023 2260925 2265067 2270548 2277574 2286179 2296039 
3230.468 2306043 2314701 2320369 2321902 2319298 2313818 2307639 2303235 
3234.325 2302489 2306079 2313331 2322537 2331702 2339409 2345069 2349094 
3238.183 2352258 2355326 2358536 2361495 2363681 2364884 2365498 2366637 
3242.040 2369544 2375098 2383002 2391696 2398895 2402236 2400242 2392910 
3245.897 2381923 2369894 2359810 2353870 2353169 2357578 2366072 2377349 
3249.755 2390262 2404078 2418304 2432536 2446215 2458550 2468784 2476257 
3253.612 2480760 2482609 2482396 2480865 2478817 2476791 2475401 2475273 
3257.470 2477188 2481993 2490238 2501958 2516387 2532152 2547308 2560126 
3261.327 2569219 2574177 2575339 2573550 2569747 2564599 2558327 2550941 
3265.185 2542484 2533617 2525565 2520054 2518950 2523432 2533669 2548420 
3269.042 2565260 2581214 2593532 2600304 2601085 2596810 2589443 2581378 
3272.899 2574779 2571172 2571098 2574481 2580495 2588135 2596297 2603954 
3276.757 2610241 2614563 2616684 2616804 2615716 2614574 2614671 2617003 
3280.614 2621883 2628768 2636364 2642999 2647165 2648142 2646093 2642247 
3284.472 2638157 2635439 2634895 2636546 2639594 2642789 2645140 2646315 
3288.329 2646837 2647913 2650966 2657006 2666203 2677603 2689483 2699613 
3292.187 2706111 2707908 2705214 2699326 2692248 2686135 2682468 2681715 
3296.044 2683108 2685104 2685753 2683562 2677943 2669427 2659406 2649683 
3299.901 2642041 2637671 2637098 2640168 2646404 2655060 2665347 2676228 
3303.759 2686400 2694332 2698474 2697651 2691527 2681027 2668092 2655409 
3307.616 2645673 2640878 2641698 2647488 2656619 2666994 2676668 2684468 
3311.474 2689990 2693657 2696420 2699474 2703938 2710855 2720750 2733737 
3315.331 2749092 2765360 2780547 2792390 2798948 2799109 2792846 2781167 
3319.188 2765809 2748767 2731789 2716287 2703271 2693651 2688267 2687883 
3323.046 2692704 2702137 2714402 2726828 2736272 2740240 2737627 2729398 
3326.903 2718168 2707666 2701295 2701327 2707922 2719385 2732629 2744426 
3330.761 2752179 2754726 2752436 2747006 2740787 2736107 2734612 2736977 
3334.618 2742879 2750877 2758923 2764910 2766920 2763928 2756123 2744754 
3338.476 2732041 2720543 2712515 2709288 2711155 2717242 2725959 2735378 
3342.333 2743740 2749746 2752558 2751837 2747672 2740446 2730902 2720012 
3346.190 2708826 2698406 2689598 2682970 2678916 2677641 2679608 2685364 
3350.048 2695383 2709782 2727899 2747911 2767072 2782040 2789834 2788355 
3353.905 2777147 2757361 2731389 2702131 2672394 2644533 2620181 2600582 
3357.763 2586788 2579866 2580701 2589613 2606053 2628245 2653395 2678091 
3361.620 2699123 2714194 2722290 2723827 2720380 2714036 2706919 2700527 
3365.478 2695689 2692486 2690406 2688621 2686393 2683027 2678228 2672063 
3369.335 2665011 2657775 2651332 2646515 2644084 2644428 2647628 2653491 
3373.192 2661392 2670572 2680130 2689053 2696363 2701373 2703650 2703261 
3377.050 2700696 2696658 2691925 2686928 2681736 2675893 2668748 2659731 
3380.907 2648613 2635987 2622743 2610215 2599624 2591757 2586718 2584085 
3384.765 2583118 2583041 2583454 2584210 2585640 2588110 2592065 2597610 
3388.622 2604676 2612933 2621833 2630621 2638303 2643665 2645345 2641980 
3392.479 2632492 2616605 2594948 2569111 2541532 2515152 2492775 2476640 
3396.337 2468044 2467250 2473471 2485156 2500235 2516567 2532058 2545125 
3400.194 2554679 2560372 2562500 2561797 2559350 2556020 2552378 2548575 
3404.052 2544312 2539164 2532810 2525215 2516814 2508320 2500524 2494058 
3407.909 2489232 2485990 2484113 2483189 2482931 2482996 2483163 2483066 
3411.767 2482439 2481158 2479450 2478041 2478081 2480754 2486880 2496368 
3415.624 2507964 2519484 2528395 2532494 2530744 2523487 2512415 2499924 
3419.481 2488283 2479186 2473163 2470100 2469331 2470347 2472771 2476509 
3423.339 2481229 2486146 2490003 2491266 2488627 2481707 2471103 2458441 
3427.196 2445732 2434728 2426285 2420380 2416170 2412618 2409042 2405384 
3431.054 2402014 2399462 2398020 2397514 2397596 2397933 2398674 2400537 
3434.911 2404425 2411124 2420499 2431600 2442485 2451360 2456856 2458938 
3438.769 2458681 2457971 2458351 2460537 2463884 2466478 2465896 2460201 
3442.626 2448498 2431275 2410187 2387647 2366055 2347521 2333621 2325494 
3446.483 2323744 2328465 2339011 2353600 2369563 2383385 2391556 2391344 
3450.341 2381585 2363171 2338934 2312848 2289372 2272316 2264224 2266061 
3454.198 2277149 2295631 2318713 2343108 2365593 2383177 2393704 2395993 
3458.056 2390251 2378023 2361985 2345444 2331589 2322902 2320733 2325039 
3461.913 2334648 2347801 2362556 2377409 2391487 2404660 2416951 2428523 
3465.771 2439072 2447979 2454262 2457020 2456019 2451817 2445897 2440315 
3469.628 2437090 2437499 2441799 2448976 2457266 2464611 2469409 2471062 
3473.485 2469814 2466799 2463327 2460462 2458849 2458582 2459566 2461699 
3477.343 2465027 2469819 2476417 2485079 2495772 2508448 2522889 2538717 
3481.200 2555444 2572118 2587531 2600179 2608616 2612289 2611770 2609077 
3485.058 2607300 2609599 2618151 2633228 2652908 2673866 2692174 2705182 
3488.915 2712158 2714804 2716462 2720840 2730660 2746703 2767616 2790389 
3492.772 2811662 2828593 2839727 2845003 2845525 2842944 2838923 2834806 
3496.630 2831656 2830371 2831599 2835922 2843540 2854339 2867799 2883262 
3500.487 2900018 2917479 2935218 2952656 2968965 2982878 2992782 2997290 
3504.345 2995571 2987990 2975977 2962114 2949114 2939462 2934571 2934596 
3508.202 2938435 2944161 2949437 2951988 2949868 2941735 2926913 2905245 
3512.060 2877467 2844874 2809551 2773943 2740739 2712417 2690813 2676791 
3515.917 2669915 2668562 2669865 2670456 2667098 2657298 2640344 2617396 
3519.774 2591421 2566452 2546330 2533667 2528829 2529959 2533390 2535125 
3523.632 2531864 2522477 2507995 2491030 2474904 2462077 2453508 2448228 
3527.489 2444026 2438243 2428921 2415497 2398710 2380234 2361933 2345054 
3531.347 2329895 2315838 2301827 2286862 2270623 2253562 2237103 2222960 
3535.204 2212984 2208390 2209677 2216148 2226331 2237955 2248692 2256351 
3539.062 2259538 2257704 2251275 2241428 2229592 2217312 2205852 2196009 
3542.919 2188211 2182531 2178767 2176539 2175250 2174331 2173173 2171324 
3546.776 2168640 2165144 2161171 2156851 2152232 2146992 2140724 2133000 
3550.634 2123701 2113277 2102446 2092198 2083295 2075966 2070007 2064774 
3554.491 2059624 2054353 2049022 2044010 2039702 2035871 2031788 2026391 
3558.349 2018603 2008256 1996248 1984452 1975354 1971104 1972817 1980088 
3562.206 1991104 2003175 2013815 2021145 2024732 2025150 2023844 2022191 
3566.063 2021183 2021062 2021311 2021129 2019654 2016393 2011275 2004802 
3569.921 1997608 1990581 1984498 1979841 1976860 1975388 1974840 1974519 
3573.778 1973598 1971561 1968277 1964032 1959450 1955238 1951746 1949008 
3577.636 1946475 1943352 1939123 1933562 1927194 1920909 1915883 1912898 
3581.493 1912146 1912884 1913875 1913567 1910580 1904141 1894179 1881114 
3585.351 1865749 1848891 1831286 1813460 1795993 1779281 1764009 1750670 
3589.208 1739469 1730322 1722628 1715558 1708403 1700873 1693449 1686950 
3593.065 1682592 1680868 1681491 1682884 1682736 1678555 1668725 1653124 
3596.923 1633474 1612798 1594648 1582108 1576647 1578159 1585057 1594946 
3600.780 1605766 1616010 1625077 1632904 1639431 1644319 1646808 1646352 
3604.638 1642783 1637004 1630764 1625997 1624186 1625345 1627832 1628726 
3608.495 1624970 1614555 1597518 1576117 1554483 1537124 1527651 1527552 
3612.353 1535963 1550033 1566236 1581320 1593700 1603193 1611248 1619536 
3616.210 1629570 1641507 1654588 1667128 1677636 1685179 1689924 1693059 
3620.067 1696412 1701561 1709356 1719530 1730884 1741636 1750315 1756023 
3623.925 1758843 1759660 1759797 1760322 1761759 1764132 1766991 1769802 
3627.782 1772554 1775768 1780320 1787160 1796788 1809010 1822867 1837081 
3631.640 1850302 1861689 1870973 1878274 1883883 1888069 1890842 1892361 
3635.497 1893026 1893862 1896381 1902414 1913607 1930563 1952762 1978325 
3639.354 2004462 2028154 2046810 2058739 2063558 2062145 2056293 2048287 
3643.212 2040672 2035610 2034620 2038424 2046707 2058198 2071174 2083751 
3647.069 2094470 2102499 2107835 2110956 2112533 2113009 2112626 2111422 
3650.927 2109666 2108106 2107833 2110171 2116054 2125669 2138243 2152258 
3654.784 2165983 2177871 2187343 2194374 2199504 2203049 2204925 2204429 
3658.642 2200750 2193333 2182460 2169372 2155999 2144246 2135774 2131051 
3662.499 2129831 2131145 2133750 2136418 2137942 2137017 2132104 2121614 
3666.356 2104143 2078915 2046200 2007540 1965508 1923193 1883695 1849621 
3670.214 1823024 1805292 1797262 1799098 1810138 1828542 1851162 1873694 
3674.071 1891381 1900056 1896954 1881763 1856354 1824203 1789438 1755682 
3677.929 1725373 1699829 1679591 1664660 1654850 1649917 1649135 1651249 
3681.786 1654485 1656821 1656706 1653371 1647090 1639104 1630907 1623683 
3685.644 1617814 1612598 1606726 1598447 1586551 1570519 1550807 1528945 
3689.501 1506797 1486435 1469365 1456279 1446818 1439749 1433395 1426262 
3693.358 1417794 1408522 1400149 1394663 1393499 1396472 1401522 1404917 
3697.216 1402617 1391714 1371776 1345286 1317063 1292718 1276920 1271933 
3701.073 1277142 1289707 1305665 1321555 1335173 1345938 1353972 1359545 
3704.931 1362383 1361718 1356769 1347522 1335103 1321678 1309824 1301770 
3708.788 1298359 1299345 1303380 1308928 1314924 1321008 1327540 1334905 
3712.646 1343326 1352681 1362534 1372764 1383381 1394672 1406637 1418395 
3716.503 1428144 1433113 1430826 1419690 1400002 1374049 1345632 1318890 
3720.360 1297328 1282982 1276151 1276056 1281094 1289714 1300625 1312509 
3724.218 1324111 1334075 1341217 1344888 1345323 1343754 1341923 1341350 
3728.075 1342931 1346330 1350379 1353793 1355663 1356200 1356500 1357972 
3731.933 1361663 1367526 1374313 1380079 1382852 1381621 1376546 1368798 
3735.790 1359950 1351338 1343236 1335244 1326477 1316184 1304691 1293320 
3739.647 1284258 1279915 1282266 1291976 1308437 1329554 1352455 1373864 
3743.505 1391153 1402930 1409305 1411952 1413573 1416747 1423190 1432766 
3747.362 1443534 1452264 1455458 1450683 1437623 1418394 1397007 1377898 
3751.220 1364627 1358498 1358346 1361141 1363197 1361516 1355019 1344393 
3755.077 1331909 1320289 1311727 1307353 1307095 1309960 1314672 1320126 
3758.935 1325681 1331150 1336533 1341893 1347077 1351774 1355604 1358178 
3762.792 1359207 1358577 1356513 1353580 1350748 1349286 1350641 1355972 
3766.649 1365823 1379893 1396838 1414772 1431364 1444711 1453666 1457922 
3770.507 1457983 1454741 1449190 1441975 1433447 1423706 1412917 1401646 
3774.364 1390676 1381243 1374570 1371668 1373092 1378479 1386908 1396616 
3778.222 1405669 1412188 1414667 1412548 1406059 1396106 1384004 1370876 
3782.079 1357393 1343527 1328877 1312972 1295979 1278843 1263500 1252363 
3785.937 1247555 1250305 1260300 1275661 1293353 1309888 1322392 1328939 
3789.794 1329501 1325189 1318280 1311256 1306269 1304599 1306550 1311479 
3793.651 1318234 1325346 1331636 1336166 1338529 1338775 1337246 1334460 
3797.509 1331154 1328000 1325707 1324937 1326120 1329220 1333768 1338520 
3801.366 1341801 1341945 1337696 1328797 1316174 1302025 1289258 1280796 
3805.224 1278976 1284831 1297893 1316147 1336697 1356172 1371788 1381543 
3809.081 1384721 1381765 1374112 1363720 1352919 1343720 1337613 1335312 
3812.938 1336767 1341317 1347920 1355506 1363285 1370633 1377282 1382862 
3816.796 1386977 1389104 1388705 1385551 1380023 1372912 1365570 1359323 
3820.653 1355270 1353756 1354451 1356332 1358138 1358692 1357280 1353529 
3824.511 1347620 1339881 1331119 1322125 1313973 1307711 1304131 1303528 
3828.368 1305431 1308728 1311872 1313470 1312765 1310219 1307249 1305891 
3832.226 1308154 1315076 1326353 1340233 1354066 1365046 1371226 1371847 
3836.083 1367804 1361055 1354280 1349682 1348633 1351123 1355973 1361056 
3839.940 1364331 1364220 1360414 1353810 1346640 1341624 1341279 1346954 
3843.798 1358357 1373282 1388173 1398972 1402077 1395326 1378718 1354230 
3847.655 1325357 1296650 1272296 1255764 1249033 1252338 1264411 1282555 
3851.513 1303253 1322710 1337749 1346177 1347465 1342730 1334428 1325712 
3855.370 1319517 1317918 1321766 1330548 1342772 1356314 1368907 1378436 
3859.228 1383353 1382816 1376890 1366564 1353684 1340543 1329514 1322328 
3863.085 1319823 1321536 1326139 1331764 1336732 1340074 1341597 1341752 
3866.942 1341376 1341092 1341220 1341891 1343183 1345198 1348261 1352293 
3870.800 1356793 1360298 1360946 1356731 1346656 1331133 1312310 1293458 
3874.657 1278148 1268876 1266369 1269477 1275795 1282697 1288423 1292415 
3878.515 1295567 1299160 1304296 1311181 1319067 1326773 1333354 1338575 
3882.372 1343137 1348128 1354287 1361667 1369206 1375163 1377929 1376543 
3886.229 1371326 1363980 1356619 1351464 1349865 1352228 1357812 1365125 
3890.087 1372441 1377991 1380228 1378111 1370976 1358860 1342477 1323388 
3893.944 1303646 1285579 1271254 1262036 1258369 1259578 1264482 1271390 
3897.802 1278808 1285707 1291372 1295606 1298527 1300627 1302416 1304752 
3901.659 1308418 1314038 1321772 1331306 1341586 1351295 1358921 1363184 
3905.517 1363496 1359855 1352756 1343307 1332734 1322263 1313043 1306066 
3909.374 1301946 1300906 1302698 1306554 1311403 1316084 1319656 1321347 
3913.231 1320948 1318562 1314477 1309176 1303220 1297341 1292454 1289501 
3917.089 1289202 1291532 1295628 1299895 1302240 1300922 1295219 1285929 
3920.946 1275184 1266008 1261150 1262391 1269853 1282149 1297056 1312322 
3924.804 1326322 1338438 1348697 1357307 1364175 1368605 1369875 1367485 
3928.661 1361801 1354318 1347057 1341894 1339735 1340122 1341495 1341790 
3932.519 1339710 1335369 1330489 1327763 1329830 1337969 1351629 1368317 
3936.376 1384538 1396884 1403263 1403527 1399134 1392687 1386673 1382619 
3940.233 1380906 1380654 1380389 1378688 1374788 1368597 1360876 1352666 
3944.091 1345114 1339166 1335431 1334316 1335797 1339571 1344967 1351037 
3947.948 1356567 1360412 1361673 1359979 1355700 1349758 1343577 1338674 
3951.806 1336515 1337906 1343058 1351406 1361751 1372244 1381181 1386911 
3955.663 1388705 1386694 1382066 1376816 1373151 1372987 1377213 1385341 
3959.521 1395667 1405717 1412662 1414382 1409658 1398832 1383492 1366110 
3963.378 1349614 1336714 1329570 1329388 1336262 1349163 1366108 1384371 
3967.235 1401049 1413598 1420266 1420624 1415625 1407337 1398371 1391141 
3971.093 1387238 1386982 1389432 1392865 1395383 1395552 1392934 1388112 
3974.950 1382611 1378225 1376533 1378506 1384252 1393107 1403972 1415451 
3978.808 1426375 1435734 1442928 1447610 1449781 1449611 1447511 1443895 
3982.665 1439186 1433759 1427544 1420304 1411612 1401054 1388724 1375194 
3986.522 1361994 1351268 1345427 1346402 1355168 1371196 1392373 1415210 
3990.380 1435762 1450389 1456698 1454167 1444178 1429734 1414753 1403011 
3994.237 1397217 1398653 1406682 1419424 1433972 1447444 1457634 1463273 
3998.095 1464465 1462370 1458418 1454451 1451753 1450913 
##END=
