##TITLE=3D-Fillies_PLA-Rainbow_Orange_Filament_r1_ATR-Corrected
##JCAMP-DX=5.01  $$ Nicolet v. 1
##DATATYPE=INFRARED SPECTRUM
##ORIGIN=Curtin University
##OWNER=Nicolet
##LONGDATE=2024/07/18
##TIME=15:55:43
##SPECTROMETER/DATA SYSTEM=Nicolet iS50
##DATA PROCESSING=
Ratio against background
%Transmittance->Absorbance
ATR Correction
Truncated
ElementMultiply or ElementDivide
##COMMENTS=
Number of sample scans: 32
Collection length: 47.26 sec
Sample gain: 1.0
Background collected on: Thu Jul 18 15:54:28 2024 (GMT+08:00);
Number of background scans: 32
Background gain: 1.0
Sample spacing:  1.000
Number of scan points: 16672
Resolution points: 8192
Number of FFT points: 65536
Apodization: N-B strong;
Phase correction: Mertz;
Laser frequency: 15798.3 cm-1
Number of rejected sample scans: 0
Number of rejected background scans: 0
Bench serial number: AUP1200105;
##RESOLUTION=4.000
##XUNITS=1/CM
##YUNITS=ABSORBANCE
##FIRSTX=400.163452
##LASTX=4000.187744
##FIRSTY=0.056148
##MAXX=4000.187744
##MINX=400.163452
##MAXY=0.846402
##MINY=-0.027992
##XFACTOR=1.000000
##YFACTOR=1.000000E-009
##NPOINTS=7468
##DELTAX=0.482125
##ZPD=8192
##XYDATA=(X++(Y..Y))
400.163 56148300 55380420 54561268 53690392 52760736 51787016 50801372 
403.538 49852224 48993084 48269068 47698780 47268288 46929592 46615520 
406.913 46259200 45814624 45268660 44640356 43967692 43289520 42629168 
410.288 41987656 41346844 40682976 39980860 39245932 38506092 37806048 
413.663 37194532 36711096 36374392 36178824 36094800 36075056 36061996 
417.038 35995980 35822620 35501668 35012724 34361264 33578956 32720052 
420.412 31851898 31043386 30350490 29807630 29419672 29165350 29003632 
423.787 28887800 28779426 28660236 28535266 28429914 28376432 28399222 
427.162 28500304 28653028 28806582 28899522 28880050 28724018 28446128 
430.537 28098120 27753208 27483360 27334854 27312956 27385174 27492906 
433.912 27575322 27592136 27536904 27437884 27343794 27304402 27350036 
437.286 27481120 27669570 27870514 28038708 28143148 28174092 28142134 
440.661 28069186 27979562 27890478 27809668 27735850 27663046 27584102 
444.036 27493564 27387920 27266378 27131574 26992176 26864332 26771646 
447.411 26740772 26794034 26939114 27162538 27427526 27679720 27859564 
450.786 27917626 27827214 27591568 27241588 26826786 26400398 26006680 
454.161 25671768 25402224 25189680 25019520 24878060 24758222 24658658 
457.535 24580898 24523684 24479722 24435588 24376140 24290818 24179828 
460.910 24056708 23946004 23875366 23865628 23921140 24023124 24139438 
464.285 24225802 24240662 24157354 23970758 23699342 23377828 23048828 
467.660 22751940 22516576 22358650 22281356 22276798 22329138 22415910 
471.035 22509986 22581970 22605378 22561896 22448716 22280330 22086812 
474.409 21906334 21773844 21710442 21717592 21777732 21861806 21939830 
477.784 21991772 22012698 22012616 22009720 22022358 22060982 22125010 
481.159 22203666 22280726 22339304 22365612 22349696 22285718 22170910 
484.534 22007162 21802978 21576898 21357586 21181264 21084270 21093674 
487.909 21217512 21440588 21725414 22020788 22273874 22443360 22508384 
491.284 22471712 22355946 22195682 22026614 21877710 21765434 21693122 
494.658 21658680 21656110 21681550 21736474 21826666 21959580 22139562 
498.033 22363918 22620432 22887696 23137844 23341128 23471032 23509362 
501.408 23449266 23296674 23069002 22792400 22496390 22208674 21949508 
504.783 21728334 21543260 21384024 21237926 21096204 20959190 20838166 
508.158 20751274 20717158 20745744 20831890 20953308 21075338 21160110 
511.532 21178284 21118530 20990966 20823600 20653538 20514682 20428134 
514.907 20397014 20408476 20439232 20464842 20466540 20435524 20372168 
518.282 20283332 20177058 20059898 19934730 19801254 19656984 19498676 
521.657 19322686 19125916 18905634 18661246 18395700 18117474 17840880 
525.032 17585190 17373926 17227864 17160490 17174116 17257540 17387396 
528.406 17531520 17656252 17733254 17746122 17693760 17590276 17459924 
531.781 17329684 17220836 17142490 17089232 17044038 16984704 16893636 
535.156 16764671 16606271 16439112 16288983 16177794 16116396 16100999 
538.531 16115312 16136073 16140854 16113557 16047742 15945412 15814830 
541.906 15666284 15509654 15353403 15204767 15069910 14954893 14864722 
545.281 14803800 14774716 14779795 14820675 14898350 15011389 15154455 
548.655 15315208 15474468 15608189 15692858 15711639 15660124 15548441 
552.030 15399409 15242672 15106612 15011828 14967763 14972736 15018319 
555.405 15093424 15187464 15293095 15403489 15510016 15601717 15665894 
558.780 15691452 15672198 15610303 15516173 15406884 15301388 15216244 
562.155 15161552 15139759 15145884 15170455 15202127 15231483 15252978 
565.529 15266850 15279162 15299907 15340339 15409082 15508449 15632752 
568.904 15768440 15898345 16006446 16083887 16132401 16164070 16197063 
572.279 16250085 16334981 16453801 16598159 16753547 16904728 17040766 
575.654 17157522 17256022 17339292 17407998 17458670 17484582 17480188 
579.029 17445500 17390084 17332036 17294178 17296522 17348680 17445766 
582.404 17568178 17687022 17772780 17803946 17773646 17691556 17579986 
585.778 17467500 17379676 17332866 17330826 17366350 17425308 17492658 
589.153 17557744 17616792 17672296 17730872 17799008 17880596 17974594 
592.528 18075738 18175724 18264924 18334188 18375628 18383906 18357414 
595.903 18298418 18215620 18123028 18039410 17984514 17975096 18019286 
599.278 18114080 18244642 18387758 18517630 18613110 18663556 18671698 
602.652 18652422 18628440 18623376 18655424 18732522 18850852 18996626 
606.027 19150164 19291478 19405442 19485014 19533514 19563008 19591874 
609.402 19640266 19725866 19860056 20045364 20275210 20535350 20806934 
612.777 21070288 21308518 21510762 21673068 21798840 21897102 21979676 
616.152 22058672 22143562 22239734 22348308 22466518 22590698 22717898 
619.527 22847908 22984550 23134524 23305448 23503830 23732156 23988196 
622.901 24265062 24552268 24837968 25110226 25358812 25576412 25759390 
626.276 25909378 26033646 26145322 26261982 26402144 26580588 26803914 
629.651 27067288 27354342 27641018 27901832 28116476 28275500 28381710 
633.026 28448374 28493510 28534396 28583078 28644802 28719528 28805512 
636.401 28901694 29010456 29136504 29284920 29458780 29656778 29873606 
639.775 30100856 30329444 30551812 30762972 30961092 31146016 31318732 
643.150 31479870 31629536 31767466 31893420 32008420 32116010 32222390 
646.525 32337360 32472652 32640610 32850806 33107572 33407554 33739944 
649.900 34088344 34434544 34762860 35063180 35331956 35571428 35785588 
653.275 35977640 36146948 36289840 36400444 36474208 36509944 36510764 
656.650 36483608 36437704 36383040 36329724 36288088 36269264 36284336 
660.024 36343204 36450984 36605380 36795040 37000668 37199472 37370640 
663.399 37502004 37592688 37653732 37703932 37763728 37849276 37968020 
666.774 38117836 38289428 38470348 38650056 38823556 38992092 39162652 
670.149 39344528 39546104 39771604 40020096 40284792 40555224 40819860 
673.524 41068932 41296840 41503012 41691796 41870716 42047996 42230552 
676.898 42421940 42622140 42828036 43034204 43234664 43424064 43597688 
680.273 43752912 43889040 44007280 44110676 44203584 44291028 44377492 
683.648 44466828 44561516 44664012 44776676 44902708 45046268 45210836 
687.023 45397332 45602492 45818024 46031544 46229608 46401480 46542548 
690.398 46656392 46754300 46852816 46970068 47121984 47319912 47568588 
693.773 47867056 48208924 48583632 48977492 49375364 49762836 50128868 
697.147 50468944 50786836 51095068 51412396 51759892 52155828 52611144 
700.522 53127076 53695216 54299876 54921168 55539308 56136584 56698612 
703.897 57214888 57678600 58086276 58438124 58737784 58991988 59209316 
707.272 59398584 59567404 59720580 59860148 59985892 60096164 60190356 
710.647 60268428 60333244 60390028 60446192 60510656 60592312 60699136 
714.021 60837432 61011400 61224404 61480972 61789384 62164236 62628680 
717.396 63216308 63972080 64954260 66236228 67908728 70081000 72877664 
720.771 76431120 80867440 86287256 92743416 100220936 108622152 117762096 
724.146 127375256 137133840 146675856 155637184 163684352 170541840 
727.039 176011296 179980688 182424112 183393536 183004096 181415488 
729.931 178809872 175371088 171266000 166632192 161573712 156164208 
732.824 150456560 144494864 138325664 132004648 125599760 119188136 
735.717 112851536 106670928 100721824 95070720 89772992 84872048 80398584 
739.091 76370776 72795384 69669200 66981228 64713804 62845192 61349156 
742.466 60195560 59350616 58777760 58439212 58297540 58318544 58472400 
745.841 58734556 59086064 59512888 60004424 60551892 61146984 61780288 
749.216 62440648 63114876 63788928 64449048 65083636 65684192 66246288 
752.591 66768020 67248576 67685904 68075048 68407296 68670808 68851352 
755.966 68934288 68905864 68753776 68468504 68044000 67478560 66776232 
759.340 65947384 65008320 63980164 62885760 61747412 60584048 59410344 
762.715 58237004 57071608 55920224 54787944 53678364 52593268 51531056 
766.090 50487704 49457864 48436960 47423692 46421048 45436316 44478932 
769.465 43558628 42683156 41857436 41083376 40360360 39684804 39050876 
772.840 38448844 37865496 37285556 36694552 36083588 35452752 34813172 
776.214 34184776 33592244 33057596 32594624 32204628 31876572 31589884 
779.589 31320498 31045388 30747146 30414810 30044070 29635198 29191708 
782.964 28719534 28226848 27723784 27222370 26735056 26273130 25845278 
786.339 25456780 25110242 24806528 24547000 24334482 24173028 24066932 
789.714 24017894 24023180 24073496 24152968 24240994 24314992 24354850 
793.089 24346452 24284024 24170286 24015242 23832466 23635734 23436080 
796.463 23240622 23053470 22877680 22717970 22581486 22478182 22417860 
799.838 22407948 22449230 22535188 22651230 22777610 22892038 22974032 
803.213 23009406 22991730 22924302 22819942 22698770 22584920 22500896 
806.588 22462004 22471350 22517870 22578364 22623352 22625608 22568644 
809.963 22451962 22291076 22111992 21942572 21802876 21699358 21623972 
813.337 21558474 21482606 21382070 21253852 21107492 20961242 20837012 
816.712 20753598 20722726 20747246 20822024 20935782 21074164 21222306 
820.087 21367086 21498788 21612860 21710332 21796922 21881470 21972694 
823.462 22076074 22192802 22318898 22447894 22573776 22693148 22806658 
826.837 22918102 23031818 23150798 23274734 23401120 23526492 23649278 
830.212 23770752 23895002 24027154 24171446 24329058 24498874 24677752 
833.586 24863578 25056854 25261246 25482780 25728012 26002744 26310508 
836.961 26652682 27029750 27441068 27886130 28363576 28870784 29403322 
840.336 29955168 30519350 31089378 31660814 32231532 32801886 33374074 
843.711 33951288 34536328 35130376 35732232 36336676 36934224 37511340 
847.086 38052392 38542256 38970204 39333552 39639936 39906336 40157952 
850.460 40423984 40734244 41117080 41598620 42202836 42952388 43867460 
853.835 44964272 46252136 47730988 49390452 51210476 53163796 55219840 
857.210 57346652 59513132 61689092 63846456 65959744 68008704 69980968 
860.585 71873864 73694024 75453464 77164032 78830944 80448576 82000760 
863.960 83464632 84818480 86048208 87153144 88145800 89047880 89883928 
867.335 90674832 91433696 92164824 92864976 93525080 94131280 94663656 
870.709 95094200 95385240 95490504 95359576 94945752 94214280 93149744 
874.084 91758880 90069432 88124432 85975232 83674192 81269032 78800416 
877.459 76301456 73798056 71311344 68858952 66456520 64119400 61863276 
880.834 59704796 57661740 55751524 53990456 52391876 50964752 49712880 
884.209 48634168 47720852 46960500 46337348 45833556 45431476 45115260 
887.583 44872492 44694344 44575388 44512264 44501604 44538608 44615736 
890.958 44723132 44849072 44982180 45112352 45231616 45334252 45415848 
894.333 45472660 45501340 45499640 45466800 45405452 45321744 45224900 
897.708 45125052 45031224 44948668 44877388 44812132 44744044 44663400 
901.083 44562792 44439436 44296808 44144616 43996852 43869028 43774880 
904.458 43723592 43717540 43751968 43815684 43894168 43972472 44038884 
907.832 44087888 44120816 44145896 44175712 44224384 44304228 44423640 
911.207 44585480 44787656 45023872 45285440 45562952 45847176 46130424 
914.582 46407164 46674460 46933092 47187016 47443128 47709316 47992012 
917.957 48293584 48609932 48930416 49239024 49518184 49752864 49934568 
921.332 50063656 50149004 50205824 50251888 50303192 50371308 50462568 
924.706 50578016 50716428 50875316 51053624 51251604 51471440 51715648 
928.081 51987272 52287812 52617696 52974628 53353236 53745328 54139636 
931.456 54524036 54887684 55223288 55529900 55812220 56079280 56340652 
934.831 56601580 56860176 57106244 57323116 57493212 57603820 57652424 
938.206 57648800 57613292 57572068 57549848 57563672 57618912 57709348 
941.581 57820988 57937508 58046508 58143472 58232940 58326580 58439180 
944.955 58584240 58771344 59005044 59286224 59613940 59988180 60410736 
948.330 60884424 61411164 61989608 62613688 63272072 63949944 64631044 
951.705 65299712 65942512 66547340 67101976 67592216 68001240 68309336 
955.080 68496592 68544920 68441192 68178384 67756128 67178736 66455132 
958.455 65597392 64621828 63549572 62407988 61230152 60053204 58914404 
961.829 57846104 56872728 56007448 55253320 54604968 54052772 53586124 
965.204 53195980 52875340 52618420 52419628 52271972 52167628 52098552 
968.579 52058068 52042116 52049860 52083164 52144752 52237000 52359352 
971.954 52508364 52677088 52856708 53038164 53214012 53380940 53539916 
975.329 53696300 53858888 54036788 54237332 54463188 54711848 54976048 
978.703 55245648 55511136 55766372 56009948 56245840 56481072 56723156 
982.078 56977512 57245220 57523396 57806404 58088656 58366488 58640352 
985.453 58913976 59193788 59485788 59794336 60119940 60460284 60809552 
988.828 61162296 61514500 61865372 62218568 62580496 62960336 63366896 
992.203 63807832 64287728 64808144 65367492 65963044 66591708 67251768 
995.578 67943808 68670728 69436952 70247520 71106304 72014240 72969208 
998.952 73964632 74991096 76036576 77088896 78137424 79175080 80199576 
1002.327 81214968 82231488 83265592 84338456 85474192 86698192 88034672 
1005.702 89505016 91126544 92912584 94873512 97018224 99357376 101904688 
1009.077 104680232 107711000 111031800 114685760 118721936 123193904 
1011.970 128154352 133646952 139695264 146288128 153363920 160798304 
1014.862 168398000 175906960 183025792 189445088 194887328 199149408 
1017.755 202134784 203868096 204489568 204227216 203361280 202184000 
1020.648 200965248 199928928 199240848 199006960 199278688 200062224 
1023.540 201330256 203033888 205113728 207509968 210168896 213048704 
1026.433 216120512 219367632 222784032 226371024 230135856 234088768 
1029.326 238241968 242608528 247199712 252023008 257080736 262368048 
1032.219 267873376 273579424 279464544 285504128 291671488 297936224 
1035.113 304263264 310611360 316930880 323166240 329256032 335136768 
1038.006 340746496 346027904 350930880 355414112 359445184 363000064 
1040.899 366061696 368618048 370660320 372181888 373176992 373641376 
1043.792 373572960 372973728 371851680 370223968 368118784 365576608 
1046.685 362649024 359399200 355896608 352214112 348423296 344590592 
1049.578 340774624 337023360 333373664 329852544 326476800 323254272 
1052.471 320186560 317268864 314492096 311845056 309315552 306893216 
1055.364 304572800 302356992 300259904 298308768 296543936 295018624 
1058.257 293795520 292942688 292530720 292628928 293302400 294610912 
1061.150 296607200 299335552 302832160 307124192 312230560 318162880 
1064.043 324925440 332515808 340924768 350133952 360116096 370834784 
1066.936 382246240 394303040 406958432 420170016 433900576 448116256 
1069.829 462782496 477857568 493288896 509011104 524949792 541028480 
1072.722 557176832 573337536 589468800 605540032 621523520 637383552 
1075.615 653068352 668507840 683617216 698308160 712497920 726119936 
1078.509 739124032 751472000 763128128 774049216 784178752 793442816 
1081.402 801755008 809020544 815144384 820036544 823621248 825845312 
1084.295 826685312 826155328 824307968 821227968 817022656 811808128 
1087.188 805700928 798813504 791255232 783137472 774574592 765680512 
1090.081 756560000 747297920 737951360 728549056 719099136 709600576 
1092.974 700056000 690479680 680897856 671341184 661838144 652404416 
1095.867 643040704 633733888 624460608 615193856 605906816 596575744 
1098.760 587180864 577706240 568141504 558482752 548733056 538901120 
1101.653 529000352 519044640 509048000 499024384 488990432 478969856 
1104.546 468997376 459121088 449402752 439914816 430737600 421955456 
1107.439 413653856 405915424 398815936 392420384 386778368 381919264 
1110.332 377851968 374565024 372030048 370206816 369046656 368495136 
1113.225 368492096 368970144 369853952 371061184 372506656 374108864 
1116.118 375798752 377526016 379262688 381001504 382750208 384524032 
1119.011 386338496 388203520 390122144 392091616 394105312 396154400 
1121.905 398228768 400314720 402392448 404431712 406390592 408215040 
1124.798 409840928 411199840 412222976 412850112 413033440 412742272 
1127.691 411964288 410704032 408978368 406812448 404233344 401265632 
1130.584 397928288 394233440 390186336 385786176 381028640 375907584 
1133.477 370418496 364560064 358336704 351758336 344839200 337596960 
1136.370 330050368 322219296 314125824 305798624 297276064 288609312 
1139.263 279861504 271105728 262419344 253877872 245549968 237494960 
1142.156 229761888 222390512 215412544 208851776 202725088 197041680 
1145.049 191804416 187012000 182661744 178752176 175284736 172263376 
1147.942 169690544 167564352 165874544 164600992 163715088 163183440 
1150.835 162972368 163052832 163400704 163997664 164826464 165868688 
1153.728 167101344 168497008 170026352 171661744 173381088 175170224 
1156.621 177022816 178938160 180917264 182960368 185064416 187223664 
1159.514 189431728 191684432 193982272 196332032 198746480 201242928 
1162.407 203841264 206562208 209425792 212452576 215663744 219083984 
1165.301 222741872 226671936 230913584 235511312 240513408 245971472 
1168.194 251939984 258477088 265644256 273506432 282130464 291582144 
1171.087 301923200 313206624 325473696 338749536 353041216 368334816 
1173.980 384590880 401739264 419671424 438233984 457221824 476377440 
1176.873 495393152 513922272 531593728 548031232 562873536 575794368 
1179.766 586520768 594851328 600669120 603950144 604763264 603259904 
1182.659 599655168 594204352 587181120 578861120 569511424 559386368 
1185.552 548722944 537737728 526619680 515525568 504575552 493855520 
1188.445 483423680 473319328 463573472 454215264 445273536 436776448 
1191.338 428746080 421195776 414128096 407536608 401407584 395725472 
1194.231 390473696 385636480 381198240 377143040 373453728 370112768 
1197.124 367102176 364405120 362006144 359890688 358044928 356455040 
1200.017 355107072 353986624 353078720 352367104 351832768 351453248 
1202.910 351201408 351046272 350954208 350892768 350831968 350746080 
1205.803 350613280 350413824 350129056 349739424 349225120 348567296 
1208.697 347749824 346760224 345589920 344233216 342685792 340944960 
1211.590 339009824 336882944 334571648 332088640 329450400 326675360 
1214.483 323780832 320782560 317694784 314531968 311310464 308050208 
1217.376 304772960 301501408 298255392 295051360 291901472 288814752 
1220.269 285798496 282859264 280002816 277232480 274548640 271948288 
1223.162 269426336 266977632 264598848 262291168 260058128 257904912 
1226.055 255835232 253849024 251942160 250107520 248336672 246622944 
1228.948 244962848 243357056 241810672 240332576 238935440 237635280 
1231.841 236451184 235403040 234510432 233788704 233247824 232891328 
1234.734 232717168 232721504 232900320 233252304 233778608 234481696 
1237.627 235362016 236416320 237635376 239004432 240504336 242113952 
1240.520 243810928 245573008 247377344 249200480 251017536 252803264 
1243.413 254531776 256177808 257716720 259124576 260378592 261459792 
1246.306 262355152 263062032 263590752 263964528 264217408 264388592 
1249.199 264515488 264629936 264755184 264906800 265096368 265334848 
1252.093 265633456 266003728 266454128 266987856 267600416 268281616 
1254.986 269017984 269798400 270616928 271473664 272374528 273327648 
1257.879 274339936 275415424 276554016 277752736 279005728 280305600 
1260.772 281642560 283003872 284373696 285733696 287064672 288346752 
1263.665 289560768 290686464 291700768 292575776 293278464 293772544 
1266.558 294021088 293991232 293656064 292996800 292001440 290663456 
1269.451 288979776 286951488 284584032 281889376 278885600 275597728 
1272.344 272053664 268282448 264311248 260165296 255867184 251438944 
1275.237 246903712 242285952 237610528 232901312 228180192 223464976 
1278.130 218770032 214106368 209483472 204910656 200398128 195957888 
1281.023 191604544 187354384 183224384 179231040 175388320 171705232 
1283.916 168185120 164825280 161618784 158556976 155632752 152842944 
1286.809 150189600 147679280 145320848 143122400 141088848 139219584 
1289.702 137508800 135946640 134520480 133217576 132025344 130933064 
1292.595 129931152 129011584 128167032 127391296 126679376 126026120 
1295.489 125427160 124876976 124369184 123896616 123452056 123029616 
1298.382 122626472 122243432 121885456 121559920 121274384 121034192 
1301.275 120839960 120686104 120561976 120452680 120341912 120214808 
1304.168 120059832 119870112 119642936 119378088 119076344 118737424 
1307.061 118358832 117936616 117466168 116944392 116370960 115749368 
1309.954 115084952 114383536 113648688 112879760 112072120 111218816 
1312.847 110314176 109357360 108355216 107322944 106282240 105257992 
1315.740 104273096 103344952 102483080 101688520 100955432 100274112 
1318.633 99633784 99024584 98438984 97872080 97321048 96784264 96261952 
1322.008 95755232 95266472 94799248 94358200 93947824 93572216 93234024 
1325.384 92935040 92675872 92456744 92278912 92144456 92057728 92024536 
1328.759 92052208 92149160 92323848 92585080 92940744 93397576 93959976 
1332.134 94629496 95403872 96276280 97235856 98267848 99355096 100478760 
1335.509 101620648 102763944 103893416 104996104 106060288 107075216 
1338.402 108030816 108919088 109735040 110478864 111157112 111782656 
1341.295 112373640 112950320 113532584 114137776 114778800 115465704 
1344.188 116206576 117009304 117883024 118837336 119881424 121021696 
1347.082 122260936 123596688 125022400 126528800 128105312 129740880 
1349.975 131424832 133146304 134892656 136649616 138400752 140128080 
1352.868 141812544 143435328 144978384 146425088 147761744 148977648 
1355.761 150066096 151025072 151856496 152565664 153159632 153646128 
1358.654 154033504 154330176 154546016 154692816 154784032 154834784 
1361.547 154859680 154871040 154876672 154878976 154873616 154850832 
1364.440 154795488 154688160 154507360 154229216 153829760 153285216 
1367.333 152574016 151676960 150579904 149274944 147764352 146062816 
1370.226 144201952 142233152 140228032 138276704 136482288 134953472 
1373.119 133794128 133093640 132917944 133303624 134255168 135745568 
1376.012 137721168 140105888 142807936 145725392 148750432 151774576 
1378.905 154692256 157404576 159822688 161870384 163484736 164618320 
1381.798 165238432 165328656 164887488 163926976 162470000 160546528 
1384.691 158192016 155446288 152353440 148963696 145333120 141520992 
1387.584 137586176 133581040 129546792 125511856 121492040 117494920 
1390.478 113525416 109589240 105697312 101866376 98118552 94479792 90978064 
1393.853 87640488 84491576 81550288 78828256 76328936 74048344 71976392 
1397.228 70100784 68409800 66894532 65550164 64375596 63371824 62540776 
1400.603 61884284 61404444 61104176 60988292 61063052 61334300 61805640 
1403.979 62473420 63324236 64332276 65458292 66651216 67850728 68990144 
1407.354 69999928 70812352 71365112 71605688 71498152 71026488 70199408 
1410.729 69049608 67631680 66014624 64273716 62481568 60700976 58981264 
1414.104 57357548 55852276 54477916 53239536 52136504 51163468 50309852 
1417.479 49561664 48902720 48317752 47795052 47328824 46919436 46572184 
1420.855 46293556 46088072 45955452 45889004 45876424 45901372 45946840 
1424.230 45997172 46041220 46073644 46095028 46112300 46136948 46184172 
1427.605 46270668 46413820 46629896 46934000 47339028 47856320 48494620 
1430.980 49260260 50156188 51181852 52333628 53607252 55000088 56513728 
1434.356 58155680 59937928 61876600 63987204 66283092 68775720 71475472 
1437.731 74395816 77555032 80976624 84686368 88706608 93049976 97714240 
1441.106 102681624 107918904 113382808 119022792 124784328 130608920 
1443.999 136434960 142196960 147827456 153259568 158430976 163285856 
1446.892 167778320 171872992 175545888 178785856 181593040 183977120 
1449.785 185954256 187541552 188753632 189600160 190085744 190212720 
1452.678 189982448 189397456 188460064 187170944 185526960 183522592 
1455.572 181152288 178415488 175320160 171884256 168133152 164096928 
1458.465 159804832 155285408 150567216 145682016 140667392 135565824 
1461.358 130422128 125278664 120171416 115128176 110170264 105314528 
1464.251 100577000 95974312 91523960 87243832 83151144 79262472 75593440 
1467.626 72158128 68967272 66025844 63330740 60869972 58624748 56572292 
1471.001 54690916 52961968 51371656 49908584 48561320 47315764 46154640 
1474.376 45059564 44013692 43004844 42026772 41077904 40158504 39268568 
1477.752 38405708 37565248 36742736 35935324 35143448 34370204 33619320 
1481.127 32893070 32189942 31505860 30835838 30175974 29526510 28891688 
1484.502 28279346 27697756 27153852 26651262 26190538 25769598 25384890 
1487.877 25032048 24706788 24403612 24116468 23839302 23568178 23302006 
1491.253 23045092 22805420 22594250 22421974 22296068 22218150 22184232 
1494.628 22185550 22211364 22252424 22303150 22363246 22439146 22542166 
1498.003 22688124 22895244 23181082 23560556 24042262 24625440 25297896 
1501.378 26034510 26798746 27545756 28226948 28794782 29208432 29437524 
1504.754 29465004 29288840 28922668 28393208 27738114 27000782 26225446 
1508.129 25452884 24717138 24043016 23447386 22937670 22514064 22170312 
1511.504 21895436 21675126 21495142 21342064 21206274 21081770 20966530 
1514.879 20861338 20767856 20687804 20621336 20567176 20522886 20486194 
1518.255 20455238 20430172 20412000 20402844 20404226 20416256 20436662 
1521.630 20460712 20481398 20491268 20483548 20454316 20403084 20333956 
1525.005 20254782 20175780 20107882 20060072 20037310 20039830 20062854 
1528.380 20097472 20132582 20156900 20160954 20138670 20088450 20014094 
1531.756 19924166 19830792 19748146 19689264 19663372 19673480 19715226 
1535.131 19777582 19846218 19905830 19944546 19955790 19940108 19903836 
1538.506 19857610 19812934 19780368 19767012 19775726 19805998 19854124 
1541.881 19914854 19981576 20046706 20102080 20139720 20152598 20135054 
1545.257 20084252 20000552 19887204 19749730 19594782 19429798 19260896 
1548.632 19094360 18935310 18787918 18655830 18541112 18444932 18366982 
1552.007 18305528 18258204 18222110 18194720 18173600 18157866 18147092 
1555.382 18141710 18141824 18147552 18157838 18171198 18185732 18200430 
1558.758 18215664 18233558 18257248 18290506 18335152 18390614 18453238 
1562.133 18518080 18579450 18633356 18678938 18718520 18756424 18797224 
1565.508 18843812 18896824 18954196 19013526 19072994 19133520 19198356 
1568.883 19272436 19360412 19465258 19588066 19728426 19885406 20059944 
1572.259 20253888 20470386 20711208 20975156 21257546 21549748 21840624 
1575.634 22118964 22374478 22598812 22785266 22927178 23018208 23052124 
1579.009 23024916 22935778 22789666 22596842 22371268 22128532 21882380 
1582.384 21643686 21419860 21215720 21035274 20881328 20756218 20659638 
1585.760 20587964 20533842 20488956 20445344 20398452 20348276 20298888 
1589.135 20255710 20223400 20202844 20191874 20186054 20181094 20175476 
1592.510 20169362 20165526 20166192 20171262 20178996 20186618 20193048 
1595.885 20200840 20216580 20249162 20306990 20394352 20510510 20649948 
1599.260 20806036 20974100 21154708 21353730 21580940 21845474 22152462 
1602.636 22500072 22879832 23278144 23680876 24075868 24455390 24816650 
1606.011 25160754 25490650 25809066 26116588 26411412 26688030 26938374 
1609.386 27151974 27318610 27429160 27478954 27469188 27406924 27303974 
1612.761 27174362 27030532 26880746 26729022 26574064 26413274 26244196 
1616.137 26066942 25884796 25703696 25530758 25374106 25240344 25135832 
1619.512 25064352 25027096 25021188 25038430 25065806 25087794 25089684 
1622.887 25062704 25006006 24928256 24844502 24771692 24723828 24707956 
1626.262 24723542 24764030 24820284 24884392 24950944 25018260 25085504 
1629.638 25152232 25216314 25274382 25323302 25361882 25391348 25416002 
1633.013 25441122 25471744 25511192 25561384 25622278 25693936 25775528 
1636.388 25866510 25964740 26066252 26164846 26252974 26323410 26370548 
1639.763 26392228 26389274 26365498 26326410 26277482 26224574 26172984 
1643.139 26128428 26095934 26080704 26086714 26116640 26171006 26249616 
1646.514 26351200 26474598 26617288 26775442 26942336 27108054 27260330 
1649.889 27387728 27481808 27540878 27570754 27584094 27597776 27628478 
1653.264 27687148 27777972 27897458 28037774 28190456 28349014 28512030 
1656.640 28682024 28864094 29064034 29286330 29532984 29802764 30092226 
1660.015 30396018 30708488 31024014 31338640 31649954 31957764 32263402 
1663.390 32570134 32881432 33201054 33532892 33879748 34244204 34627688 
1666.765 35030356 35451508 35889508 36341600 36805392 37279392 37763224 
1670.141 38257148 38761828 39275668 39794756 40313508 40825228 41324792 
1673.516 41810508 42285344 42755976 43230992 43718068 44221476 44741976 
1676.891 45277020 45822624 46375788 46935600 47502784 48078852 48665136 
1680.266 49262140 49869196 50485360 51110800 51746972 52394932 53056332 
1683.642 53731276 54418280 55116128 55824416 56544924 57282332 58042276 
1687.017 58830956 59652564 60509272 61401808 62330244 63296640 64304888 
1690.392 65361448 66474052 67651024 68901160 70233336 71657832 73185944 
1693.767 74831080 76605144 78518320 80576912 82785712 85150936 87684568 
1697.143 90409992 93361296 96583832 100126680 104035712 108348432 113090432 
1700.518 118279568 123932440 130074472 136747504 144011296 151941328 
1703.411 160619856 170126464 180530432 191885344 204226272 217570464 
1706.304 231915872 247238256 263489488 280596320 298461984 316975136 
1709.197 336018944 355477632 375235776 395167712 415123264 434913248 
1712.090 454306272 473039904 490840864 507452800 522660064 536305248 
1714.983 548296640 558613696 567307520 574498880 580367872 585130880 
1717.876 589011840 592208256 594869504 597087680 598907904 600343744 
1720.769 601397696 602070656 602366720 602291392 601852352 601063232 
1723.662 599952896 598571072 596989504 595290944 593552320 591828032 
1726.555 590140672 588483712 586835584 585177088 583504384 581833216 
1729.448 580191616 578607296 577098432 575672000 574330240 573082240 
1732.342 571952192 570982720 570226304 569735616 569554816 569716800 
1735.235 570252480 571201024 572623104 574600512 577229504 580606848 
1738.128 584812800 589901376 595898496 602809088 610627264 619344768 
1741.021 628952384 639433472 650753536 662852544 675642432 689012992 
1743.914 702837184 716976448 731278272 745568768 759646848 773286528 
1746.807 786248832 798305920 809262720 818969856 827322304 834244224 
1749.700 839672000 843543680 845801024 846401664 845331392 842605056 
1752.593 838259264 832333440 824855744 815841536 805303424 793274560 
1755.486 779827584 765083008 749202496 732371264 714774848 696583680 
1758.379 677947520 658999296 639863104 620660288 601511488 582532800 
1761.272 563831296 545500608 527619360 510251392 493446720 477241056 
1764.165 461656224 446699392 432364992 418639232 405504512 392944960 
1767.058 380947136 369497920 358579328 348165920 338219808 328695872 
1769.951 319546848 310730976 302217152 293986048 286025376 278323072 
1772.844 270859872 263604944 256518208 249553616 242666880 235821248 
1775.738 228990288 222158224 215317392 208466880 201609136 194750512 
1778.631 187900848 181072416 174280272 167539184 160864224 154270544 
1781.524 147775280 141400688 135177088 129139336 123324992 117766216 
1784.417 112482712 107476312 102731336 98221304 93917856 89801304 85868096 
1787.792 82129656 78608784 75327608 72300368 69525312 66984036 64646916 
1791.167 62479244 60448208 58529304 56708128 54978780 53343324 51807100 
1794.542 50377512 49060152 47857864 46768472 45783732 44891044 44075156 
1797.918 43320600 42616596 41956432 41337104 40756388 40209464 39686988 
1801.293 39177344 38668696 38154404 37635740 37122604 36628948 36168584 
1804.668 35748112 35365196 35008284 34659920 34302584 33923280 33515766 
1808.043 33081702 32628666 32168466 31714794 31281926 30882074 30523938 
1811.419 30209628 29932252 29675968 29419136 29138558 28817604 28452290 
1814.794 28052940 27644736 27260386 26931498 26681708 26519344 26436820 
1818.169 26412998 26419318 26426446 26408954 26348672 26235546 26067870 
1821.544 25850690 25596542 25324134 25055478 24812586 24613712 24468082 
1824.920 24373840 24316980 24274560 24218576 24122760 23966870 23741594 
1828.295 23450192 23106154 22730778 22347838 21977600 21633708 21319950 
1831.670 21032134 20761720 20499416 20240114 19984874 19740980 19518526 
1835.045 19326974 19171374 19050486 18956094 18874504 18790322 18688334 
1838.421 18557438 18392268 18194810 17974786 17748850 17537012 17357102 
1841.796 17219660 17122514 17048592 16969208 16851922 16669640 16411941 
1845.171 16089257 15732357 15385035 15092419 14889594 14794394 14804678 
1848.546 14901191 15054192 15231092 15402308 15544017 15638795 15675895 
1851.922 15649194 15558277 15406867 15204531 14964844 14704832 14442766 
1855.297 14197289 13985670 13822735 13718941 13678879 13699147 13766327 
1858.672 13858103 13947931 14008596 14018060 13964114 13844964 13667618 
1862.047 13444110 13187241 12911255 12629891 12359452 12119878 11932861 
1865.423 11817344 11783827 11828221 11931391 12062569 12185855 12271701 
1868.798 12305042 12288094 12238874 12182712 12144389 12138080 12163931 
1872.173 12207363 12245087 12251138 12205074 12098293 11935945 11738434 
1875.548 11536585 11365756 11258289 11236969 11308288 11461930 11672558 
1878.924 11904950 12122924 12295286 12402109 12436037 12401695 12311760 
1882.299 12183743 12036940 11887873 11750152 11633723 11542900 11476299 
1885.674 11428676 11392688 11362071 11335305 11315119 11308813 11321598 
1889.049 11353488 11395617 11431163 11437952 11398495 11306471 11171008 
1892.425 11018086 10882719 10799550 10791301 10861905 10993437 11149752 
1895.800 11287770 11367843 11366211 11282106 11139778 10981660 10858995 
1899.175 10816676 10882748 11059301 11320945 11620493 11900865 12107605 
1902.550 12200681 12162372 11998998 11736836 11415572 11080070 10773573 
1905.926 10532267 10378468 10321341 10353130 10451956 10587472 10725830 
1909.301 10842489 10925815 10979943 11020758 11065893 11124532 11189111 
1912.676 11235610 11231117 11148156 10972681 10714708 10405669 10088432 
1916.051 9803271 9577995 9421207 9325530 9275116 9252124 9243906 9241920 
1919.909 9239032 9226426 9193671 9130972 9034131 8907832 8765329 8623808 
1923.766 8497049 8390274 8301363 8225493 8163767 8128690 8144133 8235926 
1927.624 8419892 8688868 9010248 9331652 9594681 9753756 9791721 9719923 
1931.481 9576112 9405261 9248278 9127825 9047860 8995519 8950343 8894651 
1935.338 8817161 8717928 8608093 8508718 8445481 8443044 8514099 8656255 
1939.196 8841941 9025159 9151124 9175629 9082988 8897855 8682376 8521977 
1943.053 8497169 8658201 9011432 9517175 10102508 10683310 11189137 11569650 
1946.911 11797111 11858920 11751648 11477390 11048948 10496587 9875356 
1950.286 9259765 8732865 8364939 8195786 8219168 8385382 8609827 8792905 
1954.143 8844206 8694778 8314944 7720994 6976342 6189858 5497166 5040913 
1958.001 4935984 5235850 5907640 6836402 7846456 8747813 9394797 9721231 
1961.858 9753010 9586998 9352356 9159940 9067028 9059520 9060954 8960720 
1965.716 8656006 8082298 7242702 6214027 5140243 4204428 3591246 3437065 
1969.573 3799127 4621304 5742304 6927664 7926734 8546729 8701904 8441182 
1973.430 7927757 7388595 7047820 7072962 7543613 8450253 9718817 11240940 
1977.288 12894374 14553460 16091192 17388198 18342440 18894732 19036698 
1980.663 18816934 18328998 17685408 16994828 16334932 15743412 15220242 
1984.038 14741939 14277844 13809162 13330757 12853720 12399486 11986928 
1987.414 11634499 11352913 11147827 11018571 10959359 10957208 11000804 
1990.789 11082836 11200470 11354415 11545383 11754821 11940171 12028521 
1994.164 11935966 11587081 10948322 10042794 8958207 7826059 6788539 5963116 
1998.021 5422145 5177622 5197128 5416604 5758435 6141012 6475916 6669701 
2001.879 6634013 6304560 5670910 4797983 3829748 2960604 2384192 2228220 
2005.736 2514224 3142087 3925702 4667338 5241976 5633090 5930687 6273716 
2009.594 6783105 7501783 8371634 9260138 10004677 10463970 10558392 10277851 
2013.451 9674310 8835358 7870664 6893521 6024775 5385677 5083392 5190672 
2017.309 5719939 6601189 7690889 8794487 9712258 10284353 10419487 10106452 
2021.166 9410588 8447564 7361156 6297986 5392117 4735926 4364007 4233671 
2025.023 4225173 4164009 3867620 3206619 2172143 899244 -340921 -1218403 
2028.881 -1432472 -823075 568005 2493102 4560951 6348802 7518460 7908908 
2032.738 7583843 6794282 5906282 5281313 5182268 5707879 6781132 8186908 
2036.596 9641150 10864897 11643643 11870775 11561151 10837635 9902791 
2039.971 8993757 8334555 8085841 8310980 8952643 9853609 10783046 11502965 
2043.828 11831591 11695052 11160326 10423454 9752153 9415973 9604488 
2047.204 10366166 11593170 13045806 14416705 15419666 15863679 15697950 
2050.579 14998123 13929143 12685461 11456779 10394877 9603304 9133969 
2053.954 8987688 9116871 9437673 9842876 10229020 10514507 10659033 10659322 
2057.812 10547084 10368227 10161033 9945100 9721319 9478863 9217391 8956423 
2061.669 8739624 8624732 8658972 8856067 9189021 9592273 9986274 10304153 
2065.526 10516963 10638965 10718983 10814635 10966646 11181741 11430994 
2068.902 11664944 11841399 11943324 11987119 12017724 12088615 12234134 
2072.277 12455408 12712643 12939191 13063353 13035361 12845715 12534009 
2075.652 12174862 11860508 11668852 11642488 11774966 12015597 12285092 
2079.027 12503595 12614433 12600936 12486783 12325762 12179721 12097809 
2082.403 12101172 12181750 12307150 12432700 12516725 12526413 12438808 
2085.778 12239783 11920382 11478262 10921567 10272960 9568860 8856878 
2089.153 8182982 7580140 7062492 6626673 6262645 5969395 5764131 5682993 
2093.010 5767905 6040113 6478603 7009878 7514762 7859635 7935345 7697505 
2096.868 7181159 6494505 5786718 5209550 4874764 4833998 5073915 5529325 
2100.725 6106453 6706932 7247153 7672040 7957669 8112883 8167766 8169285 
2104.583 8163418 8185697 8254231 8368012 8513555 8678075 8859479 9072809 
2108.440 9343523 9692252 10117373 10584820 11025822 11355493 11497835 
2111.815 11413814 11115872 10666325 10154918 9671519 9274406 8974428 8737870 
2115.673 8508553 8233064 7889057 7496298 7115901 6828030 6707324 6794570 
2119.530 7083388 7519854 8012782 8458178 8761633 8855333 8707972 8321283 
2123.388 7724704 6964300 6095629 5179100 4280822 3469330 2810027 2355319 
2127.245 2126800 2104459 2220919 2372162 2442650 2340908 2029389 1542033 
2131.103 979290 476836 161215 102315 288458 624387 963420 1154164 1095288 
2135.442 757640 188262 -516933 -1251537 -1931407 -2505485 -2954331 -3273100 
2139.300 -3462968 -3527314 -3483956 -3368494 -3245541 -3193449 -3285549 
2142.675 -3566030 -4041067 -4676012 -5423680 -6236162 -7089355 -7977888 
2146.050 -8908794 -9870368 -10830825 -11743792 -12569360 -13295628 -13956430 
2149.425 -14617413 -15351245 -16189944 -17109576 -18031942 -18855790 
2152.318 -19507218 -19982362 -20360444 -20785936 -21412290 -22341290 
2155.211 -23570162 -24986948 -26372654 -27461456 -27992294 -27774142 
2158.104 -26724094 -24899444 -22486650 -19770492 -17061090 -14632788 
2160.998 -12662138 -11197727 -10151510 -9334584 -8507985 -7457729 -6059551 
2164.373 -4330936 -2428820 -613628 838800 1709570 1896244 1426941 437572 
2168.230 -886212 -2356029 -3818770 -5168942 -6335038 -7271442 -7944732 
2171.605 -8329334 -8428049 -8281304 -7972778 -7619511 -7344502 -7242753 
2174.981 -7346545 -7609326 -7919481 -8136594 -8142543 -7878314 -7377580 
2178.356 -6756333 -6187688 -5840791 -5836987 -6195384 -6831314 -7565902 
2181.731 -8184656 -8502236 -8419250 -7944439 -7190769 -6320577 -5500149 
2185.106 -4846057 -4403587 -4159551 -4062080 -4052009 -4083573 -4130812 
2188.482 -4177999 -4206430 -4191107 -4103679 -3930778 -3681416 -3390496 
2191.857 -3108912 -2878322 -2700316 -2532418 -2293213 -1891401 -1257537 
2195.232 -377118 701849 1876414 3018919 3999605 4715486 5098354 5123420 
2199.090 4797379 4167351 3307028 2325845 1354879 527141 -46034 -298994 
2202.947 -234556 85930 555555 1063198 1518503 1878238 2141134 2342439 
2206.804 2526426 2727398 2962543 3234334 3534965 3855884 4185579 4508982 
2210.662 4795460 5006513 5096958 5038536 4831840 4518273 4174691 3895085 
2214.519 3761865 3823320 4074900 4463619 4904181 5300453 5576305 5692456 
2218.377 5653326 5505855 5321596 5180324 5146320 5255888 5505693 5858461 
2222.234 6253156 6627642 6935958 7166491 7342749 7511239 7719142 7994020 
2226.092 8323248 8659578 8931824 9076114 9062506 8907296 8677525 8467007 
2229.949 8368596 8447933 8722025 9160343 9696734 10252488 10756510 11161748 
2233.806 11443604 11597996 11626874 11533750 11320451 10993875 10571819 
2237.182 10092916 9616141 9210959 8941177 8855059 8964350 9246620 9645442 
2241.039 10091035 10514126 10865990 11122985 11289031 11385306 11436197 
2244.414 11461303 11472870 11476464 11479530 11498488 11555794 11677326 
2247.790 11874383 12134912 12419318 12661722 12791602 12752727 12525813 
2251.165 12138671 11662049 11193758 10835744 10668018 10730991 11017757 
2254.540 11480659 12042677 12613810 13107638 13455476 13612715 13562157 
2257.915 13316520 12911229 12401411 11850572 11322535 10871185 10532658 
2261.291 10323113 10238986 10262149 10367294 10529262 10731511 10967262 
2264.666 11239978 11560264 11937015 12371468 12850196 13345650 13818398 
2268.041 14229433 14548585 14761436 14873269 14904452 14880504 14824622 
2271.416 14749771 14662669 14566140 14468050 14382842 14329174 14323650 
2274.792 14369128 14452108 14546378 14623164 14665459 14678366 14689516 
2278.167 14740662 14870001 15096471 15415675 15799973 16214840 16631132 
2281.542 17037460 17435356 17832034 18224868 18594900 18906752 19121448 
2284.917 19213238 19181626 19053416 18873436 18686232 18520986 18382112 
2288.292 18253386 18109640 17932338 17718696 17482688 17247024 17031396 
2291.668 16843986 16681327 16532829 16390858 16259201 16150907 16082680 
2295.043 16064113 16088819 16133329 16164323 16150778 16078124 15951598 
2298.418 15795713 15644427 15529469 15468877 15465617 15510282 15587412 
2301.793 15682397 15784327 15885839 15980894 16062263 16121328 16153181 
2305.169 16157180 16140144 16115876 16098121 16098302 16121089 16162772 
2308.544 16215041 16269043 16318949 16363429 16406061 16452683 16508739 
2311.919 16579624 16667360 16771192 16887472 17008720 17125510 17228782 
2315.294 17314000 17384350 17453246 17540454 17665752 17841764 18068782 
2318.670 18334822 18623198 18921712 19230154 19562644 19937104 20359966 
2322.045 20810432 21232514 21540696 21640956 21457212 20955794 20157480 
2325.420 19136142 18000718 16872614 15861439 15044394 14456963 14093016 
2328.795 13916309 13873733 13909942 13978730 14045750 14090164 14101461 
2332.171 14075855 14018188 13935344 13838909 13740252 13649791 13573649 
2335.546 13515283 13475012 13451828 13445895 13457616 13488336 13537754 
2338.921 13602513 13676489 13751443 13817551 13867096 13893546 13894282 
2342.296 13870473 13826198 13770648 13715866 13675313 13659464 13673694 
2345.672 13713840 13768030 13818303 13847311 13843299 13804582 13739116 
2349.047 13660530 13583888 13519217 13469275 13431233 13401466 13377684 
2352.422 13361713 13358370 13370587 13396083 13424829 13441570 13431515 
2355.797 13384123 13299467 13187253 13062587 12940258 12830232 12733312 
2359.173 12645222 12557182 12462386 12356950 12241191 12115341 11979319 
2362.548 11832256 11673113 11504112 11333565 11175251 11046679 10964168 
2365.923 10937327 10966262 11043636 11155464 11287491 11427602 11567628 
2369.298 11702964 11829240 11940882 12031282 12093187 12121882 12115919 
2372.674 12080281 12023151 11956215 11890128 11834765 11795617 11774766 
2376.049 11769352 11774765 11783847 11790380 11791972 11791416 11796276 
2379.424 11817329 11863830 11939311 12039331 12151851 12261473 12356131 
2382.799 12430861 12490599 12547324 12613591 12696525 12793738 12893478 
2386.175 12981100 13043059 13075008 13081093 13072437 13061373 13056072 
2389.550 13057987 13064549 13071919 13078084 13085295 13097324 13114574 
2392.925 13131187 13136323 13116237 13061761 12973358 12863394 12754200 
2396.300 12669565 12626698 12631169 12676811 12747969 12827206 12901410 
2399.676 12964137 13015616 13059388 13098181 13133606 13164532 13191357 
2403.051 13215858 13243188 13279403 13330316 13399171 13486544 13590268 
2406.426 13706648 13830032 13952268 14062113 14145643 14190059 14188125 
2409.801 14141838 14065428 13982919 13919408 13895309 13917118 13977984 
2413.177 14059619 14140725 14204843 14245714 14265347 14268925 14259926 
2416.552 14235909 14189881 14117699 14022189 13917472 13825473 13766826 
2419.927 13751538 13771908 13803177 13811127 13764529 13647987 13467829 
2423.302 13250795 13034860 12860023 12755075 12733213 12792038 12914034 
2426.677 13073130 13238091 13375285 13452657 13446120 13343724 13151553 
2430.053 12894302 12611748 12347572 12137469 11999854 11932297 11915179 
2433.428 11922431 11933520 11941839 11953831 11986149 12053740 12162354 
2436.803 12304425 12459725 12603583 12714729 12780214 12797300 12772095 
2440.178 12716851 12644480 12569631 12505728 12464806 12455230 12479392 
2443.554 12532235 12600917 12668234 12719595 12747032 12753153 12747956 
2446.929 12746038 12756920 12782991 12817528 12851670 12879006 12902411 
2450.304 12932232 12984584 13070755 13190680 13328191 13455318 13539289 
2453.679 13554797 13490920 13355457 13171366 12969940 12782886 12633841 
2457.055 12536400 12492644 12496165 12534305 12591252 12649542 12693921 
2460.430 12713731 12705581 12675473 12635858 12601435 12583342 12583659 
2463.805 12592235 12591228 12561304 12491697 12384878 12260422 12148743 
2467.180 12081840 12083622 12161159 12302853 12482936 12670157 12835697 
2470.556 12962137 13043229 13082409 13088032 13067530 13023468 12955171 
2473.931 12859806 12736704 12591084 12432233 12275172 12135412 12026572 
2477.306 11955624 11923999 11924411 11945996 11973070 11991019 11989609 
2480.681 11961524 11907492 11834820 11753228 11676100 11614916 11578244 
2484.057 11570508 11591809 11638749 11706523 11790811 11888631 11997414 
2487.432 12115579 12239975 12365679 12485522 12588320 12663454 12701634 
2490.807 12697333 12651433 12571779 12473970 12377802 12305334 12274620 
2494.182 12299563 12382446 12516212 12683010 12859348 13018457 13137448 
2497.558 13200039 13199657 13141035 13036139 12903470 12762468 12631491 
2500.933 12524700 12451998 12418428 12423420 12462219 12523432 12592477 
2504.308 12650304 12679102 12663910 12600917 12495905 12366504 12237654 
2507.683 12135237 12079841 12081069 12136436 12233614 12352454 12473705 
2511.059 12580205 12659983 12704598 12710657 12676792 12608289 12514488 
2514.434 12414335 12330925 12288451 12302776 12375879 12491689 12619706 
2517.809 12722804 12769051 12743550 12654285 12529608 12409713 12332099 
2521.184 12322124 12381853 12493502 12623467 12733450 12790698 12775037 
2524.560 12681348 12519003 12307028 12071577 11842094 11646416 11509004 
2527.935 11446705 11464973 11557758 11706484 11887231 12075362 12251980 
2531.310 12407742 12542202 12660434 12766241 12858936 12932986 12980812 
2534.685 12997303 12986092 12959405 12934323 12924961 12934987 12954205 
2538.061 12959048 12920323 12813751 12631142 12383984 12104535 11836028 
2541.436 11623559 11503127 11495691 11602674 11811229 12095904 12426454 
2544.811 12769338 13094107 13374782 13593202 13740918 13820001 13841934 
2548.186 13824548 13785867 13740414 13695461 13652201 13607470 13559732 
2551.562 13512317 13474816 13459040 13477594 13535548 13631132 13751952 
2554.937 13881655 14000962 14094682 14151040 14164176 14131922 14056997 
2558.312 13945227 13810075 13669910 13549285 13473100 13462243 13525589 
2561.687 13658556 13840926 14043082 14232619 14383621 14480048 14520390 
2565.063 14514510 14479434 14435214 14398732 14382571 14393545 14431324 
2568.438 14490847 14562721 14636096 14702079 14755662 14797963 14836392 
2571.813 14879500 14932989 14995570 15056968 15100066 15108688 15075115 
2575.188 15006335 14924388 14861790 14850472 14912263 15049379 15243714 
2578.563 15462400 15666999 15824212 15913000 15928550 15878791 15781131 
2581.939 15656643 15527258 15415367 15337631 15307775 15328166 15390758 
2585.314 15474916 15553805 15601103 15603059 15563463 15504817 15461018 
2588.689 15463897 15530881 15657047 15817042 15973812 16093209 16158747 
2592.064 16173774 16160836 16148940 16160049 16201068 16263030 16326763 
2595.440 16375257 16403254 16420532 16447414 16503993 16599819 16726611 
2598.815 16860024 16968318 17024104 17015194 16947232 16842856 16730580 
2602.190 16637519 16576372 16546885 16535681 16524475 16496271 16441964 
2605.565 16362235 16266627 16170120 16089085 16037298 16023522 16047871 
2608.941 16103884 16179645 16259477 16329249 16379744 16407436 16417312 
2612.316 16416917 16415294 16418761 16428908 16443010 16457556 16470088 
2615.691 16482268 16498588 16524497 16563173 16614102 16671205 16727280 
2619.066 16775621 16814206 16845760 16877144 16915768 16967280 17031680 
2622.442 17105816 17183858 17259992 17329190 17387814 17431986 17456914 
2625.817 17456672 17426482 17366848 17285108 17197682 17125962 17091002 
2629.192 17107754 17178376 17292552 17429432 17563370 17671956 17740468 
2632.567 17766398 17755916 17722218 17679816 17641388 17615094 17604572 
2635.943 17610546 17631062 17662854 17701582 17742540 17780676 17811896 
2639.318 17834600 17848698 17857640 17866326 17880430 17904764 17942532 
2642.693 17995078 18060900 18137606 18219414 18300636 18372448 18426654 
2646.068 18454336 18450032 18411246 18341420 18248844 18146528 18048728 
2649.444 17968732 17917424 17899368 17912704 17951650 18004180 18057174 
2652.819 18097686 18116246 18107658 18072358 18014798 17942560 17863518 
2656.194 17783906 17706152 17630608 17555220 17478470 17399278 17317828 
2659.569 17235370 17150470 17060450 16958856 16838896 16695103 16525410 
2662.945 16333586 16129367 15925650 15736392 15572779 15441882 15345504 
2666.320 15280873 15243351 15227839 15229337 15243734 15267543 15296469 
2669.695 15327105 15355422 15379176 15398365 15413614 15426980 15439814 
2673.070 15452295 15462800 15468733 15467390 15456706 15438113 15413762 
2676.446 15387153 15361438 15338227 15316538 15294299 15268272 15236663 
2679.821 15198384 15155866 15111979 15071410 15037849 15013455 14998149 
2683.196 14989676 14985615 14983353 14981989 14983241 14989085 15002321 
2686.571 15024311 15052619 15082107 15104752 15113056 15101598 15069192 
2689.947 15020163 14962182 14903999 14854019 14816572 14792486 14778872 
2693.322 14772030 14768348 14765747 14764501 14765246 14769243 14777042 
2696.697 14786742 14797257 14805697 14810244 14809991 14803855 14792548 
2700.072 14778250 14764942 14756158 14756618 14767592 14787002 14807777 
2703.448 14819308 14810248 14772873 14706449 14619216 14526605 14448673 
2706.823 14400950 14393617 14425244 14486857 14563398 14640242 14707570 
2710.198 14761289 14802565 14834307 14859054 14877255 14886456 14885824 
2713.573 14875907 14860881 14846854 14839290 14839919 14846656 14852117 
2716.948 14847004 14823929 14779598 14716193 14640638 14562412 14491740 
2720.324 14437556 14406990 14403704 14429258 14481209 14554094 14639338 
2723.699 14726814 14806370 14872250 14923706 14964755 15001707 15040314 
2727.074 15081501 15121419 15151189 15162383 15149585 15114159 15063787 
2730.449 15011291 14967669 14941169 14933631 14941952 14961092 14986387 
2733.825 15014346 15044149 15074977 15103882 15126193 15137396 15134459 
2737.200 15119953 15100108 15084576 15081351 15093931 15119664 15151563 
2740.575 15182463 15208038 15231504 15261421 15307271 15374861 15461083 
2743.950 15553047 15631970 15678946 15681144 15637076 15555095 15451893 
2747.326 15344786 15248070 15169221 15109255 15066152 15037056 15021882 
2750.701 15021658 15038872 15074932 15128361 15194926 15268542 15344031 
2754.076 15417333 15485396 15547008 15601250 15646163 15679805 15699208 
2757.451 15703341 15690720 15661795 15617116 15557699 15486681 15407955 
2760.827 15327724 15253582 15193138 15150003 15123914 15107916 15093026 
2764.202 15067840 15026964 14971511 14911220 14861672 14839021 14855529 
2767.577 14913634 15005286 15113319 15216573 15295888 15338613 15341470 
2770.952 15310665 15259487 15204567 15161257 15140731 15147364 15179317 
2774.328 15228961 15285143 15336227 15372608 15389160 15386429 15369902 
2777.703 15349641 15336084 15337812 15359966 15402644 15461855 15529670 
2781.078 15598166 15659500 15708808 15744036 15765727 15776772 15780348 
2784.453 15779622 15776183 15770128 15760420 15746500 15727896 15706759 
2787.829 15687020 15674105 15673166 15688138 15719501 15765021 15820108 
2791.204 15879059 15938124 15996557 16056042 16119674 16190838 16270095 
2794.579 16355295 16439782 16515568 16574385 16609555 16618431 16603161 
2797.954 16569654 16527394 16487565 16461732 16459020 16485365 16541632 
2801.330 16623702 16723402 16831242 16938086 17037726 17128174 17209894 
2804.705 17284578 17353538 17415172 17466454 17503698 17526046 17535472 
2808.080 17538862 17544988 17561408 17591430 17633556 17680888 17726350 
2811.455 17764170 17794252 17821980 17855864 17902720 17965202 18039628 
2814.831 18116736 18186112 18241116 18282502 18317652 18359920 18422768 
2818.206 18514548 18635574 18776662 18922940 19057416 19166890 19245268 
2821.581 19295188 19326602 19353748 19392210 19453216 19542000 19656302 
2824.956 19785588 19914736 20026148 20104572 20141898 20137904 20101906 
2828.332 20050282 20001398 19970602 19967050 19990656 20036198 20093958 
2831.707 20156698 20220798 20287876 20363002 20450086 20549420 20655486 
2835.082 20756530 20840226 20895184 20915940 20904678 20871896 20832984 
2838.457 20804960 20804570 20843410 20928196 21060782 21237572 21452566 
2841.833 21698432 21969730 22263522 22580416 22924556 23301078 23713964 
2845.208 24162782 24641446 25137096 25633500 26112052 26556050 26951940 
2848.583 27290006 27564952 27773040 27913906 27990018 28009244 27983636 
2851.958 27930962 27871498 27824398 27803574 27814362 27854174 27914694 
2855.333 27984238 28055548 28124850 28193990 28267698 28350256 28441946 
2858.709 28541040 28642114 28741580 28838078 28936258 29044568 29173798 
2862.084 29333758 29530788 29766588 30038560 30340538 30665634 31006976 
2865.459 31359244 31720384 32090134 32473464 32876250 33305850 33768152 
2868.834 34264772 34791856 35339876 35895368 36445308 36980288 37496252 
2872.210 37995328 38481908 38959600 39427796 39879616 40304684 40692448 
2875.585 41035056 41331872 41588164 41813828 42018904 42208988 42384352 
2878.960 42539776 42665348 42752072 42790928 42777048 42710028 42592792 
2882.335 42431872 42238012 42022972 41799912 41579960 41369460 41170000 
2885.711 40977312 40785584 40590652 40394012 40205336 40041124 39918972 
2889.086 39852512 39847492 39898928 39994164 40117628 40256272 40404072 
2892.461 40560856 40730468 40915520 41113624 41316672 41512888 41690344 
2895.836 41842892 41969908 42076424 42169988 42255736 42335160 42404384 
2899.212 42457832 42491328 42504256 42501576 42490652 42478716 42471560 
2902.587 42472152 42481588 42501284 42536204 42592940 42678756 42798368 
2905.962 42949204 43121620 43300000 43467192 43611020 43727984 43826924 
2909.337 43926300 44050372 44224020 44465480 44784996 45181572 45645932 
2912.713 46163740 46717792 47292692 47875660 48456768 49028692 49585288 
2916.088 50120780 50628204 51099372 51525644 51899524 52215392 52471144 
2919.463 52671080 52823288 52941760 53043848 53148376 53272448 53430380 
2922.838 53630300 53873984 54155680 54464540 54786208 55106944 55416124 
2926.214 55711172 55997280 56286460 56596388 56946164 57350536 57819344 
2929.589 58355852 58957816 59619892 60337180 61107980 61934468 62820740 
2932.964 63772872 64796052 65893368 67065848 68313944 69638424 71041712 
2936.339 72528944 74105728 75776736 77543352 79400272 81335816 83331544 
2939.715 85362752 87401272 89416088 91375128 93247304 95001912 96611824 
2943.090 98053792 99310392 100370664 101230008 101889056 102350856 102618544 
2946.465 102695008 102580728 102279928 101800688 101161192 100389520 
2949.358 99523560 98605232 97673784 96760112 95880952 95038792 94226288 
2952.733 93429312 92636984 91843640 91050880 90267808 89504808 88770992 
2956.109 88069240 87397456 86748232 86112872 85483056 84853888 84224216 
2959.484 83595896 82973120 82360928 81762632 81180832 80615520 80063744 
2962.859 79520928 78980760 78437008 77884864 77321712 76746864 76161240 
2966.234 75565928 74959744 74339688 73701544 73042888 72363784 71669736 
2969.610 70971992 70283776 69619280 68987520 68394096 67836544 67310400 
2972.985 66808364 66328040 65870464 65441400 65049560 64702704 64404412 
2976.360 64154296 63946432 63771488 63621684 63493408 63390604 63323424 
2979.735 63308692 63365696 63511296 63757820 64108340 64559384 65101860 
2983.111 65724992 66421336 67188664 68030552 68953984 69965928 71069472 
2986.486 72260704 73529728 74860048 76232456 77627128 79024760 80406088 
2989.861 81750072 83033632 84231192 85317488 86269848 87072768 87717064 
2993.236 88202016 88531328 88710088 88741160 88627104 88369296 87970944 
2996.612 87439512 86787352 86028880 85176880 84238688 83214240 82098416 
2999.987 80882824 79565376 78153344 76665064 75130112 73582072 72051480 
3003.362 70560048 69115168 67712240 66336156 64969256 63594700 62201316 
3006.737 60784348 59345872 57889984 56426224 54964056 53517608 52102320 
3010.113 50735904 49434732 48209064 47060808 45980288 44947840 43939324 
3013.488 42932092 41912016 40877896 39840456 38819464 37836900 36909556 
3016.863 36045868 35244504 34497368 33794148 33127076 32492034 31888872 
3020.238 31319310 30782712 30273814 29783906 29302928 28823104 28340132 
3023.614 27856468 27378766 26915096 26473636 26058466 25670486 25308566 
3026.989 24969530 24650806 24350462 24066846 23798014 23541422 23295214 
3030.364 23057768 22830604 22617300 22423488 22255688 22117288 22009206 
3033.739 21926240 21858996 21794488 21719846 21622890 21497896 21343428 
3037.115 21166326 20976414 20787694 20613460 20461696 20337200 20237122 
3040.490 20154818 20082210 20012758 19943382 19876344 19817682 19773942 
3043.865 19751178 19751438 19774842 19817200 19873090 19936690 20002358 
3047.240 20063842 20116026 20154684 20178282 20190604 20199436 20215564 
3050.615 20248414 20301192 20367544 20429192 20463542 20448382 20371682 
3053.991 20238456 20070982 19902864 19770366 19698362 19694176 19745184 
3057.366 19824180 19899394 19946658 19956904 19937926 19908240 19890278 
3060.741 19898044 19933506 19985354 20035258 20065094 20063514 20030814 
3064.116 19976664 19915080 19861212 19821034 19795390 19776948 19757986 
3067.492 19730664 19692292 19645866 19597256 19552242 19514650 19485198 
3070.867 19463684 19449292 19444186 19453024 19482832 19538582 19620708 
3074.242 19722708 19830330 19923614 19982490 19992248 19946230 19850326 
3077.617 19721178 19581550 19457730 19372276 19340118 19365302 19441544 
3080.993 19551894 19672748 19778726 19845772 19857586 19807090 19702034 
3084.368 19559104 19404118 19262062 19153788 19090086 19067756 19074056 
3087.743 19090420 19098902 19086004 19046520 18981178 18894318 18791242 
3091.118 18674950 18548140 18414658 18281770 18162664 18072104 18023284 
3094.494 18021522 18060912 18124014 18186724 18224080 18220158 18170672 
3097.869 18085698 17984894 17891446 17823890 17792734 17798000 17831166 
3101.244 17881522 17937620 17990616 18035916 18070294 18091964 18099674 
3104.619 18092374 18071410 18042308 18010796 17985218 17970900 17968786 
3107.995 17973142 17974674 17961804 17924920 17859204 17768100 17661202 
3111.370 17551982 17454018 17377234 17324662 17292346 17270678 17245868 
3114.745 17204954 17140402 17050642 16943918 16834038 16740024 16679030 
3118.120 16662158 16690675 16754670 16836058 16911928 16963222 16978932 
3121.496 16959460 16917146 16870736 16839924 16838542 16870376 16928220 
3124.871 16998238 17063250 17108882 17126626 17114792 17075458 17012508 
3128.246 16928862 16826200 16706092 16573045 16437558 16313901 16219299 
3131.621 16166778 16161287 16196964 16256183 16316263 16355557 16361330 
3134.997 16332518 16280888 16226085 16187780 16177434 16195068 16229859 
3138.372 16262656 16274627 16254392 16200144 16124303 16043911 15979193 
3141.747 15944045 15942909 15969694 16010178 16047202 16067898 16065722 
3145.122 16043833 16012125 15984206 15971256 15979821 16007489 16044237 
3148.498 16075402 16086627 16068606 16021440 15953979 15883755 15831999 
3151.873 15818682 15857661 15952237 16094735 16268061 16449708 16616201 
3155.248 16748475 16834120 16870042 16861604 16819810 16758941 16693393 
3158.623 16633976 16587568 16555980 16536681 16524788 16514167 16499618 
3161.999 16477853 16448131 16411183 16369140 16323471 16275775 16225735 
3165.374 16172282 16114572 16052492 15988909 15929876 15884096 15863366 
3168.749 15877675 15934689 16034966 16170559 16325129 16476469 16600106 
3172.124 16675713 16692076 16650027 16561994 16449140 16337115 16249545 
3175.500 16201233 16198583 16236819 16303509 16381297 16451122 16495822 
3178.875 16502799 16464155 16379336 16254939 16104501 15947314 15804492 
3182.250 15696941 15638847 15635459 15682630 15767274 15871162 15975829 
3185.625 16066980 16135944 16183142 16212836 16233452 16251834 16273959 
3189.000 16301220 16331168 16359299 16379848 16387140 16376883 16348647 
3192.376 16307022 16259713 16218923 16197283 16206155 16250152 16326834 
3195.751 16426474 16534504 16635075 16716274 16772516 16805398 16821662 
3199.126 16828276 16828342 16818964 16791234 16733436 16638156 16507322 
3202.501 16355630 16209494 16102409 16066173 16120791 16269639 16494524 
3205.877 16761435 17024712 17240464 17373674 17406744 17338750 17185822 
3209.252 16972050 16725957 16471980 16229916 16013866 15833732 15697800 
3212.627 15611783 15579138 15598488 15661564 15752774 15852848 15942616 
3216.002 16007733 16043659 16056521 16060760 16072657 16105592 16164538 
3219.378 16244112 16330944 16408417 16464321 16493568 16499925 16494939 
3222.753 16492223 16502146 16529145 16568480 16610526 16643288 16656591 
3226.128 16644800 16608777 16553268 16487250 16420566 16364357 16328596 
3229.503 16321614 16350687 16416691 16516512 16639773 16770445 16891630 
3232.879 16987168 17046084 17064028 17043360 16989706 16909786 16808902 
3236.254 16692378 16565841 16438406 16322995 16234906 16188370 16191432 
3239.629 16241506 16325701 16425565 16520143 16594864 16643414 16668068 
3243.004 16676309 16673679 16660823 16632296 16578201 16491236 16369430 
3246.380 16220186 16057199 15898429 15757363 15642604 15555684 15494860 
3249.755 15457429 15444697 15459291 15504058 15579010 15675999 15781628 
3253.130 15878357 15951356 15991228 15997197 15976336 15939973 15900115 
3256.505 15866790 15848732 15852606 15884535 15947480 16039820 16151089 
3259.881 16262949 16349055 16385136 16356187 16261745 16119730 15960626 
3263.256 15818445 15718983 15672533 15672008 15698165 15728926 15748648 
3266.631 15753709 15751438 15754528 15773164 15808564 15852733 15892427 
3270.006 15916133 15917933 15902527 15881412 15867639 15871074 15892601 
3273.382 15927736 15967816 16006265 16040660 16073313 16108939 16149625 
3276.757 16193837 16234988 16265497 16279975 16279291 16271025 16266715 
3280.132 16276360 16304482 16347121 16392525 16424855 16430788 16403053 
3283.507 16344167 16263803 16177373 16099392 16040221 16003598 15987996 
3286.883 15987592 15996102 16010234 16031977 16066171 16121984 16205700 
3290.258 16320538 16462773 16620504 16775986 16909670 17003550 17047336 
3293.633 17039340 16988824 16912000 16827868 16754435 16702967 16677678 
3297.008 16675586 16687861 16703457 16711868 16704027 16674507 16619315 
3300.384 16539002 16435988 16316690 16190730 16071158 15972367 15906526 
3303.759 15881510 15896671 15944269 16008055 16070748 16115960 16134821 
3307.134 16128307 16107388 16090006 16092572 16126184 16190188 16271183 
3310.509 16345883 16389649 16382605 16319396 16210223 16081046 15965495 
3313.885 15895659 15893308 15964136 16095193 16261403 16432019 16578799 
3317.260 16683718 16741747 16759416 16750285 16729465 16707638 16688701 
3320.635 16667971 16636219 16583085 16500430 16386583 16247435 16094675 
3324.010 15943002 15807778 15699929 15624572 15580388 15560254 15555379 
3327.385 15557745 15562785 15569721 15581566 15602888 15636934 15685707 
3330.761 15747551 15818229 15893172 15965683 16031073 16084200 16121261 
3334.136 16139789 16140223 16127028 16108235 16095590 16101828 16137470 
3337.511 16207116 16307542 16429259 16557731 16677298 16776424 16848822 
3340.886 16893472 16914502 16916606 16904596 16882608 16851422 16811938 
3344.262 16765490 16712194 16651707 16581113 16496824 16396927 16282430 
3347.637 16159158 16040908 15942378 15877813 15853960 15866902 15902739 
3351.012 15941396 15964234 15961479 15935812 15901715 15879517 15886517 
3354.387 15930597 16004808 16091183 16166121 16209822 16213613 16183099 
3357.763 16135478 16093358 16076203 16093701 16144522 16216632 16293045 
3361.138 16358783 16403027 16423067 16423393 16411552 16397113 16387288 
3364.513 16387384 16398413 16419142 16445065 16468741 16482044 16477972 
3367.888 16450765 16399512 16328944 16248316 16169133 16103139 16059374 
3371.264 16042702 16052902 16086714 16137708 16197531 16256809 16303558 
3374.639 16325220 16309911 16248122 16137797 15984245 15801374 15611005 
3378.014 15436558 15300309 15218331 15199347 15243608 15342770 15484191 
3381.389 15651254 15825067 15987279 16122133 16219856 16279299 16308265 
3384.765 16322494 16341036 16379662 16445184 16532291 16624533 16699094 
3388.140 16735760 16723834 16666137 16578553 16482886 16401056 16346131 
3391.515 16320392 16315894 16320143 16322806 16321601 16322102 16337043 
3394.890 16378371 16451569 16553115 16668243 16777264 16860022 16903864 
3398.266 16906604 16875514 16825394 16771728 16726824 16695920 16678115 
3401.641 16669767 16668594 16674608 16691906 16725177 16776484 16841606 
3405.016 16908578 16962444 16989614 16984830 16953434 16912900 16885370 
3408.391 16889814 16934588 17012736 17106224 17191288 17249966 17279392 
3411.767 17291210 17310352 17362564 17464220 17614900 17795052 17974130 
3415.142 18120986 18214846 18252252 18245660 18218318 18193954 18187578 
3418.517 18202758 18232386 18263286 18284908 18291384 18285928 18275998 
3421.892 18272834 18285284 18320580 18381606 18468844 18578850 18704296 
3425.268 18832886 18949108 19035364 19075414 19061424 18993822 18884450 
3428.643 18750784 18614330 18492574 18397948 18335864 18307484 18309710 
3432.018 18338990 18390730 18458836 18536410 18614120 18684482 18743000 
3435.393 18789774 18830224 18872068 18921880 18981400 19047278 19109834 
3438.769 19157288 19180286 19171896 19130710 19059612 18964478 18852348 
3442.144 18731420 18611160 18500574 18408218 18337902 18288600 18252220 
3445.519 18217450 18174004 18117252 18052052 17991806 17954896 17957292 
3448.894 18006524 18097760 18215404 18337256 18441094 18512548 18543734 
3452.270 18536600 18497956 18438340 18367818 18298092 18240284 18205864 
3455.645 18203540 18236676 18299966 18378348 18451650 18498650 18502852 
3459.020 18457978 18368422 18246472 18108832 17972208 17850412 17755986 
3462.395 17698216 17686284 17726020 17818252 17955004 18120384 18294312 
3465.771 18456802 18596794 18714626 18822142 18936446 19071272 19229306 
3469.146 19399744 19561278 19689442 19767322 19788828 19763142 19709708 
3472.521 19649620 19600240 19570666 19561488 19568870 19587680 19615014 
3475.896 19650400 19694782 19749568 19814638 19890242 19978242 20079936 
3479.271 20198022 20329702 20468678 20602438 20715084 20794438 20836970 
3482.647 20850034 20852334 20866806 20911010 20992216 21102014 21221574 
3486.022 21328172 21404580 21449136 21474368 21503712 21564478 21675452 
3489.397 21841586 22052478 22285170 22512912 22712922 22872136 22990176 
3492.772 23075950 23143414 23208082 23280642 23368510 23474166 23600088 
3496.148 23746642 23914908 24102542 24303436 24503586 24685200 24825762 
3499.523 24908500 24925018 24880942 24794996 24694414 24605010 24546722 
3502.898 24524388 24529648 24545414 24554338 24546388 24523092 24494004 
3506.273 24472464 24466618 24474234 24484332 24479662 24449598 24393298 
3509.649 24325044 24269422 24251602 24287084 24374470 24493572 24613192 
3513.024 24700908 24733404 24706152 24629660 24528778 24428702 24348842 
3516.399 24296190 24263886 24234774 24188834 24110078 23989268 23830292 
3519.774 23645712 23455298 23282144 23145684 23057880 23018508 23016682 
3523.150 23030852 23033770 22999464 22910862 22761190 22557906 22317734 
3526.525 22063542 21817742 21596802 21410922 21261996 21147302 21062220 
3529.900 21001904 20964334 20948226 20953100 20977906 21019332 21070022 
3533.275 21120372 21160288 21181456 21179836 21159924 21132526 21114028 
3536.651 21121182 21163986 21242922 21346254 21453304 21539816 21587352 
3540.026 21587912 21546836 21482076 21414564 21362388 21335900 21332494 
3543.401 21341232 21346636 21333468 21293258 21224696 21132540 21026304 
3546.776 20915284 20807456 20709494 20622474 20547586 20484124 20430774 
3550.152 20388134 20360270 20352902 20373786 20427716 20514216 20623536 
3553.527 20737662 20831772 20883782 20878494 20815538 20708624 20582464 
3556.902 20462728 20370434 20313238 20285888 20274538 20264144 20244542 
3560.277 20216214 20187156 20171002 20179592 20218794 20287544 20380002 
3563.653 20484810 20593008 20693696 20778852 20838178 20863150 20845012 
3567.028 20779794 20667964 20516586 20339298 20151090 19968236 19805362 
3570.403 19675414 19587844 19548076 19557184 19608246 19686780 19772408 
3573.778 19842594 19881256 19885016 19863464 19839864 19840258 19882184 
3577.154 19965892 20069444 20154894 20180790 20115278 19950998 19707892 
3580.529 19428236 19164894 18962424 18847372 18817714 18848602 18903892 
3583.904 18946822 18955142 18925710 18872946 18819808 18786984 18784214 
3587.279 18804904 18829690 18834508 18802620 18731968 18639878 18557758 
3590.655 18518474 18546970 18647846 18802234 18973308 19118412 19203058 
3594.030 19213712 19159262 19067904 18975080 18908764 18881028 18885972 
3597.405 18905274 18918302 18912510 18888496 18858556 18840080 18847070 
3600.780 18885334 18950664 19031714 19118468 19203314 19283232 19357010 
3604.156 19418114 19454932 19449434 19384544 19251300 19055860 18820114 
3607.531 18578054 18366200 18211654 18125780 18102796 18122154 18160756 
3610.906 18197678 18223468 18239216 18256062 18287078 18344266 18435388 
3614.281 18563984 18728496 18926772 19154102 19404820 19668136 19931446 
3617.656 20176900 20386870 20545424 20643288 20679696 20663370 20608878 
3621.032 20533952 20453174 20377242 20309682 20248912 20190320 20132078 
3624.407 20074188 20023822 19989750 19981824 20005408 20061008 20143646 
3627.782 20243720 20353810 20467958 20583356 20699162 20813788 20919308 
3631.157 21004866 21057282 21066056 21031528 20965034 20890110 20836388 
3634.533 20832446 20894886 21028382 21221018 21451220 21693122 21923756 
3637.908 22126372 22292634 22421046 22514034 22578056 22620442 22650360 
3641.283 22676612 22708502 22751174 22805974 22870470 22938410 23002822 
3644.658 23058428 23104242 23143578 23181208 23224732 23279426 23348972 
3648.034 23434612 23533528 23641186 23747898 23839666 23900400 23913626 
3651.409 23868762 23765306 23612816 23434264 23257896 23112452 23019564 
3654.784 22989058 23018756 23095282 23199116 23309876 23407998 23480326 
3658.159 23517002 23516532 23481492 23422936 23354150 23291018 23244358 
3661.535 23216894 23201728 23183356 23143930 23072098 22969218 22849316 
3664.910 22734936 22648990 22602074 22590262 22591878 22577840 22519800 
3668.285 22402088 22224324 22003146 21761232 21519788 21293842 21087960 
3671.660 20902514 20739100 20604752 20514014 20482062 20519278 20622722 
3675.036 20773942 20940266 21085544 21176440 21193660 21134462 21010424 
3678.411 20842532 20653748 20463944 20286588 20129082 19993036 19877100 
3681.786 19779910 19699744 19636488 19589764 19559592 19541516 19528748 
3685.161 19508318 19464390 19380162 19244110 19051912 18813702 18550984 
3688.537 18293562 18072080 17909534 17813594 17775614 17772994 17773706 
3691.912 17748444 17676054 17551690 17384626 17199232 17025436 16892314 
3695.287 16818922 16809854 16851774 16918954 16977860 16998644 16964084 
3698.662 16873912 16746566 16612016 16503202 16443787 16442463 16489580 
3702.038 16563358 16638018 16692994 16720833 16726978 16727170 16739022 
3705.413 16775439 16842016 16936158 17050316 17177670 17313508 17455234 
3708.788 17599736 17740936 17867764 17966544 18025074 18036742 18004760 
3712.163 17942802 17870008 17806278 17765422 17753048 17765184 17790760 
3715.539 17816220 17827618 17814868 17768994 17687616 17570856 17424560 
3718.914 17261050 17098390 16957246 16857556 16810664 16818196 16868972 
3722.289 16942814 17017676 17077350 17116592 17142754 17173408 17228146 
3725.664 17322202 17460458 17634838 17829132 18022874 18196826 18338232 
3729.040 18439820 18498572 18513838 18483480 18407476 18288818 18137004 
3732.415 17966286 17797040 17648152 17533624 17458600 17419826 17408692 
3735.790 17417568 17443466 17490520 17565120 17672544 17808802 17959258 
3739.165 18099620 18203690 18250524 18231822 18154202 18034074 17891734 
3742.541 17742224 17591812 17439120 17280260 17117986 16964966 16845776 
3745.916 16787754 16811234 16920518 17098588 17310864 17514304 17670108 
3749.291 17756140 17772868 17743752 17703946 17690014 17728604 17827402 
3752.666 17976518 18152968 18327848 18475240 18579398 18635644 18650116 
3756.042 18636654 18610344 18586040 18570166 18560336 18546342 18511436 
3759.417 18441504 18330232 18183414 18021704 17874080 17770656 17730592 
3762.792 17758072 17836858 17938110 18027916 18081804 18091058 18067390 
3766.167 18038038 18034542 18080638 18183170 18327774 18483032 18610686 
3769.542 18676354 18659664 18560088 18393646 18189656 17979954 17793726 
3772.918 17650936 17560816 17523756 17533074 17577914 17645652 17721120 
3776.293 17791304 17843794 17870238 17868976 17845186 17811522 17784428 
3779.668 17780618 17809856 17872148 17955484 18037828 18093338 18101728 
3783.043 18053726 17955526 17829298 17706338 17618728 17590294 17629302 
3786.419 17727032 17860684 18001488 18120638 18198454 18226410 18206514 
3789.794 18145862 18054214 17939058 17803950 17654210 17493784 17335108 
3793.169 17193802 17089052 17037496 17048554 17120342 17238786 17382564 
3796.544 17527406 17655002 17757074 17837936 17909666 17985992 18075072 
3799.920 18173848 18265524 18323998 18320844 18235798 18064506 17821482 
3803.295 17539212 17259206 17023364 16865182 16802110 16833154 16942176 
3806.670 17102328 17284590 17466914 17636554 17791966 17940160 18089680 
3810.045 18245248 18400614 18540456 18640624 18677982 18635506 18512276 
3813.421 18325412 18107474 17899350 17740378 17654844 17648006 17704162 
3816.796 17790634 17872268 17920170 17919880 17874564 17799570 17717008 
3820.171 17645046 17595208 17570044 17565352 17574864 17594486 17621926 
3823.546 17658460 17702304 17747056 17779908 17784712 17747618 17662596 
3826.922 17534504 17381012 17227374 17099590 17018182 16990076 17008752 
3830.297 17058202 17116514 17167018 17202788 17228684 17260236 17314250 
3833.672 17404086 17531824 17684638 17838018 17962420 18031484 18029896 
3837.047 17958014 17831626 17677328 17524932 17401304 17324696 17303732 
3840.423 17337404 17419690 17538658 17679658 17826880 17962700 18073074 
3843.798 18149496 18190916 18204916 18203724 18199434 18198754 18199618 
3847.173 18191720 18163200 18105544 18021968 17927546 17844708 17795374 
3850.548 17792060 17831038 17893762 17953146 17984036 17973256 17924916 
3853.924 17857082 17795812 17761382 17763342 17796036 17843974 17885854 
3857.299 17903978 17886838 17830806 17739744 17623724 17497608 17379482 
3860.674 17290796 17252370 17277792 17368252 17509430 17673290 17824658 
3864.049 17932982 17982842 17977842 17939954 17896882 17870112 17865864 
3867.425 17871720 17864102 17820864 17735512 17621254 17511900 17446832 
3870.800 17455356 17544884 17694586 17864308 18005424 18077058 18058556 
3874.175 17952730 17782536 17581826 17386410 17226518 17123430 17090526 
3877.550 17131712 17244564 17416528 17624260 17836488 18019170 18142392 
3880.926 18190530 18166790 18092866 18000334 17922734 17881270 17880368 
3884.301 17907430 17938662 17949474 17923208 17858156 17768232 17676602 
3887.676 17608378 17583616 17611052 17688104 17803076 17939576 18082632 
3891.051 18220786 18348296 18464114 18569014 18662206 18740170 18795064 
3894.427 18818136 18800892 18740316 18640968 18513544 18375784 18247530 
3897.802 18147186 18089248 18082738 18129762 18227080 18364920 18528674 
3901.177 18698496 18852164 18966012 19022620 19012808 18939824 18818692 
3904.552 18672558 18526396 18398920 18299154 18225530 18170210 18125738 
3907.927 18090290 18070402 18077732 18124474 18214434 18341220 18486912 
3911.303 18626882 18738332 18805908 18827102 18809758 18767236 18715920 
3914.678 18665640 18622038 18586298 18558282 18540238 18533072 18539156 
3918.053 18556796 18578372 18592080 18584912 18546626 18474456 18375480 
3921.428 18265060 18162240 18083956 18042962 18043342 18082610 18152244 
3924.804 18242796 18342708 18441992 18530912 18601716 18648326 18668116 
3928.179 18662118 18636640 18599448 18559348 18521478 18487284 18452554 
3931.554 18411106 18356868 18289848 18214254 18142330 18089096 18068390 
3934.929 18089972 18153994 18251242 18365266 18474046 18558726 18604524 
3938.305 18606802 18571614 18512272 18448698 18397380 18371520 18374034 
3941.680 18398324 18431468 18457888 18465294 18449852 18416050 18376822 
3945.055 18347494 18341410 18364530 18413166 18475294 18535060 18577916 
3948.430 18595656 18589202 18568852 18550748 18551952 18585046 18655472 
3951.806 18759534 18886138 19017810 19137208 19226838 19276212 19279490 
3955.181 19240100 19167562 19077788 18989314 18921240 18887620 18896416 
3958.556 18948048 19033776 19139824 19250152 19349764 19427902 19480046 
3961.931 19506046 19510016 19497516 19473594 19442092 19405138 19361800 
3965.307 19310610 19249846 19176046 19087342 18984674 18871616 18757210 
3968.682 18653550 18575524 18536836 18545600 18603436 18702652 18828236 
3972.057 18962640 19088436 19193638 19273182 19328776 19366544 19392334 
3975.432 19411334 19423816 19428834 19423194 19406228 19380324 19352550 
3978.808 19331166 19324842 19337718 19367130 19403890 19432250 19434738 
3982.183 19396798 19309874 19178638 19017884 18851902 18707652 18608348 
3985.558 18567624 18584284 18643542 18723244 18797222 18846244 18861216 
3988.933 18843722 18803508 18753796 18705680 18665438 18634142 18612198 
3992.309 18603616 18616694 18664946 18763100 18920686 19137200 19399304 
3995.684 19682260 19954214 20183946 20346626 20428550 20427662 20352380 
3999.059 20218368 20045464 19854034 19666062 
##END=
