##TITLE=3D-Fillies_PLA+_Blue_Filament_r1_ATR-Corrected
##JCAMP-DX=5.01  $$ Nicolet v. 1
##DATATYPE=INFRARED SPECTRUM
##ORIGIN=Curtin University
##OWNER=Nicolet
##LONGDATE=2024/07/18
##TIME=09:18:13
##SPECTROMETER/DATA SYSTEM=Nicolet iS50
##DATA PROCESSING=
Ratio against background
%Transmittance->Absorbance
ATR Correction
Truncated
ElementMultiply or ElementDivide
##COMMENTS=
Number of sample scans: 32
Collection length: 47.27 sec
Sample gain: 1.0
Background collected on: Thu Jul 18 09:16:10 2024 (GMT+08:00);
Number of background scans: 32
Background gain: 1.0
Sample spacing:  1.000
Number of scan points: 16672
Resolution points: 8192
Number of FFT points: 65536
Apodization: N-B strong;
Phase correction: Mertz;
Laser frequency: 15798.3 cm-1
Number of rejected sample scans: 0
Number of rejected background scans: 0
Bench serial number: AUP1200105;
##RESOLUTION=4.000
##XUNITS=1/CM
##YUNITS=ABSORBANCE
##FIRSTX=400.163452
##LASTX=4000.187744
##FIRSTY=0.060603
##MAXX=4000.187744
##MINX=400.163452
##MAXY=1.331348
##MINY=-0.042333
##XFACTOR=1.000000
##YFACTOR=1.000000E-008
##NPOINTS=7468
##DELTAX=0.482125
##ZPD=8192
##XYDATA=(X++(Y..Y))
400.163 6060264 5999076 5922372 5838006 5753196 5673221 5598424 5524709 
404.020 5445752 5356677 5256864 5150998 5047639 4956137 4883152 4830168 
407.877 4793061 4763562 4732049 4690566 4634928 4565289 4485330 4400278 
411.734 4315010 4232853 4155364 4082896 4015476 3953419 3897562 3848896 
415.591 3807988 3774572 3747086 3722744 3697635 3667268 3627219 3573985 
419.448 3505919 3423890 3331454 3234356 3139421 3052999 2979572 2920890 
423.305 2876079 2842542 2817378 2798804 2786900 2783331 2790229 2808705 
427.162 2837681 2873528 2910651 2942861 2964915 2973747 2969019 2952964 
431.019 2929344 2902379 2875697 2851367 2830227 2811441 2793086 2772686 
434.876 2747944 2717405 2681022 2640445 2598944 2560788 2530416 2511423 
438.733 2505779 2513413 2532301 2558870 2588702 2617148 2640068 2654355 
442.590 2658482 2652860 2639925 2623744 2609167 2600557 2600493 2608869 
446.447 2622796 2637465 2647755 2649981 2643262 2629765 2613803 2600144 
450.304 2592129 2590422 2592845 2595323 2593487 2584284 2566998 2543293 
454.161 2516408 2489898 2466418 2447080 2431467 2418236 2405937 2393724 
458.017 2381662 2370656 2362046 2357030 2356173 2359064 2364248 2369421 
461.874 2371883 2369124 2359539 2342573 2319967 2294494 2269604 2248553 
465.731 2233479 2224828 2221295 2220244 2218461 2213004 2201840 2184176 
469.588 2160500 2132386 2102173 2072788 2047315 2028643 2018879 2018809 
473.445 2027449 2042129 2058889 2073444 2082212 2083166 2076196 2062778 
477.302 2045205 2025641 2005417 1984898 1963820 1941984 1919813 1898520 
481.159 1879777 1864931 1854227 1846319 1838449 1827192 1809573 1784172 
485.016 1751763 1715288 1679067 1647690 1624796 1612252 1609939 1616182 
488.873 1628510 1644529 1662525 1681576 1701231 1720911 1739364 1754466 
492.730 1763492 1763865 1754056 1734074 1706277 1674365 1642610 1614797 
496.587 1593352 1578991 1571013 1567993 1568630 1572294 1579102 1589574 
500.444 1604046 1622111 1642537 1663451 1682919 1699471 1712413 1721811 
504.301 1728136 1731868 1733286 1732472 1729568 1725095 1720073 1715843 
508.158 1713639 1714171 1717240 1721801 1726314 1729199 1729358 1726375 
512.015 1720450 1712147 1702110 1690857 1678735 1666045 1653075 1640041 
515.871 1627004 1613747 1599788 1584705 1568524 1552053 1536991 1525505 
519.728 1519523 1519805 1525397 1533572 1540488 1542341 1536616 1522945 
523.585 1503238 1481061 1460490 1444702 1435594 1433055 1435470 1440550 
527.442 1446180 1450955 1454293 1456229 1456909 1456259 1453814 1448827 
531.299 1440611 1428885 1414017 1397101 1379781 1363938 1351267 1342911 
535.156 1339163 1339392 1342206 1345770 1348339 1348712 1346594 1342619 
539.013 1338103 1334548 1333042 1333853 1336287 1338884 1339901 1337895 
542.870 1332163 1322989 1311585 1299818 1289780 1283431 1282210 1286805 
546.727 1296969 1311508 1328292 1344624 1357724 1365353 1366449 1361474 
550.584 1352339 1341858 1332939 1327654 1326699 1329312 1333801 1338305 
554.441 1341614 1343562 1344984 1346917 1350243 1354750 1359153 1361572 
558.298 1360356 1354911 1346167 1336428 1328675 1325551 1328492 1337234 
562.155 1350010 1364160 1377099 1387059 1393538 1397161 1399262 1401279 
566.012 1404240 1408537 1413991 1420075 1426208 1431991 1437269 1442078 
569.869 1446518 1450693 1454589 1458104 1461071 1463316 1464694 1465184 
573.725 1464900 1464141 1463341 1462976 1463452 1464978 1467535 1470964 
577.582 1475136 1480158 1486403 1494508 1505049 1518212 1533494 1549638 
581.439 1564850 1577264 1585550 1589365 1589502 1587741 1586342 1587479 
585.296 1592737 1602873 1617800 1636765 1658636 1682073 1705638 1727861 
589.153 1747314 1762702 1773135 1778256 1778408 1774559 1768167 1760838 
593.010 1754087 1749147 1746825 1747524 1751270 1757702 1766144 1775623 
596.867 1785089 1793599 1800625 1806223 1810990 1815878 1821810 1829305 
600.724 1838278 1848072 1857798 1866687 1874456 1881376 1888156 1895576 
604.581 1904159 1914008 1924839 1936234 1947906 1959909 1972562 1986290 
608.438 2001372 2017757 2035075 2052816 2070548 2088081 2105471 2122891 
612.295 2140483 2158235 2176048 2193911 2212078 2231162 2252048 2275625 
616.152 2302476 2332645 2365681 2400683 2436618 2472472 2507291 2540097 
620.009 2569801 2595247 2615462 2629968 2639247 2644806 2648997 2654468 
623.866 2663488 2677377 2696300 2719442 2745492 2773127 2801403 2829659 
627.723 2857361 2883828 2908153 2929471 2947388 2962385 2975960 2990223 
631.579 3007194 3027955 3052174 3078074 3103128 3124979 3142392 3155687 
635.436 3166540 3177208 3189602 3204529 3221516 3239248 3256300 3271888 
639.293 3286215 3300324 3315476 3332500 3351348 3371166 3390711 3409038 
643.150 3425991 3442272 3459096 3477534 3497886 3519411 3540539 3559419 
647.007 3574697 3586062 3594435 3601691 3609993 3621197 3636271 3655166 
650.864 3676961 3700253 3723573 3745689 3765788 3783475 3798763 3811972 
654.721 3823730 3834896 3846446 3859332 3874216 3891308 3910304 3930463 
658.578 3950840 3970626 3989386 4007148 4024352 4041618 4059489 4078216 
662.435 4097699 4117628 4137576 4157219 4176337 4194837 4212619 4229494 
666.292 4245193 4259452 4272204 4283701 4294579 4305733 4318140 4332569 
670.149 4349421 4368703 4390039 4412866 4436588 4460569 4484181 4506716 
674.006 4527424 4545585 4560705 4572745 4582232 4590232 4598116 4607215 
677.863 4618475 4632235 4648271 4666001 4684685 4703755 4722886 4741894 
681.720 4760638 4778782 4795838 4811276 4824799 4836536 4847164 4857812 
685.577 4869792 4884214 4901660 4922065 4944739 4968525 4992142 5014441 
689.433 5034635 5052398 5067853 5081494 5093994 5106052 5118196 5130674 
693.290 5143403 5156106 5168445 5180214 5191489 5202596 5213962 5225919 
697.147 5238484 5251359 5264001 5275905 5286863 5297056 5306944 5316981 
701.004 5327275 5337363 5346256 5352775 5356036 5355877 5352995 5348788 
704.861 5344865 5342441 5341937 5342868 5344056 5344118 5341912 5336808 
708.718 5328643 5317494 5303360 5285969 5264772 5239211 5209010 5174358 
712.575 5135910 5094523 5050935 5005433 4957744 4907147 4852774 4793894 
716.432 4730191 4661784 4589066 4512508 4432441 4348885 4261693 4170684 
720.289 4075923 3977953 3877888 3777425 3678650 3583750 3494759 3413209 
724.146 3340006 3275437 3219284 3171100 3130515 3097410 3072097 3055183 
728.003 3047446 3049574 3061991 3084803 3117883 3161025 3214122 3277365 
731.860 3351194 3436238 3533090 3642087 3763081 3895316 4037363 4187189 
735.717 4342256 4499773 4656951 4811298 4960914 5104631 5242061 5373392 
739.574 5499137 5619788 5735584 5846390 5951889 6051781 6146090 6235329 
743.431 6320567 6403209 6484744 6566450 6649159 6733221 6818586 6904959 
747.287 6992122 7080041 7169054 7259851 7353357 7450455 7551697 7656921 
751.144 7765022 7873862 7980435 8081230 8172736 8251901 8316432 8364805 
755.001 8396134 8409866 8405573 8382853 8341512 8281781 8204573 8111516 
758.858 8004804 7886884 7760068 7626266 7486895 7342943 7195146 7044174 
762.715 6890703 6735471 6579269 6422938 6267477 6114031 5963958 5818632 
766.572 5679225 5546371 5419932 5298993 5182028 5067324 4953403 4839391 
770.429 4725176 4611298 4498767 4388719 4282280 4180408 4083782 3992805 
774.286 3907478 3827306 3751247 3677794 3605272 3532226 3457894 3382389 
778.143 3306705 3232311 3160587 3092262 3027106 2963974 2901220 2837309 
782.000 2771376 2703501 2634661 2566266 2499617 2435377 2373375 2312665 
785.857 2251946 2190043 2126388 2061175 1995382 1930414 1867759 1808632 
789.714 1753750 1703313 1657096 1614656 1575552 1539404 1506022 1475255 
793.571 1447004 1421072 1397176 1374902 1353849 1333663 1314188 1295487 
797.428 1277895 1261922 1248111 1236919 1228502 1222619 1218629 1215603 
801.285 1212511 1208479 1202995 1195958 1187772 1178981 1170060 1161212 
805.141 1152312 1142986 1132970 1122331 1111751 1102460 1095985 1093676 
808.998 1096256 1103557 1114509 1127440 1140606 1152616 1162756 1170934 
812.855 1177445 1182521 1186102 1187734 1186779 1182825 1176038 1167405 
816.712 1158590 1151598 1148236 1149607 1155836 1166053 1178699 1191952 
820.569 1204179 1214301 1221909 1227229 1230897 1233670 1236158 1238600 
824.426 1240829 1242384 1242711 1241462 1238746 1235258 1232222 1231086 
828.283 1233220 1239460 1249897 1263873 1280141 1297230 1313848 1329156 
832.140 1342937 1355530 1367714 1380380 1394557 1411081 1430515 1453134 
835.997 1478883 1507449 1538364 1571336 1606453 1644388 1686471 1734412 
839.854 1789980 1854406 1928025 2010029 2098647 2191457 2285954 2379931 
843.711 2471765 2560326 2644848 2724603 2798760 2866364 2926509 2978571 
847.568 3022396 3058476 3087943 3112561 3134677 3157173 3183446 3217249 
851.425 3262564 3323213 3402601 3503285 3626823 3773616 3942988 4133336 
855.282 4342443 4567673 4806230 5055385 5312629 5575717 5842612 6111374 
859.139 6379921 6645823 6906179 7157732 7397154 7621435 7828291 8016465 
862.995 8185649 8336249 8469046 8584823 8684095 8767162 8834156 8885174 
866.852 8920351 8939724 8943244 8930610 8901393 8855162 8791715 8711217 
870.709 8614192 8501387 8373545 8231227 8074832 7904716 7721492 7526207 
874.566 7320475 7106285 6885758 6660851 6433177 6203977 5974322 5745304 
878.423 5518255 5294801 5076775 4865993 4664130 4472564 4292447 4124815 
882.280 3970722 3831356 3707956 3601605 3512987 3442181 3388489 3350492 
886.137 3326268 3313680 3310661 3315444 3326639 3343169 3364079 3388364 
889.994 3414833 3442059 3468575 3493106 3514737 3533143 3548461 3561145 
893.851 3571538 3579647 3584946 3586529 3583396 3574941 3561250 3543308 
897.708 3522816 3501883 3482524 3466279 3454050 3446011 3441802 3440596 
901.565 3441276 3442503 3442791 3440740 3435345 3426319 3414356 3401120 
905.422 3388885 3379906 3375779 3376831 3382112 3389679 3397303 3403246 
909.279 3406723 3408079 3408442 3409090 3410881 3413907 3417481 3420544 
913.136 3422087 3421574 3419058 3415019 3410029 3404433 3398172 3390882 
916.993 3382186 3371923 3360374 3348205 3336279 3325287 3315448 3306465 
920.849 3297589 3287903 3276650 3263452 3248440 3232167 3215367 3198754 
924.706 3182831 3167835 3153814 3140656 3128334 3116836 3106181 3096261 
928.563 3086844 3077508 3067755 3057219 3045900 3034254 3023242 3014097 
932.420 3007979 3005609 3006973 3011295 3017218 3023146 3027750 3030317 
936.277 3030895 3030202 3029392 3029656 3031974 3036906 3044645 3055052 
940.134 3067855 3082748 3099477 3117785 3137493 3158468 3180770 3204671 
943.991 3230742 3259809 3292788 3330464 3373281 3421153 3473399 3528865 
947.848 3586195 3644113 3701762 3758875 3815842 3873526 3932925 3994755 
951.705 4059087 4125096 4191115 4254809 4313586 4364939 4406753 4437296 
955.562 4455159 4458970 4447324 4418837 4372370 4307450 4224679 4125826 
959.419 4013721 3891888 3763980 3633348 3502816 3374669 3250879 3133249 
963.276 3023620 2923730 2834975 2758175 2693391 2639930 2596572 2561860 
967.133 2534440 2513179 2497248 2485977 2478774 2475046 2474269 2476035 
970.990 2480196 2486856 2496285 2508752 2524379 2543020 2564353 2587898 
974.847 2613222 2639996 2668052 2697346 2727882 2759623 2792531 2826466 
978.703 2861294 2896807 2932739 2968744 3004462 3039581 3073974 3107779 
982.560 3141432 3175567 3210856 3247869 3286877 3327879 3370624 3414786 
986.417 3459996 3505942 3552361 3599066 3645808 3692567 3739599 3787572 
990.274 3837512 3890615 3947892 4009784 4075938 4145209 4215939 4286452 
994.131 4355620 4423189 4489927 4557339 4627341 4701648 4781475 4867285 
997.988 4958873 5055560 5156506 5260923 5368287 5478378 5591310 5707436 
1001.845 5827270 5951410 6080501 6215096 6355746 6502926 6657142 6818924 
1005.702 6988833 7167499 7355561 7553611 7762295 7982243 8214152 8458825 
1009.559 8717082 8989724 9277376 9580342 9898688 10232189 10580631 10943889 
1013.416 11322096 11715555 12124591 12549320 12989391 13443899 13911335 
1016.791 14389758 14877065 15371087 15869915 16371945 16875840 17380574 
1020.166 17885254 18388938 18890342 19387738 19878926 20361514 20833432 
1023.540 21293508 21741990 22180780 22613168 23043252 23475298 23913014 
1026.916 24359496 24817384 25289304 25778386 26288464 26823780 27388448 
1030.291 27985704 28617402 29283900 29984372 30717220 31480510 32271948 
1033.666 33088582 33926092 34778364 35637268 36493212 37336004 38155996 
1037.041 38944848 39695992 40404272 41065584 41675992 42231376 42727284 
1040.417 43159052 43522300 43813328 44029488 44169524 44233832 44224420 
1043.792 44144924 44000404 43796956 43541276 43240292 42900840 42529460 
1047.167 42132500 41716032 41285924 40847676 40406324 39966224 39530828 
1050.542 39102684 38683556 38274520 37876236 37489120 37113560 36749896 
1053.917 36398656 36060332 35735504 35424796 35129072 34849648 34588728 
1057.293 34349808 34138088 33960640 33826168 33744664 33726548 33781876 
1060.668 33919684 34147492 34471196 34895224 35422716 36055732 36795124 
1064.043 37640248 38588688 39635928 40775648 42000168 43301548 44672476 
1067.418 46107076 47601016 49151036 50754028 52406184 54102276 55835616 
1070.794 57598472 59382828 61181056 62986584 64794016 66599256 68399288 
1074.169 70191864 71974960 73746024 75500936 77233336 78934280 80592784 
1077.544 82196904 83735464 85199216 86580976 87874648 89073248 90167000 
1080.919 91142136 91981512 92666560 93180344 93510368 93650696 93602520 
1084.295 93373464 92976352 92427352 91744336 90945248 90046880 89063880 
1087.670 88008152 86889096 85714224 84490272 83224192 81923912 80598352 
1091.045 79257120 77909784 76565048 75230056 73909928 72607584 71323848 
1094.420 70057856 68807672 67571088 66346324 65132536 63930024 62739812 
1097.796 61563248 60401284 59254324 58122068 57003992 55899888 54810180 
1101.171 53735960 52678780 51640152 50621200 49622448 48644288 47687248 
1104.546 46752604 45842596 44960384 44109684 43294288 42517792 41783372 
1107.921 41093784 40451516 39858732 39317156 38827876 38391008 38005680 
1111.297 37670092 37381948 37138696 36937984 36777724 36656132 36571472 
1114.672 36521964 36505600 36520352 36564276 36635776 36733668 36857380 
1118.047 37006728 37181900 37383368 37611760 37867732 38151848 38464192 
1121.422 38803916 39168844 39555156 39957304 40368156 40779300 41181508 
1124.798 41565048 41919992 42236416 42504872 42716764 42865180 42945360 
1128.173 42955112 42894672 42766004 42571932 42315208 41997728 41620524 
1131.548 41184072 40688688 40135060 39524468 38858624 38139508 37369180 
1134.923 36549768 35683704 34774076 33824880 32841110 31828514 30793286 
1138.299 29741642 28679550 27612600 26546112 25485296 24435488 23402276 
1141.674 22391470 21408900 20460244 19550568 18684058 17863754 17091582 
1145.049 16368346 15694036 15068057 14489573 13957663 13471447 13030006 
1148.424 12632279 12276883 11961950 11685173 11443872 11235122 11056155 
1151.800 10904461 10778064 10675469 10595579 10537487 10500240 10482728 
1155.175 10483699 10501909 10536370 10586594 10652767 10735676 10836582 
1158.550 10956946 11098141 11261339 11447372 11656960 11890845 12150048 
1161.925 12436065 12750967 13097410 13478681 13898574 14361437 14872116 
1165.301 15435930 16058688 16746534 17505902 18343432 19265968 20280584 
1168.676 21394636 22615812 23952056 25411388 27001480 28729110 30599424 
1172.051 32615334 34776728 37079896 39517324 42077120 44742852 47493120 
1175.426 50301172 53134352 55953872 58714916 61367692 63859272 66136552 
1178.802 68149872 69856704 71225080 72236040 72884712 73180024 73142880 
1182.177 72803560 72198440 71366600 70347320 69178200 67894112 66526968 
1185.552 65105472 63655000 62197328 60750580 59328960 57943196 56600980 
1188.927 55307704 54067080 52881508 51752216 50679356 49662040 48698648 
1192.302 47787288 46926348 46114868 45352648 44639952 43976976 43363320 
1195.678 42797668 42277704 41800464 41362692 40961292 40593408 40256520 
1199.053 39948140 39665900 39407428 39170556 38953604 38755284 38574688 
1202.428 38410912 38262540 38127408 38002392 37883736 37767356 37649232 
1205.803 37525696 37393568 37250088 37092812 36919604 36728700 36518740 
1209.179 36288876 36038472 35766940 35473452 35156836 34815800 34449472 
1212.554 34057828 33642156 33205018 32749882 32280436 31799964 31310826 
1215.929 30814544 30311954 29803798 29291058 28775230 28258202 27742064 
1219.304 27228796 26720020 26216936 25720370 25230884 24748934 24274920 
1222.680 23809392 23353008 22906562 22471044 22047452 21636576 21238900 
1226.055 20854354 20482314 20121810 19771832 19431620 19101000 18780360 
1229.430 18470540 18172432 17886674 17613422 17352394 17102996 16864588 
1232.805 16636756 16419341 16212346 16015738 15829185 15652147 15483800 
1236.181 15323332 15170139 15024015 14885111 14753756 14630218 14514470 
1239.556 14406030 14304048 14207482 14115320 14026888 13941973 13860776 
1242.931 13783933 13712223 13646394 13586976 13534136 13487661 13447030 
1246.306 13411543 13380599 13353767 13331005 13312602 13299114 13291241 
1249.682 13289636 13294807 13307112 13326712 13353656 13387892 13429233 
1253.057 13477296 13531479 13590971 13654886 13722308 13792586 13865323 
1256.432 13940501 14018314 14099117 14183201 14270775 14361851 14456172 
1259.807 14553185 14652011 14751361 14849615 14944930 15035525 15119854 
1263.183 15196796 15265714 15326294 15378240 15421113 15454109 15476233 
1266.558 15486491 15484209 15469243 15441906 15402825 15352549 15291229 
1269.933 15218483 15133421 15034859 14921683 14793120 14648829 14488953 
1273.308 14314045 14124936 13922693 13708466 13483474 13248891 13005634 
1276.684 12754409 12495597 12229463 11956342 11676898 11392252 11104015 
1280.059 10814062 10524351 10236596 9952253 9672521 9398611 9131904 8874060 
1283.916 8627017 8392658 8172583 7967881 7779100 7606406 7449930 7310047 
1287.774 7187579 7083709 6999685 6936510 6894516 6873283 6871553 6887502 
1291.631 6918936 6963502 7018850 7082670 7152759 7226999 7303507 7380726 
1295.489 7457412 7532733 7606052 7676834 7744562 7808636 7868410 7923369 
1299.346 7973148 8017681 8057136 8091887 8122378 8149081 8172407 8192747 
1303.203 8210394 8225638 8238660 8249560 8258367 8265096 8269794 8272653 
1307.061 8273961 8274162 8273653 8272731 8271514 8269920 8267699 8264572 
1310.918 8260289 8254719 8247836 8239737 8230639 8220849 8210832 8201179 
1314.776 8192575 8185692 8181008 8178708 8178579 8180133 8182728 8185830 
1318.633 8189116 8192645 8196688 8201600 8207600 8214571 8222081 8229469 
1322.490 8236056 8241386 8245437 8248638 8251879 8256317 8263226 8273773 
1326.348 8288904 8309368 8335589 8367831 8406207 8450790 8501520 8558300 
1330.205 8620927 8689024 8762006 8839212 8919925 9003531 9089617 9178016 
1334.063 9268816 9362192 9458411 9557716 9660324 9766524 9876685 9991304 
1337.920 10110877 10235829 10366312 10502166 10643062 10788617 10938699 
1341.295 11093543 11253735 11420086 11593304 11773756 11961361 12155669 
1344.671 12356137 12562400 12774387 12992369 13216631 13447203 13683531 
1348.046 13924406 14168134 14412823 14656712 14898436 15136974 15371566 
1351.421 15601346 15825181 16041496 16248403 16443856 16625911 16792908 
1354.796 16943574 17077058 17192826 17290578 17370302 17432188 17476804 
1358.172 17505098 17518558 17519018 17508570 17489354 17463220 17431592 
1361.547 17395482 17355440 17311826 17264954 17215120 17162534 17107124 
1364.922 17048132 16983960 16912078 16829214 16731733 16616213 16479994 
1368.297 16321626 16141184 15940461 15723045 15494388 15261811 15034488 
1371.673 14823224 14640062 14497551 14407933 14381875 14427531 14549434 
1375.048 14747943 15018885 15353863 15740810 16164829 16609289 17056950 
1378.423 17491002 17896106 18259046 18569052 18817748 18998874 19107942 
1381.798 19142080 19099978 18982140 18790976 18530678 18206888 17826272 
1385.174 17395986 16923326 16415614 15880066 15323758 14753291 14174585 
1388.549 13592561 13010930 12432293 11858393 11290500 10729875 10178073 
1391.924 9637119 9109523 8598228 8106369 7637125 7193421 6777674 6391627 
1395.781 6036211 5711435 5416583 5150295 4910810 4696146 4504242 4333128 
1399.639 4180861 4045638 3925664 3819134 3724241 3639168 3562219 3491843 
1403.496 3426780 3366162 3309377 3256173 3206380 3159960 3116854 3077084 
1407.354 3040610 3007437 2977497 2950712 2926843 2905579 2886566 2869563 
1411.211 2854400 2841176 2830037 2821113 2814384 2809573 2806274 2803978 
1415.069 2802313 2801182 2800766 2801435 2803577 2807431 2812979 2820026 
1418.926 2828250 2837439 2847571 2858967 2872134 2887793 2906656 2929409 
1422.783 2956557 2988366 3024783 3065444 3109707 3156792 3206007 3257040 
1426.641 3310017 3365624 3424884 3488928 3558829 3635393 3719129 3810472 
1430.498 3909824 4017738 4134727 4261296 4397721 4544199 4701074 4869286 
1434.356 5050761 5248588 5466880 5710390 5983820 6291299 6636126 7020773 
1438.213 7447160 7916955 8431561 8991870 9597731 10247475 10937491 11662275 
1442.071 12414743 13186565 13968700 14751787 15526465 16283859 17015866 
1445.446 17715530 18377068 18995826 19567850 20089794 20558788 20972636 
1448.821 21330246 21631818 21878620 22072824 22216742 22312358 22361106 
1452.196 22363858 22321128 22233322 22100570 21922838 21699746 21430722 
1455.572 21115428 20754246 20348830 19902050 19417756 18900220 18353544 
1458.947 17781428 17187348 16574819 15947671 15310003 14666046 14019777 
1462.322 13374774 12734367 12101939 11481201 10876320 10291565 9730694 
1465.697 9196396 8689912 8211160 7759180 7332799 6931007 6553273 6199311 
1469.555 5868787 5561018 5274885 5008766 4760875 4529484 4313102 4110545 
1473.412 3921046 3744126 3579680 3427859 3289022 3163518 3051409 2952265 
1477.270 2865038 2788065 2719428 2657225 2599952 2546631 2496844 2450431 
1481.127 2407391 2367550 2330651 2296351 2264383 2234701 2207404 2182733 
1484.984 2160832 2141642 2124790 2109652 2095495 2081627 2067549 2053032 
1488.842 2038157 2023195 2008613 1994876 1982401 1971463 1962114 1954141 
1492.699 1947168 1940649 1934097 1927117 1919587 1911609 1903515 1895640 
1496.557 1888287 1881578 1875428 1869636 1863958 1858287 1852674 1847364 
1500.414 1842686 1838991 1836466 1835070 1834471 1834168 1833568 1832132 
1504.271 1829496 1825524 1820319 1814213 1807524 1800605 1793662 1786761 
1508.129 1779969 1773255 1766723 1760453 1754571 1749133 1744133 1739397 
1511.986 1734793 1730170 1725539 1721034 1716876 1713308 1710469 1708323 
1515.844 1706666 1705136 1703368 1700963 1697644 1693249 1687705 1681053 
1519.701 1673488 1665345 1657095 1649279 1642328 1636453 1631568 1627161 
1523.559 1622621 1617339 1610977 1603659 1595938 1588664 1582701 1578610 
1527.416 1576533 1576082 1576568 1577149 1577174 1576286 1574482 1572018 
1531.273 1569287 1566637 1564231 1562092 1560123 1558164 1556135 1554085 
1535.131 1552141 1550556 1549553 1549294 1549812 1550934 1552333 1553545 
1538.988 1554126 1553683 1552024 1549135 1545231 1540582 1535502 1530257 
1542.846 1525071 1520160 1515690 1511820 1508727 1506386 1504688 1503308 
1546.703 1501785 1499627 1496507 1492342 1487304 1481806 1476290 1471111 
1550.561 1466375 1461884 1457243 1452010 1445887 1438829 1431079 1423130 
1554.418 1415498 1408672 1402947 1398419 1395062 1392783 1391549 1391369 
1558.275 1392348 1394482 1397655 1401548 1405634 1409231 1411704 1412489 
1562.133 1411335 1408244 1403603 1398028 1392355 1387398 1383946 1382509 
1565.990 1383311 1386200 1390659 1395879 1400900 1404726 1406554 1405935 
1569.848 1402926 1398104 1392499 1387406 1384101 1383595 1386423 1392545 
1573.705 1401391 1411958 1423022 1433338 1441897 1448119 1451860 1453430 
1577.563 1453490 1452770 1452017 1451771 1452305 1453636 1455567 1457846 
1581.420 1460148 1462215 1463818 1464746 1464806 1463816 1461688 1458539 
1585.277 1454750 1450985 1448125 1447019 1448340 1452325 1458667 1466626 
1589.135 1475151 1483110 1489567 1493923 1495987 1495955 1494327 1491842 
1592.992 1489316 1487652 1487628 1489832 1494526 1501547 1510322 1520034 
1596.850 1529779 1538785 1546665 1553413 1559386 1565102 1571147 1577972 
1600.707 1585902 1595092 1605646 1617538 1630651 1644698 1659165 1673333 
1604.564 1686509 1698109 1707957 1716285 1723739 1731166 1739379 1748892 
1608.422 1759859 1772097 1785269 1799053 1813263 1827912 1843125 1858926 
1612.279 1875239 1891724 1907904 1923200 1937129 1949395 1959894 1968791 
1616.137 1976417 1983161 1989457 1995553 2001614 2007568 2013211 2018256 
1619.994 2022580 2026089 2029019 2031746 2034783 2038531 2043216 2048729 
1623.852 2054661 2060502 2065737 2070054 2073291 2075493 2076697 2076852 
1627.709 2075773 2073171 2068829 2062794 2055411 2047435 2039760 2033327 
1631.566 2028799 2026466 2026197 2027536 2029827 2032426 2034765 2036369 
1635.424 2036924 2036180 2033975 2030148 2024640 2017559 2009207 2000087 
1639.281 1990877 1982284 1974954 1969253 1965198 1962471 1960480 1958532 
1643.139 1955996 1952551 1948198 1943198 1938004 1933049 1928617 1924738 
1646.996 1921344 1918295 1915632 1913544 1912404 1912615 1914404 1917648 
1650.854 1921938 1926569 1930814 1934218 1936745 1938863 1941382 1945102 
1654.711 1950558 1957788 1966329 1975311 1983830 1991141 1996943 2001438 
1658.568 2005269 2009289 2014323 2020858 2028977 2038266 2048032 2057515 
1662.426 2066115 2073711 2080636 2087657 2095794 2106004 2118925 2134692 
1666.283 2152854 2172482 2192444 2211557 2228975 2244217 2257285 2268575 
1670.141 2278629 2287952 2296927 2305645 2314094 2322244 2330275 2338596 
1673.998 2347999 2359369 2373613 2391286 2412434 2436495 2462450 2488946 
1677.855 2514751 2538945 2561086 2581286 2600048 2618156 2636382 2655332 
1681.713 2675414 2696824 2719635 2743837 2769427 2796409 2824748 2854392 
1685.570 2885306 2917418 2950749 2985311 3021057 3057906 3095564 3133687 
1689.428 3171868 3209855 3247724 3286002 3325570 3367474 3412702 3461820 
1693.285 3514847 3571185 3629944 3690080 3750942 3812425 3875075 3939858 
1697.143 4007825 4079749 4155913 4236177 4320140 4407549 4498621 4594170 
1701.000 4695497 4804055 4920839 5046215 5179670 5320033 5465884 5616078 
1704.857 5770087 5928249 6091702 6261950 6440560 6628767 6827394 7036806 
1708.715 7257190 7488585 7731011 7984400 8248614 8523199 8807684 9101482 
1712.572 9404270 9715895 10036488 10366129 10704847 11052386 11408372 
1715.948 11772460 12144633 12525249 12914893 13314149 13723247 14141911 
1719.323 14569546 15005673 15450656 15906000 16374560 16860294 17367678 
1722.698 17901156 18464806 19062308 19697314 20373716 21096108 21869746 
1726.073 22700394 23594132 24557038 25595146 26714432 27920682 29219598 
1729.448 30616394 32115986 33723272 35443872 37284884 39255500 41366356 
1732.824 43628312 46049824 48634724 51380716 54280060 57322132 60496956 
1736.199 63798308 67224416 70776360 74454040 78251944 82155696 86141456 
1739.574 90177760 94228936 98258472 102230296 106108400 109855272 113431320 
1742.949 116796528 119913568 122750856 125283936 127493688 129363216 
1745.843 130875552 132014360 132768032 133134784 133125928 132765208 
1748.736 132083416 131111872 129877344 128400648 126699008 124789760 
1751.629 122693776 120435128 118039080 115528432 112921032 110229408 
1754.522 107462504 104628536 101737384 98801768 95837160 92860424 89888664 
1757.897 86938168 84024048 81160024 78358064 75628152 72977760 70411776 
1761.272 67932848 65542392 63241416 61031360 58913988 56891012 54963260 
1764.647 53129904 51388436 49734940 48164876 46673688 45257388 43912388 
1768.023 42635196 41421880 40267652 39167004 38113804 37102124 36126332 
1771.398 35181664 34264056 33370010 32496410 31640148 30798072 29966972 
1774.773 29143650 28325146 27508822 26692692 25875440 25056640 24236458 
1778.148 23415800 22595840 21778070 20964064 20155678 19355004 18564502 
1781.524 17786860 17024874 16281256 15558362 14858197 14182362 13532174 
1784.899 12908667 12312678 11744873 11205586 10694792 10212106 9756843 
1788.274 9328062 8924749 8545872 8190621 7858225 7548237 7260129 6993274 
1792.132 6746786 6519405 6309514 6115349 5935199 5767610 5611467 5466029 
1795.989 5330727 5204957 5087904 4978520 4875524 4777654 4683848 4593364 
1799.846 4505882 4421432 4340341 4263037 4189913 4121206 4056897 3996630 
1803.704 3939836 3885817 3833898 3783676 3735103 3688442 3644016 3601912 
1807.561 3561719 3522404 3482474 3440521 3395582 3347723 3297898 3247722 
1811.419 3198827 3152137 3107568 3063981 3019859 2974090 2926690 2879250 
1815.276 2834620 2796293 2767213 2748936 2741019 2740967 2745037 2748984 
1819.134 2749126 2742814 2728732 2706687 2677371 2642071 2602546 2560843 
1822.991 2519295 2480130 2445170 2415498 2391125 2371028 2353349 2335963 
1826.848 2316928 2294957 2269547 2241098 2210557 2179208 2148321 2118901 
1830.706 2091562 2066367 2042910 2020288 1997405 1973110 1946443 1916946 
1834.563 1884743 1850557 1815621 1781311 1748870 1719106 1692179 1667591 
1838.421 1644378 1621415 1597781 1573072 1547587 1522172 1497982 1475937 
1842.278 1456417 1438925 1422204 1404607 1384599 1361359 1334924 1306366 
1846.135 1277162 1248979 1223133 1200583 1181991 1168048 1159533 1157267 
1849.993 1161680 1172315 1187389 1204011 1218607 1227967 1229982 1224472 
1853.850 1212911 1197966 1182329 1167854 1155064 1143336 1131398 1118382 
1857.708 1104194 1089921 1077047 1067120 1060810 1057763 1056651 1055888 
1861.565 1054086 1050653 1045674 1039692 1033132 1026006 1017826 1007846 
1865.423 995604 981330 966069 951572 939768 932117 929101 929948 932920 
1869.762 935611 935620 931240 921717 907599 890478 872631 856609 844667 
1874.102 838284 837903 842820 851432 861513 870770 877236 879750 877983 
1878.441 872527 864421 854907 844956 834932 824569 813271 800332 785581 
1882.781 769685 754149 740901 731850 727948 728758 732487 736439 737958 
1887.121 735585 729551 722050 716269 715347 720955 732606 747469 761349 
1891.460 769918 770228 761393 744890 723730 701483 680958 663674 649424 
1895.800 637010 624788 611492 596760 581308 566686 554936 547817 546663 
1900.139 551644 561839 575180 588949 600479 607743 610019 608090 603795 
1904.479 599423 596618 595974 596653 597211 596318 593783 591145 591129 
1908.819 596807 610097 630467 654864 678004 694016 698266 688610 666064 
1913.158 634423 598793 564138 533878 509794 491840 479186 470832 466243 
1917.498 464987 466573 469612 471763 470091 461957 446035 423282 396890 
1921.837 371824 353392 345497 349679 364233 384613 405040 419949 425864 
1926.177 422122 410879 396167 382067 371324 364389 359300 352738 341184 
1930.517 322634 297330 267778 237951 211933 192489 180211 173257 168316 
1934.856 161826 151356 136732 120298 106237 99612 104728 124026 157605 
1939.196 203353 257516 316206 375727 433562 488029 538323 583681 623210 
1943.535 655301 678068 689174 685798 664968 624112 562044 479961 382660 
1947.875 279121 181371 102359 51826 33392 41785 63752 81426 77938 43516 
1952.697 -20519 -101811 -180526 -236386 -255242 -233938 -180329 -109930 
1956.554 -38964 21199 67991 107076 148336 200202 265187 338567 410746 472014 
1961.376 517329 547453 567659 582995 594863 598291 584670 545102 476195 
1965.716 382622 277087 175312 90904 29589 -11769 -43630 -77959 -122471 
1970.055 -176849 -233363 -279153 -303659 -302444 -280484 -251189 -231273 
1973.913 -234988 -267808 -322250 -377949 -405268 -373224 -257597 -51189 
1977.770 231226 553102 864485 1115127 1267914 1306643 1238973 1091506 901761 
1982.110 707906 540360 414399 329650 272815 224928 169387 98060 13174 -73886 
1986.931 -148520 -198119 -217406 -209631 -185278 -157938 -139469 -135757 
1990.789 -145187 -158782 -163945 -147981 -102658 -26999 71746 179378 277549 
1995.128 348556 378333 359515 293015 186852 54002 -89971 -230064 -353893 
1999.468 -453125 -523409 -564023 -576027 -562444 -526169 -471031 -401849 
2003.325 -325418 -250795 -189034 -151054 -144583 -169925 -217586 -268511 
2007.183 -297365 -279542 -199741 -56962 133035 342573 538931 693897 789506 
2011.522 821383 796120 726076 623289 495573 346495 178758 -1522 -181144 
2015.862 -340528 -457701 -515789 -508816 -446011 -349628 -249404 -174160 
2019.719 -143963 -166120 -235034 -335254 -447596 -553624 -639712 -697965 
2023.577 -726522 -728391 -710588 -682487 -654191 -634302 -628487 -637684 
2027.434 -659174 -687535 -717881 -746738 -773360 -797613 -817966 -829346 
2031.292 -823009 -789344 -721965 -621517 -498201 -369768 -257292 -178915 
2035.149 -144874 -155715 -203990 -276743 -360320 -442333 -513951 -568200 
2039.007 -600998 -610556 -598563 -570208 -533906 -499052 -473226 -459356 
2042.864 -454125 -449517 -436019 -406184 -357987 -294511 -221691 -144567 
2046.721 -63761 24944 127843 248921 384884 523905 647836 738049 781529 
2051.061 774761 723992 642524 546017 448346 358379 278960 208921 145560 
2055.401 88124 40040 7910 88 22640 76687 156797 251435 345217 422889 473157 
2060.705 491507 480863 450193 411420 375939 350825 337674 332536 328275 
2065.044 317893 297771 269659 240362 219319 215195 231998 267479 312970 
2069.384 356110 384737 390806 372783 335981 290893 249469 221916 214221 
2073.723 227040 256524 296002 337891 375453 404065 421135 426308 421033 
2078.063 408438 392865 379487 373404 378930 398111 430376 472095 517093 
2082.403 557885 587544 601083 596753 576636 546063 512310 482979 463705 
2086.742 457176 462022 473322 483503 484373 469002 433444 377763 306042 
2091.082 225489 145185 74134 19823 -12613 -20750 -4696 33717 91257 163958 
2095.904 246868 333997 418304 492114 547843 579784 585278 565793 526757 
2100.243 476850 425597 381536 350414 334268 331912 340157 355158 373570 
2104.583 393108 412288 429889 445006 456744 465176 471649 478777 489835 
2108.922 507174 530864 557939 582812 599001 601475 588732 563520 532030 
2113.262 501177 476212 458106 443242 424409 393582 344908 276612 191808 
2117.602 97624 2828 -84129 -156958 -212451 -249935 -270877 -277917 -274609 
2121.941 -265271 -254673 -247667 -248516 -259702 -281348 -311328 -345527 
2125.799 -379442 -409566 -433963 -453000 -468282 -482061 -496307 -512107 
2129.656 -529799 -549643 -572031 -597784 -627870 -662722 -701798 -743147 
2133.513 -783802 -820527 -850989 -874819 -894359 -914303 -941126 -981432 
2137.371 -1039787 -1117100 -1209448 -1308028 -1400894 -1475777 -1523802 
2140.746 -1541901 -1535501 -1516148 -1499358 -1499682 -1526344 -1581538 
2144.121 -1660204 -1752954 -1849590 -1941764 -2024676 -2095412 -2151913 
2147.497 -2191470 -2211688 -2212692 -2200492 -2187755 -2193248 -2236398 
2150.872 -2331546 -2482310 -2680181 -2906604 -3139959 -3361613 -3562165 
2154.247 -3741090 -3901790 -4045111 -4162357 -4233268 -4230309 -4127201 
2157.622 -3912760 -3599650 -3226332 -2848779 -2523067 -2287196 -2152972 
2160.998 -2108643 -2128796 -2183895 -2248101 -2300791 -2326285 -2312989 
2164.373 -2254006 -2148785 -2004885 -1837015 -1664530 -1506382 -1376644 
2167.748 -1280861 -1217322 -1179757 -1162608 -1164740 -1190307 -1247190 
2171.123 -1341927 -1474819 -1636743 -1809522 -1968983 -2090917 -2156371 
2174.499 -2156349 -2093485 -1980612 -1838187 -1689567 -1557305 -1459073 
2177.874 -1406092 -1401276 -1438715 -1504438 -1579385 -1642032 -1674090 
2181.249 -1664640 -1612448 -1526401 -1422763 -1320142 -1235161 -1178245 
2184.624 -1152380 -1154222 -1175528 -1205943 -1235031 -1253584 -1255190 
2188.000 -1236414 -1197306 -1141319 -1074344 -1003515 -935713 -875594 
2191.375 -825236 -784357 -751558 -725662 -706860 -696359 -696021 -706525 
2195.232 -726575 -752441 -779234 -801363 -815030 -817916 -809726 -790927 
2199.090 -762264 -723867 -676232 -620301 -558811 -496063 -437379 -387566 
2202.947 -349908 -324807 -310504 -303933 -302179 -303767 -308671 -317642 
2206.804 -331097 -348106 -366663 -383753 -397262 -406307 -411892 -415649 
2210.662 -419219 -422126 -422174 -415275 -397379 -365762 -320225 -263192 
2214.519 -199284 -133561 -70823 -14800 32155 68385 92628 104477 103903 92475 
2219.341 72595 47567 20886 -4583 -27027 -44995 -57110 -61244 -54801 -35158 
2224.163 -1274 45230 99614 154666 202707 237850 257409 262793 258069 248108 
2228.985 236279 223810 209618 192017 170509 146960 125539 111393 108032 
2233.324 116626 134645 157471 180284 199942 216280 231305 247602 266220 
2237.664 285333 300330 305253 295630 270153 232329 189333 150510 124617 
2242.003 117875 132832 168445 221213 286132 357415 428840 493551 544324 
2246.343 574465 578812 555532 507406 441412 368120 299119 244656 211470 
2250.683 201785 213631 241957 280338 322861 364904 403638 437724 466837 
2255.022 491045 510649 525817 537017 544771 549814 553053 555482 557813 
2259.362 560462 563428 566124 567601 566788 563004 556159 547464 539385 
2263.701 535405 539554 555318 584770 628059 682749 744445 807252 864925 
2268.041 912114 944979 962289 965121 957101 943405 930115 922943 926460 
2272.381 942990 972480 1012401 1058439 1105333 1147847 1181782 1204661 
2276.238 1215841 1216587 1209650 1198654 1187548 1179838 1178100 1183608 
2280.095 1196038 1213500 1232970 1250851 1263881 1269900 1268399 1260973 
2283.953 1250771 1241968 1238558 1243550 1257994 1280894 1309251 1339011 
2287.810 1365688 1385601 1396344 1397123 1388739 1373151 1352942 1330813 
2291.668 1309103 1289651 1273533 1260997 1251627 1244370 1237612 1229734 
2295.525 1219306 1205586 1188751 1170041 1151519 1135650 1124913 1121197 
2299.383 1125608 1138298 1158536 1184865 1215262 1247288 1278256 1305574 
2303.240 1326887 1340655 1346360 1344761 1337634 1327456 1316708 1307429 
2307.097 1300763 1296907 1295489 1295767 1297255 1299797 1303720 1309483 
2310.955 1317599 1328164 1340845 1354752 1368558 1380756 1389896 1395014 
2314.812 1395989 1393767 1390409 1388652 1391338 1400596 1417303 1440868 
2318.670 1469865 1502814 1539228 1580004 1627009 1681772 1743662 1808396 
2322.527 1867828 1911011 1926942 1907503 1849877 1757617 1639872 1509464 
2326.385 1379946 1263123 1166955 1094834 1045772 1015870 999898 992676 
2330.242 990161 989398 988457 986017 981398 974570 966382 958448 952744 
2334.582 950888 953482 959709 967588 974533 978361 978000 973728 967077 
2338.921 959915 953853 949659 947069 945150 942910 939541 934792 928890 
2343.261 922234 915183 907927 900495 892990 885499 878091 870798 863432 
2347.600 855601 847068 837796 828442 820286 814850 813557 817084 824910 
2351.940 835394 846103 854483 858724 858058 853160 845586 837419 830563 
2356.280 826011 823669 822444 820557 816007 807312 793880 776206 755739 
2360.619 734512 714454 696944 682235 669720 658068 645987 632689 618371 
2364.959 604025 591259 581565 575904 574460 576565 581171 587208 593895 
2369.298 600790 607736 614733 621701 628641 635624 642855 650603 658989 
2373.638 667647 675779 682173 685654 685627 682509 677623 672861 670017 
2377.978 670129 673302 678873 685868 693881 702994 713922 727319 743013 
2382.317 759804 775435 787518 794299 795407 791945 785910 779339 773323 
2386.657 767760 761764 754483 745884 737347 731126 729448 733343 741883 
2390.996 752421 761329 765610 763895 757085 747908 739775 735474 736213 
2395.336 741533 749709 758793 767425 775117 782132 788774 794891 799688 
2399.676 801812 800106 794167 784636 773169 761892 752743 747016 745169 
2404.015 746859 751486 758242 766896 777264 789494 803859 820499 839319 
2408.355 859928 881483 902656 921683 936717 946036 948450 943681 932209 
2412.694 915371 894674 871724 847825 824117 801629 781501 764972 753213 
2417.034 747048 746681 751485 760303 771612 783831 795619 805814 813330 
2421.374 817106 816274 810354 799717 785824 771006 757988 749020 745219 
2425.713 746120 750114 754944 758738 760453 760150 758559 756310 753533 
2430.053 749742 744189 736655 728130 720753 717407 720398 730599 746644 
2434.392 765013 781181 790969 791914 784004 769576 752355 736196 723969 
2438.732 716896 714727 716334 720496 726395 733851 742868 753159 763741 
2443.072 772803 778134 777684 770495 757005 739129 719814 702265 689134 
2447.411 681941 680843 684994 693067 703961 716994 732175 749719 769719 
2451.751 791440 813355 833292 848915 858432 861175 857655 849492 838801 
2456.090 827509 816935 807596 799149 790879 781959 771739 759924 746604 
2460.430 732262 717687 703887 692162 683635 678948 678104 679937 682420 
2464.770 683022 679530 670801 657374 641469 626637 616546 614002 620111 
2469.109 633751 651894 670606 686157 696138 699991 699163 696298 694364 
2473.449 695423 699824 706224 711867 713690 709494 698846 683356 666293 
2477.788 651588 642455 640547 645349 654723 665773 675868 683718 689378 
2482.128 693924 698636 703948 709335 713226 713829 710155 702418 692407 
2486.468 682750 675992 673826 676428 682516 689910 696211 699551 699088 
2490.807 694780 687446 678250 668510 659582 652736 649023 649098 653065 
2495.147 660070 668758 677250 683757 686978 686478 682429 675680 667188 
2499.486 658093 649379 641962 637035 635740 639123 647753 661368 678628 
2503.826 697418 715073 729137 737785 740225 736781 728645 717496 705240 
2508.166 693399 683177 675119 669276 665363 662796 661408 661125 662466 
2512.505 666010 672094 680359 689492 697329 701572 700557 694030 683601 
2516.845 672312 663957 661642 666939 679419 696726 715748 733536 748240 
2521.184 759443 767749 774140 779297 782982 784403 782472 776405 766115 
2525.524 752434 736593 720092 704049 689377 676504 665794 657374 651413 
2529.864 647802 646280 646505 648079 650852 655086 661323 669893 680739 
2534.203 693026 705328 715903 723498 727611 728950 729216 730438 734572 
2538.543 742578 754373 768944 784438 798881 810506 818091 821232 820311 
2542.882 816621 811742 807523 805188 805044 806012 806139 802960 794817 
2547.222 781470 764822 748390 736384 732153 737215 750309 768022 785684 
2551.562 798911 804998 803191 794840 782320 768092 754057 741518 731362 
2555.901 724809 723462 729278 743924 767708 799163 834816 869870 899356 
2560.241 919315 927864 925574 914931 899706 883648 869803 859857 854129 
2564.580 851943 852018 852958 853795 854032 853858 854053 855654 859931 
2568.920 867752 879257 893755 909522 924275 935685 942021 942937 939503 
2573.260 934125 929889 929436 934186 943851 956266 968300 976860 980041 
2577.599 977691 971567 964665 960070 959922 964473 972320 980774 987075 
2581.939 989296 987046 981602 975258 970578 969533 972970 980557 990912 
2586.278 1002249 1012658 1020484 1024490 1024196 1019765 1012312 1003713 
2590.136 996332 992543 994018 1001142 1012801 1026667 1039977 1050318 
2593.993 1056559 1058934 1058827 1058077 1058031 1059009 1060282 1060523 
2597.851 1058591 1054182 1048181 1042343 1038720 1038695 1042558 1049283 
2601.708 1056891 1063144 1066370 1065802 1061880 1055902 1049521 1044323 
2605.565 1041267 1040658 1042262 1045463 1049833 1055155 1061770 1070361 
2609.423 1081748 1096432 1114145 1133667 1152903 1169114 1179789 1183261 
2613.280 1179289 1169400 1156446 1144101 1135945 1134579 1141206 1155420 
2617.138 1175449 1198749 1222509 1244091 1261569 1273807 1280617 1282723 
2620.995 1281694 1279567 1278519 1280319 1285933 1295276 1307201 1319826 
2624.853 1331093 1339416 1343931 1344892 1343280 1340471 1337968 1336804 
2628.710 1337481 1339956 1343764 1348304 1353023 1357523 1361601 1365345 
2632.567 1368843 1372211 1375368 1378030 1379846 1380506 1380016 1378792 
2636.425 1377895 1378642 1382308 1389673 1400625 1414033 1427935 1440108 
2640.282 1448893 1453588 1454802 1454110 1453524 1454836 1458791 1464912 
2644.140 1471701 1477046 1479020 1476404 1469125 1458034 1444791 1431180 
2647.997 1418809 1408656 1401085 1395778 1392175 1389513 1387188 1384720 
2651.854 1381922 1378731 1375246 1371457 1367408 1363056 1358409 1353412 
2655.712 1348219 1343050 1337978 1333064 1328139 1322714 1316094 1307627 
2659.569 1296662 1283012 1266783 1248455 1228716 1208278 1187783 1167703 
2663.427 1148394 1130223 1113607 1098878 1086391 1076291 1068407 1062340 
2667.284 1057404 1053037 1048740 1044255 1039687 1035368 1031788 1029395 
2671.142 1028536 1029489 1032132 1036177 1040886 1045310 1048306 1048700 
2674.999 1045706 1039124 1029543 1018277 1007161 998072 992534 991361 994485 
2679.339 1001003 1009530 1018490 1026406 1032273 1035390 1035630 1033099 
2683.196 1028325 1021881 1014645 1007524 1001334 996739 994028 993201 993891 
2687.536 995578 997841 1000374 1003024 1005927 1009029 1012258 1015146 
2691.393 1017055 1017273 1015251 1010816 1004382 996730 988959 982077 976868 
2695.733 973521 971786 971113 970772 970333 969632 968805 968148 967979 
2700.072 968332 969073 969751 969961 969367 967878 965730 963157 960619 
2704.412 958325 956553 955350 954851 955248 956683 959205 962632 966458 
2708.751 969942 972278 972904 971502 968342 963922 958958 953956 949197 
2713.091 944635 940127 935562 931105 927200 924417 923212 923702 925626 
2717.431 928359 931092 933182 934219 934294 933588 932436 931111 929777 
2721.770 928478 927197 926043 925252 925043 925552 926772 928501 930394 
2726.110 932134 933510 934495 935288 936091 937159 938600 940489 942871 
2730.449 945791 949269 953204 957387 961389 964690 966841 967687 967429 
2734.789 966723 966390 967228 969510 972944 976736 979780 981087 980162 
2739.129 977141 972838 968332 964713 962602 962195 963014 964494 965918 
2743.468 966940 967477 967739 968165 968968 970248 971877 973470 974641 
2747.808 975005 974230 972216 968943 964539 959279 953577 947937 942930 
2752.147 939042 936587 935501 935352 935516 935275 934031 931683 928560 
2756.487 925308 922773 921535 921788 923101 924625 925524 925170 923571 
2760.827 921373 919708 919740 922233 927228 933987 941219 947567 952007 
2765.166 954306 954805 954464 954215 954640 955795 957293 958504 958976 
2769.506 958718 958154 958015 958876 960876 963477 965728 966378 964573 
2773.845 959961 953002 944689 936319 929048 923630 920342 919101 919789 
2778.185 922222 926436 932544 940437 949717 959492 968659 976027 980730 
2782.525 982536 981888 979781 977635 976679 977992 982041 988846 997972 
2786.864 1008702 1020154 1031444 1041769 1050580 1057678 1063148 1067538 
2790.722 1071453 1075567 1080166 1085113 1089791 1093331 1094875 1093989 
2794.579 1090880 1086228 1081126 1076621 1073422 1071691 1071240 1071649 
2798.437 1072741 1074629 1077864 1083123 1090854 1100996 1112949 1125657 
2802.294 1137781 1148241 1156455 1162187 1165745 1167587 1168276 1168298 
2806.151 1168293 1168869 1170957 1175300 1182538 1192626 1205012 1218418 
2810.009 1231370 1242568 1251334 1257788 1262813 1267709 1273699 1281566 
2813.866 1291500 1303199 1315978 1329282 1342677 1355879 1368690 1380837 
2817.724 1391828 1401067 1408165 1413064 1416424 1419275 1423110 1429169 
2821.581 1438295 1450452 1464961 1480481 1495543 1508841 1519558 1527456 
2825.438 1532873 1536529 1539370 1542250 1546071 1551353 1558498 1567535 
2829.296 1578256 1590187 1602684 1615083 1626763 1637251 1646346 1654226 
2833.153 1661358 1668559 1676867 1687558 1701892 1721034 1745875 1776897 
2837.011 1814062 1856919 1904742 1956823 2012681 2072276 2136132 2205167 
2840.868 2280631 2363669 2455320 2556308 2667132 2788200 2919932 3063053 
2844.726 3218248 3386244 3567334 3761114 3965954 4178862 4395568 4610248 
2848.583 4816137 5005805 5171783 5307242 5406751 5466766 5486176 5466315 
2852.440 5410863 5325270 5216139 5090240 4953966 4812643 4670287 4529450 
2856.298 4391511 4256807 4125148 3996129 3869449 3745306 3624524 3508390 
2860.155 3398667 3297102 3205059 3123195 3051338 2988436 2932975 2883190 
2864.013 2837632 2795307 2755884 2719615 2687283 2659916 2638814 2625420 
2867.870 2621020 2626672 2642870 2669205 2704425 2746452 2792718 2840720 
2871.728 2888609 2935364 2980991 3026221 3072018 3119224 3168182 3218837 
2875.585 3270692 3323173 3375683 3427782 3478900 3528368 3575221 3618387 
2879.442 3656639 3689010 3714870 3733920 3746162 3751796 3751105 3744391 
2883.300 3732192 3715316 3694971 3672674 3650030 3628504 3609268 3592931 
2887.157 3579780 3569668 3562319 3557331 3554340 3553032 3553340 3555361 
2891.015 3559620 3566866 3577989 3593831 3614660 3640060 3669055 3700239 
2894.872 3732241 3764044 3795301 3826012 3856365 3886219 3915090 3942103 
2898.729 3966565 3988400 4008521 4028879 4052006 4080249 4115189 4157009 
2902.587 4204662 4256246 4309742 4363673 4417428 4471250 4526041 4582751 
2906.444 4642350 4705525 4772935 4845326 4923744 5009523 5104110 5208895 
2910.302 5325193 5454151 5596881 5754485 5928001 6118184 6324989 6547343 
2914.159 6782941 7028129 7278441 7528908 7774573 8010901 8233911 8440355 
2918.017 8627731 8794235 8938611 9060371 9159476 9236446 9291983 9327014 
2921.874 9342621 9339994 9320584 9286230 9239057 9181545 9116252 9045540 
2925.731 8971526 8895764 8819351 8742832 8666617 8590943 8516149 8442903 
2929.589 8372412 8306393 8246977 8196331 8156541 8129012 8114349 8112359 
2933.446 8122155 8142689 8173050 8212760 8261885 8320854 8390456 8471171 
2937.304 8563449 8667324 8782336 8907740 9041981 9182786 9327018 9470755 
2941.161 9609484 9738594 9853698 9951116 10027904 10081878 10111525 10115756 
2945.019 10094107 10046558 9973980 9878007 9760904 9625468 9474622 9311244 
2948.876 9138131 8957927 8773336 8586884 8401042 8217529 8037419 7860802 
2952.733 7687044 7515397 7345459 7177672 7013308 6854278 6702586 6559704 
2956.591 6426227 6301880 6185841 6077021 5974605 5877915 5786353 5699266 
2960.448 5615644 5534344 5454340 5375065 5296734 5220320 5147225 5078726 
2964.306 5015684 4958246 4905859 4857699 4813135 4771855 4734185 4700655 
2968.163 4671753 4647650 4627928 4611557 4597264 4583813 4570370 4556833 
2972.021 4544036 4533369 4526841 4526309 4533187 4547957 4570055 4598098 
2975.878 4630232 4664808 4701009 4738951 4779679 4824827 4875835 4933791 
2979.735 4999086 5071704 5151639 5239251 5335429 5441487 5558796 5688235 
2983.593 5830107 5984178 6150039 6327370 6516230 6716665 6928535 7150781 
2987.450 7381210 7616652 7853363 8087869 8317525 8540572 8755822 8962098 
2991.308 9157564 9339141 9502949 9644751 9760920 9849023 9908330 9939633 
2995.165 9944896 9926646 9887528 9829958 9756181 9668045 9567401 9455715 
2999.022 9334260 9203966 9065662 8919915 8767366 8608551 8443909 8273785 
3002.880 8098325 7917563 7731882 7542012 7349307 7155543 6962522 6771815 
3006.737 6584240 6399745 6217773 6037701 5859186 5682608 5508931 5339419 
3010.595 5175358 5017597 4866585 4722322 4584706 4453657 4328963 4210257 
3014.452 4096765 3987351 3880721 3775843 3672207 3570183 3470515 3374042 
3018.310 3281311 3191947 3104952 3019134 2933712 2848853 2765759 2686309 
3022.167 2612367 2544947 2483869 2427688 2374432 2322027 2269391 2216363 
3026.024 2164022 2113784 2066994 2024391 1985792 1950348 1916909 1884476 
3029.882 1852417 1820835 1790369 1761876 1736311 1714244 1695645 1680035 
3033.739 1666396 1653427 1640057 1625636 1610173 1594260 1578893 1564907 
3037.597 1552660 1541928 1531947 1521790 1510805 1499105 1487474 1477062 
3041.454 1468941 1463456 1460050 1457284 1453325 1446612 1436481 1423329 
3045.312 1408675 1394548 1382958 1375292 1371868 1372126 1374690 1377704 
3049.169 1379422 1378354 1373630 1365034 1353198 1339297 1325025 1312139 
3053.026 1302253 1296360 1294766 1296810 1301287 1306532 1310870 1312968 
3056.884 1311897 1307398 1299788 1289730 1278104 1265759 1253596 1242136 
3060.741 1231861 1223067 1216032 1210961 1207977 1206969 1207600 1209091 
3064.599 1210439 1210394 1208073 1203097 1195863 1187449 1179300 1172850 
3068.456 1168983 1167659 1168150 1169257 1169759 1168834 1166482 1163308 
3072.313 1160379 1158723 1159039 1161511 1165803 1171196 1176931 1182111 
3076.171 1186122 1188416 1188808 1187328 1184386 1180723 1177316 1175020 
3080.028 1174493 1175779 1178537 1181874 1184819 1186571 1186798 1185582 
3083.886 1183448 1180921 1178415 1175897 1173110 1169374 1164244 1157461 
3087.743 1149242 1140310 1131829 1125049 1120992 1120279 1122829 1127879 
3091.601 1134149 1140195 1144826 1147309 1147602 1146240 1143989 1141561 
3095.458 1139329 1137324 1135390 1133363 1131253 1129359 1127930 1127029 
3099.315 1126293 1124821 1121879 1116884 1110230 1103170 1097591 1095347 
3103.173 1097445 1103659 1112448 1121406 1128177 1131299 1130583 1127229 
3107.030 1123055 1119866 1118710 1119538 1121249 1122378 1121565 1118009 
3110.888 1111635 1103025 1092968 1082316 1071818 1062117 1053849 1047742 
3114.745 1044577 1044873 1048645 1055383 1063810 1072323 1079111 1082704 
3118.603 1082257 1077726 1070162 1061242 1053237 1048242 1047976 1052975 
3122.460 1062594 1075085 1087915 1098621 1105365 1107331 1105038 1099633 
3126.317 1092535 1084736 1076610 1067961 1058557 1048534 1038907 1031241 
3130.175 1027377 1028695 1035418 1046691 1060615 1074984 1087873 1098140 
3134.032 1105490 1110256 1112668 1112891 1110758 1106015 1098924 1090301 
3137.890 1081782 1075314 1072408 1073767 1078619 1084920 1089974 1090950 
3141.747 1085860 1074012 1056264 1034535 1011534 989883 971775 958565 950778 
3146.087 948289 950576 956917 966578 978859 992899 1007586 1021627 1033476 
3150.426 1041785 1045658 1045018 1040738 1034488 1028352 1024299 1023614 
3154.284 1026655 1032857 1040957 1049502 1057218 1063293 1067408 1069680 
3158.141 1070413 1069986 1068809 1067369 1066202 1065879 1066844 1069160 
3161.999 1072660 1076826 1081056 1084950 1088370 1091515 1094684 1097927 
3165.856 1100833 1102502 1101739 1097538 1089601 1078457 1065575 1053082 
3169.713 1043105 1037305 1036658 1041188 1050294 1063003 1078176 1094647 
3173.571 1111200 1126465 1138874 1146801 1148906 1144390 1133549 1117708 
3177.428 1099317 1081326 1066696 1057708 1055523 1059909 1069435 1082108 
3181.286 1095605 1108246 1118968 1127377 1133470 1137173 1138068 1135326 
3185.143 1128188 1116186 1099872 1080874 1061681 1045070 1033426 1028080 
3189.000 1029108 1035535 1045935 1058896 1073481 1089031 1105078 1120737 
3192.858 1134739 1145503 1151651 1152711 1149362 1143323 1137048 1132661 
3196.715 1131294 1132757 1135683 1138141 1138505 1135812 1130308 1122997 
3200.573 1115277 1108346 1103060 1099623 1098056 1098253 1100119 1103720 
3204.430 1109065 1116115 1124687 1134525 1145406 1156913 1168467 1179050 
3208.288 1187310 1191723 1191173 1185507 1175838 1164558 1154670 1149028 
3212.145 1149211 1155029 1164563 1174755 1182460 1185354 1182707 1175342 
3216.002 1165171 1154654 1146004 1140866 1140145 1144165 1152508 1164017 
3219.860 1176853 1188596 1196534 1198479 1193361 1181890 1166508 1150907 
3223.717 1138932 1133503 1135708 1144787 1158352 1173463 1187535 1198873 
3227.575 1206958 1212004 1214472 1214513 1211953 1206435 1197666 1186055 
3231.432 1172845 1159620 1148477 1141089 1138754 1141981 1150545 1163554 
3235.290 1179530 1196616 1212572 1225074 1232083 1232126 1224799 1210770 
3239.147 1191911 1170808 1150341 1133118 1120914 1114575 1113940 1118036 
3243.004 1125394 1134412 1143649 1151947 1158633 1163391 1166144 1167142 
3246.862 1166740 1165482 1164049 1163549 1165165 1170125 1179147 1192093 
3250.719 1207770 1223725 1236969 1244588 1244718 1237161 1223654 1207197 
3254.577 1191314 1178864 1171219 1167901 1167203 1166854 1165079 1161246 
3258.434 1156041 1151030 1147891 1147800 1150844 1156167 1162362 1167949 
3262.292 1171903 1173788 1173678 1171900 1168834 1164895 1160475 1156131 
3266.149 1152647 1150896 1151514 1154794 1160335 1167232 1174317 1180334 
3270.006 1184507 1186451 1186178 1183938 1179937 1174262 1167142 1158928 
3273.864 1150251 1142208 1135814 1131999 1131302 1133459 1137807 1143359 
3277.721 1149242 1154952 1160312 1165324 1169955 1173984 1176699 1177365 
3281.579 1175378 1170738 1164079 1156705 1150196 1145955 1144851 1147082 
3285.436 1152199 1159360 1167741 1176828 1186445 1196714 1207700 1219163 
3289.293 1230499 1240662 1248399 1252585 1252504 1247935 1239327 1227646 
3293.151 1214236 1200569 1188034 1177785 1170627 1166989 1166620 1169070 
3297.008 1173470 1178962 1184886 1190888 1197025 1203627 1211057 1219307 
3300.866 1228077 1236409 1243089 1246769 1246499 1241923 1233426 1222001 
3304.723 1209050 1195998 1184013 1173893 1166056 1160604 1157448 1156335 
3308.581 1156956 1158816 1161096 1162912 1163270 1161603 1157769 1152573 
3312.438 1147574 1144776 1146149 1153067 1165622 1182633 1201478 1219013 
3316.295 1232166 1238885 1238788 1233225 1224977 1217360 1213367 1214574 
3320.153 1220775 1229928 1238874 1244216 1243308 1235062 1220062 1200573 
3324.010 1179727 1160732 1146065 1137070 1133703 1134945 1139097 1144518 
3327.868 1149919 1154587 1158423 1161626 1164608 1167636 1170664 1173504 
3331.725 1175844 1177361 1177921 1177579 1176469 1174812 1172777 1170407 
3335.583 1167813 1165196 1162868 1161398 1161176 1162536 1165247 1168482 
3339.440 1171115 1171764 1169534 1164147 1156391 1147697 1140005 1134968 
3343.297 1133747 1136590 1142829 1151282 1160631 1169682 1177339 1182796 
3347.155 1185336 1184311 1179258 1170279 1158167 1144575 1131730 1121947 
3351.012 1116805 1116776 1120887 1127137 1133076 1136811 1137512 1135872 
3354.870 1133739 1133398 1136777 1144763 1156899 1171541 1186446 1199472 
3358.727 1209147 1214831 1216824 1215764 1212570 1207893 1202171 1195616 
3362.584 1188475 1181142 1174166 1168234 1163873 1161343 1160374 1160338 
3366.442 1160358 1159613 1157676 1154682 1151281 1148442 1147167 1148152 
3370.299 1151378 1156169 1161344 1165530 1167578 1166765 1163135 1157387 
3374.157 1150499 1143744 1138194 1134614 1133604 1135310 1139622 1146213 
3378.014 1154397 1163283 1171720 1178592 1183016 1184325 1182450 1177695 
3381.872 1170555 1161697 1151662 1141026 1130466 1120911 1113386 1109273 
3385.729 1109635 1114959 1124807 1137701 1151357 1163130 1170572 1172074 
3389.586 1167067 1156048 1140363 1121652 1101659 1081843 1063486 1047808 
3393.444 1036023 1029365 1029013 1035604 1049153 1068544 1091650 1115526 
3397.301 1136894 1152859 1161578 1162674 1157436 1148495 1139190 1132653 
3401.159 1131030 1134802 1142767 1152540 1161215 1166449 1167251 1164039 
3405.016 1158724 1153611 1150636 1150662 1153077 1156176 1157739 1156037 
3408.874 1150418 1141576 1131207 1121473 1114151 1110152 1109341 1110717 
3412.731 1113027 1115189 1116692 1117647 1118626 1120334 1123058 1126877 
3416.588 1131314 1135671 1139289 1141686 1142761 1142716 1142078 1141303 
3420.446 1140836 1140916 1141397 1141992 1142325 1142074 1141218 1140178 
3424.303 1139641 1140442 1143130 1147809 1153850 1160008 1164852 1167282 
3428.161 1166863 1164233 1160824 1158491 1158895 1162860 1170127 1179356 
3432.018 1188714 1196160 1200284 1200361 1196401 1189010 1178910 1166904 
3435.875 1153806 1140509 1128060 1117731 1110704 1107635 1108467 1112135 
3439.733 1116827 1120566 1121872 1120294 1116764 1113163 1111733 1114153 
3443.590 1120976 1131342 1143276 1154547 1163509 1169782 1174342 1179226 
3447.448 1186517 1197530 1212059 1228369 1243809 1255635 1262047 1262869 
3451.305 1259459 1254238 1249684 1247309 1247334 1248604 1249321 1247937 
3455.163 1244059 1238773 1234327 1233403 1238021 1248693 1264175 1281906 
3459.020 1298706 1311975 1320404 1324347 1325329 1325456 1326486 1329089 
3462.877 1332851 1336463 1338560 1338283 1335782 1332354 1329863 1330257 
3466.735 1334788 1343793 1356303 1370684 1384977 1397420 1406966 1413475 
3470.592 1417432 1419823 1421646 1423701 1426501 1430149 1434832 1440701 
3474.450 1448072 1457270 1468588 1481886 1496550 1511581 1525639 1537828 
3478.307 1547821 1556082 1563856 1572763 1584190 1598931 1616638 1636299 
3482.165 1656389 1675354 1692296 1706934 1719534 1730527 1740075 1747897 
3486.022 1753292 1755685 1755062 1752254 1749036 1747805 1750806 1759738 
3489.879 1774990 1795806 1820446 1846701 1872604 1896692 1918223 1937184 
3493.737 1954135 1969862 1985219 2001122 2018192 2036724 2056509 2076642 
3497.594 2095831 2112419 2125005 2132822 2136126 2136033 2134386 2132951 
3501.452 2132856 2134268 2136127 2136857 2134855 2129169 2120066 2108878 
3505.309 2097687 2088566 2082953 2081155 2082478 2085580 2089048 2091964 
3509.167 2094243 2096452 2099440 2103644 2108851 2113883 2116816 2115549 
3513.024 2108499 2095110 2076053 2053157 2029114 2006732 1988325 1975284 
3516.881 1967824 1964883 1964479 1964087 1961215 1953925 1941307 1923738 
3520.739 1902693 1880594 1859803 1842317 1829068 1819785 1813324 1808303 
3524.596 1803706 1799462 1796186 1794978 1796382 1799832 1803188 1803304 
3528.454 1796844 1781640 1757657 1727391 1695585 1667691 1648593 1641012 
3532.311 1644880 1657326 1673516 1687937 1695874 1694093 1681558 1659157 
3536.168 1629423 1595909 1562560 1533127 1510842 1497741 1494286 1499369 
3540.026 1510493 1524204 1536877 1545513 1548592 1546040 1539243 1530429 
3543.883 1521922 1515547 1512230 1511855 1513377 1515280 1515937 1513912 
3547.741 1508526 1499911 1489110 1478092 1469174 1464778 1466521 1474892 
3551.598 1488969 1506545 1524531 1539778 1549738 1552791 1548529 1537735 
3555.456 1521954 1503339 1484209 1466814 1453211 1444769 1442085 1444839 
3559.313 1451797 1461101 1470790 1479445 1486472 1492023 1496789 1501377 
3563.170 1505777 1509283 1510584 1508534 1502584 1493328 1482377 1471721 
3567.028 1463115 1457240 1453678 1450998 1447769 1443142 1437415 1432070 
3570.885 1429099 1430223 1436066 1445745 1457208 1467706 1474670 1476351 
3574.743 1472210 1462854 1449670 1434486 1419216 1405641 1395270 1389034 
3578.600 1387164 1388978 1392910 1396832 1398708 1397424 1393206 1387778 
3582.458 1383773 1383672 1388554 1397271 1406398 1411046 1406441 1389464 
3586.315 1360066 1321209 1278625 1238701 1207151 1187424 1179974 1182913 
3590.172 1192721 1205900 1219492 1232105 1243258 1253108 1261785 1268820 
3594.030 1273252 1273579 1268430 1256915 1239105 1216045 1189776 1163131 
3597.887 1139210 1120858 1110032 1107286 1111650 1120617 1130945 1139498 
3601.745 1144194 1144503 1141783 1138364 1136749 1138428 1143260 1149514 
3605.602 1154457 1155694 1151961 1143832 1133523 1124162 1118593 1118502 
3609.459 1123902 1133497 1145144 1156758 1167025 1175392 1182000 1187476 
3613.317 1192388 1197276 1202624 1208879 1216404 1225319 1235058 1244462 
3617.174 1251803 1255522 1254771 1249947 1243032 1236791 1234103 1236673 
3621.032 1244746 1256885 1270795 1284249 1296111 1306585 1316941 1328862 
3624.889 1343125 1359332 1375630 1389412 1398204 1400669 1396817 1388210 
3628.747 1377224 1366382 1357648 1352296 1350790 1353541 1360639 1372545 
3632.604 1389628 1412158 1439824 1471767 1506595 1542388 1576836 1607503 
3636.461 1632133 1648872 1656690 1655838 1647945 1635969 1623369 1613703 
3640.319 1609458 1611755 1620353 1634148 1652118 1673595 1698717 1727925 
3644.176 1761077 1796981 1832817 1864734 1888806 1902261 1904420 1896905 
3648.034 1883298 1867841 1854265 1844797 1839914 1838640 1839532 1841353 
3651.891 1843470 1846027 1849442 1853996 1859569 1865817 1872398 1879274 
3655.749 1886950 1896111 1907322 1920328 1934087 1946586 1955445 1958697 
3659.606 1955260 1945366 1930607 1913281 1896075 1881112 1869523 1861432 
3663.463 1855721 1850721 1844590 1835804 1823700 1808448 1791032 1772753 
3667.321 1754767 1737847 1722017 1706725 1691283 1675286 1658869 1642657 
3671.178 1627438 1613618 1601000 1588514 1574994 1559308 1541382 1522225 
3675.036 1503753 1487799 1475554 1466552 1459170 1450927 1439694 1424598 
3678.893 1406425 1387339 1369972 1356354 1347221 1341641 1337524 1332372 
3682.750 1324205 1311976 1295758 1276301 1254861 1232938 1212317 1194904 
3686.608 1182866 1178024 1180972 1190507 1203381 1214843 1220028 1215642 
3690.465 1201029 1178752 1153564 1130616 1113874 1104484 1100537 1098057 
3694.323 1092543 1080842 1062027 1037380 1009908 982680 958198 937878 922165 
3698.662 911218 905470 905304 911155 922556 938278 956424 975131 993377 
3703.002 1011456 1030592 1052070 1075878 1100055 1120570 1132512 1131608 
3706.859 1115950 1087192 1050062 1011236 977466 953534 941381 939945 946238 
3711.199 956367 967205 976833 984856 991569 997516 1002895 1007137 1009262 
3715.539 1008117 1002958 993845 981819 968898 957797 951080 950547 956682 
3719.878 968126 981942 994522 1002454 1003911 999115 990259 980719 973598 
3724.218 970521 971168 973392 974350 971893 965523 956716 948243 942962 
3728.557 942574 946909 954128 961462 966373 967580 965354 961138 956933 
3732.897 954332 954107 956259 960340 965954 973013 981631 991808 1003110 
3737.237 1014415 1024216 1030730 1032708 1029637 1021702 1010038 996352 
3741.094 982713 971341 964332 963471 969570 982173 999110 1016865 1031118 
3745.434 1038119 1035754 1024346 1006515 986695 969833 960138 960087 969870 
3749.773 987417 1009284 1031410 1049967 1062237 1066841 1063662 1053936 
3753.631 1039815 1023877 1008837 996700 988678 984961 984875 987380 991540 
3757.970 996991 1003998 1013111 1024810 1038793 1053910 1068167 1079218 
3761.828 1085203 1085141 1079319 1069141 1056601 1043921 1032795 1024215 
3765.685 1018446 1015023 1013232 1012256 1011632 1011221 1011464 1013139 
3769.542 1017076 1023905 1033678 1045491 1057622 1067883 1073970 1074158 
3773.400 1067852 1055542 1039027 1020848 1003887 990837 983840 984028 991570 
3777.740 1005183 1022378 1039730 1053359 1059769 1056867 1044509 1024951 
3781.597 1002087 980759 965327 958642 961374 971964 987489 1004256 1019098 
3785.937 1029666 1034998 1035003 1030463 1022462 1012324 1001276 990439 
3789.794 980536 971831 964084 956891 949899 943196 937503 934095 934126 
3794.134 938012 945098 953565 960971 965205 965530 962818 959422 958380 
3798.473 961982 970954 984082 998722 1012011 1021782 1027563 1030571 1032831 
3802.813 1036170 1041094 1046540 1050301 1049939 1043944 1032479 1017383 
3806.670 1001650 988314 979466 975707 976034 978620 981461 983160 983373 
3811.010 982392 981195 980710 981393 983232 985657 988032 989797 990723 
3815.349 991128 991622 992816 994990 997902 1000662 1001870 1000176 994561 
3819.689 985062 972799 959998 949385 943737 944887 953451 968579 988313 
3824.029 1010004 1030951 1048640 1061426 1068270 1069042 1064303 1055274 
3827.886 1043729 1031710 1021296 1014238 1011583 1013421 1018989 1026601 
3831.743 1034510 1041002 1044992 1046197 1045217 1043035 1040813 1039589 
3835.601 1039720 1040950 1042322 1042734 1041061 1036778 1030305 1022948 
3839.458 1016728 1013694 1015332 1021989 1032439 1044070 1053540 1057606 
3843.316 1054035 1042454 1024323 1002805 982003 965760 957153 957657 966995 
3847.655 983311 1003814 1025197 1044380 1058989 1067671 1070206 1067271 
3851.513 1060341 1051099 1041032 1031259 1022255 1013955 1006001 997981 
3855.370 989728 981319 973166 965936 960337 957205 957363 961456 969870 
3859.710 982404 998119 1015294 1031548 1044280 1051376 1051649 1045148 
3863.567 1033300 1018294 1002783 989022 978492 972031 969665 971100 975913 
3867.907 983523 993160 1003535 1013023 1019702 1021945 1018937 1010961 
3871.764 999537 986988 975754 967731 963812 963467 965304 967438 968243 
3876.104 966827 963343 958760 954538 952176 952695 956381 962704 970633 
3880.443 978525 984790 988095 987583 983087 975174 965046 954296 944695 
3884.783 937706 934431 935117 939506 946615 955267 964233 972438 979206 
3889.123 984161 987226 988671 988884 988410 987949 988084 989348 992078 
3893.462 996068 1000928 1005842 1009731 1011764 1011162 1007859 1002113 
3897.320 994860 987280 980686 976182 974354 975436 978857 983476 987823 
3901.659 990363 989692 985237 977320 967243 957229 949984 947916 952678 
3905.999 964561 982266 1003116 1023569 1040018 1049540 1050477 1042683 
3909.856 1027667 1007983 987019 967969 953738 946191 946021 952617 964562 
3914.196 979497 994907 1008665 1019243 1026234 1030120 1032088 1033443 
3918.053 1035229 1037642 1040252 1042091 1042206 1040047 1035954 1031153 
3921.911 1027476 1026883 1030971 1040239 1054272 1071213 1088487 1102849 
3925.768 1111337 1111630 1102640 1084782 1060205 1032326 1005452 983670 
3929.625 970199 966350 971262 982109 994715 1004744 1008956 1006012 997104 
3933.965 985231 974496 968715 970237 979222 993626 1009951 1024300 1033508 
3938.305 1036195 1032855 1025511 1017075 1010095 1006305 1006113 1008942 
3942.162 1013598 1018991 1024268 1029059 1033076 1035963 1037076 1035704 
3946.020 1031240 1023789 1014232 1004266 995837 990366 988198 988516 989387 
3950.359 988770 985270 978729 970447 962678 957883 957644 962332 970921 
3954.699 981488 992165 1001645 1009757 1017066 1024629 1033196 1042728 
3958.556 1052422 1060799 1066604 1068991 1068092 1064722 1060283 1056000 
3962.414 1052919 1051436 1051379 1052458 1054211 1056428 1059068 1062184 
3966.271 1065844 1069795 1073721 1076921 1078599 1077950 1074323 1067651 
3970.128 1058595 1048572 1039818 1034794 1035807 1043970 1058665 1077458 
3973.986 1096337 1110729 1116776 1112377 1098102 1077036 1054138 1034539 
3977.843 1022520 1020112 1026773 1039842 1055263 1069018 1078025 1080890 
3981.701 1077849 1070624 1061646 1053463 1048292 1047370 1051003 1058317 
3985.558 1067466 1076046 1081546 1082302 1078045 1070079 1061261 1055219 
3989.416 1055240 1063108 1078495 1099010 1120769 1139794 1153233 1160125 
3993.273 1161517 1159792 1157641 1156981 1158360 1160979 1163331 1164045 
3997.130 1162639 1159432 1155612 1152350 1150315 1149373 1148738 1147556 
##END=
