##TITLE=3D-Fillies_PLA-Rainbow_Turquoise_Filament_r5_ATR-Corrected
##JCAMP-DX=5.01  $$ Nicolet v. 1
##DATATYPE=INFRARED SPECTRUM
##ORIGIN=Curtin University
##OWNER=Nicolet
##LONGDATE=2024/07/18
##TIME=14:40:42
##SPECTROMETER/DATA SYSTEM=Nicolet iS50
##DATA PROCESSING=
Ratio against background
%Transmittance->Absorbance
ATR Correction
Truncated
ElementMultiply or ElementDivide
##COMMENTS=
Number of sample scans: 32
Collection length: 47.28 sec
Sample gain: 1.0
Background collected on: Thu Jul 18 14:38:49 2024 (GMT+08:00);
Number of background scans: 32
Background gain: 1.0
Sample spacing:  1.000
Number of scan points: 16672
Resolution points: 8192
Number of FFT points: 65536
Apodization: N-B strong;
Phase correction: Mertz;
Laser frequency: 15798.3 cm-1
Number of rejected sample scans: 0
Number of rejected background scans: 0
Bench serial number: AUP1200105;
##RESOLUTION=4.000
##XUNITS=1/CM
##YUNITS=ABSORBANCE
##FIRSTX=400.163452
##LASTX=4000.187744
##FIRSTY=0.061001
##MAXX=4000.187744
##MINX=400.163452
##MAXY=0.850016
##MINY=-0.024618
##XFACTOR=1.000000
##YFACTOR=1.000000E-009
##NPOINTS=7468
##DELTAX=0.482125
##ZPD=8192
##XYDATA=(X++(Y..Y))
400.163 61001064 60458804 59944412 59338208 58511028 57400880 56041192 
403.538 54554220 53109592 51864936 50911600 50251620 49807716 49460988 
406.913 49096944 48641444 48071920 47408448 46689844 45953812 45227256 
410.288 44529300 43879908 43302020 42816712 42430300 42120520 41835848 
413.663 41507932 41077632 40520196 39860660 39167808 38529892 38020668 
417.038 37670944 37455884 37303784 37120120 36818476 36344132 35686112 
420.412 34871552 33954164 32997832 32067612 31222324 30511010 29966466 
423.787 29598984 29390458 29295676 29252762 29200986 29100250 28943422 
427.162 28757216 28589550 28488518 28483988 28577380 28745336 28951578 
430.537 29162518 29356162 29522796 29657686 29751924 29792510 29763436 
433.912 29657736 29486166 29280006 29082432 28931556 28844324 28806408 
437.286 28776332 28700344 28534442 28262580 27903962 27506170 27130004 
440.661 26829600 26639776 26571506 26617074 26757752 26972534 27238864 
444.036 27531694 27819160 28061960 28217388 28249058 28137114 27886470 
447.411 27527866 27112146 26698604 26342132 26081786 25935186 25897106 
450.786 25943354 26037252 26137582 26207360 26221588 26172454 26070484 
454.161 25939540 25808680 25700982 25624994 25571404 25516864 25433094 
457.535 25298262 25105524 24865686 24602416 24343974 24114490 23928704 
460.910 23791390 23701354 23655994 23654076 23694442 23769292 23869100 
464.285 23971994 24049844 24075038 24028358 23906258 23722408 23505464 
467.660 23291952 23118542 23014436 22997358 23071604 23229040 23450590 
471.035 23709058 23972160 24206968 24384830 24485532 24500478 24432752 
474.409 24293716 24099342 23865450 23605708 23331116 23051800 22778382 
477.784 22522872 22297520 22112344 21973010 21879076 21824496 21798826 
481.159 21789316 21783256 21768990 21738620 21688746 21623582 21555294 
484.534 21502976 21488474 21530054 21634702 21794014 21983272 22168008 
487.909 22312650 22391398 22394820 22332092 22224590 22098358 21974964 
491.284 21867382 21780498 21716262 21679032 21679016 21729824 21841866 
494.658 22019704 22253236 22520084 22791774 23042230 23255528 23428536 
498.033 23568240 23684834 23783938 23861692 23905140 23897764 23826968 
501.408 23690562 23500014 23277008 23047424 22833564 22647850 22490358 
504.783 22351396 22215694 22069720 21906968 21731288 21556574 21403444 
508.158 21293248 21242088 21254778 21322538 21423812 21529296 21609068 
511.532 21640740 21613784 21531978 21409326 21264356 21112780 20962714 
514.907 20812870 20655134 20479516 20280198 20058830 19826094 19598468 
518.282 19394022 19227032 19104544 19024634 18978160 18951564 18931164 
521.657 18906992 18875050 18837154 18799402 18768206 18746280 18729992 
525.032 18706716 18662474 18582460 18458298 18293164 18101942 17909038 
528.406 17740688 17618008 17550300 17533582 17552360 17585872 17613834 
531.781 17621904 17602008 17551730 17470256 17356758 17209748 17029182 
535.156 16819528 16591672 16362451 16151151 15974516 15842594 15756372 
538.531 15708864 15688758 15684806 15689356 15699267 15715145 15738225 
541.906 15768079 15800498 15827397 15837736 15818872 15759164 15650220 
545.281 15489347 15282462 15044923 14800507 14577921 14404021 14296066 
548.655 14255887 14267585 14301414 14322728 14302470 14227102 14102780 
552.030 13953229 13811687 13710357 13670882 13699637 13788371 13920155 
555.405 14076064 14241082 14407670 14572669 14733651 14886392 15023003 
558.780 15133305 15209091 15247236 15251930 15233607 15205438 15178849 
562.155 15159648 15146780 15133417 15111412 15074983 15025191 14970830 
565.529 14927105 14911789 14940426 15021004 15151477 15319069 15502722 
568.904 15677718 15820678 15915090 15954375 15942648 15893338 15825359 
572.279 15759347 15713084 15698798 15721902 15781647 15871713 15983259 
575.654 16105914 16230149 16347723 16453037 16542919 16616805 16676644 
579.029 16726114 16770070 16813296 16859556 16910546 16965004 17019218 
582.404 17067300 17103020 17121842 17122394 17107268 17082180 17053976 
585.778 17028030 17005618 16983712 16956056 16916468 16863032 16800896 
589.153 16742056 16703513 16701061 16744284 16832256 16953148 17087716 
592.528 17214686 17317618 17388810 17429780 17449086 17456594 17459238 
595.903 17458000 17448726 17425240 17383860 17325858 17259714 17197832 
599.278 17154260 17139726 17159706 17213284 17294946 17396404 17509124 
602.652 17625712 17739982 17846500 17940196 18016190 18071034 18103922 
606.027 18117992 18121148 18125142 18143462 18188484 18268100 18383758 
609.402 18529432 18693242 18859896 19014876 19147530 19254004 19337482 
612.777 19407282 19476210 19557888 19664312 19804296 19982464 20199244 
616.152 20449810 20723810 21005614 21274872 21510456 21695006 21820054 
619.527 21890600 21925500 21954238 22009424 22117732 22292448 22529766 
622.901 22810534 23107144 23391972 23645534 23860508 24041792 24201814 
626.276 24355576 24515524 24690094 24883586 25099254 25339912 25608004 
629.651 25903524 26221456 26549588 26869632 27160360 27403326 27587218 
633.026 27711392 27785252 27825594 27851572 27880768 27925688 27993258 
636.401 28084918 28198436 28329296 28472026 28621328 28773076 28925164 
639.775 29078238 29235156 29399634 29574012 29757600 29945544 30130568 
643.150 30305478 30466742 30616902 30764246 30919632 31091774 31282342 
646.525 31483974 31681952 31860162 32008078 32127350 32233686 32355000 
649.900 32523196 32765236 33094964 33507984 33983076 34486740 34981508 
653.275 35433344 35817024 36118736 36334620 36468828 36530468 36531500 
656.650 36485612 36407752 36313004 36215404 36125844 36050744 35990648 
660.024 35941736 35897444 35852556 35805560 35761236 35729768 35724640 
663.399 35759004 35841560 35974088 36150636 36359404 36586352 36818944 
666.774 37049664 37276872 37504256 37737324 37980940 38235700 38497476 
670.149 38758044 39007720 39238328 39445700 39630360 39797204 39953080 
673.524 40105032 40258064 40414892 40576236 40741840 40911488 41085528 
676.898 41264584 41449288 41638560 41830016 42019096 42199808 42364908 
680.273 42507048 42620276 42700468 42747220 42764368 42760880 42749836 
683.648 42747068 42768104 42825256 42925116 43067292 43245144 43447740 
687.023 43663108 43880604 44093372 44298188 44495612 44688196 44880196 
690.398 45075956 45280108 45496908 45729956 45981432 46251948 46540036 
693.773 46843728 47161456 47493192 47841100 48208528 48597956 49009016 
697.147 49436708 49872264 50305492 50728144 51137856 51539252 51943012 
700.522 52362412 52807964 53283560 53784400 54298296 54809632 55303444 
703.897 55770036 56206408 56615128 57002080 57372992 57731516 58078532 
707.272 58412576 58731364 59032896 59315164 59576420 59813892 60024284 
710.647 60204204 60352152 60469476 60561336 60636060 60704848 60779896 
714.021 60874196 61001200 61175328 61412412 61730988 62151596 62699212 
717.396 63404612 64308716 65467404 66956496 68874456 71341336 74492688 
720.771 78467736 83393432 89366000 96431560 104568760 113675416 123561072 
724.146 133947912 144481696 154755184 164341984 172839520 179912720 
727.039 185330272 188984720 190891136 191167440 190001472 187616816 
729.931 184241360 180086288 175332784 170126656 164578928 158769152 
732.824 152752448 146568688 140251552 133837240 127370280 120905416 
735.717 114506816 108244272 102188960 96409416 90968320 85920680 81311168 
739.091 77171768 73519904 70356440 67665976 65419040 63577080 62097808 
742.466 60940076 60067772 59449812 59058852 58867648 58846620 58963364 
745.841 59184508 59479240 59823260 60201628 60608712 61045940 61518256 
749.216 62029888 62581764 63170180 63787028 64420416 65056376 65679036 
752.591 66271836 66818184 67302648 67711816 68035032 68263944 68391760 
755.966 68411680 68315848 68096144 67745384 67259896 66641836 65899776 
759.340 65048284 64105324 63089760 62018552 60906004 59763420 58600516 
762.715 57425764 56247564 55073088 53908552 52758220 51624672 50509388 
766.090 49413588 48338460 47285792 46256896 45252776 44274140 43321764 
769.465 42397472 41504552 40647396 39830576 39056896 38326032 37635428 
772.840 36979792 36353720 35753376 35177060 34625588 34100008 33600568 
776.214 33125836 32673012 32239050 31821642 31420216 31033996 30660346 
779.589 30293194 29922530 29536848 29126614 28688492 28227240 27754912 
782.964 27286618 26834934 26405384 25994974 25595136 25197420 24799732 
786.339 24410432 24047490 23733490 23487610 23318318 23219912 23173774 
789.714 23154448 23137662 23107980 23061286 23003922 22947364 22901202 
793.089 22867556 22839286 22801514 22737040 22631980 22481440 22291478 
796.463 22078098 21863776 21671234 21519332 21418602 21370442 21368666 
799.838 21402552 21459906 21531116 21608626 21687782 21763944 21830654 
803.213 21880714 21905984 21900566 21863938 21802580 21728712 21656602 
806.588 21597406 21555052 21523884 21490930 21440648 21360840 21247640 
809.963 21106264 20949176 20790632 20642062 20508514 20388938 20279272 
813.337 20176634 20081912 20000178 19938152 19899968 19884004 19882136 
816.712 19882208 19873034 19849318 19814668 19781694 19767434 19788338 
820.087 19854362 19965458 20112648 20280246 20451324 20612760 20757922 
823.462 20887212 21006434 21123258 21243718 21369532 21497606 21620524 
826.837 21729846 21819176 21886778 21937008 21979872 22028402 22094876 
830.212 22187980 22310504 22459214 22627144 22806624 22991808 23180634 
833.586 23373668 23573958 23784010 24005148 24237668 24482620 24743360 
836.961 25026772 25342200 25699460 26105804 26563976 27071804 27623940 
840.336 28214122 28837194 29490468 30171956 30878412 31602726 32333154 
843.711 33054684 33751468 34410444 35023008 35585568 36097528 36559080 
847.086 36969612 37327880 37634496 37895028 38122672 38338956 38571044 
850.460 38847684 39194664 39631248 40170136 40819364 41586484 42481768 
853.835 43520052 44719404 46097228 47665296 49426008 51368884 53471456 
857.210 55700988 58019320 60386148 62764004 65119156 67423824 69655960 
860.585 71798360 73838640 75767784 77580232 79273032 80845616 82300160 
863.960 83642000 84880024 86027128 87099528 88115120 89090728 90039312 
867.335 90967680 91875408 92755560 93596440 94384072 95101832 95730296 
870.709 96243856 96608440 96780000 96707136 96337496 95627552 94552016 
874.084 93111776 91335408 89274616 86994408 84561152 82031384 79445736 
877.459 76828424 74191592 71543600 68896968 66273548 63704656 61227948 
880.834 58880860 56693392 54684436 52860440 51218140 49749332 48445364 
884.209 47300436 46311660 45477412 44794748 44256924 43852868 43567896 
887.583 43385880 43291212 43269656 43308556 43395612 43517812 43661296 
890.958 43811772 43955704 44082616 44185248 44259848 44304516 44317772 
894.333 44297632 44241464 44148180 44019136 43860692 43683496 43500944 
897.708 43325588 43165908 43023772 42894800 42771232 42646272 42518056 
901.083 42391460 42277076 42187492 42131672 42111440 42119296 42141540 
904.458 42162580 42170868 42162712 42142952 42121296 42107452 42106320 
907.832 42115812 42128688 42137760 42141736 42149024 42176896 42247688 
911.207 42380264 42583780 42852372 43167428 43502292 43831308 44136988 
914.582 44414596 44671484 44922448 45182560 45461100 45758444 46065608 
917.957 46367740 46648664 46895200 47099992 47263028 47390968 47495360 
921.332 47591156 47694084 47817360 47970816 48157844 48375032 48614020 
924.706 48862932 49110660 49349460 49576836 49796036 50014592 50241872 
928.081 50487296 50758824 51062272 51401000 51775460 52182364 52613164 
931.456 53054156 53487400 53893172 54254124 54558656 54802724 54989636 
934.831 55127520 55225932 55292620 55332660 55348812 55344200 55323840 
938.206 55295208 55267488 55248404 55242152 55247604 55260296 55274380 
941.581 55286200 55297104 55313536 55345948 55405952 55504044 55648008 
944.955 55842800 56091340 56395620 56756420 57172848 57642084 58158296 
948.330 58714284 59302736 59918236 60557972 61221360 61907284 62611728 
951.705 63325332 64033172 64715520 65350720 65916756 66393024 66759104 
955.080 66994800 67079164 66992424 66718124 66248424 65585920 64746352 
958.455 63756084 62648512 61459000 60221564 58966612 57721120 56510332 
961.829 55357784 54285032 53309508 52441636 51683952 51030808 50471348 
965.204 49993040 49585812 49243524 48964508 48749676 48600180 48515332 
968.579 48491700 48523228 48602192 48719772 48866960 49034220 49212340 
971.954 49392948 49569648 49739500 49902952 50063392 50225640 50393200 
975.329 50567900 50748496 50932144 51117000 51302504 51491232 51686772 
978.703 51893236 52112436 52343948 52585360 52833712 53087780 53348240 
982.078 53617564 53897408 54187476 54483636 54779012 55065984 55338908 
985.453 55596320 55842124 56084608 56334452 56602108 56896324 57222356 
988.828 57582764 57978636 58409376 58872856 59366004 59884064 60421596 
992.203 60973456 61536016 62108040 62690868 63288280 63905312 64547188 
995.578 65219916 65929548 66684120 67492360 68363616 69305288 70320400 
998.952 71404976 72546872 73726464 74918768 76097992 77241968 78336568 
1002.327 79379568 80381808 81367824 82373360 83441936 84619472 85949192 
1005.702 87466400 89195896 91150904 93335432 95748016 98387208 101256256 
1009.077 104367192 107743288 111420408 115446016 119878200 124780480 
1011.970 130215184 136231440 142851168 150051264 157749536 165793680 
1014.862 173960784 181969824 189505888 196256032 201949536 206396192 
1017.755 209512592 211332448 211998832 211739952 210837072 209588656 
1020.648 208278832 207151296 206393616 206129856 206421168 207273904 
1023.540 208651408 210488896 212708000 215230288 217986960 220925136 
1026.433 224010608 227227888 230578480 234076064 237742624 241603056 
1029.326 245680688 249994256 254555824 259371248 264439936 269756288 
1032.219 275309632 281083584 287055328 293195200 299468032 305834496 
1035.113 312253568 318683616 325082560 331405760 337603296 343619392 
1038.006 349392256 354859072 359961440 364650112 368887616 372647008 
1040.899 375909024 378656160 380871392 382538016 383643904 384184512 
1043.792 384166656 383608064 382534720 380976448 378965856 376536768 
1046.685 373727520 370583936 367161504 363524352 359742240 355884672 
1049.578 352016672 348194176 344463104 340858240 337404096 334113984 
1052.471 330990112 328024640 325200320 322495744 319890016 317368896 
1055.364 314929472 312583200 310356128 308287424 306426976 304833152 
1058.257 303571456 302711936 302328160 302494432 303282176 304757408 
1061.150 306978592 309994848 313845376 318560288 324160352 330656672 
1064.043 338050752 346333632 355486848 365483424 376289696 387867040 
1066.936 400172640 413158240 426769888 440947232 455624288 470733664 
1069.829 486210336 501992832 518024864 534247744 550596032 566989632 
1072.722 583334400 599527680 615471232 631084352 646314048 661136000 
1075.615 675546496 689548096 703136832 716294016 728983616 741157568 
1078.509 752759104 763723008 773975104 783427776 791985856 799553600 
1081.402 806052928 811435200 815688640 818827712 820878848 821859264 
1084.295 821767232 820589184 818316736 814968128 810604928 805330304 
1087.188 799274496 792570752 785333184 777647424 769573952 761159872 
1090.081 752455040 743516864 734412544 725207360 715955648 706694208 
1092.974 697440384 688198912 678969344 669749952 660541056 651341120 
1095.867 642144384 632938688 623708544 614438208 605118464 595747264 
1098.760 586330304 576874368 567382912 557850880 548265216 538607104 
1101.653 528859488 519012864 509071872 499055680 488999424 478949472 
1104.546 468960608 459092064 449406688 439968832 430846464 422110912 
1107.439 413837664 406103968 398984768 392547680 386847200 381920032 
1110.332 377782720 374432704 371850368 370003360 368849536 368338400 
1113.225 368411296 369000032 370027168 371407328 373052064 374876576 
1116.118 376807776 378789248 380785088 382778624 384768032 386760576 
1119.011 388768480 390805120 392883712 395016064 397211232 399470944 
1121.905 401786272 404132928 406469856 408740992 410880800 412821056 
1124.798 414497088 415852672 416840800 417422624 417566240 417245952 
1127.691 416444608 415155072 413383392 411148544 408479808 405411232 
1130.584 401975040 398196064 394089344 389657728 384894848 379787520 
1133.477 374320384 368479072 362253984 355642976 348653312 341301984 
1136.370 333615712 325629440 317384512 308927104 300307072 291577632 
1139.263 282794176 274014496 265297168 256699776 248278736 240086304 
1142.156 232171104 224577664 217346256 210511920 204104448 198146848 
1145.049 192654576 187635968 183092080 179019712 175412272 172261104 
1147.942 169556352 167285792 165434544 163983200 162908720 162185344 
1150.835 161786496 161687264 161865472 162301312 162976736 163872944 
1153.728 164969376 166243200 167671344 169231408 170904896 172677408 
1156.621 174538880 176481744 178499296 180585568 182734976 184944144 
1159.514 187213680 189548944 191960544 194462032 197068512 199794064 
1162.407 202650576 205648528 208798144 212111632 215605824 219303152 
1165.301 223233552 227433520 231946016 236818752 242102784 247850352 
1168.194 254113440 260943472 268391840 276511872 285360128 294997888 
1171.087 305490592 316903264 329296128 342715360 357185248 372702080 
1173.980 389226176 406677888 424932896 443818528 463110560 482532736 
1176.873 501759936 520429120 538155840 554555456 569267456 581975872 
1179.766 592426240 600438016 605912192 608835008 609279104 607397056 
1182.659 603409920 597586304 590221056 581611840 572041920 561770048 
1185.552 551024704 540003776 528875776 517781088 506832832 496119616 
1188.445 485708192 475647872 465975744 456719424 447900352 439532480 
1191.338 431622912 424171200 417170272 410610016 404479552 398770688 
1194.231 393478400 388597696 384122400 380040896 376335264 372982912 
1197.124 369959488 367242720 364815040 362663744 360779296 359152352 
1200.017 357771168 356621504 355686560 354949056 354392096 353999424 
1202.910 353751968 353627200 353595232 353621568 353668512 353697792 
1205.803 353674688 353568672 353352640 353002176 352493856 351807520 
1208.697 350928256 349850496 348579744 347130464 345523136 343776576 
1211.590 341902752 339904288 337775040 335505024 333086368 330518048 
1214.483 327807648 324971360 322030176 319007744 315926816 312809760 
1217.376 309677984 306552832 303453856 300398688 297399424 294462496 
1220.269 291589088 288776704 286022944 283328032 280696800 278136992 
1223.162 275657824 273265696 270962400 268743872 266601360 264523264 
1226.055 262499600 260522816 258590432 256704656 254871584 253099024 
1228.948 251396032 249771216 248231760 246783920 245432704 244182960 
1231.841 243040448 242012528 241109632 240345440 239735280 239294864 
1234.734 239037264 238972160 239102528 239426320 239936672 240624896 
1237.627 241481968 242499056 243667984 244979296 246420224 247974048 
1240.520 249619696 251332848 253088208 254861232 256629408 258371824 
1243.413 260067584 261694288 263227248 264640000 265906608 267005856 
1246.306 267925264 268664896 269238400 269671520 269998464 270256640 
1249.199 270481856 270703808 270944832 271219680 271536512 271899552 
1252.093 272310176 272769184 273277408 273836704 274450272 275122400 
1254.986 275858592 276663296 277539456 278486080 279499456 280572832 
1257.879 281699136 282874112 284096576 285368480 286692704 288069120 
1260.772 289490880 290943040 292402752 293843040 295235424 296553856 
1263.665 297775712 298879488 299843584 300641984 301244704 301619584 
1266.558 301734944 301563296 301083936 300282976 299152448 297688544 
1269.451 295889600 293757504 291298624 288524960 285454560 282110656 
1272.344 278518912 274704960 270693312 266507184 262169904 257705904 
1275.237 253141408 248503056 243815616 239099872 234371312 229641136 
1278.130 224917984 220210784 215531392 210894288 206317872 201821168 
1281.023 197422992 193139904 188985232 184968704 181096576 177371504 
1283.916 173793584 170361200 167072032 163925360 160923248 158070752 
1286.809 155375424 152844960 150484368 148293216 146265536 144389232 
1289.702 142650000 141033728 139530304 138133312 136840960 135651712 
1292.595 134563152 133568928 132658720 131819992 131040200 130310296 
1295.489 129625784 128986504 128394920 127853632 127363056 126919624 
1298.382 126516984 126147224 125803664 125482096 125181528 124904240 
1301.275 124653664 124432000 124238464 124067880 123911128 123755104 
1304.168 123585096 123386568 123147720 122860272 122520784 122130224 
1307.061 121692544 121213048 120696136 120143824 119554984 118925696 
1309.954 118250112 117522752 116739608 115899544 115003992 114056032 
1312.847 113060312 112020880 110942304 109830568 108694440 107547568 
1315.740 106408024 105297864 104239160 103249960 102341096 101513280 
1318.633 100758104 100061240 99406224 98780256 98175864 97591528 97030208 
1322.008 96494992 95986456 95501072 95032224 94573320 94121184 93678760 
1325.384 93255216 92864656 92522680 92242888 92033936 91900280 91843264 
1328.759 91863448 91963040 92147032 92422232 92795104 93269544 93844808 
1332.134 94515760 95273928 96109232 97012632 97976832 98995664 100062760 
1335.509 101169720 102304280 103449592 104585792 105690944 106744424 
1338.402 107728952 108632712 109451448 110187416 110850248 111454400 
1341.295 112017592 112558440 113094080 113640832 114212368 114821784 
1344.188 115481768 116206024 117009048 117904928 118906688 120023704 
1347.082 121260648 122616696 124085384 125655176 127310288 129032568 
1349.975 130801616 132597760 134401648 136195648 137963904 139692016 
1352.868 141365792 142971344 144493952 145920160 147238192 148440688 
1355.761 149525856 150497088 151360880 152124448 152792400 153365088 
1358.654 153840480 154215920 154491472 154674672 154779984 154828096 
1361.547 154842560 154844720 154850416 154866960 154892688 154917680 
1364.440 154924832 154892096 154793104 154598864 154278816 153802992 
1367.333 153143856 152279088 151193888 149882736 148351888 146621712 
1370.226 144728320 142725776 140686176 138698064 136861312 135281856 
1373.119 134061352 133289248 133034912 133341208 134221120 135657648 
1376.012 137604464 139989664 142719536 145683488 148761152 151829072 
1378.905 154768704 157474240 159856064 161844224 163386032 164444432 
1381.798 164995472 165026928 164537296 163536464 162044064 160088336 
1384.691 157703952 154930784 151812176 148396320 144735024 140883536 
1387.584 136897120 132828072 128720912 124609864 120519000 116463568 
1390.478 112453008 108494864 104597752 100773064 97035352 93401920 89892584 
1393.853 86528480 83330600 80318440 77508296 74911432 72533528 70374120 
1397.228 68428600 66689648 65148892 63799032 62633680 61648200 60838512 
1400.603 60201156 59733388 59433936 59304796 59351060 59581492 60005780 
1403.979 60630544 61454548 62463672 63627108 64895884 66205248 67477920 
1407.354 68630560 69580552 70252776 70586864 70541392 70099408 69269944 
1410.729 68087184 66607536 64902432 63051232 61132160 59216428 57362524 
1414.104 55614276 54000900 52539028 51234404 50084000 49078792 48205120 
1417.479 47446700 46787636 46213792 45714992 45285112 44922284 44626364 
1420.855 44397580 44234780 44134608 44092080 44100800 44153224 44240536 
1424.230 44352644 44477616 44603348 44719368 44819980 44906584 44989632 
1427.605 45087644 45224508 45425888 45714864 46109732 46622704 47261192 
1430.980 48028620 48927112 49956956 51117932 52408672 53827924 55375744 
1434.356 57055224 58873964 60844748 62983708 65309248 67840088 70594752 
1437.731 73590344 76844560 80374632 84196488 88322792 92758576 97499272 
1441.106 102528776 107818976 113331896 119020144 124829024 130697456 
1443.999 136559744 142347968 147994704 153436880 158617280 163485824 
1446.892 167999552 172123040 175829520 179102912 181938768 184344496 
1449.785 186335872 187932128 189151216 190006352 190505552 190653168 
1452.678 190452640 189906160 189015120 187776496 186182400 184220688 
1455.572 181879424 179152656 176045696 172576224 168772000 164665440 
1458.465 160288688 155671200 150842800 145836832 140693776 135460528 
1461.358 130187464 124920856 119699424 114550080 109491424 104536968 
1464.251 99700952 95000712 90457368 86093328 81929504 77983696 74269200 
1467.626 70795896 67570608 64595832 61869748 59383812 57123008 55065788 
1471.001 53186956 51459660 49859712 48365908 46962540 45638392 44386096 
1474.376 43201204 42080508 41020740 40017916 39065940 38157420 37283344 
1477.752 36435392 35607356 34795904 34000772 33224254 32468670 31735648 
1481.127 31024278 30332596 29657624 28997940 28352942 27724302 27113514 
1484.502 26522140 25950450 25398206 24866754 24359442 23881860 23441576 
1487.877 23044738 22694318 22388140 22119184 21877328 21653128 21439784 
1491.253 21235258 21041484 20862712 20703630 20566950 20454068 20364930 
1494.628 20300016 20260514 20249616 20271026 20329328 20429030 20575044 
1498.003 20773908 21033154 21362350 21769738 22261134 22835524 23483054 
1501.378 24183966 24908912 25620562 26276760 26833426 27248712 27487020 
1504.754 27523752 27350432 26977314 26434178 25766476 25027168 24268284 
1508.129 23531768 22845720 22223428 21667244 21173762 20737938 20355734 
1511.504 20024828 19742356 19504018 19303244 19131882 18982398 18850046 
1514.879 18733230 18633710 18553208 18492450 18447988 18413578 18381214 
1518.255 18344174 18298828 18246110 18189888 18135756 18087550 18047184 
1521.630 18013006 17982750 17953456 17925022 17898282 17875306 17857402 
1525.005 17844258 17832038 17815704 17789590 17749894 17695620 17629304 
1528.380 17555254 17479186 17405786 17338116 17277332 17222914 17173462 
1531.756 17127000 17081604 17035606 16987028 16934560 16876952 16813628 
1535.131 16745521 16674506 16602410 16531840 16464256 16399872 16338587 
1538.506 16279563 16222075 16166382 16113738 16065979 16024882 15991660 
1541.881 15966577 15948854 15937405 15930917 15928663 15930075 15934056 
1545.257 15938921 15942164 15940212 15930122 15909312 15877200 15834775 
1548.632 15784601 15729828 15673967 15620024 15570620 15528917 15497869 
1552.007 15481113 15480815 15498103 15530934 15574372 15622002 15666498 
1555.382 15702739 15728818 15745834 15757257 15767153 15778482 15791874 
1558.758 15806489 15820473 15833141 15844705 15857222 15872339 15890960 
1562.133 15911974 15932785 15951063 15965849 15978623 15993951 16016612 
1565.508 16050544 16096447 16150935 16208598 16263368 16311787 16354967 
1568.883 16398015 16449180 16516846 16606789 16721431 16859374 17017980 
1572.259 17194824 17389722 17604420 17841358 18101708 18383212 18679048 
1575.634 18977762 19264798 19524714 19743358 19909032 20013680 20053132 
1579.009 20026558 19937248 19792398 19603516 19385262 19153420 18922860 
1582.384 18704844 18506322 18329286 18172180 18031986 17906284 17794222 
1585.760 17696770 17616574 17555376 17513512 17488238 17473846 17462794 
1589.135 17447468 17422348 17385112 17338232 17287218 17239036 17200130 
1592.510 17173642 17159148 17153136 17151668 17151984 17155542 17167720 
1595.885 17196326 17249344 17331474 17442580 17577610 17729086 17890906 
1599.260 18060740 18241758 18442472 18672724 18941016 19250588 19598700 
1602.636 19977296 20375676 20783272 21192330 21598074 21998086 22391256 
1606.011 22775522 23147234 23501680 23833252 24136326 24405538 24635246 
1609.386 24819796 24953148 25030844 25051010 25016400 24934612 24816756 
1612.761 24674544 24517664 24350370 24172110 23978620 23765804 23534376 
1616.137 23290602 23047044 22819916 22624112 22469262 22357696 22284122 
1619.512 22238752 22209142 22184166 22155572 22118142 22069934 22012270 
1622.887 21948968 21886410 21832804 21797098 21787244 21807486 21857514 
1626.262 21931746 22020318 22112838 22199802 22275912 22340148 22394504 
1629.638 22441932 22484366 22521632 22552114 22574964 22591406 22606288 
1633.013 22627658 22663448 22719494 22796546 22889254 22987842 23080728 
1636.388 23158388 23215750 23251904 23269686 23272442 23261900 23238606 
1639.763 23201040 23149474 23086928 23019910 22957858 22910828 22886022 
1643.139 22886332 22909188 22948420 22996678 23047160 23096430 23143922 
1646.514 23191614 23241132 23293838 23349958 23409158 23471554 23538730 
1649.889 23613458 23698126 23793872 23899302 24010572 24123106 24233620 
1653.264 24341888 24451874 24569594 24701972 24853072 25023534 25210894 
1656.640 25410346 25618498 25833880 26057980 26293628 26543270 26805920 
1660.015 27077548 27350628 27617494 27873044 28117206 28355278 28596880 
1663.390 28853436 29134784 29447872 29795058 30174932 30583944 31017324 
1666.765 31470228 31938444 32418196 32906332 33399404 33894820 34390260 
1670.141 34883060 35370816 35851136 36322772 36786748 37246848 37710048 
1673.516 38185304 38680484 39200212 39742744 40299940 40860032 41410736 
1676.891 41944560 42461676 42969456 43480936 44009952 44566472 45154440 
1680.266 45770576 46406852 47053216 47701748 48347088 48987436 49624024 
1683.642 50259280 50896816 51540672 52196528 52870248 53567344 54291772 
1687.017 55043984 55822040 56622040 57441128 58279540 59143192 60043124 
1690.392 60994216 62011952 63110964 64302772 65596328 66999780 68520848 
1693.767 70168392 71950896 73875448 75946808 78168864 80547016 83092992 
1697.143 85828552 88786080 92007776 95540608 99428528 103709696 108412160 
1700.518 113557952 119169496 125278728 131933552 139201008 147162928 
1703.411 155907744 165520944 176075856 187628016 200212928 213847136 
1706.304 228530176 244244032 260952288 278597568 297101312 316367488 
1709.197 336287840 356745696 377616032 398756896 419998080 441129280 
1712.090 461899136 482022208 501200864 519149824 535622016 550430400 
1714.983 563462080 574688832 584172096 592057856 598560384 603928320 
1717.876 608403008 612179904 615384768 618073856 620255360 621919168 
1720.769 623064384 623710528 623895616 623662080 623045312 622067776 
1723.662 620747968 619110208 617197440 615071360 612803840 610461824 
1726.555 608094784 605730560 603378368 601042240 598729280 596454784 
1729.448 594238592 592095744 590031872 588042688 586122880 584277760 
1732.342 582532544 580935552 579551040 578446016 577679424 577295424 
1735.235 577329600 577818432 578813376 580386368 582627072 585632576 
1738.128 589491456 594271744 600014464 606734592 614429184 623084096 
1741.021 632677696 643177856 654536256 666680000 679512256 692913536 
1743.914 706748608 720871680 735125184 749336128 763311552 776839616 
1746.807 789699072 801678272 812591040 822289344 830662272 837623616 
1749.700 843101184 847028096 849346304 850016448 849028736 846404096 
1752.593 842184512 836418752 829146496 820395072 810187264 798557376 
1755.486 785567872 771318848 755945216 739605696 722467136 704690240 
1758.379 686424448 667805248 648956672 629994560 611028224 592159616 
1761.272 573486208 555101376 537095488 519554144 502552992 486152064 
1764.165 470387616 455270048 440786528 426908352 413602784 400843040 
1767.058 388614272 376911264 365732672 355072320 344910368 335212480 
1769.951 325931680 317016384 308417472 300094848 292017056 284161408 
1772.844 276506976 269031072 261706560 254502720 247385968 240325536 
1775.738 233295088 226274528 219251664 212220352 205181232 198139360 
1778.631 191105184 184093760 177124560 170220592 163407584 156711024 
1781.524 150156272 143763936 137551872 131532448 125714528 120103576 
1784.417 114703288 109516736 104546848 99798528 95278032 90992960 86950656 
1787.792 83155000 79606096 76297080 73215168 70344048 67666152 65168232 
1791.167 62841520 60681136 58684936 56849184 55165288 53619752 52194532 
1794.542 50870380 49630708 48462636 47358636 46315188 45330596 44402644 
1797.918 43527540 42699660 41912728 41161312 40441944 39754504 39101988 
1801.293 38489564 37922912 37405352 36935208 36505096 36101528 35708220 
1804.668 35310144 34898324 34473232 34044716 33630024 33246562 32906052 
1808.043 32609724 32347068 32098972 31843644 31563356 31248628 30899406 
1811.419 30522646 30127900 29724234 29318506 28915518 28520564 28142480 
1814.794 27792224 27482672 27223580 27019050 26864410 26747086 26649084 
1818.169 26551542 26438444 26298134 26124932 25916776 25674482 25401724 
1821.544 25105246 24795084 24484070 24186276 23914098 23675804 23473192 
1824.920 23301412 23150690 23007882 22860044 22696960 22511834 22303726 
1828.295 22075638 21834414 21587410 21341530 21097782 20851362 20591320 
1831.670 20304016 19978446 19612138 19214134 18805116 18412512 18062488 
1835.045 17772304 17544176 17366540 17218320 17077012 16928380 16770557 
1838.421 16613923 16476955 16377883 16327795 16325848 16359199 16405515 
1841.796 16437344 16428562 16358515 16215453 15999923 15724141 15410613 
1845.171 15089134 14787797 14530079 14326184 14173187 14056146 13955072 
1848.546 13851837 13736724 13610843 13483981 13368854 13274631 13202570 
1851.922 13144258 13085922 13013767 12919117 12802022 12670965 12539549 
1855.297 12422628 12331824 12273766 12248348 12249466 12265771 12281143 
1858.672 12279514 12245050 12168658 12049568 11899215 11736485 11586218 
1862.047 11469814 11400744 11379908 11396691 11433525 11471319 11495532 
1865.423 11498628 11478462 11437840 11379506 11305084 11215446 11112778 
1868.798 11002037 10891064 10788461 10702079 10633998 10580271 10532925 
1872.173 10481535 10419187 10345308 10266304 10196256 10151776 10149855 
1875.548 10202553 10314071 10478119 10679521 10893679 11091794 11244114 
1878.924 11327353 11327798 11245637 11093338 10892483 10667579 10441486 
1882.299 10230051 10041867 9877438 9734180 9608937 9500076 9409053 9339036 
1886.156 9294145 9277998 9292573 9337834 9409887 9502553 9606359 9711686 
1890.014 9809219 9893941 9963939 10020844 10065407 10096535 10106282 
1893.389 10083707 10017355 9901932 9742120 9554687 9364024 9195733 9069203 
1897.246 8991240 8957547 8955562 8972020 8998345 9033590 9081649 9146987 
1901.104 9230198 9326586 9428130 9528014 9624386 9719862 9820500 9928288 
1904.961 10039466 10142789 10222263 10262514 10254044 10193104 10079986 
1908.336 9915123 9697926 9428466 9115324 8781867 8468650 8229899 8118625 
1912.194 8171218 8393781 8757306 9204061 9661607 10062035 10357097 10519863 
1916.051 10542570 10430117 10193968 9851815 9436166 8997576 8603580 8330901 
1919.909 8241507 8366128 8687465 9140820 9630587 10056163 10337410 10435880 
1923.766 10357954 10145753 9857999 9552070 9270681 9037563 8861358 8740782 
1927.624 8668819 8635616 8629252 8634382 8637443 8629587 8607444 8572622 
1931.481 8524851 8459989 8369168 8242025 8084828 7925188 7814791 7819002 
1935.338 7988727 8337208 8821684 9345870 9787967 10041683 10054449 9849865 
1939.196 9518184 9183869 8955544 8887134 8960125 9095387 9192485 9170758 
1943.053 9002537 8720268 8397099 8115004 7928154 7849050 7845400 7863096 
1946.911 7847856 7769570 7630753 7462775 7318522 7252648 7311326 7521404 
1950.768 7880691 8357038 8883546 9367933 9705310 9801252 9592190 9068836 
1954.625 8277710 7317361 6320094 5424991 4760155 4422325 4471987 4923391 
1958.483 5742325 6839365 8074344 9268325 10237011 10830149 10975252 10701581 
1962.340 10131275 9457432 8886063 8582313 8639380 9059901 9781118 10699143 
1966.198 11705446 12700194 13589824 14280721 14667300 14650589 14155232 
1969.573 13175285 11796108 10196982 8617416 7300446 6425405 6061943 6160074 
1973.430 6591598 7205228 7896109 8649019 9539871 10694461 12225890 14164809 
1977.288 16423913 18796548 21019706 22845702 24106920 24755098 24839462 
1980.663 24466312 23752522 22790174 21644636 20361984 18992900 17614606 
1984.038 16337138 15286470 14575843 14269533 14349999 14711580 15179941 
1987.414 15552428 15659349 15407253 14803707 13947455 12991316 12093351 
1990.789 11363018 10836960 10476071 10196508 9906212 9547698 9121399 8683762 
1994.646 8318460 8113199 8116762 8329634 8704282 9161984 9632660 10075082 
1998.504 10486509 10895912 11338118 11814008 12269344 12586023 12603855 
2001.879 12173548 11214592 9764595 8000818 6216834 4761097 3949553 3982138 
2005.736 4876195 6450960 8377524 10270987 11804827 12792124 13205021 
2009.112 13147235 12778839 12248448 11655005 11033069 10378232 9681516 
2012.487 8942581 8187627 7445346 6732121 6044944 5373562 4723591 4147808 
2016.344 3752525 3674974 4029375 4845331 6026017 7338078 8462350 9082219 
2020.202 8975574 8097234 6606091 4821860 3136211 1890689 1283421 1326163 
2024.059 1857162 2618996 3341982 3822348 3976917 3832731 3493352 3083294 
2027.917 2700999 2396789 2171851 2005357 1876287 1786134 1752308 1810114 
2031.774 1992356 2324381 2818626 3475546 4279843 5188701 6122478 6959064 
2035.631 7545386 7728449 7407007 6564800 5301214 3809247 2332227 1094764 
2039.489 239376 -206460 -319173 -238129 -94686 34097 148072 307816 583977 
2043.828 1014233 1570217 2165792 2703726 3124557 3448590 3781677 4275334 
2047.686 5067212 6214967 7662989 9249391 10757017 11986832 12805967 13173472 
2051.543 13122349 12730305 12085642 11268849 10346279 9377125 8419635 
2054.918 7535709 6785087 6216701 5853168 5693834 5715199 5879522 6148179 
2058.776 6484374 6857909 7239201 7594811 7890661 8096878 8198104 8204020 
2062.633 8149179 8086934 8075647 8159657 8358385 8660458 9033277 9428418 
2066.491 9800316 10110199 10331564 10445151 10440167 10311541 10062638 
2069.866 9714962 9304741 8888004 8529183 8290601 8218040 8330364 8614102 
2073.723 9026927 9504232 9974223 10370046 10642554 10768930 10755208 
2077.099 10629915 10435780 10214019 9991304 9770771 9532154 9242803 8873005 
2080.956 8413341 7887537 7352547 6887010 6571565 6464207 6582744 6898745 
2084.813 7344867 7833575 8276738 8608177 8791522 8821415 8717221 8508017 
2088.671 8224182 7889888 7522475 7137800 6751227 6384109 6062314 5816031 
2092.528 5673575 5659600 5788988 6062317 6463531 6957285 7492830 8003716 
2096.386 8424542 8698235 8791796 8704691 8473832 8163498 7856423 7630759 
2100.243 7541715 7609207 7812803 8100277 8405756 8667165 8847007 8938135 
2104.101 8962852 8958850 8964072 9003110 9078464 9171830 9257350 9311454 
2107.958 9323674 9301602 9264342 9234479 9226774 9240890 9262077 9267229 
2111.815 9236128 9159770 9046406 8918019 8803166 8723419 8684244 8670517 
2115.673 8648293 8574610 8412069 8142404 7776462 7351428 6927389 6566638 
2119.530 6317932 6198649 6188177 6232952 6257933 6188930 5974012 5596133 
2123.388 5078512 4476797 3863187 3307854 2866884 2572469 2434810 2445536 
2127.245 2582559 2810383 3079257 3321998 3457419 3396303 3061653 2406019 
2131.103 1431631 197416 -1184021 -2567477 -3800297 -4760968 -5372270 
2134.478 -5625515 -5564350 -5271585 -4843015 -4364385 -3897276 -3478188 
2137.853 -3123318 -2833982 -2610003 -2450981 -2361940 -2351438 -2431415 
2141.228 -2615280 -2916623 -3344603 -3901890 -4580706 -5354811 -6179012 
2144.604 -6984166 -7686576 -8198469 -8447665 -8404526 -8096881 -7622316 
2147.979 -7135430 -6808917 -6803023 -7209209 -8035265 -9211090 -10614065 
2151.354 -12119079 -13637950 -15141850 -16656287 -18219190 -19838814 
2154.247 -21453588 -22921976 -24045970 -24617820 -24470990 -23523548 
2157.140 -21785706 -19357490 -16398748 -13108165 -9716705 -6485075 -3692299 
2160.515 -1617521 -481163 -399525 -1325807 -3045843 -5205173 -7362576 
2163.891 -9093340 -10079473 -10161333 -9361136 -7850962 -5886219 -3757467 
2167.266 -1722997 10917 1300885 2070026 2297187 2008918 1271658 183841 
2171.123 -1141121 -2585006 -4033632 -5380126 -6525187 -7372027 -7836315 
2174.499 -7864561 -7460729 -6706568 -5763532 -4837140 -4123449 -3742807 
2177.874 -3694690 -3860199 -4035025 -3998818 -3608967 -2837721 -1803252 
2181.249 -723216 157957 654121 700365 361592 -204148 -809135 -1306383 
2185.106 -1626391 -1781364 -1832289 -1846142 -1849008 -1814838 -1670155 
2188.482 -1325633 -713308 181515 1307800 2555830 3784988 4851626 5652733 
2192.339 6143744 6346425 6338017 6225785 6111246 6065093 6100536 6182197 
2196.197 6235922 6181982 5965532 5579177 5067529 4515456 4016139 3644148 
2200.054 3432115 3366723 3405808 3499597 3613355 3746883 3919841 4164321 
2203.911 4491132 4882209 5279860 5608169 5792095 5790124 5604346 5284603 
2207.769 4907624 4555696 4288937 4127398 4057495 4040583 4029696 3994012 
2211.626 3922703 3829586 3739821 3684695 3688737 3764654 3919067 4152949 
2215.484 4464934 4852124 5305649 5809982 6338606 6858427 7332757 7731116 
2219.341 8033343 8233124 8336268 8356039 8306928 8203601 8054430 7864679 
2223.198 7631745 7352589 7020837 6629385 6177822 5678432 5156171 4657613 
2227.056 4240839 3967745 3888481 4029295 4384565 4920216 5578403 6293998 
2230.913 7007599 7671060 8249639 8720142 9063448 9268209 9330214 9261301 
2234.771 9094595 8882480 8688929 8574712 8578206 8708686 8936728 9206093 
2238.628 9446961 9594186 9600672 9445647 9134402 8697404 8174810 7620153 
2242.486 7086980 6627342 6284273 6085257 6038451 6130608 6326741 6581575 
2246.343 6847228 7084646 7268661 7390053 7449507 7455610 7416283 7338187 
2250.200 7227695 7091926 6942899 6797060 6676572 6606768 6611489 6714692 
2254.058 6932867 7275271 7737669 8300261 8926321 9564899 10158299 10653328 
2257.915 11011342 11215376 11272051 11205324 11050656 10844531 10616930 
2261.291 10391105 10184012 10008451 9876160 9799342 9785068 9837540 9956353 
2265.148 10136726 10374783 10665821 11006428 11387190 11791826 12193603 
2268.523 12557800 12849392 13042971 13130723 13127183 13061502 12972004 
2271.898 12892085 12837614 12809440 12791250 12760307 12698055 12596773 
2275.274 12464690 12323102 12201707 12129223 12129652 12214655 12384000 
2278.649 12624250 12912470 13222937 13531180 13818881 14076659 14301247 
2282.024 14493065 14648389 14757733 14808308 14787394 14693566 14541398 
2285.399 14364220 14206515 14109619 14098376 14170917 14295242 14422325 
2288.775 14498692 14487047 14376948 14186607 13955891 13730980 13548588 
2292.150 13428195 13369120 13355606 13367889 13387646 13403559 13409073 
2295.525 13400327 13373072 13322133 13245185 13145840 13037054 12938954 
2298.900 12874464 12860263 12901399 12986640 13092085 13186839 13243697 
2302.276 13245389 13190875 13093971 12978941 12873542 12801057 12773641 
2305.651 12790783 12841827 12908996 12975576 13030260 13072107 13108624 
2309.026 13152909 13215586 13300861 13402936 13507934 13601338 13673205 
2312.401 13725374 13770808 13830483 13923685 14061335 14239974 14443930 
2315.777 14649725 14834223 14982450 15088669 15158147 15202158 15236828 
2319.152 15282046 15361851 15503596 15734131 16069353 16502943 16995816 
2322.527 17474950 17843972 18004866 17883900 17451068 16731715 15797889 
2325.902 14754203 13711950 12767851 11986303 11391676 10972992 10696140 
2329.278 10518515 10403235 10326609 10277102 10251138 10247407 10262092 
2332.653 10288182 10317797 10344142 10364017 10377331 10386195 10391781 
2336.028 10393769 10390441 10379286 10358581 10329338 10294681 10259544 
2339.403 10231043 10216315 10222024 10250452 10300130 10362448 10424245 
2342.779 10467486 10476541 10441822 10364798 10259495 10149218 10060410 
2346.154 10016711 10030548 10101170 10214488 10348137 10477141 10578924 
2349.529 10636155 10640071 10588822 10488209 10349789 10189921 10029383 
2352.904 9888010 9781629 9717338 9691922 9692805 9701644 9701975 9683549 
2356.762 9645171 9595190 9544008 9501086 9468167 9439887 9404102 9349679 
2360.619 9268872 9161523 9034717 8898878 8764106 8637032 8520505 8414366 
2364.477 8319646 8240141 8183676 8159112 8173261 8226939 8312667 8416310 
2368.334 8520480 8608320 8670471 8705493 8721282 8730900 8747570 8779701 
2372.191 8826275 8877625 8917656 8928829 8899301 8826992 8722198 8604754 
2376.049 8499338 8427072 8401787 8425331 8488759 8577408 8675079 8768903 
2379.906 8851160 8918341 8969164 9002178 9014986 9006700 8978818 8938580 
2383.764 8896971 8867618 8861204 8884356 8936061 9009877 9097370 9191128 
2387.621 9287564 9385167 9482816 9578115 9665152 9736480 9785777 9811182 
2391.479 9815720 9806659 9791191 9773077 9751352 9722413 9681692 9630223 
2395.336 9575612 9530194 9507834 9515918 9552299 9604973 9655423 9687044 
2399.193 9689473 9664617 9622976 9579556 9546796 9529921 9525329 9524349 
2403.051 9518387 9503501 9483063 9466956 9467648 9495364 9554059 9640946 
2406.908 9747191 9860815 9969180 10062131 10130789 10171265 10181443 
2410.283 10163562 10123739 10072040 10021696 9987712 9983252 10018019 
2413.659 10092768 10200020 10321705 10430682 10495411 10487964 10389866 
2417.034 10201002 9941101 9649628 9376390 9168196 9056172 9045606 9114545 
2420.891 9220413 9312735 9351345 9317010 9217798 9085351 8962180 8887899 
2424.749 8887561 8962505 9094713 9250750 9392593 9488258 9516195 9470190 
2428.606 9357356 9195856 9012152 8833278 8684812 8586083 8546283 8565931 
2432.464 8636448 8746418 8882376 9034430 9195837 9360832 9522416 9669346 
2436.321 9785884 9854560 9861317 9799437 9674351 9503491 9314083 9136701 
2440.178 9002331 8935523 8950747 9052213 9231263 9468957 9737920 10005992 
2444.036 10243169 10424214 10534753 10571936 10543737 10463462 10347386 
2447.411 10210728 10067237 9928538 9807330 9716057 9663092 9651885 9675251 
2451.269 9717070 9755051 9770417 9752573 9706176 9647870 9601111 9584451 
2455.126 9603242 9646997 9690606 9705896 9671409 9581286 9447998 9297586 
2458.983 9159541 9059673 9009995 9009624 9046255 9102638 9162418 9212105 
2462.841 9244690 9258356 9255145 9239907 9219559 9200930 9189877 9185739 
2466.698 9183660 9172018 9137196 9067148 8958231 8816781 8658800 8504407 
2470.556 8372249 8273390 8208082 8168832 8145001 8127353 8113828 8110784 
2474.413 8129216 8181200 8273205 8406180 8570812 8751666 8930052 9087506 
2478.271 9209932 9291492 9333733 9346738 9344907 9341502 9344643 9352513 
2482.128 9354663 9335985 9281952 9188643 9065592 8935039 8825367 8760578 
2485.985 8753477 8800105 8882479 8975691 9058225 9116599 9148469 9157396 
2489.843 9147521 9118671 9066343 8987694 8887214 8781957 8700313 8674017 
2493.700 8726083 8861152 9059547 9283650 9488285 9634708 9701835 9690936 
2497.558 9618751 9509473 9383461 9250738 9112799 8966221 8811341 8656587 
2501.415 8518586 8416721 8366123 8370910 8421334 8497532 8574350 8631039 
2505.272 8657049 8654782 8639288 8633417 8659861 8735312 8863659 9035396 
2509.130 9226008 9404227 9538078 9604103 9594616 9517048 9392608 9247568 
2512.987 9103163 8971735 8852113 8736907 8619149 8500184 8394120 8323396 
2516.845 8312722 8379028 8524137 8733235 8979645 9231840 9463641 9658177 
2520.702 9807315 9910590 9969645 9986815 9964603 9910915 9838563 9767541 
2524.560 9717338 9703579 9728310 9780070 9836751 9873855 9873712 9832918 
2528.417 9763625 9687887 9629961 9607023 9623060 9668966 9728090 9781483 
2532.274 9816953 9831183 9830005 9825778 9832731 9862139 9921225 10011277 
2536.132 10125625 10253682 10378323 10480789 10541867 10545485 10482856 
2539.507 10353788 10167099 9939857 9693127 9450519 9234538 9064211 8954147 
2543.365 8912606 8941314 9032245 9167681 9322572 9468270 9578132 9633738 
2547.222 9630114 9577613 9499036 9424099 9381588 9390946 9456886 9568115 
2551.079 9700033 9821266 9902974 9925323 9886914 9801975 9698228 9609734 
2554.937 9564499 9579115 9653358 9771380 9910313 10047864 10169744 10274058 
2558.794 10367811 10462203 10563917 10670816 10770996 10849115 10892724 
2562.169 10899233 10878134 10847337 10828105 10833916 10868644 10924326 
2565.545 10985954 11039535 11076476 11097198 11108133 11116749 11126917 
2568.920 11134506 11130492 11104889 11053300 10980708 10903187 10843711 
2572.295 10824746 10864560 10969824 11136456 11350562 11591333 11837160 
2575.670 12067087 12263921 12415371 12514569 12560868 12560714 12524876 
2579.046 12469755 12410817 12360845 12326849 12306932 12293319 12274947 
2582.421 12240648 12184364 12107729 12019559 11933356 11863916 11822328 
2585.796 11814315 11838426 11889139 11958496 12039670 12130500 12230386 
2589.171 12340901 12460660 12583598 12698612 12790231 12844286 12851802 
2592.547 12811358 12731109 12624674 12507610 12394077 12292593 12208122 
2595.922 12143616 12102832 12093336 12124199 12203624 12333822 12507526 
2599.297 12707883 12910175 13087743 13219276 13292708 13308519 13277398 
2602.672 13216865 13145929 13080030 13028253 12992691 12970390 12954627 
2606.048 12939991 12922297 12902669 12886009 12880263 12893132 12928741 
2609.423 12984211 13049327 13107731 13143579 13145572 13113594 13060240 
2612.798 13008448 12985274 13012986 13101777 13246873 13429394 13621916 
2616.173 13797523 13936707 14030744 14081888 14099498 14095334 14079039 
2619.549 14055620 14026921 13993111 13954191 13911744 13868134 13826711 
2622.924 13790196 13760090 13738776 13727306 13727718 13740363 13764459 
2626.299 13795083 13825716 13848079 13855554 13846196 13823966 13798109 
2629.674 13781242 13785795 13818934 13881646 13966799 14061965 14151258 
2633.050 14220889 14260777 14267187 14243019 14196480 14138164 14080276 
2636.425 14033506 14005736 14001222 14022715 14069791 14141135 14232697 
2639.800 14339796 14454560 14567430 14666343 14741274 14784135 14791355 
2643.175 14766643 14718234 14658714 14601131 14555775 14528779 14519975 
2646.551 14524926 14535481 14542568 14536599 14511342 14463324 14393425 
2649.926 14307143 14213903 14125884 14054286 14007839 13987169 13985263 
2653.301 13988162 13978954 13943040 13873375 13772882 13654022 13535482 
2656.676 13434278 13362259 13321481 13304388 13297355 13287022 13262959 
2660.052 13221680 13165588 13100469 13032121 12963751 12893129 12816511 
2663.427 12729874 12630987 12523061 12412694 12308723 12219634 12150512 
2666.802 12102978 12073375 12056979 12046653 12038377 12027954 12013948 
2670.177 11994842 11968133 11930414 11877121 11803776 11710374 11599681 
2673.552 11479117 11360401 11256774 11178802 11133294 11121693 11139006 
2676.928 11177191 11225687 11274833 11317185 11347543 11363660 11365077 
2680.303 11353941 11333200 11309136 11287753 11275336 11275209 11287288 
2683.678 11306016 11322864 11330196 11322890 11302372 11277083 11258526 
2687.053 11258029 11280728 11324028 11376249 11420933 11442686 11432497 
2690.429 11389540 11323702 11248301 11178548 11123632 11087256 11065368 
2693.804 11051763 11039413 11025074 11008750 10993948 10984103 10982729 
2697.179 10989383 11001633 11015962 11027768 11033802 11032521 11023927 
2700.554 11010270 10994891 10981856 10975502 10978907 10992165 11012751 
2703.930 11034159 11048699 11048950 11031195 10995785 10948329 10898050 
2707.305 10855178 10827502 10818471 10827374 10849140 10877165 10903753 
2710.680 10922824 10930026 10923083 10901082 10866465 10822400 10774422 
2714.055 10728694 10691482 10667058 10658056 10662585 10677191 10697343 
2717.431 10718141 10737307 10753936 10770026 10788574 10812496 10843882 
2720.806 10882741 10926803 10971060 11007780 11029306 11028253 11001879 
2724.181 10952173 10887876 10823374 10774528 10755745 10773872 10827295 
2727.556 10905455 10992220 11070995 11128623 11161080 11171451 11169222 
2730.932 11164619 11166773 11178337 11197492 11219119 11237464 11250875 
2734.307 11260358 11272772 11295710 11336137 11396712 11474613 11561706 
2737.682 11646177 11714468 11756576 11768085 11751823 11716667 11676824 
2741.057 11645037 11629289 11631059 11641913 11649006 11638481 11600866 
2744.433 11535790 11452601 11366359 11295340 11252129 11242714 11262605 
2747.808 11300607 11342118 11375092 11390883 11387178 11364794 11327870 
2751.183 11279981 11226004 11170260 11118825 11079345 11059368 11063514 
2754.558 11091521 11137316 11188752 11232277 11256827 11257139 11236790 
2757.934 11205458 11177251 11163981 11171746 11199356 11238332 11276582 
2761.309 11302838 11310264 11299303 11275775 11249741 11232477 11231387 
2764.684 11248694 11281912 11324303 11367539 11405148 11433420 11452075 
2768.059 11463329 11469493 11471584 11466910 11451581 11420864 11371875 
2771.435 11306747 11232048 11159551 11102615 11073106 11078187 11118333 
2774.810 11186423 11269856 11351742 11416113 11450324 11448317 11411750 
2778.185 11350452 11280680 11222039 11193683 11208735 11272330 11379200 
2781.560 11514214 11657013 11786659 11885912 11946086 11967068 11956749 
2784.936 11927880 11893132 11863871 11848119 11849702 11869751 11907437 
2788.311 11959503 12020829 12084135 12141120 12183651 12206396 12209721 
2791.686 12199122 12185998 12183990 12205442 12258974 12345815 12459819 
2795.061 12589689 12720175 12836488 12926725 12983091 13003224 12990285 
2798.437 12951476 12897380 12839236 12788667 12754302 12741118 12750534 
2801.812 12780401 12826514 12882587 12943096 13003345 13059298 13107944 
2805.187 13147681 13178601 13202578 13221954 13242087 13267120 13300814 
2808.562 13343551 13394769 13451278 13509692 13567750 13625077 13683743 
2811.938 13748083 13821592 13908135 14008576 14121694 14242595 14362889 
2815.313 14471908 14557465 14608020 14616660 14583456 14519537 14444637 
2818.688 14384555 14366223 14409327 14521085 14693516 14905861 15129197 
2822.063 15336365 15506887 15632397 15716651 15770795 15808562 15841885 
2825.438 15876923 15914822 15953965 15991608 16026033 16056577 16083146 
2828.814 16105164 16120730 16129179 16129456 16124317 16117655 16113363 
2832.189 16114399 16119422 16124070 16123388 16114429 16098808 16085558 
2835.564 16086200 16113972 16176414 16274311 16398922 16535880 16669657 
2838.939 16789094 16890652 16978324 17062976 17156252 17267322 17399258 
2842.315 17549014 17710398 17875680 18040656 18205328 18373326 18551638 
2845.690 18746604 18962914 19202230 19462082 19737696 20022292 20307620 
2849.065 20585910 20848414 21086564 21292560 21460884 21591404 21687946 
2852.440 21762398 21830052 21908504 22012972 22151378 22322386 22517276 
2855.816 22719096 22910602 23078680 23217794 23331600 23430106 23525654 
2859.191 23627716 23741982 23867698 24002258 24144896 24300172 24476880 
2862.566 24688114 24943104 25244310 25583180 25941330 26296604 26629112 
2865.941 26931148 27208024 27478934 27771940 28113516 28523838 29009344 
2869.317 29564310 30173862 30818518 31481176 32148216 32809566 33458192 
2872.692 34085852 34682604 35238012 35743296 36193932 36591820 36944320 
2876.067 37262280 37554592 37825152 38071484 38284612 38452892 38566760 
2879.442 38621036 38617664 38564876 38474268 38357764 38223792 38076900 
2882.818 37917268 37741852 37547308 37332928 37100308 36855748 36609072 
2886.193 36371532 36156000 35973904 35836272 35748620 35714116 35730908 
2889.568 35791736 35886780 36004128 36131784 36259184 36380424 36492748 
2892.943 36598788 36704680 36818308 36947684 37098352 37271216 37461360 
2896.319 37657824 37845276 38006800 38126924 38196120 38212080 38181700 
2899.694 38117248 38035540 37950832 37874136 37809500 37756240 37711476 
2903.069 37673436 37642928 37626972 37632828 37668128 37734976 37830132 
2906.444 37943672 38062720 38176260 38277920 38369096 38458312 38557308 
2909.820 38679004 38830768 39014540 39225248 39454664 39693560 39935360 
2913.195 40178188 40424716 40682236 40959044 41262040 41596452 41962112 
2916.570 42356472 42770472 43193536 43613168 44016360 44392960 44736128 
2919.945 45044600 45321764 45575196 45815308 46053736 46302220 46570616 
2923.321 46867604 47198628 47566660 47970420 48405052 48861332 49329592 
2926.696 49799904 50268196 50736008 51212224 51710884 52248328 52838672 
2930.071 53491028 54207152 54983924 55814380 56694496 57622356 58603172 
2933.446 59646764 60765956 61974780 63285768 64707892 66246068 67900784 
2936.822 69668112 71538376 73497448 75526328 77602840 79703072 81802720 
2940.197 83877872 85905344 87861808 89722968 91462688 93055968 94479312 
2943.572 95715152 96751800 97586368 98222136 98666456 98928080 99015784 
2946.947 98938632 98704472 98323280 97807184 97171096 96431344 95605008 
2950.323 94710544 93767184 92794176 91815304 90854408 89934448 89074008 
2953.698 88282224 87558176 86888776 86254288 85632264 85003752 84357160 
2957.073 83690192 83009352 82326040 81652496 80998744 80372344 79774320 
2960.448 79202176 78649392 78105960 77558824 76996648 76409648 75793032 
2963.823 75150720 74493128 73836472 73196832 72586600 72009832 71459952 
2967.199 70923616 70383312 69824056 69235920 68617248 67974096 67317712 
2970.574 66661948 66019996 65402612 64817524 64269268 63758948 63285492 
2973.949 62844872 62433508 62048436 61692292 61370980 61093892 60871056 
2977.324 60709184 60607552 60558620 60549300 60566748 60604076 60666236 
2980.700 60769508 60941264 61210424 61602196 62130024 62794320 63581356 
2984.075 64470000 65437420 66465416 67542448 68665888 69840136 71071400 
2987.450 72366080 73726032 75145536 76610288 78095760 79568648 80989856 
2990.825 82318352 83517952 84560864 85431392 86126752 86652744 87019512 
2994.201 87234432 87299944 87212224 86963704 86548600 85966096 85225176 
2997.576 84341712 83336880 82231056 81040584 79775624 78440328 77039352 
3000.951 75579824 74074840 72544008 71008208 69484960 67984528 66505140 
3004.326 65036504 63563532 62072752 60557356 59020848 57474628 55934456 
3007.702 54414412 52923492 51464076 50034324 48633136 47263704 45932900 
3011.077 44653708 43435716 42284136 41193460 40148648 39132120 38126232 
3014.452 37122668 36125400 35147876 34209756 33326746 32507892 31749212 
3017.827 31037306 30353820 29681928 29011914 28342128 27678908 27034522 
3021.203 26420270 25844710 25311172 24818402 24359950 23928646 23513368 
3024.578 23105326 22695444 22278330 21851728 21420748 20993958 20584484 
3027.953 20206700 19872292 19588892 19359148 19179478 19044398 18944632 
3031.328 18871434 18815540 18766352 18713792 18648064 18561522 18450390 
3034.704 18314660 18159224 17990194 17815012 17638986 17466190 17299682 
3038.079 17143340 17003180 16888084 16806306 16763985 16762054 16792262 
3041.454 16841160 16889354 16917658 16908700 16853880 16749818 16603133 
3044.829 16425775 16236234 16056769 15910983 15821043 15803725 15866723 
3048.205 16004156 16198192 16420342 16637275 16816650 16936518 16986704 
3051.580 16970340 16902454 16801468 16686315 16571652 16463825 16363861 
3054.955 16269101 16176466 16083708 15993487 15911033 15844759 15803987 
3058.330 15797662 15831433 15907066 16019868 16157757 16302992 16433397 
3061.706 16526468 16565334 16542358 16462453 16342243 16208131 16087351 
3065.081 16003750 15969569 15983082 16029915 16087871 16134426 16154144 
3068.456 16143205 16109101 16068915 16042205 16043078 16077105 16137619 
3071.831 16211541 16281679 16332466 16355745 16349860 16318295 16265376 
3075.207 16195526 16109260 16006673 15890654 15768521 15654199 15565439 
3078.582 15520204 15528618 15590614 15692377 15810084 15915856 15983850 
3081.957 15998749 15957432 15870105 15753606 15628500 15509259 15403328 
3085.332 15309262 15218588 15120753 15006967 14874539 14728636 14580634 
3088.708 14446566 14341746 14279941 14267164 14302096 14377201 14479666 
3092.083 14595842 14711027 14815686 14903494 14972158 15022079 15055113 
3095.458 15073222 15076919 15066298 15039801 14996999 14936646 14859985 
3098.833 14769699 14670468 14568822 14470476 14381763 14306215 14245499 
3102.208 14196920 14155392 14113436 14064192 14001633 13923990 13833434 
3105.584 13735271 13638226 13550515 13478171 13423486 13384071 13355569 
3108.959 13331320 13307065 13282593 13261134 13249970 13255979 13282814 
3112.334 13327568 13380148 13425977 13449206 13438576 13391566 13316190 
3115.709 13228809 13149744 13097457 13082694 13106409 13160178 13231075 
3119.085 13304710 13370857 13425539 13469487 13508121 13547605 13591278 
3122.460 13639983 13691317 13740576 13780753 13805052 13805927 13778978 
3125.835 13722411 13639673 13540279 13437510 13346859 13281198 13246921 
3129.210 13241636 13256134 13275144 13284939 13275879 13245551 13197397 
3132.586 13140744 13083443 13032520 12991651 12963348 12948877 12950137 
3135.961 12969434 13004791 13051176 13097994 13131499 13138240 13110755 
3139.336 13050390 12966693 12875100 12790941 12725567 12682866 12659907 
3142.711 12650922 12651075 12661217 12685553 12730719 12798833 12884535 
3146.087 12972585 13039722 13060773 13016767 12898938 12713168 12479041 
3149.462 12224982 11983423 11782995 11645496 11581256 11589873 11661588 
3152.837 11779474 11923331 12074522 12217127 12341861 12444803 12525626 
3156.212 12584426 12620862 12629968 12605185 12540898 12436890 12301805 
3159.588 12153597 12017084 11918145 11876334 11898220 11974747 12084283 
3162.963 12198510 12290152 12342794 12352396 12329310 12290447 12252952 
3166.338 12228462 12217090 12210165 12194657 12159659 12102302 12029571 
3169.713 11956081 11899204 11871238 11876542 11908767 11954680 12000393 
3173.089 12036682 12062697 12086169 12117187 12163916 12227008 12299784 
3176.464 12368229 12420450 12449317 12457261 12455858 12459341 12479618 
3179.839 12519678 12571126 12618125 12642375 12629930 12576303 12486588 
3183.214 12372273 12247075 12120788 11999050 11883884 11778700 11690630 
3186.590 11632456 11618670 11661642 11762367 11910755 12082545 12247585 
3189.965 12377821 12455524 12479063 12462064 12429588 12408412 12419573 
3193.340 12471837 12560528 12670400 12780631 12870282 12923415 12932205 
3196.715 12895565 12819569 12714900 12595880 12477259 12374122 12296840 
3200.091 12251413 12235395 12241089 12254705 12262329 12253686 12225234 
3203.466 12180818 12130717 12087027 12058747 12050171 12059804 12082085 
3206.841 12112625 12147139 12186277 12230356 12278099 12322530 12351311 
3210.216 12348553 12301575 12206074 12071374 11919040 11779023 11680201 
3213.592 11642336 11670284 11751618 11863060 11975942 12065758 12118520 
3216.967 12132700 12117421 12087082 12058239 12043911 12051200 12081414 
3220.342 12131546 12194073 12259421 12316390 12355175 12368767 12356718 
3223.717 12324731 12284761 12251248 12237665 12252540 12297824 12368470 
3227.093 12456831 12553854 12652962 12749947 12840166 12916485 12969069 
3230.468 12984401 12950792 12862503 12725458 12555859 12380612 12227053 
3233.843 12117884 12064243 12062149 12095950 12143493 12183915 12204228 
3237.218 12201609 12184924 12169532 12172643 12208014 12281289 12387948 
3240.594 12514576 12641579 12747169 12813561 12829235 12793952 12717235 
3243.969 12615991 12510275 12417337 12348456 12306244 12286699 12280384 
3247.344 12278411 12273937 12264903 12251958 12239115 12229963 12227216 
3250.719 12232722 12247902 12272757 12306315 12345536 12384985 12417162 
3254.094 12434990 12433679 12413653 12382085 12349532 12328177 12325755 
3257.470 12342497 12370456 12394940 12400586 12375622 12317967 12234906 
3260.845 12141692 12057612 11998576 11973863 11984899 12023525 12077867 
3264.220 12133534 12178857 12205861 12212027 12198879 12170877 12133590 
3267.595 12091377 12048606 12007463 11969147 11934101 11903520 11879050 
3270.971 11862881 11856649 11861131 11875452 11896882 11922150 11947860 
3274.346 11973252 11999414 12029634 12067745 12116813 12177614 12247964 
3277.721 12322717 12396841 12464630 12523017 12569477 12603338 12625698 
3281.096 12637204 12637854 12629400 12612821 12590421 12564504 12536820 
3284.472 12508913 12480225 12449995 12416678 12379399 12338047 12293825 
3287.847 12249041 12204138 12161528 12120668 12082761 12048031 12018573 
3291.222 11996580 11987342 11996247 12029466 12091637 12187282 12315547 
3294.597 12473147 12651406 12838004 13018726 13179465 13308400 13398675 
3297.973 13449498 13464259 13452105 13421189 13380440 13334386 13285114 
3301.348 13229870 13165450 13087759 12996693 12895222 12793067 12703701 
3304.723 12642038 12620905 12645065 12709788 12799074 12889384 12954846 
3308.098 12975204 12941145 12857078 12740022 12612210 12496101 12408623 
3311.474 12356649 12340739 12356925 12401460 12473467 12572637 12695767 
3314.849 12834347 12971317 13084835 13153934 13165715 13120933 13035211 
3318.224 12934159 12845289 12788571 12771343 12785962 12815567 12840740 
3321.599 12847602 12832588 12801798 12766555 12736968 12717929 12705439 
3324.975 12689278 12657329 12600804 12518029 12415667 12306945 12208316 
3328.350 12133909 12093405 12088037 12113374 12158521 12210360 12256429 
3331.725 12287037 12297831 12288922 12264080 12228764 12186528 12139492 
3335.100 12086983 12028665 11965988 11905522 11858864 11839953 11861511 
3338.476 11929803 12042175 12183152 12330657 12459016 12546337 12580307 
3341.851 12560121 12496367 12405900 12308708 12221104 12154150 12113216 
3345.226 12098085 12106312 12135112 12180131 12236348 12297057 12352974 
3348.601 12393468 12409802 12396590 12356285 12298727 12238805 12192752 
3351.977 12173005 12183268 12216498 12257246 12286687 12287892 12253117 
3355.352 12185149 12096425 12003195 11920930 11856927 11810964 11774972 
3358.727 11739642 11700264 11659755 11629445 11625279 11660173 11740548 
3362.102 11859694 11999886 12136764 12245483 12306246 12312056 12266489 
3365.478 12185264 12090754 12008703 11961837 11966475 12028377 12141274 
3368.853 12286628 12436653 12560045 12628855 12627622 12557212 12436538 
3372.228 12297810 12177760 12108620 12107420 12173178 12287548 12422258 
3375.603 12546868 12638804 12685969 12690491 12662278 12614867 12559089 
3378.979 12501488 12441957 12376874 12302968 12219216 12129119 12039905 
3382.354 11961405 11902095 11866838 11855644 11863326 11879938 11894520 
3385.729 11899042 11889086 11866346 11838282 11813152 11797860 11793992 
3389.104 11795898 11793274 11774571 11732991 11669995 11598717 11539767 
3392.479 11517052 11548487 11640102 11782075 11951425 12118006 12253232 
3395.855 12338132 12371089 12364334 12341230 12327204 12341669 12390430 
3399.230 12467489 12556840 12641677 12712336 12768921 12824506 12898523 
3402.605 13007598 13157090 13337134 13521578 13674673 13762236 13762249 
3405.980 13671597 13507919 13304460 13099264 12926611 12807010 12746053 
3409.356 12736348 12764128 12815284 12881499 12960508 13052767 13158631 
3412.731 13274574 13391696 13497108 13576753 13620114 13622381 13585017 
3416.106 13515204 13424129 13326178 13237577 13176374 13160408 13204435 
3419.481 13317748 13498335 13732405 13993693 14248805 14463046 14610620 
3422.857 14678874 14673610 14614618 14533154 14460954 14423569 14433620 
3426.232 14488954 14573651 14664001 14732813 14759776 14733517 14657220 
3429.607 14548090 14434462 14349041 14321906 14372130 14501823 14694157 
3432.982 14915977 15124909 15280013 15350905 15325238 15211705 15035485 
3436.358 14831288 14634654 14471683 14355947 14287803 14258174 14253269 
3439.733 14260678 14272111 14285045 14299364 14316677 14338030 14363529 
3443.108 14392607 14425727 14464037 14511122 14568704 14636565 14710674 
3446.483 14782383 14840047 14870846 14863580 14811657 14715177 14581633 
3449.859 14426595 14271992 14142062 14059545 14040035 14087026 14190383 
3453.234 14327276 14466525 14578785 14641616 14647821 14605008 14531658 
3456.609 14448695 14373113 14309540 14252895 14191491 14114570 14021899 
3459.984 13925270 13846097 13810413 13836295 13930023 14080518 14263385 
3463.360 14447715 14603843 14711578 14762545 14760774 14718881 14654245 
3466.735 14585770 14530381 14503284 14514005 14565684 14653245 14762657 
3470.110 14873733 14963247 15012249 15011432 14964254 14886159 14799677 
3473.485 14727936 14688719 14689945 14730232 14803438 14900160 15014714 
3476.861 15142570 15282692 15432646 15586377 15735975 15869902 15979990 
3480.236 16062964 16120901 16163120 16199987 16242115 16295332 16361164 
3483.611 16435534 16515531 16598001 16685752 16783108 16898130 17035626 
3486.986 17195484 17372350 17555718 17732018 17890262 18023996 18133668 
3490.362 18224538 18305366 18384234 18466518 18553398 18644410 18740602 
3493.737 18845268 18964736 19106874 19275574 19468734 19673940 19871130 
3497.112 20037640 20153836 20209818 20209430 20167104 20106320 20050222 
3500.487 20017964 20021190 20062270 20138748 20244648 20370816 20506436 
3503.863 20638106 20749932 20826832 20857952 20842216 20789028 20718272 
3507.238 20653628 20615474 20612414 20638816 20676182 20700356 20691648 
3510.613 20641788 20556664 20455010 20359348 20288788 20252294 20244812 
3513.988 20251720 20253788 20232258 20173190 20071380 19924930 19739262 
3517.364 19522176 19286288 19047068 18824936 18638536 18504756 18430204 
3520.739 18409822 18428050 18460922 18483884 18479800 18443576 18383832 
3524.114 18318166 18269026 18252734 18274614 18325116 18382488 18417172 
3527.489 18401356 18315738 18156404 17937418 17688240 17447554 17254624 
3530.865 17139864 17118898 17187142 17322758 17489438 17646586 17758430 
3534.240 17798522 17756882 17639750 17467030 17266554 17069604 16903908 
3537.615 16788068 16730627 16726270 16761029 16813702 16861760 16886710 
3540.990 16878218 16835200 16765241 16681263 16597506 16524056 16463876 
3544.365 16412707 16360216 16294299 16205454 16089994 15954921 15814358 
3547.741 15691936 15611178 15595009 15653554 15785301 15971407 16181722 
3551.116 16378682 16528856 16608899 16613651 16554866 16457984 16351087 
3554.491 16258569 16193047 16154535 16132914 16115811 16091799 16057299 
3557.866 16014455 15969690 15929323 15897168 15873345 15858574 15854523 
3561.242 15867038 15904121 15973169 16074082 16197816 16324336 16428344 
3564.617 16483802 16473375 16392626 16252875 16079189 15903804 15758479 
3567.992 15668420 15643306 15680300 15761983 15864361 15961759 16035993 
3571.367 16079288 16097957 16106708 16124912 16166443 16232755 16311534 
3574.743 16378125 16404040 16367821 16260946 16094783 15894348 15691850 
3578.118 15514345 15377887 15281520 15213274 15154120 15088480 15007732 
3581.493 14914026 14815867 14724401 14649207 14597127 14571765 14574323 
3584.868 14604578 14658224 14725798 14788714 14823213 14803728 14712119 
3588.244 14544046 14315112 14057826 13812515 13616974 13494357 13447926 
3591.619 13462094 13509398 13562241 13604047 13631335 13655867 13695423 
3594.994 13766592 13874560 14012616 14161663 14298497 14401817 14460171 
3598.369 14474141 14456466 14425302 14400152 14393051 14408103 14437248 
3601.745 14465677 14476287 14454732 14394857 14302437 14191560 14084635 
3605.120 14002880 13963652 13974802 14033456 14126855 14239103 14351749 
3608.495 14451642 14529601 14582237 14609055 14612937 14597140 14567204 
3611.870 14529050 14492095 14464793 14457179 14473607 14515904 14578160 
3615.246 14652523 14727876 14794906 14847441 14883054 14902704 14910741 
3618.621 14912122 14913142 14920820 14943390 14989219 15067160 15181709 
3621.996 15334228 15518433 15721500 15924649 16106041 16242974 16316121 
3625.371 16313558 16232342 16079612 15873691 15642619 15420259 15239866 
3628.747 15130091 15104786 15162889 15285130 15443490 15605064 15744334 
3632.122 15845247 15906796 15938334 15953461 15964577 15978983 15996188 
3635.497 16014008 16029516 16047463 16076494 16130248 16218720 16346684 
3638.872 16508313 16693154 16884404 17073166 17253340 17428580 17602788 
3642.248 17776206 17940164 18078788 18171788 18205094 18176352 18101062 
3645.623 18008532 17933330 17903564 17932694 18013536 18122766 18230562 
3648.998 18311240 18353538 18360978 18351046 18344906 18358830 18400182 
3652.373 18465288 18543276 18621410 18691602 18746992 18787940 18812722 
3655.749 18819984 18807020 18773582 18723458 18667194 18618514 18591288 
3659.124 18592148 18616920 18646980 18659254 18626120 18530752 18370186 
3662.499 18158536 17922560 17695144 17505628 17372788 17300438 17280004 
3665.874 17292834 17318196 17333492 17323978 17276874 17187492 17055090 
3669.250 16885316 16689833 16487323 16300265 16152862 16063316 16043181 
3672.625 16089290 16187536 16313601 16439097 16535845 16585013 16577099 
3676.000 16515281 16410502 16279854 16138598 15999163 15867949 15746070 
3679.375 15630689 15516397 15395556 15260039 15101108 14910997 14685890 
3682.750 14426285 14138335 13836330 13539225 13270162 13052531 12907126 
3686.126 12848245 12882799 13004801 13197553 13431038 13666714 13862661 
3689.501 13981489 13999227 13909291 13725228 13477864 13204943 12944826 
3692.876 12722418 12547588 12414047 12306383 12207828 12110238 12017808 
3696.251 11945720 11912975 11937113 12022970 12161939 12331830 12504991 
3699.627 12654497 12761052 12814866 12818762 12778525 12706012 12610856 
3703.002 12503318 12391555 12285209 12192817 12123908 12084418 12076590 
3706.377 12097214 12140118 12194915 12251459 12301213 12339339 12364472 
3709.752 12380447 12397168 12428267 12490226 12597937 12758739 12966964 
3713.128 13200202 13421124 13583064 13642169 13569336 13362430 13049622 
3716.503 12687646 12345514 12090597 11969305 11994811 12144461 12368174 
3719.878 12601039 12784301 12876296 12863920 12758077 12592054 12403757 
3723.253 12230972 12099548 12023421 12002971 12030636 12093753 12176414 
3726.629 12263332 12341814 12402523 12442838 12467103 12486519 12514159 
3730.004 12562729 12636724 12731546 12831755 12917415 12967697 12972241 
3733.379 12930525 12858625 12780723 12723506 12710057 12753488 12852453 
3736.754 12995630 13161321 13325950 13466034 13562823 13605673 13591808 
3740.130 13527835 13427483 13308741 13190102 13084437 12998126 12926799 
3743.505 12862331 12793473 12714096 12625075 12536911 12462861 12417059 
3746.880 12407650 12437020 12500934 12592149 12700915 12818607 12934082 
3750.255 13035567 13107142 13134010 13105500 13021969 12899698 12767627 
3753.631 12661602 12614219 12644672 12752747 12919676 13115892 13310174 
3757.006 13479176 13613087 13711888 13781584 13825804 13843029 13827465 
3760.381 13773453 13683616 13569636 13453497 13360207 13310514 13313099 
3763.756 13364214 13447658 13541691 13624181 13677759 13690458 13656598 
3767.132 13574526 13449018 13289126 13113726 12946107 12811814 12731251 
3770.507 12714877 12756542 12838772 12936267 13025856 13089892 13123321 
3773.882 13127267 13106759 13063554 12997895 12907256 12792137 12660731 
3777.257 12529175 12418529 12348095 12327093 12352888 12412250 12486524 
3780.633 12560564 12628315 12693308 12765768 12854294 12960530 13074509 
3784.008 13179550 13253022 13278984 13247929 13164518 13039995 12893445 
3787.383 12744217 12607103 12493363 12405656 12341584 12292807 12247305 
3790.758 12194201 12127043 12046958 11963823 11893451 11851165 11848242 
3794.134 11881527 11939135 11998913 12038946 12045165 12019071 11974092 
3797.509 11935565 11927827 11970161 12068036 12216289 12400995 12605688 
3800.884 12813377 13012003 13191530 13344580 13463384 13543478 13584202 
3804.259 13590499 13574301 13550979 13536935 13544751 13578001 13633520 
3807.635 13700626 13765973 13816448 13843140 13838148 13799292 13726567 
3811.010 13623781 13498312 13361364 13225918 13105219 13008312 12940040 
3814.385 12897608 12876691 12870165 12873448 12883612 12901681 12926891 
3817.760 12957460 12988167 13011485 13020271 13009797 12980057 12934877 
3821.135 12881007 12826107 12776679 12737705 12710850 12696240 12690437 
3824.511 12687440 12676908 12649388 12597848 12522537 12434565 12354494 
3827.886 12306989 12312884 12380378 12500304 12647115 12787583 12890236 
3831.261 12938677 12934805 12899837 12862558 12849329 12873600 12931294 
3834.636 13001292 13055304 13067449 13020030 12910473 12750293 12558701 
3838.012 12358887 12172366 12015545 11897258 11821105 11782737 11774092 
3841.387 11783774 11799097 11809679 11809240 11796614 11774497 11748396 
3844.762 11722673 11699382 11680577 11667925 11666565 11684327 11733035 
3848.137 11819759 11948762 12113902 12302096 12494215 12670718 12815913 
3851.513 12919492 12976798 12989872 12961780 12901516 12818980 12728320 
3854.888 12644462 12581307 12545297 12534766 12537491 12536225 12514614 
3858.263 12465565 12394481 12319388 12265407 12255344 12300297 12397069 
3861.638 12527770 12668442 12795621 12895753 12966635 13015085 13052451 
3865.014 13086990 13121664 13151057 13167932 13163634 13133248 13078703 
3868.389 13006839 12930440 12864486 12825007 12825311 12871751 12959565 
3871.764 13071449 13177940 13244241 13236964 13136943 12945320 12687188 
3875.139 12403550 12143686 11949372 11844664 11830874 11891728 11996338 
3878.515 12115088 12223389 12308935 12370162 12413273 12448625 12487092 
3881.890 12536843 12604753 12691862 12794296 12900131 12992640 13050416 
3885.265 13056058 13000075 12888158 12736388 12571879 12418892 12296895 
3888.640 12211340 12158344 12126495 12105281 12088994 12080105 12084719 
3892.016 12111543 12164220 12241077 12334719 12437616 12542753 12647273 
3895.391 12751304 12857838 12965705 13073997 13179197 13278832 13370557 
3898.766 13455147 13532471 13600308 13651880 13678321 13671412 13628272 
3902.141 13553848 13462725 13372497 13300499 13255079 13233249 13219888 
3905.517 13195700 13139945 13040612 12898482 12726326 12545539 12381420 
3908.892 12256932 12187735 12180105 12230931 12326278 12447629 12572675 
3912.267 12681436 12758882 12799382 12804879 12786595 12756809 12728712 
3915.642 12710936 12707925 12720081 12748974 12795790 12864986 12958140 
3919.018 13071734 13193867 13303866 13377897 13394468 13342819 13228565 
3922.393 13071728 12902557 12751695 12646124 12599083 12613206 12682231 
3925.768 12797402 12947735 13123292 13312283 13496881 13654125 13758145 
3929.143 13787788 13733568 13602027 13418749 13220744 13048312 12932557 
3932.519 12889506 12917085 12998375 13110162 13229863 13342374 13440598 
3935.894 13522287 13587176 13632094 13650332 13635828 13585809 13503948 
3939.269 13405101 13308208 13235768 13204231 13220717 13279452 13365319 
3942.644 13455162 13528174 13566438 13563620 13521412 13450610 13365037 
3946.020 13280367 13208070 13155522 13124182 13112340 13112886 13120553 
3949.395 13128879 13134572 13136569 13137248 13138984 13144809 13154992 
3952.770 13166757 13174566 13173535 13161410 13141097 13120781 13115644 
3956.145 13137979 13196250 13289152 13402433 13513896 13598030 13636176 
3959.521 13622100 13565707 13489594 13420741 13380443 13376778 13400900 
3962.896 13430582 13439761 13407512 13327603 13209426 13074412 12948379 
3966.271 12851053 12791575 12768105 12769920 12785379 12807864 12838433 
3969.646 12882660 12947704 13035299 13140951 13251803 13352745 13429042 
3973.021 13473123 13481659 13457552 13407429 13338448 13258435 13177347 
3976.397 13106994 13061719 13055203 13097818 13189854 13322696 13477903 
3979.772 13632896 13766272 13864858 13925043 13952528 13957145 13949655 
3983.147 13934583 13913650 13881935 13837305 13778158 13708884 13636664 
3986.522 13571886 13521873 13494482 13493717 13523715 13585289 13679518 
3989.898 13804022 13952021 14111931 14268694 14405639 14510213 14575598 
3993.273 14603509 14602069 14583548 14558747 14535677 14515138 14493658 
3996.648 14463096 14415164 14343584 14245681 14124384 13988376 13850074 
4000.023 13727512 13637657 
##END=
