##TITLE=3D-Fillies_PLA-Flex_Black_Filament_r3_ATR-Corrected
##JCAMP-DX=5.01  $$ Nicolet v. 1
##DATATYPE=INFRARED SPECTRUM
##ORIGIN=Curtin University
##OWNER=Nicolet
##LONGDATE=2024/07/18
##TIME=11:24:33
##SPECTROMETER/DATA SYSTEM=Nicolet iS50
##DATA PROCESSING=
Ratio against background
%Transmittance->Absorbance
ATR Correction
Truncated
ElementMultiply or ElementDivide
##COMMENTS=
Number of sample scans: 32
Collection length: 47.29 sec
Sample gain: 1.0
Background collected on: Thu Jul 18 11:22:45 2024 (GMT+08:00);
Number of background scans: 32
Background gain: 1.0
Sample spacing:  1.000
Number of scan points: 16672
Resolution points: 8192
Number of FFT points: 65536
Apodization: N-B strong;
Phase correction: Mertz;
Laser frequency: 15798.3 cm-1
Number of rejected sample scans: 0
Number of rejected background scans: 0
Bench serial number: AUP1200105;
##RESOLUTION=4.000
##XUNITS=1/CM
##YUNITS=ABSORBANCE
##FIRSTX=400.163452
##LASTX=4000.187744
##FIRSTY=0.028397
##MAXX=4000.187744
##MINX=400.163452
##MAXY=1.335328
##MINY=-0.024996
##XFACTOR=1.000000
##YFACTOR=1.000000E-008
##NPOINTS=7468
##DELTAX=0.482125
##ZPD=8192
##XYDATA=(X++(Y..Y))
400.163 2839735 2846760 2866111 2890253 2911595 2924975 2928022 2921281 
404.020 2907650 2891824 2879316 2875528 2884252 2906554 2939684 2977119 
407.877 3009612 3027745 3024526 2997869 2951311 2893127 2833827 2783259 
411.734 2748141 2730957 2730351 2742587 2763209 2788336 2814847 2840148 
415.591 2861430 2875453 2878849 2869046 2845135 2808510 2762700 2712576 
419.448 2663307 2619582 2585029 2562197 2552359 2555392 2569257 2589758 
423.305 2610828 2625612 2628190 2615566 2588787 2552866 2515189 2483142 
427.162 2461675 2452175 2452756 2460132 2471841 2487981 2511280 2545715 
431.019 2593965 2655246 2724225 2792093 2849060 2887323 2903455 2899314 
434.876 2880902 2856272 2832948 2816237 2808544 2809926 2819045 2833981 
438.733 2852426 2871443 2887074 2894653 2889702 2869546 2834934 2790742 
442.590 2745425 2709051 2690497 2694868 2721827 2765801 2817661 2867505 
446.447 2907268 2932677 2943546 2943147 2936526 2928966 2924722 2926496 
450.304 2935417 2951380 2973390 2999794 3028332 3056267 3080557 3098323 
454.161 3107278 3106205 3095159 3075547 3049811 3021137 2993028 2968931 
458.017 2951834 2943846 2945778 2956909 2974894 2996244 3016954 3033558 
461.874 3043928 3047886 3047110 3044397 3043023 3045421 3052693 3064482 
465.731 3079377 3095558 3111306 3125369 3136839 3145004 3149180 3148812 
469.588 3143742 3134650 3123175 3111814 3103232 3099480 3101292 3107805 
473.445 3116931 3126223 3133850 3139373 3143866 3149436 3158247 3171531 
477.302 3188939 3208497 3227198 3241997 3250782 3253069 3250128 3244619 
481.159 3239845 3238953 3244146 3256272 3274668 3297447 3322069 3346141 
485.016 3368246 3388569 3409092 3433278 3465229 3508531 3565208 3635057 
488.873 3715689 3803263 3893618 3983552 4071610 4158249 4245219 4334604 
492.730 4427676 4524175 4622096 4718007 4808033 4888464 4956483 5010541 
496.587 5050305 5076484 5090479 5093992 5088632 5075505 5054941 5026325 
500.444 4988278 4939062 4877271 4802483 4715727 4619497 4517388 4413366 
504.301 4310906 4212432 4119040 4030722 3946794 3866431 3789107 3714759 
508.158 3643704 3576548 3513936 3456416 3404373 3357973 3317105 3281295 
512.015 3249620 3220762 3193168 3165377 3136390 3105950 3074647 3043794 
515.871 3015051 2989979 2969592 2954134 2943020 2935030 2928656 2922437 
519.728 2915289 2906671 2896634 2885771 2875025 2865467 2858041 2853348 
523.585 2851429 2851729 2853175 2854285 2853674 2850224 2843390 2833337 
527.442 2820834 2807000 2792930 2779326 2766281 2753286 2739503 2724236 
531.299 2707411 2689958 2673816 2661603 2655870 2658272 2668870 2685848 
535.156 2705797 2724466 2737913 2743522 2740717 2730979 2717274 2703024 
539.013 2691020 2682707 2677960 2675521 2673764 2671476 2668404 2665229 
542.870 2663099 2662995 2665048 2668336 2671076 2671231 2667189 2658369 
546.727 2645374 2629764 2613462 2598140 2584737 2573252 2562987 2552873 
550.584 2541963 2529757 2516306 2502185 2488326 2475757 2465444 2458080 
554.441 2453945 2452765 2453625 2454943 2454833 2451342 2443059 2429550 
558.298 2411597 2391113 2370663 2352828 2339550 2331688 2329057 2330660 
562.155 2335233 2341685 2349376 2358113 2367953 2378976 2391160 2404411 
566.012 2418714 2434203 2451119 2469553 2489214 2509205 2528232 2545029 
569.869 2558958 2570557 2581549 2594422 2611475 2633854 2660854 2689954 
573.725 2717560 2740298 2756288 2765947 2771948 2778331 2789157 2807168 
577.582 2832936 2864868 2899892 2934586 2966195 2993215 3015523 3033862 
581.439 3049329 3062856 3075068 3086383 3097265 3108374 3120503 3134351 
585.296 3150077 3167121 3184149 3199366 3210931 3217416 3218177 3213294 
589.153 3203455 3189601 3172657 3153434 3132661 3111156 3089975 3070405 
593.010 3053792 3041208 3033073 3028947 3027504 3026797 3024789 3019884 
596.867 3011363 2999518 2985522 2970990 2957398 2945647 2935789 2927154 
600.724 2918614 2909052 2897731 2884554 2870015 2855089 2840914 2828562 
604.581 2818776 2811838 2807466 2804779 2802359 2798491 2791534 2780380 
608.438 2764945 2746396 2727058 2709901 2697792 2692632 2694776 2702904 
612.295 2714415 2726194 2735480 2740574 2741075 2737756 2732030 2725387 
616.152 2718936 2713182 2708062 2703156 2697962 2692061 2685268 2677687 
620.009 2669658 2661710 2654462 2648417 2643823 2640576 2638258 2636362 
623.866 2634603 2633228 2633081 2635432 2641579 2652363 2667893 2687586 
627.723 2710541 2736053 2763988 2794709 2828551 2865000 2902008 2935833 
631.579 2961642 2974831 2972510 2954688 2924533 2887628 2850489 2818736 
635.436 2795788 2782350 2776844 2776421 2778189 2780038 2780973 2780859 
639.293 2779897 2778262 2775878 2772615 2768595 2764304 2760598 2758340 
643.150 2758031 2759553 2762157 2764764 2766389 2766470 2765002 2762435 
647.007 2759386 2756374 2753647 2751235 2749058 2747146 2745673 2744962 
650.864 2745345 2747054 2750149 2754482 2759706 2765251 2770378 2774146 
654.721 2775592 2773888 2768681 2760309 2749880 2739105 2729930 2723996 
658.578 2722296 2724935 2731248 2740075 2750109 2760153 2769179 2776336 
662.435 2780867 2782180 2780044 2774786 2767451 2759702 2753475 2750484 
666.292 2751749 2757406 2766812 2778958 2792985 2808535 2825805 2845297 
670.149 2867299 2891546 2916976 2941941 2964638 2983638 2998319 3009030 
674.006 3016978 3023885 3031614 3041822 3055789 3074296 3097697 3125883 
677.863 3158358 3194220 3232170 3270597 3307586 3341103 3369244 3390528 
681.720 3404164 3410384 3410523 3406917 3402518 3400276 3402563 3410672 
685.577 3424714 3443873 3466954 3493008 3521695 3553366 3588753 3628495 
689.433 3672705 3720799 3771714 3824335 3877933 3932372 3988070 4045676 
693.290 4105656 4168128 4232913 4299762 4368811 4440677 4516440 4597227 
697.147 4683802 4776232 4873840 4975498 5080057 5186777 5295484 5406515 
701.004 5520373 5637372 5757292 5879261 6001737 6122577 6239189 6348725 
704.861 6448436 6536120 6610662 6672559 6724029 6768838 6811686 6857452 
708.718 6910541 6974607 7052706 7147641 7262293 7399598 7562194 7751765 
712.575 7968586 8211629 8479138 8769863 9084214 9425085 9798013 10210710 
716.432 10672433 11193604 11786041 12463715 13243675 14146513 15196094 
719.807 16418482 17840390 19487838 21385188 23554618 26014816 28777506 
723.182 31839370 35167672 38678512 42211256 45510052 48235380 50032216 
726.556 50652440 50067424 48482452 46239148 43684456 41083708 38595976 
729.931 36288736 34167104 32203064 30358174 28597944 26898148 25245026 
733.306 23632530 22059130 20525942 19036430 17596714 16215755 14904551 
736.681 13674632 12536128 11496389 10559352 9725769 8994070 8361191 7823137 
740.538 7374938 7010296 6721379 6498760 6332106 6211264 6127394 6073886 
744.395 6046557 6043238 6062841 6104337 6165923 6244518 6335792 6434362 
748.252 6534248 6629297 6713590 6781909 6830066 6855185 6855768 6831603 
752.109 6783481 6712883 6621764 6512478 6387822 6251103 6106050 5956559 
755.966 5806308 5658354 5514912 5377387 5246646 5123389 5008340 4902322 
759.823 4806020 4719635 4642620 4573685 4511040 4452856 4397743 4345020 
763.679 4294710 4247271 4203218 4162766 4125716 4091489 4059378 4028746 
767.536 3999177 3970514 3942803 3916169 3890768 3866802 3844487 3824058 
771.393 3805692 3789346 3774761 3761451 3748806 3736311 3723778 3711437 
775.250 3699844 3689779 3681945 3676800 3674486 3674843 3677556 3682278 
779.107 3688684 3696561 3705706 3715938 3727117 3739180 3752229 3766558 
782.964 3782611 3800882 3821811 3845661 3872487 3902175 3934518 3969340 
786.821 4006610 4046534 4089589 4136543 4188413 4246336 4311368 4384264 
790.678 4465261 4553933 4649125 4749024 4851218 4952747 5050111 5139220 
794.535 5215471 5274044 5310544 5321837 5307008 5267985 5209626 5139133 
798.392 5064847 4994843 4935579 4891070 4862766 4849916 4850385 4861395 
802.249 4880099 4903753 4929742 4955388 4978010 4995215 5005327 5007875 
806.106 5003818 4995433 4985871 4978424 4975914 4980093 4991507 5009538 
809.963 5032702 5059035 5086388 5112642 5135905 5154524 5167185 5172899 
813.820 5171070 5161512 5144468 5120634 5091145 5057496 5021439 4984791 
817.677 4949179 4915838 4885433 4858053 4833293 4810468 4788841 4767795 
821.533 4746933 4726057 4705165 4684371 4663931 4644271 4625920 4609443 
825.390 4595236 4583340 4573286 4564137 4554726 4543997 4531360 4516855 
829.247 4501204 4485468 4470788 4458007 4447624 4439839 4434753 4432571 
833.104 4433616 4438177 4446251 4457305 4470259 4483706 4496336 4507404 
836.961 4516997 4526063 4536141 4548862 4565556 4586945 4613030 4643213 
840.818 4676473 4711449 4746677 4780585 4811731 4839007 4861937 4880791 
844.675 4896597 4910815 4924854 4939564 4954963 4970255 4984243 4995818 
848.532 5004457 5010400 5014448 5017605 5020609 5023668 5026559 5028930 
852.389 5030621 5031955 5033660 5036581 5041390 5048297 5057138 5067626 
856.246 5079687 5093659 5110227 5130139 5153799 5181094 5211500 5244444 
860.103 5279837 5318323 5361390 5410878 5468590 5535863 5613637 5702830 
863.960 5804892 5922318 6058691 6218530 6406964 6629742 6893687 7207501 
867.817 7582413 8031587 8568003 9200200 9926796 10730851 11576221 12407716 
871.674 13156642 13751952 14134808 14272384 14165710 13848321 13376386 
875.048 12814267 12220834 11640343 11099000 10606571 10161127 9754662 
878.423 9377908 9023523 8687135 8367076 8063332 7776500 7507144 7255586 
882.280 7021978 6806423 6609094 6430118 6269663 6127814 6004708 5900492 
886.137 5815321 5749201 5701757 5672136 5658912 5660311 5674371 5699234 
889.994 5733284 5775108 5823403 5876804 5933853 5993084 6053252 6113625 
893.851 6174133 6235401 6298609 6365251 6436807 6514500 6599227 6691387 
897.708 6790957 6897451 7010089 7127836 7249655 7374634 7502126 7631726 
901.565 7763143 7896011 8029656 8163126 8295246 8424945 8551495 8674659 
905.422 8794684 8912060 9027385 9141251 9254491 9368642 9486306 9611554 
909.279 9749614 9906314 10086992 10295372 10532556 10796469 11081854 
912.654 11380546 11682277 11975414 12247895 12488065 12685665 12832768 
916.028 12924659 12960368 12942840 12878487 12776341 12647069 12501898 
919.403 12351733 12206586 12075174 11964681 11880650 11827010 11806124 
922.778 11819150 11866394 11947738 12062977 12211844 12393799 12607682 
926.153 12851207 13120727 13411362 13717371 14032768 14351900 14669770 
929.528 14982001 15284631 15573764 15845492 16096075 16322164 16521244 
932.902 16691706 16832692 16943652 17023976 17072620 17088472 17070804 
936.277 17019964 16938012 16828858 16697860 16551125 16394530 16232949 
939.652 16069865 15907317 15746392 15587766 15432134 15280564 15134452 
943.027 14995284 14864394 14742637 14630380 14527519 14433679 14348470 
946.402 14271550 14202744 14141905 14088821 14043130 14004223 13971256 
949.776 13943318 13919385 13898486 13879691 13862084 13844703 13826634 
953.151 13807020 13785122 13760419 13732620 13701573 13667101 13628876 
956.526 13586384 13538980 13486069 13427442 13363533 13295451 13224849 
959.901 13153592 13083312 13015068 12949154 12885143 12822218 12759490 
963.276 12696272 12632307 12567684 12502658 12437590 12372701 12308144 
966.651 12244073 12180718 12118462 12057757 11998905 11941901 11886165 
970.025 11830563 11773532 11713465 11649081 11579879 11506377 11430126 
973.400 11353453 11279046 11209413 11146452 11091210 11043968 11004455 
976.775 10972256 10947193 10929523 10919901 10919137 10927852 10946167 
980.150 10973520 11008643 11049807 11095033 11142355 11189932 11236050 
983.525 11279113 11317576 11350105 11375693 11393967 11405370 11411178 
986.899 11413414 11414499 11416903 11422609 11432911 11448240 11468163 
990.274 11491457 11516435 11541209 11564070 11583798 11599947 11612865 
993.649 11623532 11633300 11643424 11654688 11667208 11680523 11693739 
997.024 11705963 11716599 11725495 11732864 11739224 11745124 11751091 
1000.399 11757621 11765315 11775005 11787791 11804941 11827875 11857994 
1003.774 11896750 11945760 12007041 12083216 12177553 12293949 12436684 
1007.148 12610133 12818576 13066018 13356131 13692489 14078873 14520049 
1010.523 15022765 15596968 16256849 17021004 17911148 18948640 20148822 
1013.898 21513294 23021652 24624010 26237452 27749178 29028776 29949970 
1017.273 30417222 30388722 29886534 28989566 27812874 26482588 25114682 
1020.648 23802214 22611054 21581670 20733900 20072320 19590846 19275920 
1024.022 19108576 19065688 19121086 19246906 19414966 19598516 19773758 
1027.398 19921074 20025848 20078864 20076324 20019484 19914126 19769586 
1030.773 19597610 19410946 19221962 19041360 18877296 18734902 18616340 
1034.148 18521236 18447406 18391684 18350630 18321076 18300482 18286920 
1037.523 18278956 18275578 18275880 18279114 18284616 18291966 18300984 
1040.899 18311856 18324886 18340366 18358322 18378318 18399372 18420068 
1044.274 18438750 18453788 18463842 18468052 18466184 18458622 18446392 
1047.649 18431116 18414848 18399920 18388746 18383534 18386024 18397368 
1051.024 18418150 18448418 18487844 18535936 18592026 18655396 18725238 
1054.400 18800650 18880668 18964368 19050906 19139596 19229784 19320736 
1057.775 19411574 19501230 19588542 19672654 19753140 19830300 19905154 
1061.150 19979112 20053716 20130134 20209068 20290704 20375044 20462174 
1064.525 20552704 20647880 20749464 20859566 20980324 21113710 21261382 
1067.901 21424820 21605398 21804436 22023310 22263210 22525114 22809620 
1071.276 23116846 23446460 23797692 24169434 24560328 24968792 25393150 
1074.651 25831700 26282788 26744888 27216586 27696610 28183732 28676624 
1078.026 29173914 29674130 30175626 30676588 31174832 31667680 32151714 
1081.402 32622830 33076308 33507198 33910824 34283312 34622016 34925684 
1084.777 35194616 35430492 35636288 35816364 35976424 36123844 36267664 
1088.152 36418584 36588664 36790744 37037800 37342324 37715804 38168484 
1091.527 38709264 39345752 40084256 40929772 41885868 42954576 44136148 
1094.903 45428788 46828444 48328140 49917520 51582064 53302364 55053760 
1098.278 56806184 58524676 60170300 61701720 63077224 64256872 65204740 
1101.653 65890896 66293036 66397344 66198712 65700404 64912880 63852452 
1105.028 62539912 60999836 59260644 57355868 55325920 53219552 51094044 
1108.404 49013528 47045480 45255932 43704208 42438620 41493148 40885784 
1111.779 40618272 40677060 41034912 41653116 42483916 43472828 44561148 
1115.154 45688164 46793828 47821672 48721884 49454616 49992520 50322376 
1118.529 50444956 50373388 50130148 49743356 49243004 48657652 48011880 
1121.905 47324792 46609648 45874316 45122404 44354860 43571384 42771832 
1125.280 41956980 41128800 40290676 39447212 38604196 37768592 36948524 
1128.655 36153124 35392240 34675808 34013216 33412444 32879516 32418146 
1132.030 32029598 31712916 31465206 31282026 31157750 31085926 31059424 
1135.406 31070650 31111788 31174910 31252316 31336666 31421402 31500896 
1138.781 31570688 31627556 31669524 31695804 31706508 31702470 31684980 
1142.156 31655506 31615602 31566780 31510458 31448036 31380886 31310416 
1145.531 31238114 31165538 31094412 31026774 30965114 30912558 30872974 
1148.906 30851092 30852350 30882674 30948120 31054392 31206632 31408990 
1152.282 31664624 31975740 32343682 32769034 33251544 33790040 34382132 
1155.657 35024040 35710360 36434092 37186724 37958572 38739116 39517392 
1159.032 40282248 41022660 41727904 42387912 42993536 43536996 44012236 
1162.407 44415152 44743620 44997272 45177084 45285048 45323844 45296840 
1165.783 45208140 45062648 44866088 44624836 44345416 44034304 43697484 
1169.158 43340504 42968420 42585976 42197548 41807128 41417992 41032532 
1172.533 40652140 40277328 39908172 39544656 39187040 38836072 38492832 
1175.908 38158400 37833512 37518300 37212188 36914016 36622264 36335320 
1179.284 36051508 35769220 35486824 35202780 34915660 34624376 34328372 
1182.659 34027708 33722936 33414840 33104140 32791188 32475924 32158012 
1186.034 31837228 31513888 31189182 30865210 30544742 30230748 29925742 
1189.409 29631466 29348520 29076660 28815090 28563074 28320334 28087348 
1192.785 27865338 27655930 27460936 27281932 27120086 26976200 26850856 
1196.160 26744586 26658062 26592038 26547370 26524722 26524526 26546880 
1199.535 26591566 26658090 26745894 26854328 26982578 27129554 27293634 
1202.910 27472242 27661624 27856514 28050050 28233912 28398654 28534484 
1206.286 28632238 28684550 28687010 28638944 28543848 28409102 28245134 
1209.661 28064138 27878634 27700174 27538356 27400238 27290276 27210336 
1213.036 27160180 27137804 27140052 27163052 27202854 27255852 27319190 
1216.411 27390900 27469828 27555420 27647350 27745212 27848360 27955974 
1219.787 28067276 28181848 28299796 28421894 28549396 28683860 28826842 
1223.162 28979828 29144180 29321278 29512668 29720110 29945516 30190750 
1226.537 30457344 30746364 31058314 31393424 31751900 32134530 32542992 
1229.912 32980106 33449816 33956912 34506600 35103832 35752736 36456192 
1233.288 37215456 38030208 38898836 39818816 40787432 41802172 42861152 
1236.663 43963008 45106756 46291092 47513956 48772104 50061040 51375188 
1240.038 52708364 54054016 55405308 56755008 58094996 59415888 60706888 
1243.413 61955832 63149804 64275908 65322040 66277856 67135352 67889592 
1246.789 68539080 69085840 69535080 69894448 70172712 70378528 70519576 
1250.164 70601824 70629856 70607328 70537656 70424560 70272192 70085160 
1253.539 69868512 69627648 69368632 69098272 68824384 68555480 68300448 
1256.914 68068168 67867192 67705760 67592288 67535272 67543576 67625744 
1260.290 67789296 68039336 68377856 68802848 69308456 69885160 70520088 
1263.665 71197360 71897984 72599688 73276992 73901888 74445432 74879800 
1267.040 75180856 75329960 75315280 75131760 74780648 74268104 73604392 
1270.415 72802712 71878392 70848032 69728592 68536648 67287624 65995712 
1273.791 64673888 63334060 61987024 60642428 59308332 57990700 56693268 
1277.166 55417480 54162944 52928020 51710360 50507588 49317584 48138748 
1280.541 46970136 45811520 44663320 43526512 42402320 41291740 40195280 
1283.916 39112724 38043164 36985312 35938016 34900548 33872936 32855902 
1287.292 31850708 30858854 29882040 28922076 27981070 27061534 26166474 
1290.667 25299280 24463468 23662386 22898976 22175540 21493802 20854826 
1294.042 20259086 19706376 19195772 18725528 18293160 17895504 17529208 
1297.417 17190958 16877862 16587672 16318735 16069812 15839756 15627204 
1300.792 15430419 15247320 15075761 14913748 14759737 14612716 14472130 
1304.168 14337628 14208797 14084959 13965175 13848361 13733603 13620435 
1307.543 13508970 13399972 13294679 13194467 13100706 13014454 12936507 
1310.918 12867464 12807906 12758540 12720320 12694427 12682201 12684949 
1314.293 12703817 12739600 12792714 12862982 12949698 13051443 13166107 
1317.669 13290788 13421609 13553639 13680744 13795593 13889967 13955143 
1321.044 13982847 13966152 13900459 13784294 13619514 13411129 13166457 
1324.419 12894179 12603173 12301641 11996580 11693635 11397245 11110785 
1327.794 10836920 10577537 10333753 10105963 9893861 9696788 9513960 9344811 
1331.652 9189170 9047198 8919192 8805369 8705669 8619723 8546933 8486612 
1335.509 8438162 8401067 8374826 8358808 8352183 8353831 8362494 8376905 
1339.367 8395994 8418979 8445423 8475201 8508489 8545734 8587683 8635372 
1343.224 8690111 8753388 8826580 8910786 9006471 9113265 9229916 9354274 
1347.082 9483423 9613898 9742014 9864111 9977074 10078538 10167351 10243722 
1350.939 10309163 10366344 10418629 10469505 10522122 10578919 10641458 
1354.314 10710466 10786085 10868026 10955765 11048587 11145488 11245168 
1357.689 11346027 11446255 11544210 11638566 11728613 11814307 11896101 
1361.065 11974678 12050565 12123724 12193531 12258694 12317587 12368543 
1364.440 12410174 12441570 12462330 12472494 12472229 12461729 12441004 
1367.815 12409859 12368020 12315330 12252000 12178873 12097535 12010410 
1371.190 11920597 11831678 11747409 11671405 11606901 11556462 11521976 
1374.566 11504545 11504602 11522058 11556477 11607246 11673691 11755204 
1377.941 11851186 11961102 12084482 12221003 12370557 12533398 12710185 
1381.316 12901911 13109651 13334373 13576435 13835341 14109489 14396064 
1384.691 14691199 14990005 15286911 15575992 15851277 16107225 16338991 
1388.067 16542831 16716167 16857650 16967006 17044712 17091706 17108922 
1391.442 17097116 17056638 16987530 16889786 16763687 16610111 16430731 
1394.817 16228099 16005307 15765926 15513748 15252882 14987952 14724346 
1398.192 14468320 14226967 14007711 13817883 13664268 13552868 13489105 
1401.568 13478136 13525279 13636146 13816400 14070904 14402604 14811090 
1404.943 15291306 15832603 16418400 17026516 17630310 18200418 18706982 
1408.318 19122104 19422402 19591096 19619586 19508006 19264762 18905220 
1411.693 18449592 17920704 17341942 16735435 16120881 15514749 14929876 
1415.069 14375220 13855961 13373795 12927438 12513404 12126836 11762492 
1418.444 11415422 11081707 10758645 10444769 10139621 9843374 9556455 
1421.819 9279498 9013204 8758444 8516293 8287985 8074769 7877728 7697572 
1425.677 7534676 7389139 7260944 7150154 7056915 6981364 6923377 6882472 
1429.534 6857583 6847276 6849897 6863828 6887713 6920475 6961255 7009217 
1433.391 7063539 7123342 7187780 7256201 7328227 7403754 7482801 7565399 
1437.249 7651499 7740974 7833864 7930565 8032051 8139836 8255851 8382206 
1441.106 8520748 8673012 8840092 9022860 9222089 9438694 9673686 9928048 
1444.964 10202628 10497987 10814543 11152690 11512902 11895627 12300667 
1448.339 12726304 13168010 13617510 14062296 14486197 14871119 15199856 
1451.714 15459386 15643834 15756187 15808032 15817298 15804857 15790583 
1455.089 15790066 15812282 15858456 15922108 15990224 16045259 16067947 
1458.465 16040236 15948194 15784448 15549611 15252572 14909223 14539935 
1461.840 14166009 13806249 13474126 13176292 12912543 12677041 12460317 
1465.215 12251601 12040951 11820868 11587209 11339454 11080353 10815078 
1468.590 10550041 10291670 10045252 9814104 9599373 9400228 9214510 9039492 
1472.448 8872452 8711036 8553265 8397278 8241179 8082913 7920339 7751564 
1476.305 7575124 7390285 7197048 6996096 6788698 6576533 6361568 6145991 
1480.163 5932013 5721705 5516674 5318016 5126183 4941223 4762934 4591226 
1484.020 4426242 4268369 4118069 3975733 3841564 3715619 3598010 3489040 
1487.877 3389329 3299664 3220721 3152778 3095513 3047988 3008979 2977362 
1491.735 2952490 2934301 2923343 2920384 2926246 2941486 2966561 3001922 
1495.592 3048318 3106893 3179224 3267200 3373031 3499338 3649405 3827474 
1499.450 4038453 4287136 4576421 4905167 5265959 5643809 6016278 6355411 
1503.307 6631461 6817509 6894111 6852941 6698502 6447206 6124254 5758830 
1507.165 5379206 5008824 4664281 4355187 4085442 3854865 3660892 3499627 
1511.022 3366548 3256894 3165983 3089603 3024317 2967695 2918293 2875395 
1514.879 2838599 2807486 2781397 2759409 2740521 2723906 2709061 2695850 
1518.737 2684309 2674609 2666733 2660573 2655951 2652747 2651074 2651321 
1522.594 2654041 2659867 2669228 2682250 2698544 2717236 2737019 2756356 
1526.452 2773695 2787739 2797646 2803197 2804641 2802677 2798097 2791546 
1530.309 2783288 2773218 2760948 2746070 2728472 2708514 2687164 2665749 
1534.167 2645586 2627749 2612635 2599990 2589039 2578849 2568628 2557988 
1538.024 2547047 2536270 2526266 2517508 2510100 2503760 2497902 2491893 
1541.881 2485191 2477562 2469065 2460007 2450810 2441875 2433567 2426092 
1545.739 2419639 2414344 2410332 2407789 2406881 2407695 2410248 2414440 
1549.596 2420013 2426665 2434009 2441660 2449248 2456452 2463030 2468854 
1553.454 2473919 2478292 2482181 2485768 2489202 2492524 2495667 2498581 
1557.311 2501245 2503798 2506587 2510096 2514818 2521040 2528768 2537682 
1561.168 2547219 2556774 2565911 2574446 2582498 2590382 2598470 2607109 
1565.026 2616491 2626742 2638019 2650605 2665031 2681942 2702072 2726016 
1568.883 2754155 2786574 2823217 2863993 2908917 2958202 3012145 3071044 
1572.741 3134953 3203554 3276042 3351104 3426917 3501193 3571264 3634099 
1576.598 3686548 3725548 3748458 3753392 3739619 3707690 3659587 3598430 
1580.456 3528140 3452834 3376235 3301217 3229648 3162516 3100227 3043027 
1584.313 2991213 2945161 2905250 2871631 2844104 2822082 2804769 2791377 
1588.170 2781310 2774219 2770003 2768551 2769671 2772951 2777864 2783806 
1592.028 2790328 2797255 2804637 2812644 2821394 2830816 2840579 2850167 
1595.885 2858963 2866464 2872403 2876828 2880058 2882639 2885292 2888741 
1599.743 2893690 2900720 2910199 2922324 2937113 2954528 2974573 2997340 
1603.600 3023052 3051975 3084177 3119442 3157222 3196614 3236581 3276207 
1607.458 3314873 3352319 3388574 3423693 3457589 3489815 3519750 3546683 
1611.315 3570057 3589673 3605672 3618391 3628164 3635183 3639509 3641221 
1615.172 3640561 3638101 3634737 3631439 3629052 3628046 3628523 3630412 
1619.030 3633713 3638689 3645934 3656112 3669680 3686581 3706158 3727394 
1622.887 3749287 3771183 3793051 3815313 3838515 3862983 3888485 3914323 
1626.745 3939546 3963423 3985638 4006444 4026479 4046352 4066465 4086823 
1630.602 4107174 4127313 4147239 4167307 4188022 4209828 4232830 4256742 
1634.459 4280991 4305032 4328516 4351502 4374330 4397372 4420843 4444670 
1638.317 4468587 4492344 4515908 4539503 4563461 4587984 4613009 4638092 
1642.174 4662638 4686095 4708339 4729671 4750799 4772567 4795653 4820449 
1646.032 4847006 4875163 4904767 4935673 4967778 5000923 5034809 5069209 
1649.889 5104008 5139465 5176174 5214923 5256256 5300186 5346030 5392679 
1653.747 5439139 5485257 5532026 5581388 5635726 5696965 5765935 5842183 
1657.604 5924294 6010654 6100187 6192859 6289664 6392078 6501361 6618172 
1661.461 6742358 6873437 7011224 7156282 7310080 7474640 7652007 7843750 
1665.319 8050747 8273338 8511706 8766086 9036910 9324251 9627557 9944961 
1669.176 10273247 10608000 10944069 11276150 11599097 11908266 12199504 
1672.552 12469347 12715232 12935826 13131300 13303427 13455296 13590761 
1675.927 13713969 13828911 13939525 14049894 14164627 14288829 14427704 
1679.302 14585795 14766273 14970692 15199292 15452059 15729694 16034210 
1682.677 16368750 16736498 17139186 17576128 18043884 18537462 19052026 
1686.052 19584638 20135220 20706212 21301596 21925584 22581672 23272384 
1689.428 23999670 24765536 25572378 26423144 27321258 28270570 29275808 
1692.803 30343208 31481070 32699496 34009008 35418396 36932508 38551660 
1696.178 40273072 42094816 44020524 46062792 48243972 50593244 53141284 
1699.553 55914236 58929284 62193900 65708960 69474240 73492872 77771896 
1702.929 82317400 87125480 92172016 97404720 102740168 108066336 113249472 
1706.304 118141816 122588696 126436136 129542104 131793152 133124272 
1709.197 133532800 133079264 131872272 130044912 127732192 125057312 
1712.090 122127536 119036016 115864208 112682000 109545576 106495608 
1714.983 103557336 100743672 98060856 95513472 93107712 90851536 88752304 
1718.358 86813512 85032896 83402456 81910712 80545520 79296544 78155704 
1721.734 77116384 76171376 75311312 74523880 73794496 73107872 72449736 
1725.109 71807584 71170664 70529232 69873672 69194000 68480400 67724056 
1728.484 66917980 66057484 65139832 64163308 63126784 62029064 60869408 
1731.859 59648184 58367680 57032604 55649768 54227348 52773684 51295924 
1735.235 49799440 48287388 46761420 45222352 43671260 42110276 40543160 
1738.610 38975316 37413400 35864736 34336388 32834682 31364802 29930982 
1741.985 28536806 27185590 25880628 24625362 23423152 22277220 21190322 
1745.360 20164720 19202010 18302890 17467238 16693965 15981121 15326147 
1748.736 14726101 14177886 13678391 13224472 12813056 12440982 12105267 
1752.111 11803055 11531780 11289085 11072583 10879604 10706966 10550923 
1755.486 10407475 10272744 10143487 10017301 9892583 9768236 9643292 9516510 
1759.344 9386409 9251489 9110468 8962788 8808667 8649120 8485638 8320003 
1763.201 8153999 7989259 7827200 7669085 7515836 7367930 7225455 7087973 
1767.058 6954836 6825365 6699107 6575948 6456049 6339732 6227239 6118704 
1770.916 6014155 5913618 5817233 5725163 5637516 5554028 5474002 5396282 
1774.773 5319546 5242663 5164974 5086462 5007624 4929078 4851274 4774260 
1778.631 4697646 4620994 4543977 4466866 4390334 4315318 4242743 4173070 
1782.488 4106332 4042219 3980202 3919907 3861149 3803915 3748319 3694528 
1786.345 3642675 3592999 3545896 3501882 3461538 3425070 3392260 3362233 
1790.203 3333662 3305088 3275202 3243319 3209365 3173849 3137632 3101635 
1794.060 3066588 3033015 3001281 2971588 2944012 2918474 2894860 2872853 
1797.918 2852181 2832726 2814434 2797286 2781090 2765352 2748996 2730819 
1801.775 2709688 2685108 2657614 2628656 2600441 2575155 2554349 2538486 
1805.633 2526794 2517569 2508815 2498785 2486462 2471632 2454805 2436854 
1809.490 2418700 2401022 2384019 2367357 2350145 2331029 2308643 2281911 
1813.347 2250765 2216494 2181805 2150494 2126587 2113271 2111879 2121319 
1817.205 2138274 2158007 2175724 2187798 2192611 2190415 2182911 2172186 
1821.062 2159992 2147243 2134234 2120910 2107377 2094186 2082213 2072362 
1824.920 2065196 2060589 2057638 2054883 2050736 2043841 2033631 2020291 
1828.777 2004870 1988916 1973982 1961151 1950807 1942467 1935093 1927685 
1832.635 1919720 1911471 1904034 1898697 1896276 1896389 1897192 1895716 
1836.492 1888705 1873734 1850103 1819109 1783793 1747890 1714867 1687070 
1840.349 1665339 1649411 1638440 1631638 1628558 1628978 1632577 1638484 
1844.207 1645162 1650577 1652531 1649211 1639553 1623296 1601029 1573999 
1848.064 1543949 1513183 1484192 1459639 1441745 1431741 1429716 1434217 
1851.922 1442886 1452891 1461790 1468161 1471783 1473392 1474232 1475498 
1855.779 1477817 1481189 1485045 1488521 1490650 1490529 1487572 1481527 
1859.636 1472668 1461872 1450388 1439659 1430796 1424247 1419522 1415568 
1863.494 1411210 1405862 1399802 1394167 1390377 1389202 1390285 1391934 
1867.351 1391746 1387641 1378926 1366876 1354525 1345571 1343216 1348874 
1871.209 1361685 1378837 1396317 1410179 1417300 1415750 1405166 1386294 
1875.066 1360992 1332154 1303456 1278935 1262487 1256601 1261777 1276046 
1878.924 1295251 1314293 1328392 1334496 1331930 1322129 1307901 1292331 
1882.781 1277859 1265701 1256341 1249752 1246033 1245388 1248104 1254198 
1886.638 1263113 1273768 1284740 1294613 1302153 1306332 1306392 1301636 
1890.496 1291767 1277116 1259093 1240053 1223139 1211122 1205357 1205090 
1894.353 1207244 1207373 1201022 1185560 1161325 1131727 1102589 1080206 
1898.211 1069814 1073751 1091269 1118618 1150242 1180117 1203224 1216393 
1902.068 1218780 1211751 1198335 1182425 1167861 1157431 1152495 1152607 
1905.926 1156197 1161159 1165989 1170322 1175349 1183163 1195876 1214664 
1909.783 1238841 1265813 1291791 1312650 1325504 1329180 1324698 1314560 
1913.640 1301855 1288907 1276527 1263867 1248766 1228821 1202500 1170293 
1917.498 1134758 1100252 1071620 1052783 1045571 1048784 1059093 1071664 
1921.355 1082142 1087877 1088570 1086287 1084454 1086489 1094538 1109177 
1925.213 1129399 1153400 1179095 1204805 1229143 1250484 1266958 1276305 
1929.070 1276514 1266506 1246628 1218801 1185979 1150948 1115810 1081480 
1932.927 1048236 1016364 987003 962727 946660 941397 948222 965842 990947 
1937.267 1018963 1045423 1066876 1081767 1089729 1091510 1088200 1081534 
1941.125 1073614 1067340 1065904 1072094 1086875 1108862 1133777 1155923 
1944.982 1169322 1170265 1158364 1137268 1113637 1095923 1093017 1112790 
1948.839 1161075 1240785 1350581 1484067 1628738 1767548 1880738 1950571 
1952.697 1965401 1922920 1830521 1703199 1558736 1412479 1274315 1147606 
1956.554 1031253 923209 823389 734952 662557 609922 576476 557176 543885 
1960.894 529518 511452 492890 480718 481863 498979 528250 559988 582650 
1965.233 587035 569297 531284 478662 417125 350621 280649 209255 141127 
1969.573 85986 56192 62758 110141 192088 291983 387895 459851 498448 508089 
1974.395 507107 521245 575095 682701 843155 1040614 1249358 1441271 1593960 
1978.734 1694770 1741672 1739941 1698378 1626988 1535916 1435095 1335538 
1982.592 1247464 1179844 1137101 1117370 1112626 1110325 1096809 1061689 
1986.449 1001799 922711 837327 762298 712742 698226 719734 770447 838479 
1990.789 911469 979618 1038283 1087603 1130131 1167720 1200173 1224128 
1994.646 1235451 1230587 1208561 1172056 1125817 1075441 1026383 982932 
1998.504 948948 928770 926999 947183 990105 1051036 1119535 1180670 1219531 
2002.843 1225599 1197182 1141734 1073662 1008654 958158 925284 904978 886474 
2007.183 860342 822480 776091 729382 691123 666883 657648 660343 671358 
2011.522 688748 712318 741824 774469 801957 812514 793760 738511 648243 
2015.862 535066 416981 312389 233422 182588 153233 134805 118697 104300 
2020.202 98481 114143 163422 252369 376968 524142 674754 809427 911982 
2024.541 973145 990047 964910 903424 813268 703230 583161 462321 349645 
2028.881 251862 172849 113644 72795 46641 31482 22130 13669 1495 -16893 
2033.703 -40291 -63196 -75787 -67363 -30965 33534 116799 203083 274343 
2038.042 317742 330514 322665 313166 325009 376846 476954 620524 791360 
2042.382 967038 1124658 1245295 1317499 1336744 1305779 1233448 1134289 
2046.239 1028563 941010 896513 914332 1001211 1146090 1320277 1484363 
2050.097 1599623 1639984 1598259 1487709 1336316 1179079 1048107 964847 
2053.954 935759 952131 995133 1043860 1082590 1105308 1115207 1120513 
2057.812 1129227 1144542 1163225 1178180 1182100 1172493 1153725 1136335 
2061.669 1132866 1152867 1198096 1261100 1326960 1378403 1401234 1389206 
2065.526 1345489 1281662 1213022 1154869 1118086 1107747 1123111 1159439 
2069.384 1210189 1268432 1327840 1382967 1429234 1463321 1483567 1490077 
2073.241 1485130 1472289 1455218 1437073 1419420 1402705 1386823 1372020 
2077.099 1359133 1350427 1347966 1353263 1366759 1387671 1414464 1445556 
2080.956 1479926 1517051 1556223 1596033 1633792 1666007 1688950 1700043 
2084.813 1698747 1687004 1668287 1646751 1625583 1606254 1587919 1568363 
2088.671 1544908 1515537 1479454 1437403 1391097 1342642 1293846 1246276 
2092.528 1200853 1158718 1121127 1089565 1065822 1051510 1047418 1053504 
2096.386 1068553 1090888 1118268 1149343 1183464 1221292 1264103 1313313 
2100.243 1368901 1429043 1489267 1543417 1584689 1607562 1609611 1592347 
2104.101 1561170 1524240 1489860 1465160 1453755 1455732 1467791 1484505 
2107.958 1499702 1508014 1505375 1489990 1462376 1425611 1384895 1346784 
2111.815 1317814 1303143 1304491 1319768 1342715 1364782 1376927 1372254 
2115.673 1347632 1304648 1248448 1186857 1127978 1078895 1044510 1027210 
2119.530 1026939 1041387 1065651 1092997 1114757 1121949 1106865 1065368 
2123.388 998350 912935 821098 737407 675536 644753 647439 678736 727275 
2127.727 778677 818235 834545 821068 777141 706663 617217 517783 417915 
2132.067 326239 250511 197095 170756 173578 204202 257121 322389 386944 
2136.406 437171 461715 454901 418503 361552 298305 245462 216583 219063 
2140.746 252270 307111 368763 420422 447077 439908 397450 326829 241461 
2145.086 158937 95512 62969 63680 89816 123586 142051 123634 54754 -65004 
2149.907 -221892 -391019 -544387 -659218 -725323 -749441 -753140 -767193 
2153.765 -821868 -940131 -1129643 -1382646 -1676566 -1977044 -2242686 
2157.140 -2430178 -2499642 -2423447 -2194627 -1834390 -1390075 -924991 
2160.515 -500372 -160344 77339 220027 293967 333219 370526 428980 518799 
2164.855 637886 775222 916653 1048619 1159277 1240335 1284578 1286444 
2168.712 1242000 1150330 1014909 844547 652668 455326 269752 111678 -5859 
2173.052 -73769 -87571 -47801 38213 156569 287053 406886 494211 533358 
2177.392 518829 456118 359965 251048 150828 77728 43179 50424 94764 164476 
2182.213 242680 311339 353487 358067 321971 252512 166000 85428 34569 32330 
2187.035 87566 196515 343761 506388 660207 785894 872581 919908 935130 
2191.375 930482 917913 906770 901593 902752 907889 913608 917157 916859 
2195.714 911390 899572 879707 849752 807735 753452 688954 619250 551663 
2200.054 494484 454740 437504 443968 471856 516711 572795 634670 697795 
2204.394 758442 813746 860884 897812 923262 938421 946278 952092 961323 
2208.733 978417 1004197 1035864 1066785 1088639 1093559 1076538 1037083 
2212.591 979414 911199 842529 783448 742300 723974 729286 753972 790454 
2216.930 828462 857969 872266 869593 854486 836580 827874 839340 877094 
2221.270 940990 1024565 1117298 1207431 1284951 1343125 1378977 1392166 
2225.127 1384136 1357249 1315067 1262226 1204902 1150223 1105161 1074531 
2228.985 1060568 1061739 1074346 1093508 1114663 1134949 1153317 1169847 
2232.842 1185181 1200449 1216820 1235750 1258644 1286326 1318068 1350659 
2236.699 1378773 1396093 1397816 1382425 1353274 1317960 1286312 1266737 
2240.557 1263798 1276595 1299725 1325490 1347062 1361044 1368204 1372170 
2244.414 1378030 1389529 1407880 1431935 1458749 1485218 1509165 1529405 
2248.272 1545465 1556713 1562082 1560039 1549283 1529510 1502029 1469887 
2252.129 1437295 1408940 1389227 1381164 1386428 1404735 1434304 1471980 
2255.987 1513938 1556538 1596986 1633772 1666485 1695492 1720818 1741429 
2259.844 1755231 1759356 1751671 1731515 1700893 1663772 1625575 1591239 
2263.701 1564111 1545589 1535522 1533066 1537746 1549742 1569566 1596982 
2267.559 1630184 1665826 1699844 1728753 1751231 1768417 1783429 1799684 
2271.416 1819320 1841883 1864614 1883498 1895253 1899164 1897447 1894623 
2275.274 1896192 1906502 1927221 1956901 1991328 2024750 2051430 2066934 
2279.131 2069191 2059079 2040202 2018414 2000485 1992855 1999873 2022707 
2282.989 2059061 2103721 2150166 2192164 2225347 2247719 2259303 2261120 
2286.846 2254218 2239314 2216778 2187665 2154240 2120293 2090334 2068319 
2290.703 2056303 2053574 2056912 2061858 2064230 2061616 2054082 2043605 
2294.561 2032830 2024123 2018432 2015270 2013317 2011216 2008151 2004145 
2298.418 1999562 1994775 1989908 1984752 1979096 1973190 1967577 1963065 
2302.276 1960070 1958278 1956696 1954202 1950151 1945070 1940913 1940190 
2306.133 1945169 1956812 1974059 1994256 2013857 2029575 2039554 2043612 
2309.990 2043101 2040106 2036718 2034533 2034371 2036515 2040928 2047314 
2313.848 2055213 2063985 2072909 2081438 2089635 2098164 2108218 2120904 
2317.705 2136812 2155459 2175711 2196526 2217941 2241744 2271145 2309417 
2321.563 2357821 2413683 2469724 2514992 2537608 2528028 2482091 2402300 
2325.420 2297315 2179978 2064311 1962491 1882648 1827689 1795710 1781396 
2329.278 1778136 1779879 1782447 1783830 1783885 1783483 1783726 1785251 
2333.135 1788114 1791812 1795473 1798119 1798892 1797287 1793206 1787069 
2336.992 1779612 1771791 1764400 1758079 1753009 1749207 1746586 1745132 
2340.850 1745104 1746955 1750954 1757031 1764706 1773024 1780793 1787048 
2344.707 1791377 1793904 1795293 1796319 1797669 1799527 1801678 1803726 
2348.565 1805451 1807018 1809005 1812230 1817279 1824090 1831769 1838690 
2352.422 1842876 1842588 1836947 1826240 1811781 1795698 1780295 1767428 
2356.280 1758163 1752764 1750525 1750446 1751225 1751710 1750907 1748140 
2360.137 1743057 1735672 1726360 1715860 1705085 1694777 1685364 1676578 
2363.994 1667805 1658304 1647733 1636641 1626630 1619960 1618855 1624524 
2367.852 1636580 1652868 1669962 1684345 1693468 1696670 1695291 1691993 
2371.709 1689685 1690452 1694728 1701395 1708369 1713506 1715422 1713890 
2375.567 1709597 1703733 1697427 1691286 1685648 1680648 1676528 1673695 
2379.424 1672544 1672988 1674376 1675469 1674855 1671560 1665610 1658181 
2383.281 1651207 1646774 1646321 1650146 1657313 1666074 1674581 1681245 
2387.139 1685194 1686217 1684451 1680126 1673571 1665180 1655763 1646553 
2390.996 1639103 1634901 1634965 1639410 1647521 1657948 1669227 1680116 
2394.854 1689865 1698184 1704948 1709980 1712972 1713672 1711941 1708150 
2398.711 1703145 1697888 1693348 1689946 1687643 1685799 1683768 1681008 
2402.569 1677171 1672411 1666912 1660861 1654412 1647773 1641449 1636206 
2406.426 1633190 1633582 1638154 1647048 1659603 1674532 1690458 1706093 
2410.283 1720632 1733627 1744769 1753625 1759608 1761854 1759799 1753206 
2414.141 1742593 1729138 1714346 1699915 1687189 1677129 1670490 1667674 
2417.998 1668893 1674152 1682922 1694263 1706555 1717833 1726345 1730701 
2421.856 1730508 1726128 1718671 1709440 1699660 1689999 1680801 1672073 
2425.713 1663889 1656462 1650347 1646117 1644377 1645406 1649117 1654913 
2429.571 1662021 1669278 1675418 1679278 1679685 1675842 1667495 1655134 
2433.428 1640001 1624086 1609780 1599386 1594550 1595898 1602778 1613202 
2437.285 1624690 1634452 1640485 1641926 1639550 1635359 1632365 1633484 
2441.143 1640928 1655294 1675462 1698767 1721740 1741040 1754349 1760978 
2445.000 1761951 1759572 1756549 1755148 1756631 1760580 1765594 1769546 
2448.858 1770464 1767479 1761044 1752906 1745706 1742112 1743874 1751304 
2452.715 1763148 1776734 1788813 1796392 1797523 1791688 1779961 1764317 
2456.573 1747262 1731106 1717585 1707768 1701879 1699837 1700965 1704387 
2460.430 1708871 1713150 1716088 1716921 1715666 1712933 1709968 1707914 
2464.287 1707444 1708284 1709240 1708654 1705003 1697688 1687349 1675844 
2468.145 1665556 1658580 1656162 1658222 1663616 1670517 1677404 1683379 
2472.002 1688467 1693331 1698880 1705773 1713934 1722506 1730016 1734487 
2475.860 1734017 1726967 1712411 1690396 1662075 1629857 1597027 1567446 
2479.717 1544695 1531391 1528755 1536198 1551602 1571703 1592842 1611564 
2483.574 1625384 1633060 1634790 1632148 1627507 1623725 1623212 1627233 
2487.432 1635580 1646401 1656941 1664229 1666211 1662495 1654589 1645383 
2491.289 1638251 1635987 1639841 1649499 1663205 1678521 1693030 1704919 
2495.147 1713042 1716901 1716502 1712422 1705818 1698666 1693564 1693134 
2499.004 1699247 1712210 1730423 1750515 1768621 1781464 1787537 1787604 
2502.862 1784079 1779929 1777447 1777148 1778004 1778060 1775845 1771038 
2506.719 1765057 1760331 1759217 1762824 1770427 1779395 1786498 1788879 
2510.576 1785139 1775824 1763166 1750099 1739489 1733148 1731839 1735142 
2514.434 1741823 1750327 1758963 1766153 1770652 1771754 1769525 1764854 
2518.291 1759273 1754641 1752440 1753276 1756751 1761475 1765708 1767965 
2522.149 1767470 1764538 1760152 1755815 1752761 1751710 1752827 1755695 
2526.006 1759755 1764421 1769105 1773596 1777713 1781552 1785298 1789369 
2529.864 1794217 1800141 1807226 1815133 1823274 1830838 1837262 1842195 
2533.721 1845738 1848198 1849984 1851267 1852149 1852578 1852503 1852094 
2537.578 1851566 1851088 1850431 1849131 1846410 1841755 1835215 1827783 
2541.436 1821075 1817106 1817450 1822754 1832473 1845075 1858643 1871540 
2545.293 1882900 1892720 1901481 1909850 1918077 1925895 1932832 1938345 
2549.151 1942253 1944890 1946858 1948902 1951361 1954311 1957521 1960524 
2553.008 1963202 1965536 1967906 1970560 1973629 1977001 1980339 1983265 
2556.865 1985493 1986895 1987554 1987583 1987293 1987055 1987576 1989652 
2560.723 1994328 2002444 2014419 2029995 2048261 2067946 2087745 2106681 
2564.580 2124198 2140078 2153903 2165056 2172512 2175175 2172470 2164740 
2568.438 2153365 2140519 2128435 2118715 2111761 2106889 2102917 2098953 
2572.295 2095013 2092296 2092801 2098389 2110011 2126985 2147351 2168189 
2576.153 2186663 2200819 2210078 2215030 2217178 2218168 2219515 2222171 
2580.010 2226771 2233380 2241727 2251037 2259968 2266658 2269160 2265854 
2583.867 2256197 2241138 2223114 2205655 2192550 2186808 2190056 2202090 
2587.725 2220933 2243740 2267128 2288219 2305081 2316732 2323314 2325420 
2591.582 2324030 2319947 2313802 2305990 2296859 2286928 2277072 2268477 
2595.440 2262634 2260860 2263931 2271963 2284151 2299200 2315557 2331782 
2599.297 2346765 2359689 2370042 2377249 2380778 2380296 2376097 2369307 
2603.155 2361925 2356496 2355373 2359880 2369854 2383401 2397837 2410173 
2607.012 2418321 2421699 2421140 2418409 2415501 2413836 2414115 2416248 
2610.869 2419902 2424937 2431414 2439591 2449347 2460053 2470410 2478984 
2614.727 2484700 2487577 2488708 2490115 2493871 2501323 2512397 2525657 
2618.584 2538756 2549374 2556021 2558516 2557903 2555852 2553977 2553283 
2622.442 2553859 2555217 2556673 2557864 2558885 2560432 2563330 2568357 
2626.299 2575850 2585706 2597401 2610080 2622863 2634628 2644355 2651172 
2630.156 2654414 2654026 2650444 2644799 2638412 2632424 2627657 2624059 
2634.014 2621003 2617607 2613236 2607853 2602255 2597745 2595843 2597623 
2637.871 2603489 2612961 2624942 2638020 2651059 2663155 2673922 2683279 
2641.729 2691232 2697800 2702872 2706297 2708011 2708074 2706810 2704593 
2645.586 2701954 2699467 2697697 2697156 2698383 2701668 2707038 2714100 
2649.444 2721991 2729588 2735516 2738586 2738113 2734032 2726871 2717809 
2653.301 2708141 2699209 2692093 2687351 2685056 2684842 2685951 2687393 
2657.158 2688178 2687458 2684575 2679310 2671690 2662039 2650797 2638336 
2661.016 2624942 2610832 2596114 2581005 2565811 2550993 2536938 2524034 
2664.873 2512327 2501718 2491882 2482594 2473763 2465634 2458767 2453829 
2668.731 2451419 2451772 2454690 2459452 2464994 2470158 2473923 2475463 
2672.588 2474517 2471245 2466207 2460318 2454525 2449799 2446800 2445729 
2676.446 2446432 2448295 2450566 2452639 2454068 2454981 2455677 2456654 
2680.303 2458212 2460178 2461972 2462642 2461315 2457491 2451404 2443909 
2684.160 2436483 2430718 2427857 2428538 2432545 2438926 2446282 2453123 
2688.018 2458310 2461299 2462141 2461517 2460511 2460233 2461666 2465295 
2691.875 2471047 2478396 2486313 2493750 2499722 2503652 2505377 2505178 
2695.733 2503655 2501466 2499257 2497540 2496663 2496789 2498112 2500578 
2699.590 2504085 2508325 2512731 2516627 2519353 2520388 2519511 2516905 
2703.448 2513034 2508623 2504338 2500784 2498354 2497215 2497413 2498866 
2707.305 2501437 2504778 2508570 2512363 2515699 2518274 2519952 2520822 
2711.162 2521124 2521196 2521258 2521394 2521512 2521446 2521094 2520403 
2715.020 2519518 2518624 2517913 2517523 2517491 2517773 2518320 2519237 
2718.877 2520677 2522744 2525511 2528859 2532466 2535919 2538800 2540844 
2722.735 2542013 2542445 2542397 2542026 2541416 2540583 2539436 2538123 
2726.592 2536828 2536076 2536386 2538201 2541726 2546784 2552769 2558839 
2730.449 2564042 2567648 2569174 2568619 2566399 2563299 2560310 2558401 
2734.307 2558315 2560461 2564653 2570347 2576627 2582623 2587545 2590986 
2738.164 2593046 2594189 2595054 2596355 2598547 2601835 2606247 2611607 
2742.022 2617732 2624443 2631528 2638775 2645904 2652431 2657974 2662105 
2745.879 2664731 2665971 2666309 2666433 2667105 2669036 2672642 2678011 
2749.737 2684993 2693069 2701558 2709798 2717063 2722968 2727279 2730016 
2753.594 2731502 2732148 2732477 2732908 2733695 2735023 2736810 2738896 
2757.451 2741067 2743089 2744700 2745769 2746324 2746457 2746582 2747174 
2761.309 2748842 2752047 2756891 2763274 2770642 2778265 2785499 2791816 
2765.166 2797048 2801391 2805050 2808298 2811208 2813650 2815502 2816790 
2769.024 2817854 2819425 2822433 2827718 2835597 2845812 2857310 2868558 
2772.881 2877940 2884237 2886819 2886050 2882888 2878831 2875432 2873859 
2776.739 2874829 2878363 2883962 2890788 2897862 2904430 2910141 2914987 
2780.596 2919437 2924182 2929778 2936604 2944585 2953145 2961529 2968915 
2784.453 2974827 2979191 2982488 2985332 2988451 2992214 2996537 3000994 
2788.311 3004998 3008038 3009988 3011124 3011996 3013198 3015160 3017995 
2792.168 3021466 3025070 3028429 3031221 3033537 3035655 3038012 3040967 
2796.026 3044826 3049646 3055331 3061628 3068049 3074236 3079749 3084256 
2799.883 3087623 3090030 3091942 3094064 3097215 3102111 3109179 3118365 
2803.740 3129281 3141192 3153251 3164667 3174876 3183495 3190466 3195854 
2807.598 3200194 3204173 3208898 3215554 3225205 3238492 3255219 3274259 
2811.455 3293775 3311599 3325858 3335833 3341962 3346070 3350735 3358614 
2815.313 3371529 3390079 3413321 3439348 3465745 3490312 3511701 3529679 
2819.170 3544772 3558188 3571206 3584864 3599770 3616175 3634022 3653082 
2823.028 3673095 3693679 3714396 3734603 3753710 3771185 3786746 3800499 
2826.885 3813031 3825325 3838621 3854020 3872474 3894467 3919782 3947753 
2830.742 3977174 4006563 4034426 4059619 4081478 4100125 4116364 4131609 
2834.600 4147484 4165600 4187097 4212523 4241775 4274304 4309335 4346120 
2838.457 4384215 4423503 4464143 4506547 4551058 4597965 4647407 4699516 
2842.315 4754295 4811868 4872437 4936281 5003712 5075020 5150304 5229525 
2846.172 5312404 5398390 5486801 5576704 5667236 5757586 5847199 5935837 
2850.030 6023733 6111531 6200155 6290748 6384363 6481701 6582986 6687787 
2853.887 6794947 6902966 7010050 7114636 7215672 7312878 7406876 7499153 
2857.744 7591690 7686701 7786161 7891457 8003199 8121148 8244309 8371128 
2861.602 8499895 8628853 8756582 8882069 9004832 9124766 9242058 9356857 
2865.459 9469178 9578791 9685086 9787322 9884726 9976895 10063779 10145936 
2869.317 10224075 10298971 10371145 10440373 10505820 10565895 10618740 
2872.692 10662317 10694936 10715361 10722981 10717691 10699884 10670273 
2876.067 10629795 10579693 10521265 10455955 10385320 10310810 10233868 
2879.442 10155892 10078222 10002289 9929591 9861843 9800705 9747973 9705213 
2883.300 9673746 9654568 9648253 9654904 9674311 9705923 9748831 9801930 
2887.157 9863854 9933222 10008628 10088884 10173066 10260706 10351783 
2890.532 10446616 10545728 10649461 10757842 10869936 10984022 11097538 
2893.908 11207234 11309768 11402124 11481994 11548255 11600743 11640337 
2897.283 11668477 11686914 11697488 11701839 11701391 11697298 11690375 
2900.658 11681118 11669732 11656063 11640041 11621640 11601390 11580497 
2904.033 11560661 11543989 11532574 11528117 11531676 11543718 11564261 
2907.409 11593229 11630641 11676607 11731353 11794820 11866533 11945461 
2910.784 12030286 12119712 12212820 12309375 12409756 12514639 12624650 
2914.159 12739840 12859584 12982589 13107295 13232082 13355774 13477667 
2917.534 13597482 13715325 13831371 13945872 14059182 14171769 14284281 
2920.910 14397429 14511715 14627336 14743929 14860500 14975949 15089244 
2924.285 15199953 15308407 15415780 15523791 15634136 15748224 15866528 
2927.660 15988785 16113892 16240402 16366819 16491951 16614974 16735627 
2931.035 16853918 16970070 17084316 17196892 17307978 17417994 17527524 
2934.411 17637492 17749060 17863568 17982294 18106222 18235818 18370950 
2937.786 18511116 18655380 18802782 18952682 19104726 19259048 19416072 
2941.161 19576384 19740482 19908490 20080050 20254300 20429828 20604880 
2944.536 20777544 20945990 21108792 21265090 21414742 21558250 21696372 
2947.912 21829992 21959514 22084710 22204706 22318048 22423222 22519040 
2951.287 22605172 22682000 22750888 22813616 22871884 22926964 22979342 
2954.662 23028734 23074126 23114058 23146900 23171044 23184996 23187346 
2958.037 23176836 23152348 23112870 23057692 22986464 22899166 22796052 
2961.413 22677296 22542832 22391950 22223378 22035202 21825286 21591886 
2964.788 21333984 21052010 20747762 20424376 20085624 19735520 19377516 
2968.163 19014248 18647174 18277058 17904304 17529546 17153932 16779358 
2971.538 16408417 16043891 15688543 15344596 15013391 14695339 14390036 
2974.914 14096183 13812092 13535887 13266006 13001448 12742145 12488870 
2978.289 12243236 12007084 11782017 11568750 11366797 11174400 10988900 
2981.664 10807279 10627040 10446602 10265739 10085481 9907574 9734079 
2985.039 9566802 9406898 9254657 9109999 8972277 8840912 8715313 8595173 
2988.897 8480117 8369923 8264098 8161870 8062170 7963580 7864559 7763523 
2992.754 7659304 7551216 7439247 7324086 7206916 7089195 6972038 6856426 
2996.612 6742710 6630961 6521152 6413509 6308249 6205990 6107165 6011891 
3000.469 5919746 5829938 5741378 5653121 5564803 5476652 5389623 5304966 
3004.326 5223934 5147462 5075918 5009059 4946267 4886640 4829359 4773573 
3008.184 4718754 4664633 4611034 4558184 4506360 4455976 4407297 4360334 
3012.041 4314982 4270806 4227530 4185109 4143976 4104978 4069090 4036982 
3015.899 4008736 3983556 3959970 3936350 3911491 3885135 3858167 3832444 
3019.756 3809993 3792564 3780777 3773911 3770073 3766831 3761743 3753129 
3023.614 3740286 3723709 3704593 3684638 3665568 3648792 3635208 3625169 
3027.471 3618312 3613650 3609801 3605218 3598458 3588786 3576111 3561296 
3031.328 3545879 3531564 3519835 3511396 3506112 3502954 3500445 3497098 
3035.186 3491881 3484608 3475865 3466863 3458984 3453572 3451279 3452126 
3039.043 3455444 3459889 3464171 3467099 3468176 3467537 3466141 3465221 
3042.901 3466174 3469973 3477056 3487362 3500292 3515311 3532076 3550445 
3046.758 3570668 3592850 3616870 3641938 3666823 3690036 3710059 3725821 
3050.615 3736878 3743458 3746276 3746295 3744526 3741850 3738913 3736194 
3054.473 3733838 3731773 3729644 3726911 3722927 3717254 3709716 3700695 
3058.330 3690964 3681397 3672735 3665237 3658613 3652143 3645035 3636831 
3062.188 3627644 3618205 3609713 3603346 3599938 3599795 3602595 3607607 
3066.045 3613790 3620278 3626297 3631296 3634791 3636543 3636268 3633902 
3069.903 3629488 3623201 3615260 3605759 3594845 3582610 3569358 3555706 
3073.760 3542605 3531143 3522378 3516727 3514025 3513278 3513149 3512203 
3077.617 3509508 3504749 3498336 3491040 3483649 3476716 3470231 3464112 
3081.475 3457949 3451574 3444894 3438023 3431067 3423962 3416719 3409264 
3085.332 3401901 3394977 3389068 3384437 3380769 3377290 3372655 3365563 
3089.190 3355352 3342358 3327997 3314388 3303799 3297868 3297364 3301869 
3093.047 3310418 3321797 3334872 3348920 3363372 3377461 3390179 3400334 
3096.905 3406693 3408623 3406333 3400810 3393473 3385767 3378426 3371463 
3100.762 3364329 3356351 3347486 3338291 3330212 3324765 3323068 3325355 
3104.619 3330627 3337165 3342989 3346567 3346970 3344250 3339049 3331957 
3108.477 3323554 3314083 3303543 3292019 3279816 3267368 3255328 3244099 
3112.334 3233860 3224538 3215774 3207281 3198829 3190343 3181918 3173586 
3116.192 3165474 3157803 3150966 3145818 3143387 3144697 3150356 3160216 
3120.049 3173180 3187505 3201114 3212157 3219527 3223000 3223075 3220764 
3123.906 3217117 3213014 3209120 3205926 3203844 3203097 3203803 3205496 
3127.764 3207179 3207545 3205195 3199204 3189813 3178287 3166800 3157763 
3131.621 3152919 3152724 3156142 3161026 3164796 3165358 3161837 3154796 
3135.479 3145916 3137436 3131220 3128266 3128502 3130930 3134124 3136745 
3139.336 3137822 3137026 3134506 3130728 3126097 3121199 3116384 3112143 
3143.194 3108870 3107078 3107096 3109107 3112964 3118249 3124219 3130085 
3147.051 3135024 3138353 3139581 3138653 3135803 3131788 3127548 3124204 
3150.908 3122577 3122949 3124762 3126629 3126723 3123299 3115428 3103364 
3154.766 3088946 3074867 3064088 3058900 3060062 3066701 3076542 3086696 
3158.623 3094575 3098633 3098688 3095649 3090980 3085936 3081264 3077095 
3162.481 3073064 3068967 3064880 3061220 3058578 3057393 3057591 3058657 
3166.338 3060013 3061294 3062716 3065178 3069852 3077759 3089030 3102872 
3170.196 3117600 3131163 3141819 3148736 3152118 3153114 3153216 3153803 
3174.053 3155573 3158668 3162559 3166571 3170034 3172475 3173452 3172609 
3177.910 3169492 3163648 3154838 3143301 3129864 3115875 3102993 3092727 
3181.768 3086178 3083692 3085097 3089619 3096430 3104645 3113543 3122455 
3185.625 3130734 3137599 3142222 3143939 3142254 3137381 3129989 3121471 
3189.483 3113372 3107282 3104281 3104902 3108940 3115531 3123541 3131771 
3193.340 3139213 3145229 3149320 3151116 3150238 3146208 3138612 3127311 
3197.198 3112767 3096259 3079781 3065695 3056340 3053355 3057380 3067868 
3201.055 3083250 3101274 3119457 3135456 3147260 3153520 3153582 3147682 
3204.912 3136980 3123680 3110409 3100090 3094940 3096176 3103380 3114965 
3208.770 3128490 3141608 3152652 3160960 3166723 3170605 3173182 3174496 
3212.627 3174341 3172597 3169489 3166141 3163914 3164192 3167316 3172390 
3216.485 3177259 3179240 3176150 3167302 3153728 3138177 3123998 3114234 
3220.342 3110565 3113333 3121526 3133553 3147866 3163255 3178945 3194226 
3224.199 3208093 3219286 3226721 3229599 3228112 3223235 3216518 3209394 
3228.057 3202761 3196618 3190321 3183179 3174930 3166175 3158151 3152425 
3231.914 3150223 3151876 3156881 3164068 3172179 3180346 3188176 3195834 
3235.772 3203505 3211135 3218207 3223921 3227310 3227780 3225208 3220000 
3239.629 3212913 3204913 3196855 3189510 3183481 3179230 3177044 3176868 
3243.487 3178417 3181088 3184211 3187224 3189920 3192659 3196039 3200750 
3247.344 3207092 3214943 3223469 3231492 3237743 3241253 3241448 3238171 
3251.201 3231785 3222862 3212415 3201614 3191869 3184712 3181412 3182800 
3255.059 3188786 3198459 3210134 3221724 3231397 3237817 3240316 3239018 
3258.916 3234449 3227547 3219196 3210224 3201460 3193534 3186910 3181711 
3262.774 3178057 3175773 3175037 3176170 3179903 3186922 3197418 3210752 
3266.631 3225397 3239096 3249686 3255993 3258280 3258383 3258998 3262604 
3270.489 3270369 3281576 3293718 3303546 3308227 3306428 3298801 3287453 
3274.346 3275104 3264084 3255548 3249443 3245124 3241947 3239903 3239512 
3278.203 3241556 3246212 3252746 3259473 3264355 3265647 3262801 3256417 
3282.061 3247996 3239394 3231992 3226424 3222691 3220594 3220109 3221706 
3285.918 3226043 3233466 3243732 3255573 3267329 3277373 3284721 3289575 
3289.776 3293068 3296630 3301375 3307606 3314587 3321067 3325751 3327847 
3293.633 3327261 3324431 3319957 3314141 3307095 3298750 3289421 3279797 
3297.490 3270988 3264156 3259825 3257585 3256171 3253873 3249449 3242708 
3301.348 3234836 3227890 3224143 3224849 3229696 3236840 3243348 3246486 
3305.205 3244619 3237744 3227393 3215809 3205039 3196038 3188569 3181592 
3309.063 3174042 3165772 3157915 3152702 3152723 3159822 3174102 3193751 
3312.920 3215260 3234498 3247996 3253904 3252636 3246436 3238638 3232266 
3316.778 3229162 3229350 3231349 3232897 3232120 3228349 3222620 3217206 
3320.635 3214995 3218331 3228207 3243883 3263123 3283102 3300984 3314816 
3324.492 3323761 3327896 3327803 3324147 3317265 3307449 3294867 3280162 
3328.350 3264439 3249165 3235726 3225061 3217156 3211100 3205223 3197652 
3332.207 3187020 3172785 3155546 3136938 3119184 3104802 3095927 3093890 
3336.065 3099216 3111342 3128849 3149506 3170792 3190019 3204978 3213958 
3339.922 3216198 3211899 3201918 3187758 3171061 3153467 3136402 3120941 
3343.780 3107877 3097775 3091090 3087992 3088425 3091917 3097573 3104216 
3347.637 3110442 3115072 3117425 3117522 3116123 3114655 3114661 3117412 
3351.494 3123499 3132560 3143361 3154030 3162511 3167099 3166884 3161796 
3355.352 3152901 3141845 3130662 3121260 3115072 3112724 3114012 3117904 
3359.209 3123013 3127840 3131337 3133152 3133703 3133880 3134580 3136372 
3363.067 3138894 3141200 3141878 3139743 3134532 3127097 3119491 3114207 
3366.924 3113388 3118051 3127593 3140059 3152471 3162082 3166938 3166684 
3370.781 3162355 3156074 3150339 3147285 3148088 3152855 3160740 3170137 
3374.639 3179239 3186538 3191017 3192547 3191894 3190452 3189924 3191649 
3378.496 3196063 3202617 3209666 3215091 3217107 3215024 3209585 3202932 
3382.354 3197730 3196434 3200200 3208596 3219632 3230671 3239077 3243219 
3386.211 3242787 3238717 3232685 3226514 3221752 3219342 3219789 3223117 
3390.069 3229051 3236963 3245865 3254482 3261437 3265635 3266685 3265115 
3393.926 3262187 3259742 3259434 3262497 3269333 3279887 3293621 3310019 
3397.783 3328588 3348742 3369596 3390009 3408586 3424346 3437020 3447669 
3401.641 3458333 3471713 3489784 3513300 3541168 3570725 3598805 3622805 
3405.498 3641635 3656273 3669112 3683146 3700706 3722636 3748167 3775204 
3409.356 3801255 3824292 3843328 3858439 3870504 3880705 3889922 3898540 
3413.213 3906382 3912740 3916800 3917643 3914735 3908212 3898898 3888316 
3417.071 3878672 3872258 3870793 3874990 3884199 3896562 3909513 3920558 
3420.928 3927977 3931104 3930179 3925866 3918688 3908829 3896174 3880616 
3424.785 3863018 3844998 3829350 3818964 3816228 3822393 3836855 3857791 
3428.643 3882351 3907738 3931584 3952301 3968929 3980894 3987946 3990048 
3432.500 3987688 3982068 3975010 3968686 3965072 3965348 3969516 3976539 
3436.358 3984498 3991431 3995769 3996704 3994387 3989529 3983405 3977351 
3440.215 3972758 3970786 3972233 3977262 3985246 3994742 4003913 4010849 
3444.073 4014376 4014317 4011643 4007842 4004322 4001751 3999649 3996688 
3447.930 3991428 3983174 3972360 3960700 3950375 3943110 3939553 3938789 
3451.787 3938892 3937775 3934250 3928281 3921265 3914999 3910893 3909254 
3455.645 3908895 3908006 3904508 3897188 3885869 3871539 3855701 3839695 
3459.502 3824604 3810839 3798635 3788286 3780087 3774404 3771071 3769290 
3463.360 3767509 3763974 3757355 3747497 3735589 3724009 3715416 3712001 
3467.217 3714471 3722006 3732583 3743586 3752733 3758640 3760942 3759979 
3471.074 3756470 3751002 3744140 3736286 3727912 3719830 3712878 3707884 
3474.932 3705390 3705409 3707645 3711453 3716278 3721776 3727772 3734030 
3478.789 3740277 3745948 3750462 3753357 3754646 3754811 3754669 3755106 
3482.647 3756466 3758477 3760180 3760452 3758345 3753905 3748127 3743022 
3486.504 3740994 3744199 3753849 3769674 3790138 3812756 3834518 3852932 
3490.362 3866311 3874284 3877573 3877645 3876032 3873920 3871617 3868518 
3494.219 3863542 3855725 3844831 3831808 3818973 3809414 3806304 3811938 
3498.076 3826868 3849780 3877732 3906637 3932532 3952248 3964210 3968304 
3501.934 3965945 3959190 3950361 3941315 3933268 3926685 3921566 3917600 
3505.791 3914599 3912611 3912076 3913651 3918077 3925723 3936629 3950128 
3509.649 3965145 3980372 3994662 4007081 4017079 4024369 4028781 4030123 
3513.506 4028333 4023675 4016994 4009833 4004130 4001857 4004044 4010550 
3517.364 4019475 4027959 4032736 4031589 4024037 4011766 3998188 3987420 
3521.221 3983045 3986932 3998857 4016645 4036980 4056401 4072160 4082850 
3525.078 4088351 4089750 4088774 4087437 4087768 4091543 4100014 4113663 
3528.936 4131857 4153001 4174442 4193259 4206794 4213344 4212596 4205690 
3532.793 4194775 4182331 4170594 4160924 4153503 4147932 4143191 4138363 
3536.651 4133113 4127694 4123031 4120390 4121000 4125499 4133627 4143925 
3540.508 4153962 4160723 4161314 4153911 4138090 4115419 4088984 4062702 
3544.365 4040396 4024851 4017428 4017673 4024202 4035135 4048641 4063298 
3548.223 4078119 4092037 4103897 4112051 4114699 4110293 4097971 4077949 
3552.080 4051498 4020779 3988392 3956944 3928791 3905879 3889823 3881726 
3555.938 3881926 3889847 3903560 3920022 3935305 3945634 3948103 3941767 
3559.795 3927626 3908801 3889113 3872374 3860993 3855587 3854777 3856086 
3563.653 3856547 3853825 3846621 3834718 3818829 3800007 3779270 3757294 
3567.510 3734794 3712147 3690078 3669266 3650302 3633540 3618762 3605433 
3571.367 3592817 3580440 3568242 3556878 3547002 3539133 3533154 3528105 
3575.225 3522402 3514393 3503233 3489065 3473245 3457800 3444617 3434741 
3579.082 3427736 3422002 3415262 3405572 3392194 3375879 3358700 3343326 
3582.940 3332060 3326225 3325593 3328770 3333696 3338295 3341026 3341172 
3586.797 3338646 3333885 3327303 3319212 3309723 3298799 3286378 3272437 
3590.655 3256865 3239724 3220988 3200986 3180156 3159346 3139919 3123162 
3594.512 3110472 3102615 3099871 3101527 3106282 3112388 3117936 3121333 
3598.369 3121764 3119007 3113914 3107835 3102532 3099553 3099931 3103669 
3602.227 3109928 3117261 3123937 3128595 3130560 3129760 3126986 3122944 
3606.084 3118450 3113675 3108532 3102632 3095439 3086719 3076254 3064031 
3609.942 3050110 3034687 3018261 3001771 2986583 2974345 2966508 2963573 
3613.799 2964908 2968513 2971473 2970953 2964757 2952126 2933961 2912315 
3617.656 2889798 2869037 2851972 2840057 2834122 2834793 2842462 2857048 
3621.514 2877750 2902738 2929337 2954211 2974239 2987263 2992348 2990199 
3625.371 2982555 2971664 2959914 2949129 2940864 2936075 2935339 2938754 
3629.229 2945625 2954520 2963332 2969634 2971401 2967541 2958064 2944220 
3633.086 2927835 2910981 2895143 2881276 2869589 2860023 2852122 2845471 
3636.944 2839260 2832361 2823447 2810998 2794227 2773391 2749988 2726680 
3640.801 2706449 2691725 2683724 2682128 2685208 2690905 2697093 2702498 
3644.658 2706577 2709294 2710562 2710306 2708084 2703869 2698092 2691798 
3648.516 2686400 2683053 2682031 2682410 2682149 2678985 2671144 2658160 
3652.373 2640951 2621723 2602996 2587232 2575846 2569442 2567726 2570034 
3656.231 2575260 2582237 2589511 2595371 2597992 2595969 2588610 2576221 
3660.088 2560575 2543807 2528329 2515746 2506561 2500025 2494474 2488120 
3663.946 2479594 2468465 2455188 2441206 2428318 2418450 2413008 2412807 
3667.803 2417566 2425941 2435665 2443923 2448096 2446529 2439292 2428040 
3671.660 2415773 2405863 2400806 2401529 2406984 2414678 2421607 2425040 
3675.518 2423615 2417256 2407000 2394244 2380199 2365558 2350804 2336616 
3679.375 2324256 2315567 2312320 2315926 2326229 2341671 2359509 2376548 
3683.233 2390075 2398354 2400886 2398003 2390125 2377448 2359638 2336397 
3687.090 2308096 2276113 2243371 2213627 2190744 2177424 2174598 2180943 
3690.948 2193340 2207948 2220811 2229065 2231329 2227885 2220296 2210881 
3694.805 2201998 2195720 2192928 2193500 2196170 2198878 2199326 2195712 
3698.662 2187141 2174208 2158837 2143949 2132834 2128527 2132955 2146919 
3702.520 2169652 2199445 2233545 2268880 2302203 2330510 2351291 2362973 
3706.377 2364987 2358179 2344364 2326309 2306981 2289070 2274585 2264609 
3710.235 2259331 2258303 2260791 2265849 2272405 2279412 2285722 2290287 
3714.092 2292344 2291643 2288707 2284396 2279998 2276622 2274707 2274215 
3717.949 2274460 2274667 2274450 2273970 2274065 2275784 2280068 2287241 
3721.807 2297005 2308511 2320872 2333412 2345830 2358128 2369954 2380493 
3725.664 2388230 2391207 2387707 2376964 2359663 2337737 2314090 2291657 
3729.522 2272629 2258210 2248326 2242399 2239856 2240284 2243557 2249603 
3733.379 2257745 2266567 2274087 2278183 2277586 2272432 2264365 2256133 
3737.237 2250711 2250148 2254947 2264017 2275164 2285861 2294123 2299171 
3741.094 2301327 2301699 2301820 2302922 2305960 2311466 2319590 2330220 
3744.951 2342906 2356717 2370292 2381908 2389798 2392587 2389821 2382038 
3748.809 2370862 2358576 2347624 2340085 2337209 2339426 2346108 2356057 
3752.666 2367335 2377733 2385042 2387229 2383130 2372719 2357179 2338747 
3756.524 2320261 2304298 2292586 2285519 2282340 2281484 2281574 2281791 
3760.381 2282172 2283488 2286738 2292618 2301078 2311412 2322496 2333178 
3764.239 2342485 2349883 2355006 2357611 2357597 2354910 2350147 2344572 
3768.096 2340224 2339434 2344142 2355173 2371556 2390606 2408534 2421447 
3771.953 2426513 2422586 2410527 2392732 2372257 2351716 2332860 2316310 
3775.811 2301901 2289380 2278950 2271767 2269380 2273553 2285179 2303654 
3779.668 2326694 2350608 2371302 2385154 2390352 2387173 2377992 2366482 
3783.526 2356419 2350653 2350177 2354013 2359758 2364551 2366137 2363561 
3787.383 2357447 2349472 2341661 2335771 2332554 2331857 2332893 2334896 
3791.240 2337207 2339733 2342567 2345707 2348810 2351212 2352110 2351045 
3795.098 2348206 2344422 2341187 2339889 2341437 2345907 2352561 2360111 
3798.955 2367178 2372612 2375531 2375552 2372289 2365678 2355794 2343200 
3802.813 2329287 2315947 2305761 2301221 2304057 2314781 2332184 2353852 
3806.670 2376284 2396011 2410279 2417485 2417407 2411054 2399961 2386164 
3810.528 2371379 2357295 2345041 2335398 2328506 2324176 2321843 2320932 
3814.385 2320957 2321968 2324248 2328606 2335748 2346098 2359479 2375110 
3818.242 2391683 2407696 2421533 2431971 2438006 2439085 2435063 2426209 
3822.100 2413217 2397253 2379887 2362814 2347807 2336267 2329171 2326818 
3825.957 2329103 2335491 2345339 2357879 2372185 2386920 2400476 2410806 
3829.815 2415860 2414091 2405085 2389831 2370828 2351641 2336123 2327363 
3833.672 2327243 2335549 2350428 2368702 2386634 2400730 2408382 2408427 
3837.530 2401081 2388031 2371870 2355771 2342701 2335164 2334515 2340861 
3841.387 2353030 2368959 2386017 2401583 2413731 2421463 2424726 2424216 
3845.244 2421056 2416176 2410350 2403890 2397015 2389996 2383338 2377842 
3849.102 2374311 2373483 2375553 2380276 2386851 2394230 2401314 2407208 
3852.959 2411162 2412681 2411325 2406781 2398972 2388245 2375521 2362432 
3856.817 2350934 2342907 2339908 2342210 2348907 2358226 2367612 2374938 
3860.674 2378621 2378269 2374582 2368896 2362767 2357532 2354075 2352681 
3864.531 2353403 2355943 2359939 2365040 2370661 2376193 2380908 2384286 
3868.389 2385935 2386037 2384917 2383017 2380686 2377796 2373943 2368566 
3872.246 2361523 2353320 2345402 2339994 2339387 2345302 2358053 2376343 
3876.104 2397167 2416657 2430888 2437042 2434152 2423517 2408212 2392462 
3879.961 2380360 2374814 2376622 2384547 2395605 2406250 2413399 2415474 
3883.819 2412798 2407223 2401438 2397675 2397111 2399185 2402082 2403542 
3887.676 2401959 2397043 2390206 2383915 2380852 2382886 2390332 2401991 
3891.533 2415472 2428290 2438599 2445732 2450144 2452804 2454731 2456475 
3895.391 2457905 2458760 2458920 2458713 2458965 2460698 2464580 2470416 
3899.248 2477000 2482682 2485638 2484791 2480206 2473101 2465575 2459963 
3903.106 2458089 2460965 2468526 2479713 2492873 2505997 2517313 2525177 
3906.963 2528826 2527863 2522682 2514214 2503563 2491910 2480032 2468283 
3910.821 2456808 2445581 2434891 2425527 2418672 2415446 2416651 2422171 
3914.678 2430995 2441374 2451427 2459811 2465894 2470095 2473072 2475655 
3918.535 2478028 2479888 2480483 2479233 2476269 2472527 2469615 2469088 
3922.393 2471883 2477541 2484520 2490312 2492532 2489618 2481571 2469854 
3926.250 2457197 2446676 2440760 2440848 2446878 2457425 2470128 2482478 
3930.108 2492124 2497663 2498497 2495103 2488601 2480525 2472513 2465914 
3933.965 2461708 2460634 2463224 2469968 2481331 2497607 2518575 2543138 
3937.823 2569035 2593114 2611822 2622015 2622031 2612225 2595112 2574922 
3941.680 2556492 2543959 2539630 2543322 2552611 2563494 2571515 2573263 
3945.537 2566956 2552963 2533489 2511915 2491798 2476243 2467282 2465646 
3949.395 2470792 2481370 2495111 2509535 2522050 2530369 2532871 2528993 
3953.252 2519306 2505750 2491087 2478456 2470384 2468225 2471810 2479386 
3957.110 2488334 2495994 2500303 2500661 2497718 2492938 2488063 2484399 
3960.967 2482345 2481662 2481671 2481920 2482328 2483483 2485970 2490057 
3964.824 2495278 2500353 2503563 2503375 2499025 2491021 2481161 2471899 
3968.682 2465904 2465029 2470039 2480373 2494474 2510182 2525161 2537420 
3972.539 2545542 2548749 2546975 2541043 2532345 2522830 2514729 2510143 
3976.397 2510447 2516153 2526486 2539698 2553129 2564034 2569831 2569085 
3980.254 2561245 2547394 2529699 2511252 2495467 2485568 2483674 2490548 
3984.112 2505233 2525374 2547625 2568505 2585088 2595778 2600410 2600148 
3987.969 2597149 2593734 2591874 2592725 2596339 2601913 2607919 2612838 
3991.826 2615155 2614222 2610132 2603746 2596498 2589760 2584618 2581262 
3995.684 2579061 2576752 2572937 2566581 2557535 2546754 2535970 2527308 
3999.541 2522598 2522970 2528599 
##END=
