##TITLE=3D-Fillies_PLA-Flex_Black_Filament_r7_ATR-Corrected
##JCAMP-DX=5.01  $$ Nicolet v. 1
##DATATYPE=INFRARED SPECTRUM
##ORIGIN=Curtin University
##OWNER=Nicolet
##LONGDATE=2024/07/18
##TIME=11:40:15
##SPECTROMETER/DATA SYSTEM=Nicolet iS50
##DATA PROCESSING=
Ratio against background
%Transmittance->Absorbance
ATR Correction
Truncated
ElementMultiply or ElementDivide
##COMMENTS=
Number of sample scans: 32
Collection length: 47.29 sec
Sample gain: 1.0
Background collected on: Thu Jul 18 11:38:11 2024 (GMT+08:00);
Number of background scans: 32
Background gain: 1.0
Sample spacing:  1.000
Number of scan points: 16672
Resolution points: 8192
Number of FFT points: 65536
Apodization: N-B strong;
Phase correction: Mertz;
Laser frequency: 15798.3 cm-1
Number of rejected sample scans: 0
Number of rejected background scans: 0
Bench serial number: AUP1200105;
##RESOLUTION=4.000
##XUNITS=1/CM
##YUNITS=ABSORBANCE
##FIRSTX=400.163452
##LASTX=4000.187744
##FIRSTY=0.030726
##MAXX=4000.187744
##MINX=400.163452
##MAXY=1.356030
##MINY=-0.013538
##XFACTOR=1.000000
##YFACTOR=1.000000E-008
##NPOINTS=7468
##DELTAX=0.482125
##ZPD=8192
##XYDATA=(X++(Y..Y))
400.163 3072567 3058111 3052244 3057070 3070329 3085356 3092724 3083802 
404.020 3054742 3008752 2955353 2907284 2875833 2866913 2879352 2905687 
407.877 2935231 2957906 2967053 2960793 2941309 2913243 2881937 2851986 
411.734 2826704 2807899 2795735 2788730 2783918 2777319 2765184 2745412 
415.591 2718837 2689642 2664351 2649677 2649818 2664277 2687453 2710121 
419.448 2722595 2718103 2695237 2658365 2616159 2578626 2554033 2546432 
423.305 2554643 2572845 2592468 2604686 2602958 2584665 2551854 2510887 
427.162 2471004 2442295 2433269 2448673 2488279 2546693 2614869 2682371 
431.019 2740084 2782329 2807723 2818635 2819853 2816364 2812073 2809046 
434.876 2807845 2808279 2810231 2814092 2820684 2830747 2844455 2861086 
438.733 2879075 2896366 2910770 2920410 2923913 2920572 2910614 2895358 
442.590 2877228 2859544 2845868 2839067 2840540 2849742 2864489 2881847 
446.447 2899401 2916192 2933063 2952030 2975008 3002505 3032865 3062407 
450.304 3086579 3101462 3105125 3098243 3083803 3066029 3049198 3036519 
454.161 3029768 3029340 3034681 3044683 3057992 3073095 3088483 3102880 
458.017 3115564 3126658 3136942 3147412 3158498 3169366 3177850 3180981 
461.874 3176240 3162796 3142372 3118791 3097327 3082459 3076355 3078155 
465.731 3084416 3090566 3092752 3089336 3081463 3072353 3065979 3065429 
469.588 3071951 3084697 3101356 3119101 3135623 3149612 3160803 3169632 
473.445 3176802 3182930 3188428 3193481 3198149 3202361 3206022 3209072 
477.302 3211715 3214636 3219053 3226537 3238498 3255528 3276869 3300352 
481.159 3322909 3341545 3354387 3361475 3364884 3368092 3374927 3388472 
485.016 3410438 3441040 3479485 3524631 3575597 3631896 3693332 3759637 
488.873 3830240 3904308 3980998 4059708 4140312 4222978 4307865 4394710 
492.730 4482681 4570496 4656800 4740416 4820719 4897152 4968804 5033984 
496.587 5090073 5133929 5162664 5174495 5169364 5148747 5115048 5070523 
500.444 5016415 4952596 4877965 4791353 4692590 4583297 4466987 4348584 
504.301 4233398 4126111 4029967 3946406 3875120 3814389 3761606 3713730 
508.158 3667770 3621187 3572232 3520129 3465160 3408522 3352107 3298084 
512.015 3248585 3205444 3169926 3142587 3123200 3110632 3102929 3097479 
515.871 3091500 3082577 3069275 3051493 3030495 3008432 2987646 2969901 
519.728 2955844 2944942 2935819 2926851 2916799 2905111 2891983 2878051 
523.585 2864009 2850340 2837241 2824712 2812883 2802039 2792681 2785398 
527.442 2780750 2779088 2780559 2785112 2792536 2802356 2813806 2825717 
531.299 2836647 2845128 2850116 2851308 2849328 2845460 2841080 2836993 
535.156 2832869 2827210 2817785 2802512 2780436 2752341 2720885 2689980 
539.013 2663762 2645446 2636484 2636223 2642263 2651191 2659625 2664983 
542.870 2666060 2662961 2656806 2649078 2641040 2633301 2625680 2617363 
546.727 2607332 2594809 2579614 2562266 2543865 2525661 2508707 2493570 
550.584 2480363 2468978 2459434 2452100 2447689 2446908 2449988 2456263 
554.441 2464088 2471126 2475057 2474312 2468627 2459023 2447535 2436417 
558.298 2427540 2421968 2419965 2421235 2425349 2431880 2440412 2450240 
562.155 2460198 2468644 2473883 2474774 2471360 2465096 2458652 2455167 
566.012 2457329 2466568 2482737 2504284 2528924 2554354 2578818 2601292 
569.869 2621309 2638658 2653179 2664761 2673622 2680482 2686767 2694261 
573.725 2704707 2719200 2737872 2759838 2783648 2807816 2831441 2854358 
577.582 2877092 2900383 2924713 2949993 2975602 3000637 3024365 3046472 
581.439 3067147 3086856 3106016 3124643 3142339 3158371 3171990 3182762 
585.296 3190720 3196359 3200433 3203704 3206800 3210086 3213767 3217915 
589.153 3222514 3227383 3232034 3235580 3236838 3234456 3227325 3214862 
593.010 3197275 3175576 3151416 3126688 3103268 3082632 3065789 3053138 
596.867 3044557 3039383 3036450 3034182 3030730 3024283 3013454 2997637 
600.724 2977302 2953914 2929737 2907253 2888634 2875194 2867249 2864062 
604.581 2864225 2865988 2867682 2867968 2865998 2861431 2854394 2845394 
608.438 2835293 2825108 2815886 2808437 2803202 2800120 2798740 2798409 
612.295 2798575 2798924 2799460 2800290 2801382 2802208 2801759 2798665 
616.152 2791621 2779902 2763765 2744537 2724493 2706268 2692316 2684305 
620.009 2682863 2687440 2696528 2707974 2719449 2728791 2734469 2735758 
623.866 2732959 2727224 2720345 2714290 2710844 2711270 2716336 2726462 
627.723 2742053 2763676 2791941 2827074 2868238 2912989 2957188 2995515 
631.579 3022606 3034436 3029534 3009441 2978321 2941705 2905037 2872310 
635.436 2845480 2824607 2808669 2796423 2787189 2780933 2778027 2778650 
639.293 2782349 2787930 2793755 2798256 2800505 2800443 2798846 2796934 
643.150 2795946 2796788 2799888 2805137 2812050 2819812 2827446 2833831 
647.007 2837963 2839185 2837454 2833435 2828422 2823852 2820860 2819755 
650.864 2819863 2819757 2817797 2812758 2804328 2793176 2780658 2768265 
654.721 2757066 2747402 2738969 2731080 2723204 2715177 2707383 2700545 
658.578 2695545 2693097 2693653 2697325 2704004 2713321 2724805 2737836 
662.435 2751838 2766364 2781243 2796606 2812776 2829948 2847897 2865764 
666.292 2882189 2895644 2905078 2910329 2912428 2913194 2914736 2918659 
670.149 2925615 2935265 2946688 2958965 2971864 2985931 3002315 3022204 
674.006 3046221 3074053 3104531 3135959 3166721 3195673 3222348 3246864 
677.863 3269696 3291443 3312754 3334253 3356562 3380060 3404742 3429865 
681.720 3453993 3475185 3491657 3502413 3507798 3509501 3510226 3512811 
685.577 3519516 3531490 3548801 3570810 3596805 3626387 3659588 3696608 
689.433 3737397 3781355 3827430 3874413 3921528 3968748 4016883 4067219 
693.290 4120975 4178824 4240705 4306006 4374013 4444356 4517354 4593877 
697.147 4675204 4762571 4856973 4958953 5068668 5185804 5309562 5438478 
701.004 5570427 5702618 5832040 5955867 6072012 6179295 6277445 6366682 
704.861 6447395 6519915 6584647 6642475 6695217 6745810 6798132 6856437 
708.718 6924662 7005892 7102196 7214802 7344565 7492260 7658808 7845143 
712.575 8052138 8280523 8531168 8805472 9105875 9436030 9800912 10206661 
716.432 10660686 11172089 11752540 12417136 13185078 14079259 15125260 
719.807 16349527 17777870 19434508 21342132 23522412 25995496 28776730 
723.182 31868122 35242464 38819908 42439660 45839036 48663332 50536704 
726.556 51192744 50597160 48964508 46653600 44027180 41360936 38818776 
729.931 36469604 34318024 32334640 30478984 28714224 27013444 25360436 
733.306 23747272 22171686 20635190 19142544 17701386 16321713 15014555 
736.681 13790429 12657768 11622171 10686377 9850882 9114596 8475412 7930139 
740.538 7474316 7101737 6804621 6573888 6400061 6274153 6188413 6136600 
744.395 6113846 6116262 6140516 6183561 6242551 6314743 6397293 6486948 
748.252 6579673 6670440 6753517 6822995 6873738 6902057 6906137 6885782 
752.109 6841937 6775982 6689444 6584050 6462133 6326995 6183037 6035289 
755.966 5888659 5747010 5612646 5486136 5366872 5253718 5145741 5042549 
759.823 4944234 4851110 4763358 4680925 4603639 4531476 4464723 4403941 
763.679 4349641 4301857 4259864 4222094 4186596 4151497 4115588 4078551 
767.536 4040918 4003644 3967701 3933693 3901901 3872352 3845126 3820516 
771.393 3799006 3781025 3766812 3756161 3748542 3743269 3739788 3737800 
775.250 3737266 3738163 3740345 3743327 3746474 3749121 3750956 3752074 
779.107 3753041 3754564 3757288 3761532 3767308 3774519 3783224 3793852 
782.964 3807191 3824149 3845443 3871241 3901157 3934306 3969843 4007231 
786.821 4046645 4088895 4135231 4186894 4244783 4309177 4379847 4456265 
790.678 4537927 4624478 4715702 4811121 4909559 5008546 5104182 5191174 
794.535 5263523 5315445 5342661 5343261 5318455 5272438 5211727 5143994 
798.392 5076721 5015981 4965820 4927978 4902325 4887509 4881681 4883099 
802.249 4890391 4902501 4918617 4937729 4958633 4979820 4999787 5017228 
806.106 5031333 5041925 5049576 5055405 5060975 5067926 5077699 5091209 
809.963 5108656 5129343 5151788 5173855 5193215 5207663 5215577 5216125 
813.820 5209377 5196093 5177503 5154920 5129478 5101958 5072806 5042207 
817.677 5010387 4977713 4944908 4912897 4882784 4855486 4831451 4810554 
821.533 4792009 4774596 4757110 4738679 4719203 4699317 4680290 4663461 
825.390 4649737 4639096 4630559 4622331 4612467 4599491 4582962 4563721 
829.247 4543640 4525114 4510369 4500829 4496887 4497910 4502610 4509455 
833.104 4517136 4524714 4531737 4538042 4543711 4548928 4554033 4559556 
836.961 4566224 4574855 4586202 4600741 4618586 4639417 4662691 4687786 
840.818 4714226 4741684 4769945 4798693 4827448 4855438 4881843 4905881 
844.675 4927181 4945757 4962024 4976511 4989717 5001811 5012696 5022171 
848.532 5030114 5036645 5042190 5047261 5052344 5057632 5063153 5068820 
852.389 5074785 5081536 5089988 5101180 5115944 5134504 5156380 5180391 
856.246 5205060 5228988 5251235 5271475 5289974 5307403 5324781 5343348 
860.103 5364639 5390396 5422576 5463033 5513360 5574735 5648040 5734204 
863.960 5834738 5952033 6089550 6251627 6443295 6670229 6939220 7258770 
867.817 7639589 8094141 8634608 9268939 9995665 10798396 11642119 12472996 
871.674 13223618 13823657 14214230 14361589 14265323 13957421 13492958 
875.048 12935893 12345426 11766548 11226411 10735589 10292713 9889893 
878.423 9517615 9167748 8834863 8516102 8210420 7917871 7639230 7375766 
882.280 7129195 6901399 6694086 6508416 6344870 6203261 6083088 5983677 
886.137 5904377 5844354 5802290 5776195 5763516 5761425 5767575 5780538 
889.994 5800120 5827080 5862570 5907317 5961119 6022643 6089755 6160091 
893.851 6231764 6303764 6376075 6449467 6525189 6604594 6689044 6779783 
897.708 6877990 6984682 7100519 7225515 7358863 7498757 7642656 7787579 
901.565 7930677 8069590 8202834 8329847 8450831 8566554 8678035 8786330 
905.422 8892406 8997175 9101619 9206961 9314937 9427825 9548603 9680709 
909.279 9827816 9993438 10180567 10391197 10626058 10884091 11162247 
912.654 11455029 11754423 12049999 12329512 12579897 12788869 12946448 
916.028 13046457 13087390 13072534 13009314 12908061 12780517 12638517 
919.403 12492948 12353145 12226637 12119166 12034920 11976783 11946781 
922.778 11946414 11977018 12039928 12136453 12267546 12433384 12633014 
926.153 12864091 13122964 13404967 13704939 14017534 14337528 14659809 
929.528 14979288 15290849 15589406 15870136 16128834 16362046 16567181 
932.902 16742261 16885718 16996198 17072644 17114498 17122162 17097154 
936.277 17042234 16960996 16857516 16735712 16599204 16451131 16294420 
939.652 16131955 15966710 15801662 15639584 15482663 15332405 15189566 
943.027 15054359 14926669 14806309 14693214 14587398 14488973 14398138 
946.402 14315107 14240199 14173758 14116089 14067300 14027096 13994728 
949.776 13969003 13948436 13931520 13916829 13903157 13889410 13874462 
953.151 13857068 13835976 13810001 13778415 13741024 13698259 13650946 
956.526 13600034 13546263 13489980 13431260 13370070 13306513 13241000 
959.901 13174231 13107012 13039985 12973572 12907827 12842628 12777761 
963.276 12713131 12648720 12584618 12520897 12457641 12394978 12333207 
966.651 12272858 12214655 12159305 12107239 12058269 12011421 11965012 
970.025 11916933 11865078 11807812 11744339 11674913 11600754 11523914 
973.400 11446910 11372346 11302548 11239245 11183348 11135048 11094013 
976.775 11059788 11032257 11011978 11000185 10998542 11008584 11031078 
980.150 11065520 11110001 11161412 11216100 11270450 11321595 11367618 
983.525 11407652 11441553 11469600 11492258 11510073 11523588 11533526 
986.899 11540684 11545989 11550362 11554621 11559499 11565680 11573742 
990.274 11584271 11597624 11613864 11632627 11653178 11674431 11695333 
993.649 11715004 11733003 11749240 11763971 11777524 11790171 11802010 
997.024 11813049 11823192 11832400 11840625 11847851 11854023 11859163 
1000.399 11863470 11867503 11872303 11879469 11890965 11909012 11935797 
1003.774 11973428 12023841 12089061 12171241 12272881 12396914 12546635 
1007.148 12725636 12937729 13186808 13476862 13811915 14196382 14635518 
1010.523 15136437 15709165 16367792 17130614 18018956 19053658 20249430 
1013.898 21607286 23106256 24696308 26295072 27791234 29056952 29968994 
1017.273 30434478 30412700 29924684 29046420 27889240 26576010 25220916 
1020.648 23916886 22731062 21705746 20862372 20206072 19730114 19419280 
1024.022 19252684 19206006 19253384 19368936 19527978 19707572 19886948 
1027.398 20047658 20173990 20253608 20278578 20246166 20159316 20026044 
1030.773 19858224 19669556 19473630 19282140 19104036 18945208 18808864 
1034.148 18696090 18606404 18538072 18488402 18453978 18430992 18415780 
1037.523 18405336 18397736 18392260 18389178 18389220 18393094 18400946 
1040.899 18412328 18426218 18441356 18456520 18470716 18483224 18493464 
1044.274 18500950 18505216 18505888 18502914 18496626 18487800 18477650 
1047.649 18467476 18458592 18452086 18448824 18449508 18454760 18465274 
1051.024 18481862 18505302 18536314 18575322 18622502 18677610 18740224 
1054.400 18809686 18885254 18966102 19051366 19140064 19231242 19323846 
1057.775 19416996 19509882 19601924 19692734 19782128 19870084 19956726 
1061.150 20042356 20127426 20212514 20298348 20385678 20475278 20567856 
1064.525 20664122 20764870 20871126 20984220 21105918 21238286 21383670 
1067.901 21544450 21722906 21920970 22140204 22381614 22645682 22932244 
1071.276 23240680 23569948 23918840 24286176 24671098 25073042 25491670 
1074.651 25926566 26376882 26841060 27316812 27801300 28291652 28785398 
1078.026 29280844 29777056 30273462 30769288 31262972 31751922 32232502 
1081.402 32700506 33151698 33582176 33988512 34367608 34716484 35032160 
1084.777 35312212 35555356 35762548 35937704 36087992 36223568 36356668 
1088.152 36500548 36668612 36873636 37127688 37442028 37827228 38292988 
1091.527 38847996 39499420 40252584 41110884 42075964 43148124 44326652 
1094.903 45609932 46995120 48477244 50048040 51694548 53398180 55133964 
1098.278 56870752 58571972 60197032 61703276 63048528 64193512 65104432 
1101.653 65754760 66126508 66210236 66004396 65513952 64748972 63723220 
1105.028 62453632 60960476 59268464 57408344 55418892 53347940 51252264 
1108.404 49195532 47244852 45465924 43918232 42650524 41697668 41078732 
1111.779 40796484 40838068 41176556 41773032 42579172 43539832 44595964 
1115.154 45687288 46755372 47746412 48614132 49322040 49845244 50171072 
1118.529 50298876 50238640 50008880 49633948 49141208 48558240 47910248 
1121.905 47218320 46498264 45760464 45010428 44249864 43478276 42694288 
1125.280 41896944 41086444 40264784 39435820 38605432 37781172 36971964 
1128.655 36187572 35437944 34732592 34079940 33486932 32958832 32499122 
1132.030 32109568 31790200 31539326 31353486 31227454 31154410 31126354 
1135.406 31134596 31170580 31226208 31294462 31369320 31445712 31519258 
1138.781 31586110 31642810 31686512 31715106 31727458 31723482 31704110 
1142.156 31671086 31626690 31573382 31513568 31449252 31381980 31312698 
1145.531 31241876 31169778 31096890 31024308 30954256 30890194 30836830 
1148.906 30799786 30785200 30799272 30847890 30936440 31069878 31252608 
1152.282 31488552 31780896 32131946 32542666 33012516 33539280 34119144 
1155.657 34746940 35416372 36120252 36850716 37599220 38356688 39113496 
1159.032 39859624 40584804 41278832 41931684 42534024 43077492 43555340 
1162.407 43962716 44297136 44558368 44748140 44869464 44925960 44921364 
1165.783 44859220 44743080 44576832 44364976 44112800 43826176 43511192 
1169.158 43173692 42818944 42451360 42074740 41692336 41307200 40922264 
1172.533 40540440 40164508 39797068 39440216 39095528 38763840 38445196 
1175.908 38138808 37843180 37556292 37275940 37000128 36727340 36456680 
1179.284 36187784 35920456 35654320 35388384 35120936 34849696 34572188 
1182.659 34286292 33990772 33685492 33371526 33050912 32726178 32399980 
1186.034 32074612 31751790 31432658 31117784 30807454 30501902 30201540 
1189.409 29907084 29619538 29340166 29070264 28811040 28563466 28328266 
1192.785 28105882 27896708 27701208 27520034 27354098 27204546 27072680 
1196.160 26959770 26867006 26795340 26745554 26718232 26713864 26732782 
1199.535 26775190 26841008 26929858 27040886 27172724 27323406 27490338 
1202.910 27670198 27858802 28050948 28240416 28419932 28581340 28716042 
1206.286 28815806 28873562 28884534 28847068 28763344 28639382 28484556 
1209.661 28310474 28129628 27953794 27792906 27654248 27542302 27458922 
1213.036 27403920 27375690 27371752 27389264 27425202 27476618 27540734 
1216.411 27615014 27697274 27785698 27878832 27975478 28074744 28176006 
1219.787 28279102 28384394 28492848 28606030 28725806 28854040 28992286 
1223.162 29141670 29302940 29476750 29664088 29866412 30085742 30324336 
1226.537 30584210 30866786 31172734 31502134 31855068 32232246 32635636 
1229.912 33068570 33535636 34041940 34592436 35191116 35840600 36541968 
1233.288 37295076 38098828 38951736 39852224 40798968 41790812 42826732 
1236.663 43905548 45025620 46184520 47378888 48604436 49856168 51128824 
1240.038 52417244 53716396 55021192 56325864 57623268 58904348 60158260 
1243.413 61372756 62535392 63634520 64660168 65604364 66461116 67226168 
1246.789 67897120 68473472 68957032 69351976 69664624 69902240 70072168 
1250.164 70180464 70231680 70228872 70174664 70072120 69925616 69741064 
1253.539 69525736 69287344 69033664 68771880 68508816 68250992 68005112 
1256.914 67778376 67578640 67414400 67294792 67229160 67226800 67296504 
1260.290 67445960 67680944 68004672 68416952 68913752 69486680 70122856 
1263.665 70804904 71511232 72216512 72892792 73510888 74042520 74462288 
1267.040 74749560 74889584 74873736 74698864 74366496 73881544 73252096 
1270.415 72488880 71605280 70616808 69540464 68393448 67192072 65950816 
1273.791 64681928 63395392 62099432 60800920 59505884 58219456 56946008 
1277.166 55688752 54449732 53229660 52028060 50843548 49674208 48517972 
1280.541 47373096 46238216 45112640 43996128 42888804 41790856 40702404 
1283.916 39623400 38553684 37492992 36441088 35397864 34363328 33337604 
1287.292 32321150 31314722 30319714 29338238 28373238 27428332 26507712 
1290.667 25615668 24756398 23933690 23150788 22410224 21713748 21062270 
1294.042 20455728 19893206 19372982 18892770 18450058 18042168 17666634 
1297.417 17320990 17002760 16709408 16438396 16187268 15954012 15737052 
1300.792 15535404 15348455 15175596 15015852 14867590 14728515 14595895 
1304.168 14467016 14339703 14212710 14085841 13959862 13836114 13716173 
1307.543 13601448 13492987 13391338 13296688 13208915 13127764 13052952 
1310.918 12984452 12922536 12868056 12822433 12787792 12766671 12761754 
1314.293 12775429 12809369 12864260 12939551 13033569 13143602 13266188 
1317.669 13397233 13532101 13665543 13791583 13903442 13993695 14054574 
1321.044 14078629 14059526 13992868 13876943 13713036 13505398 13260795 
1324.419 12987722 12695345 12392475 12086862 11784558 11489912 11205646 
1327.794 10933354 10673869 10427697 10195345 9977374 9774493 9587356 9416500 
1331.652 9262080 9123860 9001173 8893039 8798323 8715978 8645128 8585279 
1335.509 8536110 8497461 8469080 8450560 8441154 8439916 8445695 8457382 
1339.367 8474036 8495001 8520059 8549368 8583482 8623190 8669384 8722936 
1343.224 8784561 8854678 8933584 9021356 9117991 9223335 9337012 9458116 
1347.082 9584982 9714986 9844655 9969979 10087021 10192657 10285205 10364761 
1350.939 10433169 10493591 10549759 10605247 10662910 10724573 10791033 
1354.314 10862354 10938187 11018018 11101402 11187857 11276823 11367595 
1357.689 11459280 11550867 11641483 11730326 11816836 11900589 11981230 
1361.065 12058297 12131202 12199169 12261359 12316953 12365315 12405955 
1364.440 12438519 12462783 12478442 12485145 12482481 12469964 12447166 
1367.815 12413792 12369706 12315106 12250561 12177190 12096673 12011366 
1371.190 11924305 11838984 11759143 11688484 11630368 11587571 11562066 
1374.566 11554991 11566691 11596804 11644477 11708441 11787346 11879800 
1377.941 11984599 12100797 12227799 12365459 12514073 12674424 12847602 
1381.316 13034973 13237907 13457616 13694884 13949768 14221428 14507818 
1384.691 14805596 15109999 15415032 15713803 15999013 16263661 16501626 
1388.067 16708188 16880224 17016154 17115870 17180256 17210942 17209918 
1391.442 17179250 17120798 17036018 16925960 16791380 16632889 16451442 
1394.817 16248541 16026437 15788136 15537377 15278482 15016294 14756115 
1398.192 14503781 14265527 14047907 13857608 13701114 13584678 13514228 
1401.568 13495471 13534114 13635968 13806760 14051658 14374274 14775439 
1404.943 15251619 15793698 16386098 17006824 17628450 18220016 18749760 
1408.318 19188014 19510042 19698278 19743744 19646286 19413986 19061708 
1411.693 18609228 18079176 17495206 16880254 16255197 15637743 15041645 
1415.069 14476377 13947076 13455157 12999010 12575080 12178858 11805735 
1418.444 11451668 11113437 10788763 10476147 10174644 9883637 9602628 
1421.819 9331292 9069470 8817459 8576032 8346580 8130941 7931071 7748709 
1425.677 7584995 7440281 7314203 7205900 7114355 7038814 6978895 6934683 
1429.534 6906437 6894358 6898139 6916795 6948618 6991353 7042537 7099898 
1433.391 7161636 7226642 7294403 7364797 7437870 7513644 7592003 7672823 
1437.249 7756153 7842407 7932513 8027841 8130050 8240841 8361726 8493897 
1441.106 8638293 8795715 8967007 9153181 9355365 9574739 9812266 10068642 
1444.964 10344247 10639422 10954756 11291323 11650623 12034123 12442353 
1448.339 12873702 13323179 13781634 14235523 14667845 15059948 15394449 
1451.714 15658352 15845972 15960459 16013639 16023794 16012157 15999137 
1455.089 16000788 16026381 16077125 16146153 16219789 16279620 16305561 
1458.465 16278917 16185333 16017246 15775281 15468493 15113102 14729917 
1461.840 14340864 13965344 13617410 13304105 13025403 12775408 12544565 
1465.215 12322119 12098421 11866640 11623500 11369378 11107594 10843394 
1468.590 10582671 10330860 10092030 9868377 9660196 9466186 9284004 9110761 
1472.448 8943600 8779886 8617339 8454087 8288650 8119946 7947366 7770639 
1476.305 7589802 7404925 7215937 7022491 6824106 6620447 6411668 6198773 
1480.163 5983580 5768670 5556832 5350619 5151942 4961917 4780946 4608990 
1484.020 4445736 4290913 4144240 4005472 3874419 3750946 3635170 3527528 
1487.877 3428789 3339896 3261659 3194519 3138267 3092040 3054613 3024695 
1491.735 3001399 2984356 2973886 2970863 2976460 2991997 3018777 3057927 
1495.592 3110352 3176659 3257211 3352331 3462674 3589813 3736867 3908667 
1499.450 4111346 4351132 4632261 4954508 5310995 5686894 6059852 6401916 
1503.307 6683209 6876405 6961277 6928282 6780457 6532983 6210384 5842098 
1507.165 5457457 5081402 4731935 4419505 4148050 3916751 3722185 3559831 
1511.022 3425150 3313983 3222675 3147922 3086747 3036413 2994512 2959010 
1514.879 2928327 2901269 2876951 2854650 2833829 2813991 2794825 2776202 
1518.737 2758333 2741639 2726807 2714602 2705694 2700535 2699379 2702131 
1522.594 2708542 2718296 2730960 2746098 2763022 2780903 2798716 2815345 
1526.452 2829788 2841295 2849504 2854414 2856240 2855242 2851647 2845493 
1530.309 2836748 2825331 2811310 2794927 2776564 2756770 2736138 2715268 
1534.167 2694718 2675031 2656643 2639965 2625244 2612550 2601741 2592461 
1538.024 2584248 2576565 2569031 2561419 2553681 2545923 2538293 2530982 
1541.881 2524193 2518152 2513123 2509353 2507015 2506029 2506041 2506361 
1545.739 2506138 2504580 2501153 2495835 2489094 2481784 2474917 2469405 
1549.596 2465843 2464437 2465032 2467324 2470944 2475595 2481172 2487618 
1553.454 2494911 2502925 2511415 2520060 2528502 2536452 2543818 2550664 
1557.311 2557241 2563849 2570788 2578199 2586000 2593963 2601758 2609113 
1561.168 2615945 2622405 2628794 2635466 2642660 2650424 2658645 2667180 
1565.026 2676027 2685587 2696589 2710062 2727015 2748166 2773762 2803541 
1568.883 2836927 2873346 2912516 2954762 3000811 3051720 3108457 3171586 
1572.741 3241078 3316180 3395479 3476886 3557783 3635024 3705155 3764743 
1576.598 3810707 3840832 3853977 3850210 3830621 3796907 3751105 3695301 
1580.456 3631460 3561433 3487087 3410388 3333426 3258413 3187433 3122293 
1584.313 3064389 3014442 2972651 2938608 2911518 2890425 2874365 2862488 
1588.170 2854236 2849266 2847447 2848673 2852738 2859195 2867337 2876214 
1592.028 2884939 2892756 2899306 2904687 2909240 2913508 2917878 2922465 
1595.885 2927127 2931559 2935518 2938994 2942372 2946305 2951604 2959002 
1599.743 2968999 2981731 2997041 3014535 3033772 3054295 3075846 3098354 
1603.600 3121993 3147154 3174408 3204371 3237558 3274196 3314084 3356570 
1607.458 3400644 3445100 3488724 3530498 3569667 3605717 3638270 3667043 
1611.315 3691836 3712501 3729036 3741621 3750555 3756250 3759201 3759883 
1615.172 3758861 3756837 3754637 3753141 3753129 3755011 3758778 3763960 
1619.030 3769846 3775850 3781754 3787950 3795397 3805343 3818938 3836868 
1622.887 3859093 3884794 3912592 3940896 3968274 3993718 4016818 4037758 
1626.745 4057232 4076229 4095796 4116762 4139496 4163744 4188736 4213262 
1630.602 4236116 4256437 4274017 4289394 4303724 4318484 4335101 4354552 
1634.459 4377231 4402910 4430913 4460251 4489999 4519270 4547385 4573910 
1638.317 4598682 4621877 4643901 4665410 4687013 4709127 4731851 4754932 
1642.174 4777951 4800505 4822543 4844383 4866690 4890223 4915517 4942736 
1646.032 4971599 5001548 5032011 5062561 5093082 5123701 5154573 5185991 
1649.889 5218174 5251447 5286266 5323323 5363369 5406981 5454411 5505405 
1653.747 5559327 5615440 5673167 5732380 5793384 5856788 5923368 5993803 
1657.604 6068773 6148919 6234939 6327557 6427404 6534790 6649637 6771417 
1661.461 6899476 7033352 7173203 7319922 7475053 7640474 7817948 8008948 
1665.319 8214522 8435509 8672713 8926875 9198544 9487572 9792706 10111322 
1669.176 10439550 10772701 11105862 11434346 11753988 12061089 12352251 
1672.552 12624301 12874489 13100785 13302362 13480037 13636266 13774911 
1675.927 13900597 14018223 14132515 14247903 14368615 14498809 14642459 
1679.302 14803226 14984131 15187566 15415376 15669234 15951018 16262819 
1682.677 16606542 16983066 17391748 17829944 18293696 18779034 19283304 
1686.052 19806284 20350154 20918696 21516160 22146162 22811248 23513116 
1689.428 24253308 25033670 25856602 26724776 27640948 28607896 29629204 
1692.803 30710268 31859208 33086720 34404588 35823120 37348616 38982244 
1696.178 40721568 42564512 44514476 46584016 48795964 51180196 53768176 
1699.553 56586196 59650840 62968020 66536516 70354192 74423352 78751792 
1702.929 83348176 88212512 93325200 98637760 104068776 109505400 114809920 
1706.304 119827648 124395216 128349384 131539808 133846880 135202304 
1709.197 135603040 135112064 133842024 131931624 129522016 126743456 
1712.090 123710480 120523120 117268304 114019080 110831872 107744744 
1714.983 104778264 101940000 99231280 96653568 94212168 91916296 89775728 
1718.358 87796704 85978616 84313872 82789768 81392208 80108728 78930088 
1721.734 77849664 76861808 75959544 75133280 74370552 73657296 72979024 
1725.109 72322080 71674016 71023296 70358992 69670400 68947552 68181800 
1728.484 67366544 66497440 65571940 64588584 63546236 62443732 61280084 
1731.859 60055180 58770360 57429128 56037064 54601420 53130340 51631872 
1735.235 50113092 48579696 47035724 45483920 43925992 42363500 40798204 
1738.610 39232840 37671300 36118828 34581736 33066950 31581536 30132252 
1741.985 28725094 27365160 26056456 24801986 23603744 22463090 21380802 
1745.360 20357370 19393058 18487838 17641360 16852944 16121581 15446094 
1748.736 14825223 14257674 13741854 13275748 12856649 12481138 12145419 
1752.111 11845613 11578193 11340053 11128428 10940371 10772505 10620781 
1755.486 10480763 10348238 10219696 10092871 9966634 9840621 9714496 9587522 
1759.344 9458254 9324910 9185816 9039835 8886822 8727472 8563235 8395730 
1763.201 8226575 8057243 7889154 7723684 7562250 7406199 7256535 7113772 
1767.058 6977923 6848565 6725024 6606601 6492625 6382498 6275610 6171347 
1770.916 6069286 5969255 5871502 5776589 5685248 5597974 5514656 5434590 
1774.773 5356595 5279414 5202232 5124792 5047384 4970610 4894864 4820100 
1778.631 4745795 4671287 4596054 4520217 4444515 4370153 4298345 4229902 
1782.488 4165080 4103606 4044793 3988067 3932951 3879263 3826988 3776213 
1786.345 3726972 3679363 3633402 3589131 3546445 3505060 3464464 3424140 
1790.203 3383828 3343807 3304993 3268753 3236336 3208366 3184208 3162033 
1794.060 3139387 3113952 3084421 3051012 3015343 2979894 2947008 2918192 
1797.918 2893824 2873207 2855212 2838789 2823300 2808535 2794302 2780189 
1801.775 2765353 2748693 2729294 2706853 2681840 2655393 2628854 2603392 
1805.633 2579607 2557621 2537163 2517961 2499834 2482686 2466330 2450234 
1809.490 2433626 2415603 2395577 2373497 2350034 2326200 2303041 2281144 
1813.347 2260627 2241235 2222716 2205317 2189755 2177094 2168258 2163519 
1817.205 2162261 2163231 2164938 2166435 2167517 2168693 2170743 2174064 
1821.062 2178498 2183268 2187501 2190675 2192869 2194692 2196608 2198462 
1824.920 2199099 2196721 2189334 2175885 2156704 2133642 2109412 2086781 
1828.777 2067546 2052093 2039508 2028281 2016913 2004757 1991992 1979452 
1832.635 1967966 1957938 1949033 1940460 1931081 1919959 1906435 1890278 
1836.492 1871604 1850857 1828697 1806232 1784815 1766071 1751438 1741903 
1840.349 1737549 1737611 1740616 1744796 1748490 1750439 1749880 1746491 
1844.207 1740279 1731515 1720780 1709047 1697610 1687942 1681120 1677565 
1848.064 1676527 1676427 1675044 1670456 1661661 1648888 1633632 1617889 
1851.922 1603631 1591878 1582524 1574494 1566160 1556232 1544201 1530742 
1855.779 1517493 1506745 1500568 1500356 1506301 1517231 1530741 1543795 
1859.636 1553202 1556551 1552342 1540664 1522771 1500869 1477498 1455120 
1863.494 1435679 1420656 1410890 1406967 1408966 1416571 1428882 1444279 
1867.351 1460645 1475604 1486974 1493361 1494257 1490182 1482381 1472260 
1871.209 1461226 1450238 1439864 1430397 1421973 1414752 1408786 1404068 
1875.066 1400409 1397494 1394806 1391951 1388425 1383821 1377734 1369758 
1878.924 1359551 1347123 1332811 1317513 1302513 1289288 1279168 1272996 
1882.781 1271282 1273864 1280301 1290034 1302272 1315927 1329610 1341454 
1886.638 1349587 1352519 1349393 1340638 1327618 1312558 1297691 1285045 
1890.496 1276122 1271980 1273342 1280759 1294340 1313308 1335541 1357395 
1894.353 1374186 1381373 1375792 1357047 1327709 1292750 1258048 1228641 
1898.211 1207386 1194543 1188411 1186772 1188140 1192587 1201428 1216105 
1902.068 1237003 1262493 1288817 1311600 1326777 1332307 1328533 1317874 
1905.926 1303541 1288383 1273995 1260906 1249211 1239668 1234075 1235029 
1909.783 1244596 1263069 1287624 1312920 1331998 1338728 1329650 1305184 
1913.640 1269536 1228840 1189398 1155996 1131147 1115628 1109833 1114490 
1917.498 1131049 1160699 1202343 1251405 1299506 1335828 1350001 1335452 
1921.355 1291688 1224991 1146587 1069740 1005862 962071 940136 937605 949639 
1925.695 971517 999657 1031840 1066327 1100936 1132876 1159499 1179324 
1929.552 1193157 1203867 1215498 1231200 1251843 1275842 1299696 1320245 
1933.410 1336408 1349496 1362716 1378740 1397552 1415510 1426015 1422141 
1937.267 1399897 1360174 1309353 1256928 1212938 1184264 1173476 1178736 
1941.125 1195825 1220091 1248327 1278612 1309524 1339076 1364128 1381571 
1944.982 1389610 1389673 1386911 1388690 1402583 1433027 1479560 1536565 
1948.839 1594946 1644203 1675633 1683515 1666098 1624910 1564748 1492459 
1952.697 1417059 1348073 1294422 1261674 1251022 1257813 1273157 1286419 
1956.554 1289204 1277936 1255868 1231544 1216200 1219824 1248903 1304773 
1960.412 1384761 1482909 1591598 1700333 1796051 1862458 1882611 1842667 
1964.269 1737080 1571299 1363432 1139243 926780 749009 619203 539528 504782 
1968.609 506087 536865 593621 675399 780234 902914 1032480 1154616 1253745 
1972.948 1316646 1334605 1304672 1230639 1123454 1002272 893638 827920 
1976.806 833016 923656 1093901 1315559 1544686 1737001 1862550 1913638 
1980.663 1905146 1865406 1823413 1797821 1791645 1793409 1786034 1756588 
1984.521 1704313 1641827 1589863 1567109 1581431 1625496 1679224 1717712 
1988.378 1721455 1682932 1608234 1512830 1414798 1328035 1259947 1211679 
1992.235 1183060 1175040 1191138 1234874 1305392 1394400 1485607 1557772 
1996.093 1591580 1575169 1508108 1401252 1272735 1142778 1028869 941932 
1999.950 887007 863507 867773 893417 931904 972360 1002722 1010955 988210 
2004.290 930684 841145 728592 606226 489394 392844 329538 310102 341285 
2008.629 425309 557911 727295 914955 1098745 1257562 1376517 1449888 1480721 
2012.969 1477182 1447702 1396091 1321283 1219496 1089675 939136 785528 
2016.826 653939 570655 553593 606251 715430 854935 993904 1105058 1171851 
2021.166 1190687 1169138 1120294 1057285 989247 919996 850821 783665 724138 
2025.506 682774 672695 704850 784314 905426 1051836 1198661 1318815 1390064 
2029.845 1401976 1358249 1276907 1183357 1103712 1055858 1044768 1060532 
2033.703 1083052 1088835 1058810 984646 870301 730593 586496 460114 369227 
2038.042 324566 328290 374300 450056 539336 626086 697898 750400 787496 
2042.382 821170 867372 940115 1046377 1182896 1336269 1487918 1619318 
2046.239 1719033 1785537 1826556 1854186 1878621 1902526 1919080 1914835 
2050.097 1875846 1793644 1669550 1514911 1348643 1192752 1067511 987030 
2053.954 956805 973296 1025707 1100115 1183020 1264602 1339691 1406954 
2057.812 1467646 1523426 1575059 1621757 1661366 1691162 1708836 1713085 
2061.669 1704219 1683707 1654169 1618732 1580897 1544099 1511666 1486639 
2065.526 1471506 1467807 1475903 1494677 1521706 1553669 1586942 1618162 
2069.384 1644763 1665516 1680580 1691290 1700055 1709496 1721951 1738286 
2073.241 1757762 1777622 1793681 1801342 1797076 1779661 1751068 1716167 
2077.099 1681522 1653872 1638339 1637232 1649959 1673577 1704081 1737651 
2080.956 1771263 1803031 1831474 1855100 1871979 1879783 1876285 1859687 
2084.813 1829557 1786660 1732979 1671483 1605629 1539126 1475656 1418527 
2088.671 1370653 1333936 1308926 1294763 1289301 1289514 1292236 1294629 
2092.528 1295033 1292813 1288939 1285415 1285514 1292674 1310162 1339585 
2096.386 1380377 1429087 1479915 1525868 1560690 1580702 1585693 1578943 
2100.243 1565734 1551303 1538957 1529219 1520086 1508677 1492936 1472778 
2104.101 1450504 1429550 1413258 1403508 1400740 1404165 1412986 1426635 
2107.958 1444825 1466371 1488102 1504561 1509119 1496215 1464040 1416131 
2111.815 1361294 1311108 1276066 1262137 1268830 1289676 1315184 1336203 
2115.673 1347354 1347654 1339849 1327820 1313731 1296940 1274222 1241537 
2119.530 1196973 1142155 1082476 1025402 977778 943218 920893 905658 890214 
2123.870 867462 833213 787402 734444 681848 638338 611169 604192 615939 
2128.209 639428 663068 673110 657271 608310 526717 421522 308378 206131 
2132.549 131528 95131 98655 134959 190276 248666 295513 320623 319012 291132 
2137.371 241790 179690 115951 62849 30951 26235 47437 85102 124128 148395 
2142.193 146865 118198 72569 28300 5761 20331 76625 167455 275806 381260 
2147.014 464646 512658 518126 478445 394108 267861 105025 -83144 -280164 
2151.354 -464773 -616314 -720249 -774230 -789317 -788284 -797484 -839529 
2155.211 -924291 -1045925 -1181700 -1297560 -1353793 -1314460 -1155873 
2158.587 -874793 -491719 -49013 399002 800299 1117047 1332110 1450618 
2162.444 1493058 1488338 1464954 1442229 1427805 1418183 1402281 1369392 
2166.302 1314518 1240401 1155427 1070471 993387 926861 868171 811892 753774 
2170.641 693028 632889 579566 538748 513989 505402 511097 528078 554854 
2174.981 591300 638225 694533 756452 815995 863589 889715 889059 862727 
2179.320 818814 771794 739015 736448 774638 854951 968306 1096645 1217007 
2183.660 1307451 1352726 1347584 1298540 1220368 1132895 1054415 997674 
2187.517 967291 960701 970281 987334 1004404 1016315 1019986 1012588 991048 
2191.857 952029 893219 815254 722191 622037 524334 437581 367529 315882 
2196.197 281141 260912 253721 260311 282731 323212 381487 454218 534689 
2200.536 614763 687447 748896 799449 843064 885163 930167 979328 1030100 
2204.876 1076414 1110019 1123327 1111184 1072719 1011620 935648 855510 
2208.733 782398 726242 693587 686680 703156 736761 778281 817974 846407 
2213.073 856335 843994 810047 759914 703620 654118 625451 628913 670306 
2217.412 747719 851691 966725 1075672 1164164 1224293 1256221 1267147 
2221.270 1267996 1269293 1277701 1294494 1315576 1334325 1343805 1339440 
2225.127 1320626 1289961 1252949 1216242 1186248 1168590 1167095 1183169 
2228.985 1215472 1259743 1309325 1356345 1393726 1416831 1425076 1422059 
2232.842 1414229 1408918 1411881 1425451 1448040 1475336 1501845 1523248 
2236.699 1537880 1547083 1554264 1563174 1575918 1592002 1607824 1618055 
2240.557 1617588 1603276 1575623 1538840 1499619 1465338 1441774 1431339 
2244.414 1432741 1441412 1451576 1458058 1457804 1450546 1437996 1423084 
2248.272 1408379 1395454 1384687 1375806 1368540 1362768 1358644 1355947 
2252.129 1353823 1350625 1344746 1335768 1325486 1318167 1319691 1336002 
2255.987 1370543 1422897 1488062 1557401 1620643 1668683 1695656 1700481 
2259.844 1686835 1662232 1636298 1618533 1616448 1633862 1670143 1720362 
2263.701 1775966 1827054 1864600 1882789 1880428 1861146 1832182 1801844 
2267.559 1776980 1761253 1754534 1753958 1755931 1758103 1760598 1766042 
2271.416 1778317 1800471 1833461 1874917 1919764 1961830 1995188 2016370 
2275.274 2024846 2023243 2016352 2009850 2008628 2015969 2032451 2056404 
2279.131 2084491 2112882 2138375 2159552 2176888 2192402 2208528 2226890 
2282.989 2247367 2267834 2284805 2294574 2294594 2284408 2265540 2241004 
2286.846 2214217 2188006 2164108 2143312 2125781 2111654 2101251 2094881 
2290.703 2092454 2093259 2095886 2098778 2100864 2102144 2103735 2107243 
2294.561 2113891 2123648 2134700 2143892 2147677 2143408 2130420 2110266 
2298.418 2086491 2063241 2044239 2031797 2026195 2026122 2029301 2033088 
2302.276 2035336 2034781 2031049 2024814 2017339 2010375 2005613 2004365 
2306.133 2007084 2013273 2021587 2030303 2037837 2043328 2046699 2048579 
2309.990 2049826 2051059 2052448 2053799 2054955 2056274 2058752 2063813 
2313.848 2072789 2086302 2103832 2123777 2143906 2162095 2177063 2188696 
2317.705 2197942 2206665 2217223 2232296 2254504 2286383 2329504 2383715 
2321.563 2446165 2510691 2568226 2608346 2621622 2602151 2549118 2467291 
2325.420 2365959 2256774 2151396 2059168 1985724 1932585 1897812 1877443 
2329.278 1867101 1863116 1863258 1866318 1871794 1879028 1887052 1894442 
2333.135 1899788 1901985 1900519 1895449 1887383 1877147 1865653 1853785 
2336.992 1842285 1831822 1822933 1816004 1811164 1808586 1808352 1810619 
2340.850 1815587 1823290 1833397 1845083 1856925 1867222 1874511 1877879 
2344.707 1877553 1874655 1870908 1868150 1867536 1869242 1872613 1876318 
2348.565 1879128 1880283 1879868 1878692 1877816 1878137 1880094 1883360 
2352.422 1887113 1890311 1892080 1891912 1889876 1886480 1882447 1878443 
2356.280 1874940 1871952 1869073 1865510 1860289 1852482 1841567 1827457 
2360.137 1810773 1792525 1773970 1756175 1739721 1724576 1710271 1696169 
2363.994 1681912 1667739 1654645 1644207 1638050 1637436 1642662 1653056 
2367.852 1666890 1681841 1695651 1706451 1713360 1716448 1716717 1715780 
2371.709 1715426 1717221 1722110 1730280 1741037 1752983 1764407 1773451 
2375.567 1778816 1779882 1776934 1771093 1764008 1757450 1752885 1751244 
2379.424 1752721 1756942 1763098 1770164 1777184 1783341 1787958 1790577 
2383.281 1790931 1788882 1784671 1778730 1771919 1765234 1759784 1756537 
2387.139 1756047 1758413 1763195 1769499 1776258 1782472 1787189 1789798 
2390.996 1789990 1787650 1782835 1775703 1766521 1755674 1743872 1732091 
2394.854 1721580 1713754 1709838 1710602 1715895 1724807 1735429 1745490 
2398.711 1752759 1755843 1754490 1749796 1743839 1739052 1737436 1739832 
2402.569 1745661 1753217 1760266 1765083 1766960 1766844 1766923 1769961 
2406.426 1778166 1792499 1811960 1833990 1855035 1871687 1881506 1883744 
2410.283 1879324 1870307 1859223 1848094 1837971 1828592 1818935 1807459 
2414.141 1793141 1775800 1756633 1737933 1722736 1713948 1713622 1722237 
2417.998 1738470 1759356 1780850 1798728 1809478 1811152 1803532 1788304 
2421.856 1768593 1748142 1730732 1719380 1715682 1719820 1730288 1744364 
2425.713 1758668 1769914 1775695 1775262 1769481 1760874 1752723 1748088 
2429.571 1748876 1755298 1765881 1778149 1789538 1798433 1804561 1808888 
2433.428 1813010 1818177 1824585 1831184 1835923 1836755 1832281 1822589 
2437.285 1809099 1794151 1780309 1769495 1762564 1759411 1759176 1760970 
2441.143 1764221 1768748 1774675 1782169 1790901 1800040 1808311 1814105 
2445.000 1816012 1812950 1804651 1791891 1776300 1760539 1747743 1740962 
2448.858 1742477 1752925 1770980 1793486 1815940 1833870 1844074 1845462 
2452.715 1839491 1829698 1820275 1814909 1815282 1820793 1828881 1836020 
2456.573 1839072 1836418 1828421 1817206 1805682 1796665 1791913 1791775 
2460.430 1795417 1801317 1807932 1814084 1819145 1822979 1825403 1826200 
2464.287 1824921 1821283 1815109 1806682 1796690 1785888 1774801 1763544 
2468.145 1751918 1739600 1726670 1713979 1703038 1695702 1693422 1696514 
2472.002 1703902 1713031 1720783 1724542 1723120 1717450 1710319 1705636 
2475.860 1706793 1715829 1732257 1753365 1774861 1792146 1801713 1801863 
2479.717 1793091 1777800 1759238 1740864 1725352 1714423 1708530 1707048 
2483.574 1708483 1710746 1711589 1709068 1701946 1690294 1675711 1661091 
2487.432 1650149 1646183 1651282 1665519 1686582 1710490 1732601 1748880 
2491.289 1756877 1756320 1748779 1737040 1724122 1712418 1703440 1697690 
2495.147 1695297 1696095 1700043 1707044 1716594 1727703 1738516 1747036 
2499.004 1751715 1751876 1748451 1743552 1739931 1739997 1744839 1753819 
2502.862 1764743 1774828 1781587 1784039 1782889 1780305 1779111 1781665 
2506.719 1789049 1800667 1814673 1828660 1840448 1848573 1852573 1852633 
2510.576 1849114 1842446 1833076 1821604 1809385 1798457 1791454 1790714 
2514.434 1797586 1811663 1830569 1850366 1866511 1874936 1873199 1860830 
2518.291 1839632 1812915 1784895 1759978 1741742 1732877 1734482 1746273 
2522.149 1766468 1792189 1820083 1846967 1870464 1889465 1904066 1915039 
2526.006 1923155 1928531 1930475 1927674 1919330 1905767 1889243 1873678 
2529.864 1863685 1863128 1873777 1894363 1920824 1947456 1968482 1979709 
2533.721 1979556 1969230 1952036 1932326 1914279 1901143 1894972 1896529 
2537.578 1905675 1921507 1942380 1966288 1990690 2013006 2031159 2043782 
2541.436 2050423 2051550 2047966 2040656 2030280 2017582 2003465 1989439 
2545.293 1977701 1970803 1970979 1979323 1995268 2016515 2039735 2061489 
2549.151 2079330 2092438 2101401 2107836 2113291 2118533 2123347 2126774 
2553.008 2127675 2125602 2121009 2115190 2109671 2105711 2103597 2102949 
2556.865 2102854 2102914 2103336 2105434 2110929 2121386 2137468 2158436 
2560.723 2182158 2205694 2226075 2241114 2249897 2252712 2250873 2245939 
2564.580 2239313 2231870 2223800 2215172 2205865 2196338 2187589 2181189 
2568.438 2178865 2182147 2191698 2207150 2226780 2247854 2267157 2281818 
2572.295 2289927 2291235 2287052 2280031 2273390 2270063 2271951 2279492 
2576.153 2291706 2306592 2321781 2335155 2345317 2351636 2354257 2353825 
2580.010 2351174 2347213 2342805 2338859 2336239 2335827 2338273 2343858 
2583.867 2352425 2363208 2375064 2386663 2396760 2404464 2409668 2412665 
2587.725 2414446 2416210 2418956 2423229 2428835 2434803 2439624 2441578 
2591.582 2439286 2432210 2420910 2407203 2393693 2383315 2378622 2380881 
2595.440 2390081 2404555 2421665 2438431 2452365 2462216 2468295 2472195 
2599.297 2476271 2482788 2493007 2506798 2522535 2537618 2549366 2555775 
2603.155 2556195 2551383 2543120 2533609 2524599 2517033 2510983 2505912 
2607.012 2501377 2497468 2495032 2495405 2499888 2509153 2522666 2538804 
2610.869 2555117 2569014 2578526 2582836 2582401 2578758 2574034 2570230 
2614.727 2568931 2570886 2576031 2583662 2592643 2601726 2609811 2616069 
2618.584 2620121 2622086 2622453 2622172 2622210 2623581 2626988 2632929 
2622.442 2641479 2652416 2665421 2679769 2694656 2709097 2721950 2732091 
2626.299 2738636 2741037 2739267 2733893 2725805 2716129 2706047 2696436 
2630.156 2687955 2681121 2676196 2673473 2673106 2675212 2679658 2686151 
2634.014 2694103 2702756 2711117 2718364 2723700 2726622 2727111 2725481 
2637.871 2722497 2719209 2716679 2715662 2716400 2718464 2720932 2722737 
2641.729 2723028 2721633 2719198 2716986 2716459 2718748 2724296 2732609 
2645.586 2742515 2752569 2761512 2768807 2774389 2778740 2782465 2785822 
2649.444 2788802 2791019 2791922 2791269 2789077 2785705 2781656 2777380 
2653.301 2773113 2768798 2764202 2759119 2753412 2747235 2740920 2734838 
2657.158 2729493 2725219 2722296 2720715 2720189 2720114 2719425 2716805 
2661.016 2710825 2700358 2684914 2664934 2641746 2617435 2594384 2574724 
2664.873 2560042 2550944 2547081 2547397 2550305 2554172 2557598 2559542 
2668.731 2559580 2557719 2554437 2550332 2546053 2541962 2538196 2534609 
2672.588 2531075 2527685 2524845 2523300 2523863 2527099 2532845 2540288 
2676.446 2547915 2554023 2557375 2557473 2554986 2551236 2547948 2546455 
2680.303 2547294 2550122 2553867 2557215 2558928 2558353 2555405 2550411 
2684.160 2543988 2536772 2529437 2522735 2517359 2514090 2513486 2515793 
2688.018 2520758 2527673 2535583 2543633 2551038 2557536 2562916 2567140 
2691.875 2569979 2571096 2570179 2567246 2562852 2558128 2554552 2553522 
2695.733 2555923 2561640 2569797 2578806 2586997 2592989 2596075 2596238 
2699.590 2594068 2590333 2585911 2581405 2577200 2573505 2570267 2567375 
2703.448 2564656 2561900 2558895 2555597 2552186 2549123 2546920 2546274 
2707.305 2547653 2551307 2557143 2564763 2573512 2582615 2591161 2598269 
2711.162 2603222 2605687 2605801 2604234 2602253 2601171 2602130 2605626 
2715.020 2611184 2617682 2623584 2627602 2629191 2628646 2626884 2625048 
2718.877 2623791 2622994 2621727 2618791 2613246 2605119 2595431 2586072 
2722.735 2579154 2576199 2577771 2583255 2591214 2599997 2608257 2615386 
2726.592 2621408 2626878 2632295 2637890 2643468 2648521 2652374 2654655 
2730.449 2655309 2654677 2653433 2652420 2652361 2653848 2657067 2661824 
2734.307 2667556 2673429 2678572 2682308 2684375 2685042 2684987 2685126 
2738.164 2686193 2688485 2691808 2695513 2698857 2701217 2702408 2702688 
2742.022 2702559 2702486 2702784 2703520 2704599 2705968 2707876 2710743 
2745.879 2715072 2721153 2728698 2736897 2744532 2750381 2753650 2754291 
2749.737 2753152 2751686 2751441 2753761 2759123 2767259 2777086 2787115 
2753.594 2795867 2802279 2805909 2807063 2806658 2806120 2806910 2810235 
2757.451 2816703 2826168 2837797 2850181 2861793 2871377 2878239 2882415 
2761.309 2884520 2885409 2885837 2886173 2886301 2885773 2884194 2881422 
2765.166 2877833 2874366 2872163 2872279 2875277 2881263 2889553 2899198 
2769.024 2909083 2918248 2926184 2932600 2937457 2940791 2942639 2942962 
2772.881 2941789 2939212 2935580 2931465 2927510 2924392 2922638 2922608 
2776.739 2924313 2927715 2932571 2938663 2945776 2953713 2962314 2971447 
2780.596 2980961 2990800 3000860 3011057 3021135 3030687 3039033 3045433 
2784.453 3049111 3049658 3047120 3042271 3036436 3031280 3028510 3029374 
2788.311 3034379 3043204 3054732 3067413 3079435 3089272 3095821 3098613 
2792.168 3097829 3094264 3089111 3083683 3079277 3076845 3076949 3079608 
2796.026 3084528 3091219 3099243 3108392 3118505 3129593 3141465 3153742 
2799.883 3165815 3176998 3186794 3195070 3202090 3208457 3214729 3221271 
2803.740 3227997 3234649 3240816 3246518 3252097 3258367 3266262 3276472 
2807.598 3289018 3303366 3318620 3333813 3348544 3362938 3377548 3393045 
2811.455 3409670 3427022 3444066 3459524 3472393 3482484 3490448 3497697 
2815.313 3505764 3515841 3528466 3543287 3559451 3575939 3592059 3607417 
2819.170 3622051 3636191 3650039 3663719 3677251 3690914 3705142 3720619 
2823.028 3738157 3758366 3781460 3807037 3834260 3862095 3889454 3915493 
2826.885 3939835 3962312 3983058 4002362 4020494 4037762 4054477 4070918 
2830.742 4087434 4104268 4121701 4140123 4159815 4181197 4204561 4230123 
2834.600 4257858 4287407 4318266 4349932 4382190 4415188 4449580 4486177 
2838.457 4525869 4569042 4615595 4664846 4715806 4767429 4819062 4870498 
2842.315 4921990 4974246 5028161 5084659 5144767 5209397 5279413 5355390 
2846.172 5437476 5525168 5617194 5711906 5807475 5902454 5996179 6088765 
2850.030 6181013 6273807 6367673 6462458 6557296 6651069 6742907 6832774 
2853.887 6921784 7011878 7105431 7204348 7309356 7419750 7533487 7647624 
2857.744 7759444 7867010 7969845 8068976 8166588 8265463 8368055 8476061 
2861.602 8589978 8708995 8831502 8955466 9078793 9200004 9318218 9433264 
2865.459 9545419 9655347 9763528 9870273 9975360 10078108 10177463 10272067 
2869.317 10360573 10441940 10515555 10581261 10639356 10690299 10734390 
2872.692 10771519 10801027 10821818 10832546 10832057 10819466 10794559 
2876.067 10757665 10709556 10651264 10584048 10509358 10428944 10344955 
2879.442 10259843 10176411 10097235 10024488 9959628 9903397 9856010 9817384 
2883.300 9787598 9767015 9756272 9756012 9766717 9788515 9821070 9863821 
2887.157 9916209 9977855 10048576 10128386 10217045 10314035 10418206 
2890.532 10527959 10641441 10756686 10871945 10985612 11096304 11202507 
2893.908 11302774 11395427 11478980 11552273 11614646 11666172 11707566 
2897.283 11739988 11764689 11782799 11795117 11801983 11803567 11799947 
2900.658 11791481 11778877 11763428 11746722 11730497 11716411 11705627 
2904.033 11698912 11696560 11698627 11705258 11716983 11734577 11759101 
2907.409 11791560 11832488 11881839 11938899 12002500 12071521 12145171 
2910.784 12223382 12306745 12396176 12492666 12596685 12707993 12825583 
2914.159 12947991 13073371 13200141 13327123 13453633 13579457 13704623 
2917.534 13829334 13953611 14077379 14200412 14322260 14442351 14560191 
2920.910 14675331 14787526 14896885 15004012 15109833 15215750 15323174 
2924.285 15433520 15547639 15665807 15787467 15911309 16035587 16158551 
2927.660 16278882 16396061 16510561 16623627 16736783 16851344 16967706 
2931.035 17085358 17202788 17318100 17429692 17536820 17639956 17740670 
2934.411 17841212 17943730 18049880 18160348 18275076 18393358 18514556 
2937.786 18638442 18765264 18895816 19031164 19172234 19319628 19473546 
2941.161 19633518 19798712 19967774 20139172 20311188 20482156 20650842 
2944.536 20816364 20978408 21137088 21292546 21444924 21593834 21738582 
2947.912 21878220 22011904 22139216 22260026 22374704 22483742 22587322 
2951.287 22685308 22777214 22862404 22940398 23010998 23074358 23130650 
2954.662 23180108 23222512 23257426 23284254 23302578 23312170 23313000 
2958.037 23305050 23287906 23260448 23220766 23166356 23094606 23003176 
2961.413 22890412 22755518 22598436 22419454 22219198 21998146 21756814 
2964.788 21495726 21215578 20917380 20602424 20272456 19929558 19576170 
2968.163 19215042 18849120 18481290 18114168 17749568 17388558 17031274 
2971.538 16677311 16326055 15977338 15631628 15290333 14955609 14630103 
2974.914 14316334 14016221 13730739 13459603 13201472 12953965 12714183 
2978.289 12479381 12247238 12016534 11787288 11560786 11339182 11125062 
2981.664 10920665 10727586 10546219 10375789 10214721 10060844 9911886 
2985.039 9766094 9622210 9479732 9338865 9200285 9064807 8933023 8805116 
2988.897 8680651 8558584 8437749 8317135 8196387 8075956 7956969 7840931 
2992.754 7728854 7621012 7516508 7413556 7310161 7204604 7096416 6986306 
2996.612 6876211 6768416 6664815 6566290 6472299 6381111 6290389 6197895 
3000.469 6102137 6002787 5900765 5797877 5696347 5598251 5505128 5417728 
3004.326 5336000 5259283 5186514 5116704 5049084 4983278 4919120 4856690 
3008.184 4795863 4736368 4677873 4620130 4563252 4507981 4455627 4407673 
3012.041 4365263 4328877 4297928 4270781 4245488 4220183 4193832 4166313 
3015.899 4138316 4110914 4084902 4060474 4037136 4014074 3990565 3966579 
3019.756 3942702 3920152 3900012 3882971 3868866 3856789 3845400 3833525 
3023.614 3820490 3806340 3791742 3777440 3764137 3752057 3741007 3730470 
3027.471 3720002 3709161 3697882 3686024 3673729 3660823 3647294 3633029 
3031.328 3618183 3603273 3588989 3576137 3565367 3556898 3550585 3545975 
3035.186 3542365 3539208 3536329 3533781 3531912 3531212 3531969 3534266 
3039.043 3537817 3542029 3546150 3549517 3551632 3552454 3552293 3552037 
3042.901 3552818 3555960 3562605 3573490 3588785 3607912 3629702 3652624 
3046.758 3675058 3695893 3714526 3731068 3746142 3760609 3775124 3789956 
3050.615 3804909 3819409 3832709 3844297 3853900 3861506 3867231 3870998 
3054.473 3872411 3870741 3865233 3855388 3841340 3823921 3804655 3785458 
3058.330 3768197 3754519 3745487 3741760 3743351 3749970 3760670 3773942 
3062.188 3787625 3799184 3805965 3805958 3798294 3783618 3764030 3742620 
3066.045 3722733 3707124 3697353 3693661 3695025 3699651 3705595 3710862 
3069.903 3713997 3713827 3709755 3701643 3690013 3675922 3660949 3646715 
3073.760 3634624 3625377 3618901 3614454 3610990 3607766 3604582 3601826 
3077.617 3600222 3600367 3602262 3605111 3607563 3608180 3605819 3600039 
3081.475 3591248 3580345 3568371 3556373 3544876 3534257 3524643 3516087 
3085.332 3508629 3502052 3495913 3489531 3482150 3473245 3462794 3451479 
3089.190 3440498 3431331 3425040 3422234 3422726 3425812 3430477 3435858 
3093.047 3441272 3446383 3450822 3454305 3456537 3457296 3456814 3455763 
3096.905 3455207 3456323 3459947 3466142 3474087 3482405 3489344 3493587 
3100.762 3494499 3492290 3487760 3482027 3475996 3470059 3464162 3457883 
3104.619 3450791 3442546 3433084 3422502 3411136 3399303 3387256 3375354 
3108.477 3363978 3353559 3344501 3336960 3330887 3326026 3321935 3318107 
3112.334 3314437 3311060 3308497 3307276 3307746 3309854 3312916 3315672 
3116.192 3316597 3314402 3308363 3298883 3287315 3275957 3267401 3263904 
3120.049 3266738 3275833 3289783 3306101 3322066 3335334 3344471 3349240 
3123.906 3350383 3349203 3346961 3344569 3342314 3339783 3336328 3331118 
3127.764 3323476 3312964 3299550 3283520 3265724 3247532 3230792 3217321 
3131.621 3208701 3205689 3207830 3213499 3220255 3225663 3227945 3226623 
3135.479 3222641 3217977 3214929 3215189 3219450 3227110 3236613 3246035 
3139.336 3253692 3258517 3260211 3258985 3255382 3249965 3243086 3235054 
3143.194 3226059 3216392 3206465 3196760 3187885 3180501 3175419 3173313 
3147.051 3174813 3180135 3188810 3199720 3211083 3221083 3228148 3231676 
3150.908 3232224 3231308 3230808 3232319 3236342 3242143 3247935 3251471 
3154.766 3250898 3245400 3235393 3222473 3208671 3195927 3185589 3178247 
3158.623 3173795 3171837 3171860 3173491 3176386 3180269 3184624 3188787 
3162.481 3192094 3193996 3194312 3193254 3191347 3189344 3187887 3187482 
3166.338 3188375 3190643 3194115 3198575 3203575 3208619 3213148 3216615 
3170.196 3218770 3219561 3219309 3218453 3217545 3216850 3216348 3215815 
3174.053 3214936 3213584 3211940 3210618 3210352 3211841 3215346 3220618 
3177.910 3226797 3232774 3237372 3239696 3239303 3236257 3231148 3224840 
3181.768 3218456 3213300 3210419 3210636 3214058 3220160 3227603 3234649 
3185.625 3239590 3241388 3240019 3236586 3232967 3230905 3231664 3234997 
3189.483 3239434 3242693 3242491 3237570 3228308 3216662 3205705 3198460 
3193.340 3197157 3202285 3212603 3225654 3238342 3248022 3252903 3252526 
3197.198 3247486 3239192 3229355 3219538 3211042 3204713 3200942 3199548 
3201.055 3200084 3201901 3204337 3206959 3209744 3212953 3217119 3222558 
3204.912 3229411 3237300 3245668 3253725 3261001 3267289 3272732 3277500 
3208.770 3281606 3284701 3286077 3284937 3280769 3273626 3264260 3253812 
3212.627 3243830 3235611 3230049 3227494 3227967 3231187 3236698 3243847 
3216.485 3251848 3259579 3265829 3269430 3269777 3266807 3261367 3254758 
3220.342 3248442 3243511 3240414 3239064 3238947 3239705 3241360 3244358 
3224.199 3249414 3257051 3267251 3279270 3291774 3303266 3312452 3318619 
3228.057 3321787 3322479 3321442 3319254 3316320 3312683 3308443 3303631 
3231.914 3298522 3293423 3288618 3284436 3281022 3278527 3277206 3277464 
3235.772 3279445 3283226 3288238 3293460 3297432 3298768 3296679 3291467 
3239.629 3284552 3278316 3275419 3278039 3287057 3301807 3319995 3338400 
3243.487 3353576 3362913 3365229 3360995 3352145 3341509 3331918 3325661 
3247.344 3323831 3326495 3332806 3341556 3351676 3362351 3373183 3383953 
3251.201 3394154 3403099 3409719 3413106 3412773 3409027 3403104 3396772 
3255.059 3391983 3389966 3391055 3394496 3398657 3401814 3402439 3399890 
3258.916 3394355 3386473 3377229 3367374 3357251 3347137 3337219 3328053 
3262.774 3320510 3315644 3314330 3316723 3322174 3329032 3335261 3338812 
3266.631 3338374 3333803 3326181 3317472 3310036 3305768 3305646 3309183 
3270.489 3314873 3320554 3324116 3324262 3320879 3315185 3309280 3305426 
3274.346 3305525 3310409 3319882 3332748 3347462 3362460 3376631 3389271 
3278.203 3400215 3409249 3416126 3420646 3422574 3421931 3419416 3416042 
3282.061 3413048 3411555 3412212 3414920 3418887 3422933 3425765 3426202 
3285.918 3423671 3417961 3409474 3399009 3387716 3376957 3368191 3362728 
3289.776 3361412 3364494 3371451 3381145 3392048 3402654 3411754 3418635 
3293.633 3423147 3425426 3425905 3425087 3423464 3421638 3420259 3419898 
3297.490 3420790 3422767 3424969 3426163 3425142 3421253 3414799 3407054 
3301.348 3399947 3395246 3393837 3395218 3397574 3398316 3395124 3386819 
3305.205 3373994 3358878 3344590 3334033 3328979 3329397 3333629 3339006 
3309.063 3343005 3343964 3341600 3337103 3332390 3329428 3329632 3333408 
3312.920 3340353 3349547 3360036 3371080 3382286 3393259 3403651 3412539 
3316.778 3418841 3421488 3419835 3414005 3405100 3394820 3384953 3376785 
3320.635 3370777 3366389 3362384 3357554 3351158 3343417 3335451 3328824 
3324.492 3325124 3325235 3329189 3336201 3345077 3354451 3363344 3371133 
3328.350 3377389 3381830 3383968 3383420 3379911 3373781 3365921 3357878 
3332.207 3351336 3347775 3347875 3351547 3357820 3365339 3372804 3379105 
3336.065 3383645 3386137 3386365 3384105 3379126 3371315 3360932 3348646 
3339.922 3335688 3323305 3312720 3304749 3299664 3297206 3296878 3298067 
3343.780 3300231 3302974 3305911 3308677 3310821 3311854 3311390 3309224 
3347.637 3305434 3300247 3293982 3286999 3279481 3271587 3263497 3255497 
3351.494 3247926 3241342 3236231 3233084 3232062 3233230 3236241 3240547 
3355.352 3245458 3250324 3254668 3258365 3261803 3265718 3271160 3278856 
3359.209 3289082 3301236 3313849 3324861 3332162 3334167 3330406 3321606 
3363.067 3309601 3296796 3285504 3277516 3273619 3273848 3277363 3283010 
3366.924 3289539 3295773 3300684 3303542 3303695 3300834 3295038 3286692 
3370.781 3276667 3266113 3256357 3248792 3244686 3244853 3249682 3258685 
3374.639 3270652 3283652 3295296 3303260 3305986 3302945 3295016 3284155 
3378.496 3272845 3263468 3257602 3255846 3257788 3262387 3268705 3276046 
3382.354 3284237 3293382 3303561 3314489 3325513 3335657 3343922 3349563 
3386.211 3352255 3352181 3349891 3346395 3342991 3341261 3343172 3350392 
3390.069 3364117 3384262 3409243 3435927 3460207 3478144 3487064 3486478 
3393.926 3478303 3466466 3455673 3450257 3452969 3464518 3483688 3507914 
3397.783 3534319 3560388 3584370 3605489 3623799 3639681 3653906 3667245 
3401.641 3680464 3694136 3708613 3724041 3740216 3756883 3773915 3791405 
3405.498 3809828 3829787 3851781 3875916 3901673 3927916 3953127 3975729 
3409.356 3994369 4008270 4017115 4021085 4020724 4017030 4011418 4005805 
3413.213 4002374 4003370 4010455 4024214 4043839 4067216 4091268 4112803 
3417.071 4129249 4139228 4142699 4140734 4134957 4127072 4118078 4108650 
3420.928 4098777 4088461 4077920 4067726 4058941 4052798 4050444 4052354 
3424.785 4058371 4067327 4077313 4086113 4091613 4092422 4088188 4079961 
3428.643 4069701 4059952 4053050 4050548 4052741 4058766 4066907 4075285 
3432.500 4082344 4087406 4090647 4092963 4095502 4099376 4105251 4113352 
3436.358 4123350 4134652 4146344 4157406 4166834 4173663 4177352 4177857 
3440.215 4175770 4172252 4168675 4166327 4165926 4167425 4169990 4172440 
3444.073 4173528 4172517 4169334 4164482 4158797 4153039 4147467 4141871 
3447.930 4135498 4127514 4117414 4105293 4091934 4078832 4067877 4060808 
3451.787 4058838 4062237 4070232 4081018 4092111 4100797 4104817 4102778 
3455.645 4094408 4080730 4063625 4045305 4027840 4012681 4000377 3990896 
3459.502 3983766 3978553 3974894 3972739 3972045 3972539 3973693 3974470 
3463.360 3973798 3970958 3965783 3958922 3951693 3945595 3941888 3941080 
3467.217 3942843 3946139 3949660 3952333 3953685 3953880 3953474 3953091 
3471.074 3952778 3952123 3950039 3945461 3937576 3926393 3912857 3898716 
3474.932 3885919 3876204 3870763 3869775 3872912 3879206 3887713 3897499 
3478.789 3907784 3917908 3927160 3934805 3940072 3942394 3941590 3938003 
3482.647 3932485 3926326 3921101 3918279 3919177 3924589 3934732 3948957 
3486.504 3965961 3983564 3999252 4010521 4015490 4013256 4004385 3990537 
3490.362 3974219 3958099 3944232 3933734 3926678 3922518 3920660 3920869 
3494.219 3923548 3929579 3939831 3954555 3972958 3993165 4012631 4028641 
3498.076 4039313 4043940 4043212 4038982 4033585 4029210 4027252 4028009 
3501.934 4030708 4033932 4035942 4035376 4031688 4025102 4016773 4008443 
3505.791 4002125 3999551 4002081 4010146 4023466 4040930 4060921 4081540 
3509.649 4100997 4117833 4131185 4140896 4147610 4152388 4156774 4162008 
3513.506 4168813 4177078 4185705 4192732 4195928 4193451 4184602 4170087 
3517.364 4152384 4135133 4122598 4118469 4124974 4142289 4168408 4199321 
3521.221 4230081 4255924 4273331 4280841 4279410 4271977 4262716 4255746 
3525.078 4254167 4259120 4269770 4283630 4297591 4308792 4315657 4318062 
3528.936 4317161 4314792 4312627 4311508 4311351 4311338 4310554 4308363 
3532.793 4305002 4301340 4298423 4297191 4297922 4300110 4302950 4305513 
3536.651 4307461 4309158 4311372 4314913 4320083 4326183 4331730 4334576 
3540.508 4332982 4326043 4314468 4300163 4286217 4275733 4271041 4273022 
3544.365 4280811 4292153 4303862 4312868 4316934 4314827 4306844 4294025 
3548.223 4278025 4260450 4242704 4225813 4210587 4197619 4187635 4180912 
3552.080 4177369 4176364 4176411 4175720 4172330 4165056 4153702 4139359 
3555.938 4123922 4109585 4098028 4089761 4083876 4078425 4071097 4059905 
3559.795 4043904 4023639 4000635 3977168 3955393 3936593 3921156 3908296 
3563.653 3896644 3884529 3870692 3854515 3836278 3816875 3797700 3780192 
3567.510 3765431 3753877 3745360 3739119 3734184 3729673 3725124 3720476 
3571.367 3716289 3713094 3711085 3710034 3708838 3705930 3699736 3689113 
3575.225 3673781 3654639 3633552 3612731 3594198 3579132 3567568 3558259 
3579.082 3549299 3538761 3525284 3508795 3490507 3472569 3457528 3447350 
3582.940 3442717 3442791 3445234 3446972 3445201 3438111 3425675 3409557 
3586.797 3392562 3377677 3367017 3361201 3359041 3358301 3356419 3351449 
3590.655 3342808 3331478 3319465 3309103 3302192 3299304 3299771 3301746 
3594.512 3303053 3301513 3295811 3285570 3271336 3254336 3236179 3218663 
3598.369 3203566 3192361 3186325 3186120 3191854 3202607 3216896 3232615 
3602.227 3247669 3260315 3269698 3275793 3279475 3281755 3283389 3284402 
3606.084 3283878 3280485 3272527 3259186 3240632 3218487 3195399 3174237 
3609.942 3157612 3147037 3142636 3143360 3147431 3152882 3158041 3161724 
3613.799 3163380 3162800 3159959 3155065 3148555 3141225 3134114 3128419 
3617.656 3124985 3124044 3124791 3125892 3125525 3122149 3115248 3105433 
3621.514 3094245 3084059 3077003 3074598 3077480 3085150 3096496 3109684 
3625.371 3122839 3134063 3141637 3144187 3141002 3132076 3118391 3101700 
3629.229 3084319 3068235 3054920 3044779 3037322 3031665 3026965 3022803 
3633.086 3019315 3016918 3015698 3015006 3013626 3009766 3002110 2990254 
3636.944 2975006 2958356 2942673 2929788 2920462 2914020 2908805 2902949 
3640.801 2895287 2885890 2876024 2867889 2863537 2864211 2870061 2879834 
3644.658 2891504 2902796 2911534 2915967 2914778 2907065 2892211 2869984 
3648.516 2840959 2806272 2768040 2728945 2692125 2660275 2635715 2619789 
3652.373 2613048 2615276 2625687 2643007 2665295 2690067 2714492 2735427 
3656.231 2750220 2757042 2755532 2746771 2733014 2717109 2701621 2688313 
3660.088 2677937 2669940 2663557 2657765 2652143 2646891 2642588 2639789 
3663.946 2638630 2638508 2638065 2635808 2630511 2621694 2609936 2596693 
3667.803 2583806 2573165 2566129 2563168 2564307 2568821 2576030 2585145 
3671.660 2595624 2606958 2618445 2629379 2638831 2645798 2649389 2648795 
3675.518 2643497 2633294 2618223 2598791 2575765 2550310 2523960 2498351 
3679.375 2475253 2456163 2442357 2434839 2434353 2441286 2455567 2476235 
3683.233 2501087 2526695 2548616 2562160 2563811 2551837 2527356 2493913 
3687.090 2456847 2421678 2392981 2372964 2361626 2357184 2357256 2359823 
3690.948 2363941 2369636 2377308 2387018 2397972 2408446 2416264 2419264 
3694.805 2416274 2407330 2393437 2376634 2359319 2343766 2332001 2325294 
3698.662 2323931 2327442 2334250 2341992 2348368 2351536 2351021 2347806 
3702.520 2344228 2343014 2346195 2354221 2365575 2377182 2385478 2387545 
3706.377 2382160 2369969 2353114 2334324 2316042 2299964 2286987 2277772 
3710.235 2273343 2274998 2284260 2302007 2327572 2358165 2389496 2416319 
3714.092 2434033 2439834 2433491 2417224 2395143 2371910 2351812 2337683 
3717.949 2330850 2330727 2335742 2343397 2351103 2356536 2358180 2355308 
3721.807 2348381 2338775 2328755 2320697 2316730 2318156 2325317 2337488 
3725.664 2352919 2369408 2384750 2396964 2404908 2408141 2407148 2403133 
3729.522 2397625 2392253 2388436 2386963 2388237 2392072 2398117 2405707 
3733.379 2414228 2422802 2430412 2435662 2437371 2434557 2427231 2416360 
3737.237 2404042 2392789 2384966 2381716 2383042 2387637 2393679 2399622 
3741.094 2404787 2409551 2414920 2421763 2430207 2439144 2446699 2450729 
3744.951 2450100 2444885 2436771 2427900 2420514 2415759 2413764 2413470 
3748.809 2413780 2413700 2413291 2413160 2414379 2417666 2423136 2429997 
3752.666 2437061 2443003 2447067 2448985 2449097 2448035 2446568 2445278 
3756.524 2444821 2445552 2447812 2451564 2456480 2461739 2466594 2470122 
3760.381 2471945 2472147 2471237 2469491 2466897 2462581 2455366 2444048 
3764.239 2428398 2409404 2389471 2371560 2358546 2351809 2351172 2354893 
3768.096 2360678 2366490 2371532 2376283 2382074 2390035 2400445 2412012 
3771.953 2422543 2429500 2431244 2427519 2419861 2410766 2403154 2399286 
3775.811 2400112 2405319 2413576 2423079 2432191 2439578 2444490 2446479 
3779.668 2445482 2441650 2435274 2427003 2417674 2408216 2399736 2393123 
3783.526 2389218 2388353 2390489 2395107 2401215 2407389 2412520 2415908 
3787.383 2417731 2419211 2422385 2428961 2439960 2454659 2470599 2484313 
3791.240 2492306 2492585 2485287 2473076 2460098 2450421 2446713 2448900 
3795.098 2454712 2460346 2462242 2458354 2449001 2436440 2423979 2414326 
3798.955 2408821 2407109 2407439 2408000 2407501 2405826 2404047 2403445 
3802.813 2405194 2409348 2415305 2421776 2427699 2432459 2436274 2439730 
3806.670 2443521 2448080 2453307 2458766 2463969 2468611 2472818 2477001 
3810.528 2481736 2487523 2494657 2503256 2513267 2524436 2536250 2547722 
3814.385 2557515 2563756 2564812 2559499 2547907 2531485 2512966 2495562 
3818.242 2482407 2475451 2475225 2480624 2489391 2498649 2506071 2509794 
3822.100 2509301 2504873 2497525 2488375 2478632 2469299 2461353 2455617 
3825.957 2452852 2453560 2457691 2464513 2472585 2479836 2484281 2484144 
3829.815 2478854 2468887 2456085 2442971 2432213 2425909 2424888 2428775 
3833.672 2435976 2444429 2452214 2458312 2462568 2465948 2469947 2475999 
3837.530 2484918 2496498 2509670 2522614 2533508 2540647 2543227 2541246 
3841.387 2535569 2527617 2519274 2512456 2508815 2509376 2514552 2523894 
3845.244 2536266 2549922 2563181 2574464 2582825 2588069 2590672 2591424 
3849.102 2591295 2590610 2589315 2586529 2581113 2571847 2558160 2540284 
3852.959 2519516 2497968 2478051 2461927 2450986 2445628 2445454 2449312 
3856.817 2456115 2464761 2474408 2484357 2493906 2502134 2507821 2510056 
3860.674 2508227 2502619 2494581 2486243 2480111 2478226 2481757 2490343 
3864.531 2502454 2515596 2527337 2535675 2539867 2540210 2537886 2534507 
3868.389 2531492 2529739 2529573 2530565 2532117 2533330 2533659 2532685 
3872.246 2530474 2527312 2523718 2520150 2516933 2514028 2511147 2507563 
3876.104 2502804 2496624 2489334 2481821 2475323 2471014 2469665 2471068 
3879.961 2474375 2478127 2481019 2482175 2481805 2480782 2480803 2483448 
3883.819 2489959 2500782 2515541 2533049 2551739 2569743 2585386 2597241 
3887.676 2604366 2606298 2603481 2596881 2588266 2579622 2573031 2569803 
3891.533 2570723 2575428 2582818 2591428 2599727 2606429 2610801 2612448 
3895.391 2611473 2608179 2603271 2597575 2592127 2587754 2585294 2584879 
3899.248 2586261 2588601 2591099 2592798 2593407 2592887 2591947 2591151 
3903.106 2591209 2592567 2595513 2599972 2605824 2612467 2618926 2623850 
3906.963 2625607 2622618 2614250 2600818 2584241 2567307 2553250 2544371 
3910.821 2541739 2544367 2550115 2556034 2560047 2561061 2559757 2557518 
3914.678 2556030 2556147 2557897 2560372 2562703 2564863 2567840 2573454 
3918.535 2583801 2599729 2620606 2643628 2664970 2680500 2687337 2684420 
3922.393 2672802 2655058 2634195 2612894 2593108 2575802 2561649 2551361 
3926.250 2546023 2546785 2554335 2568202 2586553 2606086 2622956 2633591 
3930.108 2635950 2629873 2617577 2602543 2589093 2580931 2580401 2587941 
3933.965 2602365 2621096 2641064 2659371 2673962 2683815 2689152 2690965 
3937.823 2690699 2689782 2689276 2689526 2690399 2691298 2691574 2690670 
3941.680 2688611 2685583 2682184 2678889 2676177 2674115 2672769 2671809 
3945.537 2671086 2670416 2669640 2668399 2666401 2663060 2658110 2651499 
3949.395 2643796 2636119 2630021 2626820 2627260 2630904 2636345 2641135 
3953.252 2643000 2640103 2632217 2620484 2607565 2596413 2589784 2588902 
3957.110 2593822 2602844 2613680 2623866 2631524 2635601 2636002 2632978 
3960.967 2627156 2619173 2609936 2600738 2593483 2590533 2594381 2606777 
3964.824 2628087 2656809 2689800 2722619 2750870 2770879 2780968 2781145 
3968.682 2773372 2760493 2745634 2731133 2718594 2708339 2700153 2693410 
3972.539 2687681 2682793 2679161 2677146 2677283 2679494 2683284 2687369 
3976.397 2690277 2690456 2687222 2680748 2672640 2665239 2661398 2663073 
3980.254 2670949 2683796 2698885 2712532 2721545 2724059 2720381 2712599 
3984.112 2704118 2698277 2697249 2701291 2708968 2717628 2724639 2728122 
3987.969 2727875 2725023 2721741 2720217 2722063 2727697 2736516 2746829 
3991.826 2756755 2764412 2768456 2767836 2762469 2752531 2739000 2723127 
3995.684 2706607 2691186 2678669 2670156 2666362 2667195 2671997 2679531 
3999.541 2688466 2697297 2704690 
##END=
