##TITLE=3D-Fillies_PLA-Rainbow_Salmon-Pink_Filament_r1_ATR-Corrected
##JCAMP-DX=5.01  $$ Nicolet v. 1
##DATATYPE=INFRARED SPECTRUM
##ORIGIN=Curtin University
##OWNER=Nicolet
##LONGDATE=2024/07/18
##TIME=16:29:46
##SPECTROMETER/DATA SYSTEM=Nicolet iS50
##DATA PROCESSING=
Ratio against background
%Transmittance->Absorbance
ATR Correction
Truncated
ElementMultiply or ElementDivide
##COMMENTS=
Number of sample scans: 32
Collection length: 47.28 sec
Sample gain: 1.0
Background collected on: Thu Jul 18 16:28:23 2024 (GMT+08:00);
Number of background scans: 32
Background gain: 1.0
Sample spacing:  1.000
Number of scan points: 16672
Resolution points: 8192
Number of FFT points: 65536
Apodization: N-B strong;
Phase correction: Mertz;
Laser frequency: 15798.3 cm-1
Number of rejected sample scans: 0
Number of rejected background scans: 0
Bench serial number: AUP1200105;
##RESOLUTION=4.000
##XUNITS=1/CM
##YUNITS=ABSORBANCE
##FIRSTX=400.163452
##LASTX=4000.187744
##FIRSTY=0.053782
##MAXX=4000.187744
##MINX=400.163452
##MAXY=0.886697
##MINY=-0.034019
##XFACTOR=1.000000
##YFACTOR=1.000000E-009
##NPOINTS=7468
##DELTAX=0.482125
##ZPD=8192
##XYDATA=(X++(Y..Y))
400.163 53782420 52555940 51501400 50655832 49995576 49471928 49027780 
403.538 48620088 48232504 47873684 47566168 47326880 47151792 47012092 
406.913 46857748 46629672 46274244 45752200 45044940 44154500 43105620 
410.288 41946448 40749372 39605796 38616060 37869688 37424896 37289556 
413.663 37413616 37694480 37997076 38184556 38149384 37837008 37253396 
417.038 36456760 35537560 34594272 33712184 32948788 32330252 31853062 
420.412 31493004 31213248 30972482 30732498 30463724 30150432 29795264 
423.787 29418242 29052386 28733160 28487914 28325370 28232614 28178416 
427.162 28124000 28035542 27896374 27711034 27504796 27315086 27181994 
430.537 27137702 27200130 27367702 27620276 27918658 28211964 28443206 
433.912 28559882 28527446 28338642 28019106 27623884 27223968 26887704 
437.286 26661764 26557832 26551716 26593986 26628734 26612590 26526676 
440.661 26377856 26189662 25988158 25791684 25605252 25426250 25253938 
444.036 25097638 24980604 24933142 24980846 25131906 25368874 25650818 
447.411 25923682 26135336 26249972 26256178 26166176 26008778 25819110 
450.786 25629816 25464768 25336362 25244534 25177466 25112616 25021238 
454.161 24875546 24658862 24375384 24055160 23750280 23523046 23426246 
457.535 23485302 23686162 23977434 24284292 24530106 24657482 24641028 
460.910 24488276 24231286 23913346 23576966 23257624 22981916 22775980 
464.285 22660448 22648158 22737252 22903406 23097646 23254044 23305770 
467.660 23204818 22939458 22539992 22071150 21614434 21245298 21014480 
471.035 20938132 20998370 21153538 21350964 21540628 21684462 21760750 
474.409 21765646 21711618 21624826 21539726 21491844 21508032 21597800 
477.784 21748984 21928742 22092480 22196066 22208316 22119234 21940134 
481.159 21698402 21427244 21157468 20912316 20706956 20551680 20453558 
484.534 20416870 20440376 20514926 20623028 20742694 20854618 20949624 
487.909 21031540 21114452 21213794 21335854 21471076 21594692 21676048 
491.284 21692424 21641374 21546240 21450140 21401356 21435654 21561534 
494.658 21762690 22001096 22233482 22427096 22569400 22668606 22746416 
498.033 22826456 22923718 23039622 23162960 23274936 23355478 23387738 
501.408 23360102 23266270 23105510 22884098 22616596 22326458 22043434 
504.783 21797600 21612066 21496244 21444496 21438544 21455628 21477196 
508.158 21494418 21508876 21527704 21555444 21587910 21609526 21596506 
511.532 21524148 21375076 21144876 20843774 20493978 20124518 19766490 
514.907 19449426 19198532 19033364 18964204 18989464 19092126 19240054 
518.282 19390782 19500174 19533588 19475122 19331802 19130274 18906832 
521.657 18695882 18518894 18379208 18263626 18149286 18012838 17838570 
525.032 17620934 17369320 17100838 16837908 16604170 16421551 16307380 
528.406 16271127 16311675 16414709 16554123 16695356 16803474 16852274 
531.781 16831156 16748615 16627807 16498921 16388256 16309610 16260762 
535.156 16226422 16185438 16120132 16023224 15900852 15769864 15652210 
538.531 15567555 15527973 15535406 15582120 15653512 15731875 15799364 
541.906 15840722 15844071 15802890 15715664 15586983 15426588 15248048 
545.281 15066224 14894537 14742332 14613715 14507392 14418289 14339815 
548.655 14266773 14197147 14133176 14081397 14050474 14048913 14082215 
552.030 14149703 14244008 14351376 14454978 14539002 14593246 14615551 
555.405 14612372 14594099 14573463 14558461 14550298 14544750 14535284 
558.780 14517976 14495310 14476226 14473191 14496866 14550445 14627179 
562.155 14711954 14786333 14836074 14856435 14854530 14846317 14850404 
565.529 14880992 14942318 15027284 15120644 15204510 15264690 15294960 
568.904 15297761 15282327 15260240 15241838 15233483 15237553 15253274 
572.279 15278874 15313058 15354980 15404412 15460208 15519954 15579842 
575.654 15635354 15682474 15719011 15745757 15766818 15789200 15821941 
579.029 15873808 15951216 16055843 16183399 16323660 16462594 16585317 
582.404 16680695 16744083 16778276 16792556 16798750 16807302 16823524 
585.778 16846632 16871166 16890088 16899230 16899616 16897802 16903380 
589.153 16924794 16965824 17022676 17084774 17137758 17167812 17166662 
592.528 17133674 17076470 17008608 16945490 16900120 16880094 16886400 
595.903 16914050 16954612 16999338 17041688 17079638 17115222 17153936 
599.278 17202348 17265742 17346318 17442334 17548292 17656756 17759642 
602.652 17850040 17923356 17977218 18010742 18023614 18015828 17987900 
606.027 17942260 17884324 17823918 17774594 17752006 17770724 17841198 
609.402 17966984 18143580 18360458 18603212 18857788 19113310 19363380 
612.777 19605552 19839468 20064198 20276444 20470826 20641512 20784504 
616.152 20900692 20996340 21083138 21175048 21285826 21425510 21598998 
619.527 21805394 22039050 22291202 22551444 22809118 23054006 23277902 
622.901 23475258 23644402 23788298 23914324 24032550 24153576 24285396 
626.276 24432498 24595298 24771660 24960048 25161242 25378702 25616522 
629.651 25876436 26153818 26435884 26703434 26934532 27111386 27225170 
633.026 27279598 27289690 27277940 27268372 27281104 27328958 27417126 
636.401 27544984 27708502 27901928 28118340 28349430 28584858 28813026 
639.775 29023166 29208172 29367168 29506472 29637466 29773180 29923672 
643.150 30092666 30276600 30466314 30650676 30820308 30970516 31101818 
646.525 31219152 31329754 31441570 31563024 31702786 31870332 32075428 
649.900 32326664 32628418 32978494 33366084 33773308 34177612 34556600 
653.275 34892616 35175768 35404460 35583716 35721620 35826024 35902352 
656.650 35953264 35980600 35987312 35980260 35970472 35971692 35997688 
660.024 36057980 36155036 36282892 36428140 36574032 36704860 36810996 
663.399 36891652 36954900 37015332 37088936 37189360 37323144 37489688 
666.774 37681680 37888516 38099156 38305032 38501132 38685768 38859888 
670.149 39026176 39188792 39352728 39523540 39706104 39902720 40111028 
673.524 40323452 40528024 40711796 40865900 40989372 41091944 41192236 
676.898 41313568 41476520 41692404 41958976 42259740 42568524 42854344 
680.273 43090244 43258664 43354864 43386812 43373164 43339120 43311664 
683.648 43315388 43368652 43480676 43650220 43866244 44109976 44359604 
687.023 44595180 44802780 44977744 45124608 45254876 45382628 45520480 
690.398 45676624 45853400 46049236 46260372 46483552 46718056 46964868 
693.773 47226616 47505256 47800940 48111644 48433312 48761512 49092816 
697.147 49426152 49763656 50110424 50474264 50863612 51285912 51745728 
700.522 52243164 52772632 53323424 53880724 54427808 54948688 55430700 
703.897 55865364 56249740 56585372 56877280 57132312 57357924 57561160 
707.272 57747884 57922448 58087388 58243828 58391228 58528804 58656208 
710.647 58773336 58882660 58988240 59095876 59212044 59342868 59492972 
714.021 59665556 59861972 60083596 60333600 60619868 60958636 61376752 
717.396 61915176 62630020 63593356 64892760 66630064 68918600 71878880 
720.771 75632368 80290952 85943680 92639008 100366824 109040392 118484472 
724.146 128431856 138533856 148384992 157560624 165664976 172377120 
727.039 177487008 180910432 182681856 182927680 181831504 179599712 
729.931 176435536 172523920 168023696 163065872 157755248 152172816 
732.824 146380592 140427344 134356192 128211272 122043168 115910624 
735.717 109879408 104017840 98392320 93061968 88074944 83467336 79262368 
739.091 75472344 72099992 69140880 66584824 64417840 62622808 61179588 
742.466 60063704 59246424 58693756 58367652 58228160 58236740 58359896 
745.841 58572012 58856972 59207036 59620604 60098852 60642468 61249276 
749.216 61913236 62624424 63369452 64132468 64896040 65642440 66354356 
752.591 67016864 67618104 68150040 68606592 68982456 69270104 69458000 
755.966 69530496 69469560 69258480 68886152 68350152 67658288 66827132 
759.340 65878892 64837044 63723372 62555232 61346028 60106668 58847120 
762.715 57577996 56311484 55060240 53836092 52647992 51500640 50394064 
766.090 49324580 48286332 47273988 46284884 45319936 44383540 43481560 
769.465 42618772 41796256 41010152 40252244 39512216 38781012 38053972 
772.840 37332060 36621104 35929492 35264664 34630680 34027188 33449978 
776.214 32893806 32355100 31833832 31333790 30860998 30421436 30017988 
779.589 29648266 29303926 28971526 28634324 28275444 27881624 27445838 
782.964 26970380 26466606 25953932 25455738 24994124 24585076 24234880 
786.339 23939902 23689364 23470442 23274136 23098570 22949374 22836586 
789.714 22768766 22748480 22768882 22814952 22867004 22906346 22919276 
793.089 22898618 22842546 22750782 22621938 22452438 22238224 21979336 
796.463 21683526 21368708 21061244 20790886 20583968 20457440 20415178 
799.838 20448376 20539294 20666870 20812072 20960928 21105256 21240692 
803.213 21365394 21476758 21569700 21637740 21673524 21670572 21624810 
806.588 21536068 21407662 21247674 21067066 20878942 20695896 20528026 
809.963 20380648 20253316 20140840 20035066 19928050 19815266 19696882 
813.337 19578366 19468026 19374376 19303300 19256616 19231874 19224706 
816.712 19230524 19247274 19275766 19318358 19377806 19454112 19543500 
820.087 19639030 19732068 19815552 19886474 19947594 20006416 20072996 
823.462 20156454 20262316 20390488 20535826 20690036 20844812 20994058 
826.837 21135418 21270602 21402916 21535614 21669602 21802858 21930520 
830.212 22047090 22148678 22235102 22311340 22387456 22476714 22593232 
833.586 22747866 22946502 23187746 23463362 23760736 24066818 24372442 
836.961 24675726 24983378 25308960 25669374 26079914 26550074 27081570 
840.336 27668962 28302434 28971578 29667222 30382810 31111934 31846248 
843.711 32572764 33273894 33930228 34524640 35047212 35497736 35885508 
847.086 36225996 36535736 36828244 37111052 37387248 37658552 37929412 
850.460 38210468 38519600 38881136 39322948 39874120 40562808 41415048 
853.835 42454724 43701720 45169572 46862192 48770144 50868852 53119072 
857.210 55470872 57870112 60265528 62615024 64889312 67071728 69156400 
860.585 71144240 73039304 74846344 76569616 78213432 79782272 81281936 
863.960 82718992 84100064 85430952 86714840 87951848 89138280 90267656 
867.335 91331768 92322392 93233112 94058488 94793824 95431152 95956472 
870.709 96345800 96564776 96570240 96316016 95759560 94870336 93635032 
874.084 92060576 90173144 88014504 85636808 83096216 80448768 77745672 
877.459 75030504 72337760 69692168 67110248 64602912 62179372 59849932 
880.834 57628868 55533956 53585056 51801128 50197232 48782056 47558120 
884.209 46521648 45664196 44973204 44432612 44023060 43722128 43506124 
887.583 43352176 43241604 43161580 43106864 43077672 43077792 43110784 
890.958 43177660 43275372 43396912 43533040 43672556 43803332 43912292 
894.333 43986056 44011856 43980292 43887940 43739984 43550664 43340628 
897.708 43132568 42945400 42789816 42666992 42568912 42483984 42401000 
901.083 42313244 42220440 42127584 42042312 41971952 41920804 41889684 
904.458 41876316 41875924 41882920 41891520 41896816 41895672 41887720 
907.832 41876160 41868164 41873796 41904544 41970340 42078152 42230328 
911.207 42425704 42660684 42931148 43233324 43563748 43917936 44288968 
914.582 44667352 45040544 45396368 45723840 46016408 46272004 46492956 
917.957 46683876 46851012 47000376 47138112 47269996 47401512 47536632 
921.332 47676848 47819968 47959980 48088460 48197824 48284540 48351368 
924.706 48408528 48471040 48555752 48676488 48841160 49050228 49297396 
928.081 49572728 49865680 50168332 50476412 50789560 51109368 51437428 
931.456 51773012 52111328 52443600 52757684 53040436 53280372 53470632 
934.831 53611040 53707876 53772580 53818416 53856476 53892976 53927440 
938.206 53954144 53964644 53952188 53914184 53854972 53784908 53718436 
941.581 53671316 53657228 53686148 53763032 53888064 54057664 54266164 
944.955 54507004 54775264 55068748 55389404 55743444 56140008 56588996 
948.330 57098252 57670600 58303136 58987080 59709848 60457264 61215512 
951.705 61971208 62711032 63419400 64077392 64662276 65149040 65513044 
955.080 65732464 65790356 65675168 65379700 64900824 64238712 63398540 
958.455 62393492 61246404 59991036 58669728 57329596 56015768 54765628 
961.829 53605124 52547784 51596364 50747788 49996812 49339656 48774884 
965.204 48302144 47919948 47623000 47401568 47241604 47127660 47045584 
968.579 46985392 46943080 46919992 46920868 46951132 47014232 47109696 
971.954 47232976 47376252 47531240 47691140 47852412 48015708 48184296 
975.329 48362880 48554704 48760508 48977076 49198860 49418892 49631856 
978.703 49835368 50032112 50228360 50433548 50657208 50906660 51184912 
982.078 51489868 51814816 52150432 52487236 52818372 53140876 53456380 
985.453 53769720 54086752 54412512 54748832 55095060 55448808 55806836 
988.828 56167996 56533700 56907684 57294988 57700364 58127596 58579000 
992.203 59056312 59561416 60097092 60666104 61270540 61910784 62585196 
995.578 63291304 64027392 64795284 65600268 66451028 67355904 68319536 
998.952 69338688 70402184 71491840 72587712 73673416 74740576 75791744 
1002.327 76839272 77901896 79001784 80160208 81396792 82729208 84174440 
1005.702 85749304 87470824 89355456 91418528 93673920 96136080 98822360 
1009.077 101755184 104964784 108489288 112373456 116666856 121418448 
1011.970 126672520 132461368 138795568 145652176 152961136 160593232 
1014.862 168354096 175989120 183202032 189687904 195175936 199472352 
1017.755 202493712 204280992 204991744 204869776 204205376 203291872 
1020.648 202389808 201703344 201371920 201473552 202036112 203051664 
1023.540 204491648 206316720 208483776 210948672 213668000 216599536 
1026.433 219705264 222955488 226333520 229838048 233484368 237300448 
1029.326 241320112 245575616 250090000 254874048 259925360 265232032 
1032.219 270776928 276541952 282509568 288663104 294983872 301447968 
1035.113 308023520 314669088 321332608 327952000 334456096 340766848 
1038.006 346803712 352488992 357754048 362544512 366823296 370568192 
1040.899 373768704 376418976 378513024 380042816 381001248 381384832 
1043.792 381199584 380462496 379200352 377446816 375239168 372615392 
1046.685 369615264 366283008 362670112 358837248 354852320 350787136 
1049.578 346711360 342686816 338763424 334976736 331348288 327886304 
1052.471 324587392 321439520 318424224 315521312 312712928 309988448 
1055.364 307348704 304808576 302397632 300158272 298141952 296406464 
1058.257 295013248 294025248 293507488 293526432 294149792 295444416 
1061.150 297473568 300292896 303947552 308468896 313875968 320175456 
1064.043 327364448 335433632 344368704 354150592 364755808 376154400 
1066.936 388309408 401175904 414701376 428826912 443488896 458621312 
1069.829 474157824 490032480 506179808 522532768 539020672 555567936 
1072.722 572093248 588513600 604748480 620725184 636382016 651669504 
1075.615 666544960 680969984 694904128 708306816 721137856 733364800 
1078.509 744964288 755920256 766216704 775826240 784699392 792759616 
1081.402 799907456 806031936 811027776 814811520 817334784 818589312 
1084.295 818604672 817441152 815179456 811907264 807710976 802668672 
1087.188 796850432 790321280 783150656 775418624 767219968 758660032 
1090.081 749845248 740868608 731798784 722674304 713507712 704295808 
1092.974 695033152 685722240 676378560 667025344 657686144 648375808 
1095.867 639094464 629830080 620562880 611272960 601946624 592576896 
1098.760 583161984 573700800 564188736 554616768 544974080 535250976 
1101.653 525443744 515557344 505606304 495613536 485609408 475630752 
1104.546 465720032 455925152 446299648 436901056 427790816 419033856 
1107.439 410698176 402854560 395575584 388933376 382995200 377817504 
1110.332 373440224 369880768 367131584 365159712 363910464 363312256 
1113.225 363284032 363741536 364603008 365793376 367245472 368901376 
1116.118 370713280 372641760 374657248 376738912 378875456 381063520 
1119.011 383307808 385617568 388004192 390476992 393039392 395684640 
1121.905 398393920 401135072 403864160 406528032 409066304 411414688 
1124.798 413506176 415273152 416649536 417574304 417997632 417885856 
1127.691 417227680 416033408 414332544 412166752 409579232 406606688 
1130.584 403273920 399591616 395560448 391173120 386419360 381287456 
1133.477 375765856 369843808 363513056 356770208 349620960 342083008 
1136.370 334185952 325971040 317486944 308786208 299922400 290948992 
1139.263 281919936 272891328 263922208 255073968 246408112 237983856 
1142.156 229853984 222065280 214656560 207660080 201103328 195009184 
1145.049 189396336 184277600 179658480 175536096 171898784 168727392 
1147.942 165998176 163685200 161763984 160213216 159015584 158156704 
1150.835 157624736 157407584 157491984 157861216 158495104 159369312 
1153.728 160457280 161730144 163159632 164720304 166391024 168156224 
1156.621 170006144 171935664 173942640 176026288 178185568 180418880 
1159.514 182724960 185102992 187555184 190086768 192707264 195429584 
1162.407 198269536 201245056 204375056 207679392 211178560 214896192 
1165.301 218858560 223097200 227649392 232558928 237875104 243652496 
1168.194 249948528 256822352 264333152 272539776 281499616 291269824 
1171.087 301905440 313460448 325984992 339522048 354101920 369735712 
1173.980 386405632 404054720 422577664 441812160 461533280 481454336 
1176.873 501232864 520482656 538794880 555758528 570987392 584142208 
1179.766 594951744 603230592 608888128 611932416 612464320 610663488 
1182.659 606767232 601046848 593785920 585265088 575751488 565495808 
1185.552 554729408 543661312 532475008 521322720 510323360 499563136 
1188.445 489100416 478974464 469214976 459848288 450900352 442396672 
1191.338 434357216 426794144 419709056 413094624 406937088 401220864 
1194.231 395930752 391053376 386575808 382484672 378763968 375395968 
1197.124 372362144 369645920 367234016 365117248 363288800 361742784 
1200.017 360470688 359459040 358688672 358133472 357761760 357537632 
1202.910 357422944 357379680 357371456 357367008 357339840 357267712 
1205.803 357131616 356913536 356594784 356156000 355578080 354843968 
1208.697 353940992 352860672 351597856 350147584 348502720 346652832 
1211.590 344585792 342292192 339769600 337026496 334082592 330966880 
1214.483 327711168 324346432 320897856 317385504 313824928 310230912 
1217.376 306619712 303010208 299422176 295875200 292385152 288963872 
1220.269 285618976 282355232 279175584 276082720 273079136 270166784 
1223.162 267347568 264621520 261987984 259445600 256991232 254621360 
1226.055 252331232 250115248 247968400 245887872 243873424 241929184 
1228.948 240062848 238284592 236604144 235030960 233571216 232230400 
1231.841 231012864 229924448 228972304 228165408 227513440 227024928 
1234.734 226707056 226565264 226602816 226821408 227220784 227797984 
1237.627 228546288 229455872 230512608 231701712 233008592 234421328 
1240.520 235930432 237527472 239200944 240934128 242701328 244469440 
1243.413 246200416 247855600 249401568 250813664 252077408 253188336 
1246.306 254150688 254974896 255676560 256274080 256788432 257241312 
1249.199 257652944 258040432 258417344 258793152 259175840 259574240 
1252.093 259999632 260467120 260993328 261594800 262283088 263063552 
1254.986 263933632 264885568 265907968 266990096 268124224 269306912 
1257.879 270538816 271823040 273162944 274560288 276012608 277514112 
1260.772 279053760 280616448 282183040 283731744 285238848 286679488 
1263.665 288027936 289258144 290343360 291257344 291974208 292471424 
1266.558 292728736 292729824 292459936 291905472 291051904 289883168 
1269.451 288383712 286541440 284352096 281822592 278972352 275831168 
1272.344 272435040 268821152 265022064 261064080 256966624 252744384 
1275.237 248410256 243978800 239466384 234892896 230279056 225645728 
1278.130 221012496 216396288 211812304 207274464 202795552 198388960 
1281.023 194068096 189845232 185732208 181738720 177871920 174136848 
1283.916 170536672 167074464 163753680 160578848 157556208 154692560 
1286.809 151994608 149466560 147109856 144922128 142896304 141022496 
1289.702 139288352 137681040 136189280 134804048 133520008 132334512 
1292.595 131247640 130259784 129369360 128571840 127858696 127217440 
1295.489 126632648 126089320 125573960 125077504 124595760 124129880 
1298.382 123683832 123264128 122876576 122525552 122212584 121936312 
1301.275 121693320 121477568 121281512 121096688 120913752 120723584 
1304.168 120517352 120287896 120030272 119741688 119420824 119067968 
1307.061 118683104 118265512 117813224 117323264 116791696 116214472 
1309.954 115588312 114910064 114177128 113387504 112539880 111634128 
1312.847 110672488 109660528 108607976 107528736 106440488 105362688 
1315.740 104314912 103314344 102373856 101500720 100696072 99955632 99270672 
1319.115 98630232 98022672 97437544 96867352 96307760 95758952 95224280 
1322.490 94710032 94223776 93773088 93364176 93000888 92684576 92414336 
1325.866 92187664 92001576 91853544 91742064 91667896 91634144 91646768 
1329.241 91714824 91850240 92066816 92378240 92795352 93323648 93961296 
1332.616 94699048 95521528 96410312 97347456 98317880 99310536 100317576 
1335.991 101331968 102344432 103343088 104312336 105236288 106101928 
1338.885 106902128 107638400 108320256 108963552 109585896 110204200 
1341.778 110831384 111476280 112145072 112843496 113580128 114366560 
1344.671 115218592 116153456 117187792 118334296 119600280 120985984 
1347.564 122485400 124086880 125776168 127537072 129354360 131213976 
1350.457 133102792 135008096 136916448 138811744 140675504 142487168 
1353.350 144224960 145869072 147402992 148815280 150099520 151253472 
1356.243 152276448 153167680 153925072 154547200 155033792 155389984 
1359.136 155627104 155762688 155818160 155815600 155773376 155704272 
1362.029 155615360 155509040 155386368 155248128 155094864 154925472 
1364.922 154733152 154503440 154211952 153826464 153309968 152624464 
1367.815 151737456 150624992 149275936 147694800 145904176 143946128 
1370.708 141883008 139796000 137781808 135945744 134394608 133227048 
1373.601 132526960 132356288 132752032 133723648 135253408 137297696 
1376.494 139788816 142637696 145738096 148971456 152214640 155347168 
1379.387 158258960 160855808 163061216 164815904 166075296 166807520 
1382.281 166992192 166619600 165693088 164228960 162255872 159813024 
1385.174 156947184 153710288 150157376 146345152 142330528 138169520 
1388.067 133915480 129617304 125316944 121048848 116837856 112700424 
1390.960 108644568 104673520 100788328 96992408 93294968 89712320 86267840 
1394.335 82988384 79900664 77026392 74379568 71965296 69781928 67822432 
1397.710 66077388 64535260 63184112 62011120 61004312 60153748 59455080 
1401.085 58910628 58531052 58332284 58332756 58547500 58983496 59636752 
1404.461 60489936 61513340 62666356 63898236 65150148 66355808 67443872 
1407.836 68341528 68980248 69302552 69269640 68866664 68104864 67020036 
1411.211 65667124 64112948 62427560 60677688 58922172 57209140 55575500 
1414.586 54047516 52641536 51365640 50221292 49204720 48308560 47523208 
1417.962 46838784 46245352 45734540 45299436 44935744 44640888 44414280 
1421.337 44255928 44165580 44141176 44177048 44263856 44388008 44533048 
1424.712 44682016 44820240 44937792 45031852 45107568 45177484 45260212 
1428.087 45377516 45552460 45806100 46156568 46617800 47200028 47910260 
1431.463 48753136 49731696 50848148 52103764 53499868 55038048 56720884 
1434.838 58552228 60538100 62686480 65008760 67519944 70239288 73190000 
1438.213 76398008 79888800 83685296 87802912 92248448 97017840 102096784 
1441.588 107461320 113078072 118904616 124887664 130962344 137053968 
1444.481 143080000 148956848 154605632 159957872 164957632 169563104 
1447.375 173745328 177487488 180784096 183639856 186068384 188087760 
1450.268 189716864 190971536 191861920 192393296 192567392 192384912 
1453.161 191845376 190946816 189683360 188044864 186018640 183594112 
1456.054 180768720 177551888 173966112 170043072 165818352 161326640 
1458.947 156599968 151670080 146571920 141346064 136037968 130694432 
1461.840 125357432 120061656 114832880 109691104 104655152 99745448 94986576 
1465.215 90403304 86018504 81849288 77906432 74194976 70716504 67471488 
1468.590 64458808 61676216 59118544 56776712 54638548 52689124 50912436 
1471.966 49291196 47807012 46439436 45167184 43968600 42824988 41723032 
1475.341 40656144 39624128 38631056 37681036 36775788 35913384 35088188 
1478.716 34294076 33526316 32782886 32064382 31372234 30706244 30064286 
1482.091 29441378 28832244 28232950 27642252 27061924 26495694 25947428 
1485.467 25420630 24917722 24440612 23991988 23574560 23191888 22846084 
1488.842 22536610 22260542 22011834 21785126 21575760 21383032 21208720 
1492.217 21056868 20931054 20833272 20762532 20716074 20690600 20684132 
1495.592 20697250 20734064 20801102 20906504 21058464 21264704 21531378 
1498.968 21862988 22262156 22728602 23258006 23840934 24461716 25097120 
1502.343 25717226 26286142 26764560 27113662 27300478 27303042 27115100 
1505.718 26749428 26236176 25618606 24944786 24259626 23598176 22983050 
1509.093 22425344 21928060 21489364 21106558 20776132 20494384 20256336 
1512.469 20055068 19883022 19733340 19601114 19484384 19382850 19296772 
1515.844 19225186 19164260 19108788 19052242 18990234 18920940 18846732 
1519.219 18772440 18704372 18648022 18607142 18583492 18576726 18585104 
1522.594 18605832 18635080 18668240 18700274 18726248 18742822 18748386 
1525.969 18743910 18732092 18716150 18698220 18678556 18655332 18625790 
1529.345 18587266 18538812 18481204 18416266 18346488 18273646 18198522 
1532.720 18121266 18042564 17963556 17886960 17815442 17751350 17695374 
1536.095 17646266 17601724 17558516 17514338 17468724 17422816 17379972 
1539.470 17344688 17322106 17316740 17332060 17369038 17425380 17495136 
1542.846 17568930 17635210 17681892 17699600 17683268 17632856 17553660 
1546.221 17453600 17341236 17223926 17106512 16991412 16880626 16776050 
1549.596 16680736 16598592 16533565 16488513 16464613 16460508 16473318 
1552.971 16498681 16531074 16564695 16593376 16611302 16614286 16600419 
1556.347 16571369 16532049 16490320 16454650 16432445 16427582 16440127 
1559.722 16466234 16500086 16535914 16569326 16598305 16622206 16642084 
1563.097 16658951 16674763 16692119 16714266 16745085 16788472 16846134 
1566.472 16917190 16997450 17080584 17159886 17230558 17292050 17348776 
1569.848 17409598 17485408 17586682 17720732 17890274 18092798 18322316 
1573.223 18570474 18828940 19089854 19347746 19597990 19836542 20058588 
1576.598 20257374 20423926 20547736 20618352 20627778 20573048 20457786 
1579.973 20292704 20094236 19881632 19673494 19483300 19318278 19178970 
1583.349 19061072 18958444 18866068 18781576 18705684 18640330 18587462 
1586.724 18546774 18514594 18484554 18449952 18404468 18345058 18272848 
1590.099 18193408 18115064 18047880 18000628 17979444 17986082 18018614 
1593.474 18071052 18136044 18206340 18276080 18342450 18405930 18469502 
1596.850 18538278 18618566 18717018 18839644 18991324 19174388 19388672 
1600.225 19630738 19894530 20172720 20458990 20749104 21042238 21340920 
1603.600 21649328 21971710 22309572 22661138 23021060 23381808 23734802 
1606.975 24072354 24387598 24674570 24927026 25138988 25303470 25414870 
1610.351 25469730 25468506 25416110 25320938 25193992 25046274 24887146 
1613.726 24723582 24560292 24399154 24241172 24086008 23932560 23779828 
1617.101 23627588 23477288 23333080 23201952 23092332 23012710 22967874 
1620.476 22958122 22977606 23015468 23059182 23096920 23121008 23129212 
1623.852 23124180 23110914 23095358 23081126 23069772 23060860 23053384 
1627.227 23047234 23044148 23047630 23062482 23093288 23143192 23213218 
1630.602 23300868 23400420 23503556 23600282 23682022 23742392 23779624 
1633.977 23796662 23799876 23797600 23796324 23799750 23807890 23817426 
1637.353 23825002 23828316 23827978 23825896 23825264 23827440 23832086 
1640.728 23836450 23838900 23838872 23839462 23846400 23865674 23901226 
1644.103 23953416 24017862 24087872 24156910 24221076 24280318 24337730 
1647.478 24397098 24461130 24530402 24603674 24680040 24760702 24849170 
1650.854 24949530 25065088 25194612 25332618 25470328 25598658 25713336 
1654.229 25816164 25915130 26021282 26144332 26290068 26458858 26647152 
1657.604 26849736 27062116 27281990 27507812 27738000 27969416 28197310 
1660.979 28417842 28630996 28842216 29063006 29307168 29586910 29908050 
1664.354 30267746 30655492 31057830 31462916 31864468 32263744 32668024 
1667.730 33086396 33526070 33989148 34472944 34971032 35475192 35978808 
1671.105 36476352 36964884 37442516 37908868 38365548 38816488 39267896 
1674.480 39727384 40202124 40696444 41210468 41740712 42280872 42825312 
1677.855 43370792 43917332 44467880 45025944 45594560 46174952 46766624 
1681.231 47368108 47978684 48597656 49224576 49858388 50496600 51135900 
1684.606 51774220 52411932 53052820 53703856 54374224 55072548 55805928 
1687.981 56579388 57397024 58262088 59180140 60156644 61196724 62304072 
1691.356 63479832 64724192 66038288 67427272 68902080 70478688 72175448 
1694.732 74008928 75990520 78125880 80417000 82869512 85497904 88329736 
1698.107 91406328 94777712 98495992 102608360 107153464 112160992 117657928 
1701.482 123676544 130260976 137470432 145377984 154061392 163597088 
1704.375 174051744 185477248 197909536 211368032 225855328 241353552 
1707.268 257820480 275185792 293352256 312202048 331607744 351440064 
1710.161 371570528 391864128 412164608 432279808 451973280 470971424 
1713.054 488981888 505722656 520952288 534496128 546264192 556260736 
1715.948 564583424 571413376 576987200 581562624 585376704 588610176 
1718.841 591374656 593716992 595644224 597152256 598244608 598941248 
1721.734 599269440 599250752 598893248 598195008 597157440 595804800 
1724.627 594194176 592410688 590552192 588705280 586924800 585227072 
1727.520 583597696 582007744 580431488 578858112 577293312 575751296 
1730.413 574250304 572807168 571442752 570187520 569087168 568201728 
1733.306 567596352 567330176 567446336 567973696 568934400 570360640 
1736.199 572307776 574857920 578113600 582183552 587164096 593127808 
1739.092 600117184 608151168 617232704 627357696 638514560 650678784 
1741.985 663803136 677809984 692589248 708004096 723897664 740098176 
1744.878 756417728 772645888 788546880 803866496 818349568 831767104 
1747.771 843937664 854736320 864082560 871917440 878176768 882781632 
1750.664 885645760 886697152 885902208 883274304 878863168 872732032 
1753.557 864932672 855495424 844438592 831791168 817616256 802027264 
1756.450 785184320 767277824 748504768 729051456 709088512 688770560 
1759.344 668245120 647658624 627153600 606862656 586902528 567368384 
1762.237 548334464 529857088 511979712 494735104 478146368 462225184 
1765.130 446971360 432375712 418423296 405100512 392396832 380305184 
1768.023 368815296 357908000 347548320 337685248 328255904 319195072 
1770.916 310443072 301954592 293698048 285653568 277804960 270134112 
1773.809 262616688 255224192 247927360 240702240 233532512 226410832 
1776.702 219335280 212305104 205317552 198366464 191443760 184543696 
1779.595 177666480 170821680 164027792 157311536 150703536 144235520 
1782.488 137935792 131828992 125933008 120259704 114815664 109602160 
1785.381 104618328 99864480 95342744 91058600 87019096 83229496 79689792 
1788.756 76391504 73319856 70455584 67780824 65283016 62956312 60798972 
1792.132 58808648 56977692 55291888 53732700 52281488 50926044 49662400 
1795.507 48493404 47422756 46448916 45560368 44736636 43951800 43183144 
1798.882 42416988 41651324 40893424 40154892 39445736 38771352 38132164 
1802.257 37526628 36954308 36417152 35917628 35456000 35027856 34623600 
1805.633 34231152 33841256 33450854 33063628 32686558 32325522 31979382 
1809.008 31639636 31292934 30927552 30540072 30138800 29740956 29366532 
1812.383 29030720 28737176 28478408 28240020 28007926 27775470 27545080 
1815.758 27327212 27133270 26969416 26831796 26708388 26581884 26437326 
1819.134 26266918 26071342 25857578 25634978 25410820 25190164 24973874 
1822.509 24762392 24554028 24347984 24141192 23930606 23712614 23485910 
1825.884 23252610 23019688 22795564 22586766 22393052 22206510 22010316 
1829.259 21786598 21521774 21211932 20864688 20497182 20127724 19772434 
1832.635 19437836 19123796 18825208 18537644 18262164 18004360 17773676 
1836.010 17579754 17425142 17307550 17217034 17139670 17059782 16962806 
1839.385 16835974 16671250 16464455 16218457 15942907 15653988 15371745 
1842.760 15115461 14899315 14728788 14600270 14504192 14428928 14366142 
1846.135 14310364 14259167 14208008 14150407 14074333 13969867 13831520 
1849.511 13667562 13497818 13352023 13260229 13242730 13301197 13418048 
1852.886 13558008 13680076 13747362 13737564 13646748 13489443 13293457 
1856.261 13091729 12915386 12787567 12718601 12705578 12731583 12769992 
1859.636 12788704 12758146 12658312 12485352 12254040 11995560 11750741 
1863.012 11559905 11451297 11435029 11498387 11610232 11728858 11812619 
1866.387 11830731 11770586 11639551 11462395 11272382 11101522 10970974 
1869.762 10885837 10834824 10796788 10748809 10677178 10582329 10481155 
1873.137 10400435 10368593 10405033 10514035 10681136 10878773 11072589 
1876.513 11230238 11327645 11352063 11302487 11187199 11020440 10822456 
1879.888 10616280 10427780 10281445 10196218 10181723 10233272 10331345 
1883.263 10445214 10538418 10579564 10547417 10438575 10266108 10058539 
1886.638 9851106 9680187 9574135 9549239 9604793 9727130 9890479 10066874 
1890.496 10226839 10349989 10422505 10438684 10396894 10300085 10153504 
1893.871 9969209 9767015 9576455 9431956 9365676 9395510 9516459 9697841 
1897.729 9890873 10041644 10112144 10092353 10006737 9904839 9844769 9870214 
1901.586 9995979 10200107 10434966 10641328 10770272 10793259 10710141 
1904.961 10539659 10310764 10049024 9773107 9492417 9214746 8949106 8709488 
1908.819 8511986 8371685 8293459 8273881 8298478 8351357 8414824 8478198 
1912.676 8534564 8582635 8618495 8637393 8629376 8584428 8492073 8344594 
1916.533 8138460 7875141 7562852 7216808 6859775 6520850 6231099 6018123 
1920.391 5900502 5883781 5958603 6107998 6310695 6551036 6820091 7116814 
1924.248 7442157 7791474 8146328 8477401 8743051 8901810 8921784 8791697 
1928.106 8525767 8163899 7762271 7383012 7076865 6872887 6770627 6741351 
1931.963 6739808 6720707 6655311 6543726 6412923 6308485 6270464 6313245 
1935.821 6412725 6509681 6523977 6387249 6069063 5593346 5036754 4507060 
1939.678 4112724 3932636 3993499 4271690 4701666 5200700 5683556 6080227 
1943.535 6339074 6427352 6331509 6061143 5649321 5157186 4661528 4241893 
1947.393 3954231 3817825 3807487 3868168 3939071 3985932 4019705 4099411 
1951.250 4312816 4743417 5429722 6347768 7402511 8450192 9328612 9901546 
1955.108 10081547 9854578 9274327 8455895 7549660 6716049 6094654 5777799 
1958.965 5790658 6087648 6552395 7036941 7389214 7496576 7307353 6835878 
1962.823 6147195 5339001 4502658 3710128 2999992 2386927 1866030 1432044 
1966.680 1084445 833758 686561 654360 736705 923982 1188825 1491934 1782017 
1971.020 2009628 2130994 2134135 2037240 1898117 1790661 1790902 1949403 
1974.877 2279686 2752396 3323907 3954686 4637665 5399307 6290043 7339456 
1978.734 8537379 9812634 11051596 12125114 12928908 13398288 13527063 
1982.110 13347580 12924558 12318566 11585672 10760792 9872051 8945717 
1985.485 8025645 7168608 6444486 5911234 5608337 5530348 5631283 5824155 
1989.342 5999707 6046305 5874400 5427675 4705562 3751168 2652154 1519479 
1993.200 469602 -393667 -995455 -1298768 -1309643 -1078133 -685883 -250611 
1997.057 101969 252195 119762 -315723 -988534 -1753052 -2405466 -2731771 
2000.915 -2567857 -1852349 -654203 826961 2320217 3544135 4289321 4464749 
2004.772 4121453 3430345 2633064 1963234 1594616 1587870 1898183 2392409 
2008.629 2905180 3279173 3407221 3242577 2802374 2148079 1372464 565681 
2012.487 -195546 -866199 -1427173 -1893714 -2280218 -2600511 -2847032 
2015.862 -2997490 -3019778 -2892567 -2605555 -2174476 -1617368 -957287 
2019.237 -203492 630930 1523739 2413252 3204411 3765086 3975873 3763920 
2023.095 3147393 2239706 1228829 312571 -358275 -743129 -908347 -1007356 
2026.952 -1203584 -1607544 -2217826 -2931469 -3565273 -3945536 -3952767 
2030.327 -3576190 -2901153 -2075290 -1246714 -519998 77590 574005 1031740 
2034.185 1489659 1944790 2332963 2559069 2523141 2171856 1507125 612047 
2038.042 -378802 -1300697 -1998178 -2349035 -2303077 -1875744 -1158200 
2041.417 -286126 583157 1312937 1812287 2056766 2087049 1999286 1906329 
2045.275 1925454 2138548 2588587 3269222 4135694 5111633 6099554 6988466 
2049.132 7674585 8063414 8094098 7740860 7025525 6014068 4815148 3567434 
2052.990 2430073 1557692 1076966 1061544 1519778 2391819 3561811 4880818 
2056.847 6191893 7347007 8231896 8771184 8943262 8779427 8359875 7793924 
2060.705 7200673 6675858 6275949 6003479 5818937 5659935 5471857 5228287 
2064.562 4951858 4698083 4542203 4540235 4711560 5022030 5397319 5741840 
2068.419 5978952 6068401 6024051 5900983 5778978 5725566 5778423 5928247 
2072.277 6127726 6308048 6407955 6393184 6273764 6096790 5937143 5864453 
2076.134 5925914 6124487 6420015 6739009 7004554 7157353 7183663 7113589 
2079.992 7016542 6968291 7023061 7188516 7419449 7629256 7725121 7637591 
2083.849 7354626 6923519 6440798 6018204 5747974 5668823 5762600 5956384 
2087.707 6154825 6268054 6237100 6043341 5706141 5266513 4774323 4272011 
2091.564 3798972 3386976 3069510 2875481 2828620 2932347 3166970 3483001 
2095.421 3819363 4114918 4334070 4473711 4563990 4652991 4784602 4977958 
2099.279 5221738 5476333 5693582 5838477 5907643 5933178 5972957 6086881 
2103.136 6311656 6638942 7015105 7353144 7561278 7574897 7383029 7031512 
2106.994 6615489 6246919 6023281 5995478 6159191 6459753 6816960 7150931 
2110.851 7411705 7584145 7687052 7754374 7814244 7874783 7920093 7916176 
2114.708 7826325 7623722 7299888 6866102 6348357 5776881 5183274 4594929 
2118.566 4036516 3528296 3089951 2730727 2450304 2231968 2048383 1864681 
2122.423 1653176 1399849 1113370 818187 550009 340872 208879 149751 140978 
2126.763 145661 124547 42369 -123036 -381903 -728648 -1154282 -1639588 
2130.620 -2168032 -2722884 -3291941 -3864143 -4430484 -4979585 -5492842 
2133.996 -5943174 -6299303 -6531421 -6623029 -6578922 -6431955 -6234055 
2137.371 -6052132 -5946385 -5959061 -6105227 -6373370 -6729048 -7132322 
2140.746 -7540668 -7929113 -8287402 -8628695 -8977824 -9372813 -9845048 
2144.121 -10410135 -11051813 -11717346 -12317113 -12750271 -12927240 
2147.014 -12809257 -12420652 -11867650 -11303164 -10906213 -10826021 
2149.907 -11159317 -11931618 -13105941 -14595864 -16296964 -18098288 
2152.801 -19904022 -21635710 -23247286 -24727200 -26113110 -27476042 
2155.694 -28896904 -30404162 -31933788 -33259198 -34019044 -33777276 
2158.587 -32196152 -29179120 -24978290 -20133830 -15318682 -11113296 
2161.480 -7881821 -5715959 -4493017 -3966669 -3881540 -4040113 -4340643 
2164.855 -4765322 -5338604 -6079781 -6977100 -7972775 -8979365 -9895999 
2168.230 -10644319 -11167313 -11446747 -11495735 -11359771 -11102049 
2171.123 -10794503 -10496465 -10248316 -10048350 -9874112 -9689572 -9480595 
2174.499 -9273688 -9142512 -9177516 -9460456 -10003190 -10739625 -11527486 
2177.874 -12192886 -12577120 -12585817 -12201056 -11472039 -10481618 
2180.767 -9318234 -8052011 -6745340 -5471437 -4330309 -3442248 -2927444 
2184.142 -2852121 -3202321 -3871800 -4693298 -5488309 -6129919 -6568180 
2187.517 -6840514 -7022154 -7186855 -7358582 -7513657 -7591614 -7542813 
2190.893 -7354262 -7069021 -6752128 -6466448 -6228408 -6005295 -5728496 
2194.268 -5338864 -4819475 -4218040 -3624729 -3141032 -2829378 -2690053 
2197.643 -2660365 -2648893 -2568401 -2378417 -2081568 -1716465 -1322523 
2201.018 -919429 -492660 -21084 505614 1052636 1544854 1880225 1974677 
2204.876 1791094 1363989 784956 177065 -357326 -754794 -1011546 -1158149 
2208.733 -1234707 -1255079 -1199783 -1015138 -648138 -67763 704661 1594619 
2212.591 2489097 3267956 3832679 4130880 4157277 3955143 3588427 3129245 
2216.448 2635767 2151603 1700075 1298672 953543 672536 458358 309759 216890 
2220.788 165274 139620 135013 157870 236056 403443 690954 1110283 1642786 
2225.127 2236331 2823989 3343722 3763677 4095072 4392173 4726880 5162571 
2228.985 5713564 6336705 6926730 7353464 7496572 7290419 6747810 5963154 
2232.842 5086353 4286219 3702794 3419920 3446738 3726454 4159756 4634158 
2236.699 5051113 5343726 5482652 5474884 5347105 5140830 4896546 4652294 
2240.557 4441258 4292895 4234369 4288475 4466801 4769792 5176123 5646807 
2244.414 6127496 6562051 6900929 7115484 7195286 7148086 6990770 6741395 
2248.272 6413618 6025237 5598692 5174773 4808697 4566808 4507316 4663808 
2252.129 5032627 5569788 6200171 6837919 7406445 7854153 8158272 8321665 
2255.987 8361363 8300342 8161328 7970394 7754081 7544282 7369955 7254555 
2259.844 7203153 7206802 7240786 7281504 7311896 7331277 7351571 7390233 
2263.701 7457629 7552800 7660876 7764999 7854346 7934428 8023559 8146060 
2267.559 8315904 8527840 8752496 8948168 9073000 9105442 9049980 8941575 
2271.416 8828351 8761721 8777482 8891189 9094958 9366085 9674152 9991123 
2275.274 10292713 10564415 10796277 10987098 11140724 11265124 11368289 
2278.649 11458066 11537497 11607032 11667656 11726931 11802296 11919620 
2282.024 12107114 12383468 12745207 13163427 13584374 13945644 14190845 
2285.399 14288321 14237785 14071279 13837423 13590157 13371504 13204820 
2288.775 13093875 13028312 12993164 12974067 12962188 12954303 12948106 
2292.150 12942522 12934009 12917872 12887486 12838298 12767226 12673175 
2295.525 12558606 12430523 12299320 12177631 12078635 12011816 11980192 
2298.900 11980932 12005650 12047268 12101865 12171845 12263698 12383007 
2302.276 12529338 12693287 12856483 12997267 13099685 13159680 13185725 
2305.651 13198236 13218339 13261216 13329286 13412886 13493426 13552839 
2309.026 13579476 13573392 13543488 13506356 13479609 13480013 13520015 
2312.401 13608798 13751153 13945422 14183190 14448027 14717012 14966008 
2315.777 15174042 15330537 15434976 15497050 15530922 15552561 15577017 
2319.152 15621773 15707608 15861809 16111173 16473643 16943002 17479388 
2322.527 18007342 18428790 18646044 18586854 18226162 17592162 16758295 
2325.902 15826214 14900792 14068392 13382833 12860235 12483886 12218019 
2329.278 12022788 11864767 11724437 11595080 11477950 11377114 11296168 
2332.653 11237234 11200710 11187701 11198068 11230804 11280217 11337479 
2336.028 11389363 11422952 11427813 11400097 11342132 11264245 11180379 
2339.403 11105728 11053232 11030584 11038657 11072300 11119762 11166223 
2342.779 11196933 11200335 11170921 11111107 11029909 10939891 10854787 
2346.154 10785213 10738005 10715063 10717344 10742736 10788903 10852157 
2349.529 10925117 10997090 11054293 11084357 11080015 11043292 10987729 
2352.904 10934507 10906957 10922909 10986565 11087083 11199723 11292610 
2356.280 11336049 11310102 11209843 11045508 10838806 10616588 10403483 
2359.655 10218449 10070091 9957942 9874117 9804954 9736638 9656603 9557732 
2363.512 9439548 9309078 9178411 9064309 8981321 8941480 8949946 9004692 
2367.370 9097843 9217476 9350474 9483068 9603844 9702730 9772643 9810080 
2371.227 9816754 9800265 9773931 9755204 9761712 9807123 9897185 10026935 
2375.084 10183454 10347771 10501123 10628145 10722052 10782490 10816124 
2378.460 10831937 10838831 10842304 10845297 10847573 10848018 10844235 
2381.835 10834388 10816243 10787877 10746815 10693447 10630801 10565421 
2385.210 10506961 10466687 10452591 10468441 10511304 10572243 10640806 
2388.585 10708119 10769945 10827959 10886316 10947422 11007434 11055300 
2391.961 11073709 11046538 10966235 10839587 10687822 10543630 10437949 
2395.336 10392516 10409521 10472323 10550555 10611492 10631524 10605326 
2398.711 10545637 10478141 10431418 10427571 10474657 10568371 10694367 
2402.086 10835626 10976478 11105736 11212762 11287875 11319775 11298927 
2405.462 11220953 11094934 10943422 10800409 10702403 10679158 10740629 
2408.837 10876237 11056527 11242970 11401184 11509009 11562116 11569195 
2412.212 11544519 11498738 11432731 11336791 11197650 11006000 10763701 
2415.587 10488216 10209542 9962112 9776393 9670904 9647283 9692390 9782171 
2419.445 9890929 9993833 10074925 10125197 10144953 10139681 10119659 
2422.820 10096872 10084372 10093918 10134528 10211090 10323309 10465616 
2426.195 10626917 10793423 10948805 11076719 11161762 11192281 11160585 
2429.571 11068515 10926467 10753794 10577905 10426872 10325434 10285813 
2432.946 10305760 10368213 10445924 10508111 10531050 10503309 10428282 
2436.321 10323317 10213346 10123236 10071665 10067703 10109421 10185426 
2439.696 10278768 10370359 10442474 10480640 10475521 10425373 10334430 
2443.072 10212320 10072357 9928435 9791258 9669415 9568220 9491117 9444000 
2446.929 9432938 9463104 9535098 9640194 9758198 9861270 9920150 9914646 
2450.786 9841932 9720923 9587498 9484124 9445241 9484901 9593072 9738220 
2454.644 9879587 9980874 10024635 10014528 9971473 9924538 9897804 9901801 
2458.501 9931616 9969992 9996868 9996691 9964419 9904074 9825270 9739445 
2462.359 9652934 9569772 9490206 9414814 9346316 9288752 9246077 9220200 
2466.216 9209475 9210368 9218930 9232771 9251977 9277959 9309725 9344229 
2470.073 9372636 9385942 9376873 9345247 9297006 9246514 9208483 9191600 
2473.931 9197028 9213953 9225012 9211173 9158200 9061350 8927736 8774883 
2477.788 8625303 8505069 8437109 8437838 8514255 8660783 8858103 9074517 
2481.646 9269495 9403441 9447419 9391576 9251800 9066837 8888559 8768673 
2485.503 8741567 8817250 8977278 9183845 9391277 9562405 9677386 9738418 
2489.361 9763194 9777986 9804441 9853725 9924022 10003599 10077792 10134928 
2493.218 10169576 10181634 10174511 10150112 10107429 10043035 9952743 
2496.593 9837551 9704709 9568410 9449109 9365343 9332577 9356762 9431086 
2500.451 9540548 9661762 9768988 9839377 9856584 9813379 9714257 9572422 
2504.308 9408791 9246458 9107360 9008319 8956886 8952665 8987219 9047089 
2508.166 9116953 9182742 9235649 9272141 9294724 9310855 9333285 9374104 
2512.023 9445665 9553451 9696570 9863625 10034132 10182192 10281458 10311108 
2515.880 10262344 10140522 9965814 9768347 9581697 9434139 9342937 9310463 
2519.738 9324959 9364640 9403748 9419533 9397822 9334806 9237212 9117755 
2523.595 8992365 8875203 8774197 8694496 8635937 8598446 8583215 8594134 
2527.453 8635021 8707749 8806350 8917752 9020503 9090002 9106188 9059900 
2531.310 8957114 8819373 8679569 8572540 8528495 8564129 8682877 8876181 
2535.167 9126420 9412650 9714067 10008384 10274042 10488003 10629571 
2538.543 10683990 10647881 10532246 10363145 10174550 10000785 9867248 
2541.918 9783129 9741729 9724792 9710995 9685371 9643751 9594123 9550431 
2545.775 9528503 9537796 9579349 9648077 9733524 9826503 9920549 10012335 
2549.633 10099390 10179403 10247938 10298760 10324938 10321087 10283600 
2553.008 10211951 10108008 9976626 9826340 9671404 9530865 9426842 9381640 
2556.865 9411260 9519172 9694324 9910533 10134136 10329966 10470681 10543385 
2560.723 10549825 10504267 10427421 10340701 10260293 10196230 10151859 
2564.098 10126250 10117007 10119853 10132821 10154200 10184254 10224878 
2567.473 10279598 10352801 10448887 10569416 10713295 10874355 11043238 
2570.849 11208423 11359063 11484382 11577209 11631916 11646245 11621888 
2574.224 11565637 11489801 11413253 11356508 11339234 11372404 11455270 
2577.599 11574241 11703887 11814858 11881747 11890621 11843167 11755783 
2580.974 11654546 11566414 11512570 11500888 11526985 11575229 11626780 
2584.350 11666065 11686761 11694741 11704538 11735295 11801920 11907814 
2587.725 12041057 12176270 12280416 12322947 12286119 12172414 12005068 
2591.100 11821630 11665137 11570557 11556393 11621301 11745971 11902750 
2594.475 12062387 12201418 12304790 12365682 12381461 12352704 12282611 
2597.851 12179002 12057348 11939145 11849455 11809174 11828168 11900718 
2601.226 12005441 12113525 12197426 12241180 12246237 12228884 12213446 
2604.601 12222772 12267964 12346160 12441586 12533128 12602784 12641284 
2607.976 12650348 12638877 12618314 12596954 12577510 12557708 12533350 
2611.352 12503211 12470171 12442282 12430753 12444600 12489274 12563915 
2614.727 12661802 12772965 12886632 12994128 13090619 13176713 13256530 
2618.102 13336202 13422320 13517868 13621802 13728069 13827526 13910063 
2621.477 13968806 14003209 14018542 14024724 14031964 14047571 14071014 
2624.853 14095086 14107361 14094888 14050964 13976714 13882531 13786113 
2628.228 13706765 13661067 13658017 13698881 13777063 13881659 14000159 
2631.603 14121180 14237138 14343168 14436875 14517725 14584374 14635490 
2634.978 14668413 14679939 14667855 14631961 14576411 14509076 14441186 
2638.354 14385581 14353237 14351431 14382219 14441980 14523302 14618126 
2641.729 14717956 14817567 14912604 15000055 15077160 15140180 15185916 
2645.104 15213193 15222806 15219274 15208984 15197982 15190884 15188582 
2648.479 15189925 15192780 15195546 15198489 15203655 15212563 15225387 
2651.854 15239377 15249091 15248656 15234148 15206087 15168841 15129623 
2655.230 15096001 15072715 15060114 15053929 15047743 15034773 15009307 
2658.605 14967945 14907919 14826452 14720770 14587564 14425131 14235524 
2661.980 14024452 13802897 13583004 13377263 13194608 13039413 12912750 
2665.355 12811860 12733983 12675551 12633629 12604644 12584224 12566213 
2668.731 12545780 12518815 12484595 12445804 12407268 12373460 12346260 
2672.106 12323702 12300509 12270776 12231541 12183968 12135571 12097637 
2675.481 12081814 12096982 12143873 12217225 12303874 12388318 12455845 
2678.856 12496393 12505912 12487072 12447850 12397661 12345930 12298942 
2682.232 12259661 12227284 12199565 12173454 12148414 12125878 12109989 
2685.607 12106140 12116945 12142416 12178870 12218124 12251187 12270217 
2688.982 12271788 12256970 12230886 12201463 12175541 12157540 12149173 
2692.357 12148195 12152444 12159308 12168520 12179717 12193535 12208622 
2695.733 12222447 12230772 12229167 12214557 12186125 12146751 12100769 
2699.108 12054233 12012106 11979005 11957823 11949922 11955582 11973542 
2702.483 12001913 12036985 12074516 12108622 12135043 12150699 12154767 
2705.858 12148960 12138173 12127648 12123646 12132150 12155796 12195865 
2709.234 12249734 12311244 12370422 12415824 12436097 12421785 12369416 
2712.609 12282976 12173078 12055887 11949925 11870826 11829049 11826877 
2715.984 11858610 11912080 11973573 12029909 12072708 12099235 12111119 
2719.359 12114085 12113503 12113010 12113607 12113296 12108790 12099091 
2722.735 12086105 12075755 12077622 12101461 12152854 12231723 12328874 
2726.110 12429356 12514630 12568254 12579702 12548307 12484108 12402889 
2729.485 12324576 12266617 12240720 12251293 12294420 12360885 12438172 
2732.860 12514208 12578563 12624446 12649379 12654542 12643948 12622452 
2736.236 12595998 12568800 12544070 12523638 12510350 12506592 12516222 
2739.611 12543653 12591641 12658831 12739263 12822573 12895174 12944472 
2742.986 12962366 12947554 12906082 12849433 12790741 12741961 12711098 
2746.361 12700821 12709583 12734537 12770634 12812544 12854007 12888857 
2749.737 12909996 12912074 12892690 12854408 12804412 12752279 12707593 
2753.112 12675711 12656263 12644459 12631917 12611527 12582091 12547566 
2756.487 12516719 12500727 12507528 12539449 12593452 12660594 12730349 
2759.862 12793661 12843965 12879031 12898849 12904433 12896602 12875353 
2763.238 12840121 12790717 12728158 12654189 12572515 12487395 12404748 
2766.613 12330971 12272728 12237349 12229290 12249582 12293703 12352948 
2769.988 12414535 12465945 12497425 12505819 12494630 12474249 12456742 
2773.363 12454264 12473052 12513206 12569075 12630449 12686731 12730206 
2776.739 12758081 12772663 12780650 12790401 12809462 12842023 12889208 
2780.114 12948052 13013061 13078561 13140733 13196591 13245670 13287396 
2783.489 13321307 13345347 13356518 13352953 13334364 13304102 13268604 
2786.864 13235799 13213906 13207043 13215024 13233656 13256592 13277666 
2790.240 13295103 13310767 13330554 13361190 13408490 13473863 13556197 
2793.615 13650456 13750930 13853224 13953598 14049700 14138907 14216901 
2796.990 14279455 14322432 14344221 14347819 14340720 14332868 14334963 
2800.365 14353951 14391355 14443610 14501802 14556447 14598799 14624621 
2803.740 14634659 14633508 14629536 14631107 14646041 14678578 14728722 
2807.116 14790746 14854303 14905921 14931560 14921874 14873364 14793929 
2810.491 14699201 14611142 14552184 14538841 14577640 14663137 14780374 
2813.866 14910305 15035759 15146730 15241972 15329414 15418495 15517063 
2817.241 15626170 15738722 15842052 15922247 15970297 15986566 15980966 
2820.617 15970539 15973648 16004412 16067399 16156746 16259685 16359637 
2823.992 16443502 16506443 16551286 16587794 16627353 16679456 16747052 
2827.367 16826926 16911768 16993132 17066068 17128476 17182642 17230834 
2830.742 17275908 17316332 17349060 17370480 17378956 17376680 17369924 
2834.118 17367164 17375932 17401178 17442732 17498208 17563430 17635068 
2837.493 17711880 17795306 17886970 17986590 18091696 18196458 18294196 
2840.868 18380034 18452814 18516448 18579620 18654582 18752718 18883228 
2844.243 19051980 19259582 19502620 19774532 20067002 20369710 20672878 
2847.619 20967388 21246040 21504484 21741548 21957784 22155670 22337980 
2850.994 22506044 22660516 22802650 22933384 23055994 23175568 23296730 
2854.369 23423252 23555992 23692552 23828494 23959862 24086468 24212926 
2857.744 24348616 24504838 24691562 24912980 25164864 25435840 25707834 
2861.120 25964194 26192036 26386280 26551452 26698678 26843346 26999814 
2864.495 27180018 27390480 27634542 27913002 28226496 28576226 28964180 
2867.870 29391402 29858130 30360350 30893042 31447296 32012612 32579444 
2871.245 33137534 33679824 34200616 34698120 35174528 35634328 36084160 
2874.621 36530660 36976592 37419576 37850288 38253088 38611308 38908576 
2877.996 39134084 39287264 39374172 39406952 39397804 39355644 39283728 
2881.371 39177520 39031968 38841080 38605528 38333392 38039868 37745220 
2884.746 37469844 37230096 37035700 36888844 36785184 36715184 36668024 
2888.122 36633552 36604292 36576696 36551848 36534588 36532892 36554668 
2891.497 36608304 36697572 36823688 36981828 37163744 37357984 37552812 
2894.872 37736764 37901316 38042608 38159328 38256104 38340856 38423844 
2898.247 38514392 38619136 38738376 38865008 38985040 39081428 39136712 
2901.623 39139840 39089420 38993940 38871452 38743984 38633840 38556220 
2904.998 38519548 38522264 38556060 38610308 38674704 38742508 38811420 
2908.373 38883844 38964132 39056784 39164288 39286152 39419816 39560784 
2911.748 39706892 39858652 40021416 40203796 40416936 40668780 40963236 
2915.124 41295964 41657352 42032424 42406732 42768776 43114324 43443772 
2918.499 43762904 44078000 44394288 44713848 45038304 45369068 45708940 
2921.874 46063776 46437896 46835148 47254676 47691668 48139312 48590672 
2925.249 49043944 49502464 49975004 50471384 51000700 51565868 52165836 
2928.625 52795488 53450452 54128748 54833356 55571348 56350884 57178488 
2932.000 58058748 58993204 59983036 61032664 62149724 63347200 64639560 
2935.375 66041188 67562312 69206912 70972256 72848144 74818712 76862832 
2938.750 78955296 81068648 83174704 85246056 87258080 89190064 91023544 
2942.125 92742280 94328312 95762312 97023152 98088248 98938640 99560840 
2945.501 99949800 100108848 100048592 99785416 99340584 98738144 98005224 
2948.876 97170664 96265944 95319760 94356736 93395712 92446688 91514880 
2952.251 90600768 89704656 88829128 87977920 87155112 86362816 85600616 
2955.626 84864560 84149912 83453760 82776880 82121984 81493832 80893664 
2959.002 80318024 79757584 79201576 78640448 78070512 77495344 76924736 
2962.377 76368656 75832776 75313472 74797768 74268048 73704576 73095440 
2965.752 72439192 71745368 71031960 70318400 69621848 68952624 68312576 
2969.127 67697320 67100084 66514252 65935948 65365896 64806604 64262256 
2972.503 63737324 63234896 62757932 62308612 61889900 61505212 61159164 
2975.878 60855572 60597744 60385760 60218712 60094404 60011408 59970988 
2979.253 59978420 60043040 60176568 60390328 60692812 61086560 61570904 
2982.628 62140908 62793696 63529960 64356016 65281732 66316864 67466384 
2986.004 68725456 70080640 71509592 72986952 74490440 76003384 77513704 
2989.379 79011288 80483040 81906440 83249528 84473416 85540840 86422232 
2992.754 87104704 87592632 87904192 88063544 88091008 87995176 87770520 
2996.129 87401672 86871024 86167176 85293184 84269112 83126304 81900872 
2999.505 80623464 79312784 77973896 76600144 75180616 73706440 72178904 
3002.880 70607624 69010392 67406640 65812752 64238416 62688252 61161592 
3006.255 59658236 58179380 56726616 55300996 53900804 52518688 51145076 
3009.630 49769584 48388476 47005316 45634328 44295008 43008012 41789156 
3013.006 40644176 39569708 38554608 37584496 36647144 35732964 34838640 
3016.381 33962684 33104480 32265722 31449050 30659558 29906516 29201130 
3019.756 28554078 27970314 27446520 26970374 26521944 26079952 25627150 
3023.131 25155370 24666456 24172170 23689234 23234478 22821354 22457076 
3026.507 22141324 21869094 21630682 21414878 21209336 21002842 20786534 
3029.882 20555602 20311594 20058984 19806954 19565600 19342560 19143556 
3033.257 18970306 18823532 18703242 18610556 18547122 18511408 18499350 
3036.632 18499128 18493798 18463972 18391984 18268320 18095736 17887898 
3040.008 17669410 17468860 17310532 17211186 17173478 17187844 17232752 
3043.383 17282268 17311268 17300724 17243774 17145720 17021880 16894744 
3046.758 16786078 16712969 16682688 16692383 16730826 16783402 16837934 
3050.133 16887066 16929760 16970730 17017246 17074014 17143922 17225224 
3053.509 17313834 17404838 17492998 17572582 17636390 17675290 17677670 
3056.884 17633450 17536974 17391714 17213882 17027808 16863358 16747437 
3060.259 16697302 16714308 16784628 16881478 16973736 17034274 17045694 
3063.634 17005402 16923866 16822772 16727619 16662061 16642464 16675429 
3067.010 16756872 16872928 17003954 17129580 17230634 17294328 17316006 
3070.385 17299764 17256302 17200564 17148626 17112550 17099664 17109358 
3073.760 17134532 17162910 17179738 17172936 17134342 17064250 16969054 
3077.135 16861956 16757624 16668342 16600933 16554676 16521633 16490953 
3080.510 16452821 16401971 16340770 16276242 16217593 16171642 16138086 
3083.886 16110102 16074765 16018838 15933720 15819201 15683549 15541971 
3087.261 15412366 15309636 15243104 15215155 15221671 15255626 15308022 
3090.636 15368518 15426029 15469672 15488252 15472218 15417925 15328474 
3094.011 15216087 15099321 14997978 14928756 14899448 14906332 14937913 
3097.387 14977697 15011372 15031254 15038263 15039670 15045852 15064084 
3100.762 15096349 15138390 15184079 15227811 15267087 15303569 15341411 
3104.137 15381554 15420256 15447624 15449712 15413908 15333952 15214937 
3107.512 15071844 14925599 14797752 14702366 14642679 14610161 14589717 
3110.888 14563744 14520047 14453831 14369252 14275064 14181376 14096106 
3114.263 14022181 13960746 13911079 13874956 13857494 13864229 13900492 
3117.638 13967554 14059695 14165961 14271958 14364308 14434437 14480766 
3121.013 14508714 14527995 14549267 14579434 14619756 14665215 14705459 
3124.389 14728555 14723710 14683483 14604825 14489293 14342853 14173974 
3127.764 13992398 13810997 13642129 13497839 13389436 13325098 13308506 
3131.139 13336641 13402298 13491347 13588082 13677408 13746840 13789864 
3134.514 13806042 13800611 13781956 13759304 13739064 13724796 13715250 
3137.890 13706649 13694784 13675146 13648143 13617245 13588549 13569929 
3141.265 13567073 13583452 13616135 13658715 13701519 13733500 13746234 
3144.640 13736027 13703927 13656129 13601688 13549758 13508552 13481029 
3148.015 13467505 13463667 13464993 13464629 13458051 13441240 13411880 
3151.391 13369861 13316123 13256044 13196158 13146382 13116639 13116006 
3154.766 13147032 13205616 13278469 13345649 13385180 13377401 13311728 
3158.141 13189409 13024596 12840835 12666341 12527215 12443214 12422287 
3161.516 12463184 12556003 12686824 12840752 13005222 13171238 13333196 
3164.892 13485801 13624800 13744471 13839175 13903071 13934128 13932220 
3168.267 13902317 13852999 13793908 13733849 13678440 13629593 13585509 
3171.642 13542895 13500698 13461139 13430274 13415966 13424268 13454879 
3175.017 13499200 13541517 13561321 13542228 13477108 13370830 13242416 
3178.393 13117379 13020168 12966850 12960203 12990355 13040408 13092927 
3181.768 13137906 13175342 13212363 13259195 13320948 13394441 13467961 
3185.143 13526265 13556985 13556584 13532087 13498414 13470810 13458664 
3188.518 13461551 13468388 13464022 13435855 13380143 13303068 13218928 
3191.894 13143416 13086996 13051383 13029966 13011638 12986362 12951780 
3195.269 12912061 12876927 12856209 12856868 12879654 12919236 12969849 
3198.644 13026040 13085780 13149606 13217092 13285566 13349350 13401589 
3202.019 13437672 13459193 13474401 13497326 13541268 13613958 13713480 
3205.395 13827626 13936878 14020311 14061593 14053294 13994860 13894214 
3208.770 13761335 13607170 13442236 13277918 13126240 12999983 12911290 
3212.145 12868973 12874236 12920865 12995987 13082207 13163943 13228714 
3215.520 13269739 13286359 13280069 13255588 13217864 13173673 13131407 
3218.896 13101187 13092920 13113295 13164480 13240887 13332085 13424821 
3222.271 13506379 13568561 13608548 13626975 13626317 13609906 13579573 
3225.646 13539842 13496861 13461857 13447568 13463397 13511086 13580390 
3229.021 13648422 13687089 13670870 13587639 13443646 13265148 13090078 
3232.396 12956051 12889772 12896018 12959361 13049007 13128514 13170506 
3235.772 13162188 13109711 13033190 12959788 12912785 12907993 12949444 
3239.147 13029465 13135516 13253311 13370281 13478839 13574641 13657568 
3242.522 13726966 13783800 13827630 13857906 13873209 13872231 13853335 
3245.897 13814992 13755569 13674622 13573995 13459218 13340398 13231549 
3249.273 13148102 13105606 13114723 13177655 13288341 13432350 13590232 
3252.648 13744259 13879952 13992400 14082020 14154465 14212989 14256278 
3256.023 14276807 14261699 14199064 14083001 13919163 13724230 13524361 
3259.398 13346260 13211303 13130176 13101150 13113992 13153670 13207437 
3262.774 13266346 13327351 13386954 13441335 13481760 13498058 13480279 
3266.149 13426775 13345394 13254601 13177549 13135999 13140889 13188739 
3269.524 13261318 13331625 13373074 13370126 13321546 13244069 13165370 
3272.899 13116088 13118789 13181807 13296098 13438135 13577492 13684686 
3276.275 13738759 13733545 13675709 13582552 13475998 13376656 13299333 
3279.650 13250399 13227887 13225224 13232763 13241401 13244445 13237937 
3283.025 13219901 13190550 13152074 13108868 13067185 13035820 13024658 
3286.400 13040523 13084420 13150202 13222383 13280735 13305778 13285841 
3289.776 13223100 13136029 13055983 13018720 13053646 13175434 13375229 
3293.151 13624791 13881625 14101328 14248800 14308554 14285284 14202003 
3296.526 14089920 13980453 13895896 13845854 13826580 13827830 13836143 
3299.901 13842579 13844161 13844636 13852622 13877511 13926821 14002005 
3303.277 14096775 14199869 14293492 14357616 14376083 14337691 14240763 
3306.652 14095026 13919384 13739291 13581846 13468743 13412166 13413013 
3310.027 13461016 13537821 13623401 13699598 13754434 13783583 13788693 
3313.402 13774740 13746704 13707684 13656902 13593243 13515485 13424845 
3316.778 13327638 13234179 13155788 13101561 13075394 13073520 13086073 
3320.153 13100630 13107527 13103656 13095230 13096131 13122916 13188262 
3323.528 13294970 13433397 13582437 13717747 13818288 13873360 13886387 
3326.903 13872710 13853016 13845783 13860147 13894225 13934772 13965530 
3330.279 13971562 13948292 13899496 13838205 13780799 13742329 13730046 
3333.654 13743963 13775727 13812630 13841403 13850208 13832683 13789147 
3337.029 13723834 13648238 13574074 13514630 13477947 13466602 13475807 
3340.404 13495066 13510870 13511813 13491970 13454687 13409233 13369241 
3343.780 13344673 13340111 13350533 13364203 13366576 13347020 13302504 
3347.155 13239510 13172584 13119184 13094206 13105161 13151057 13223400 
3350.530 13308201 13391127 13459848 13507181 13529976 13529903 13509308 
3353.905 13474913 13431197 13383545 13335430 13288539 13242418 13195725 
3357.281 13147673 13099384 13056135 13026345 13020130 13045697 13106767 
3360.656 13198529 13307293 13414070 13496940 13540029 13535898 13489924 
3364.031 13418065 13343829 13290612 13276874 13309501 13385357 13491526 
3367.406 13611245 13727289 13828616 13908457 13965896 14000134 14011041 
3370.781 13994893 13948179 13869200 13761218 13634486 13506041 13395277 
3374.157 13320027 13288985 13302843 13352033 13421105 13495956 13567107 
3377.532 13633535 13701567 13781937 13883691 14011936 14162047 14322055 
3380.907 14472849 14592131 14659849 14660355 14585922 14439019 14235147 
3384.282 13998874 13764490 13567322 13439403 13399085 13449911 13575844 
3387.658 13749177 13933460 14097752 14219366 14291240 14318109 14313342 
3391.033 14290645 14260455 14228100 14194712 14160411 14128596 14105627 
3394.408 14098661 14112926 14146961 14192363 14236531 14266164 14272735 
3397.783 14256462 14225630 14193197 14171334 14166861 14180245 14204892 
3401.159 14232733 14256601 14274327 14287620 14301028 14317286 14337651 
3404.534 14358701 14377026 14391253 14405139 14427125 14468489 14539627 
3407.909 14645448 14781419 14935810 15090483 15226613 15328773 15389630 
3411.284 15408594 15395465 15362571 15325328 15296643 15286349 15297992 
3414.660 15330329 15376283 15426477 15470972 15501065 15511947 15503268 
3418.035 15476616 15437027 15390559 15343850 15303197 15277073 15273843 
3421.410 15301194 15363373 15458914 15577291 15702242 15812565 15889898 
3424.785 15922301 15910547 15866211 15809359 15760981 15737839 15746938 
3428.161 15787607 15851481 15928350 16009150 16089171 16164506 16231250 
3431.536 16283413 16315591 16323287 16309019 16282791 16261267 16260559 
3434.911 16291376 16350852 16421631 16475964 16485184 16429232 16304981 
3438.286 16128195 15928002 15738029 15586377 15487785 15441809 15436602 
3441.662 15457313 15489440 15525953 15562938 15599359 15632790 15657121 
3445.037 15665540 15653197 15622277 15582924 15549678 15539274 15562570 
3448.412 15622124 15708830 15808964 15904395 15982756 16037110 16068935 
3451.787 16084014 16090306 16094171 16099775 16107921 16119653 16134052 
3455.163 16151695 16170731 16190000 16205687 16214896 16215999 16209574 
3458.538 16199324 16190926 16188780 16196251 16212530 16235074 16259942 
3461.913 16286440 16316887 16357664 16416321 16498201 16602853 16723672 
3465.288 16846858 16955804 17035864 17077964 17079874 17047970 16994560 
3468.664 16934392 16881186 16845634 16832862 16842528 16871614 16913622 
3472.039 16961108 17010120 17058568 17108772 17166092 17239036 17333312 
3475.414 17452780 17594192 17748128 17900838 18038330 18149520 18230998 
3478.789 18288704 18335460 18387598 18457962 18554028 18673248 18806058 
3482.165 18940902 19067848 19184084 19293582 19406040 19530816 19672594 
3485.540 19828234 19986388 20132546 20253460 20342918 20403592 20444836 
3488.915 20480468 20520330 20568054 20619426 20665654 20697120 20712410 
3492.290 20717380 20727046 20760530 20834630 20955700 21119196 21307534 
3495.666 21498292 21669858 21810346 21919494 22010578 22101334 22209174 
3499.041 22340582 22488392 22632960 22749562 22816862 22827780 22792056 
3502.416 22734300 22685830 22672104 22702680 22768148 22842594 22896786 
3505.791 22909366 22877730 22819664 22767952 22753272 22792148 22876114 
3509.167 22973086 23036330 23024262 22911594 22702546 22426056 22125804 
3512.542 21843128 21604688 21415688 21263610 21128504 20996564 20866248 
3515.917 20750906 20671676 20647462 20685260 20777648 20903510 21036626 
3519.292 21152524 21235358 21277292 21278314 21238644 21158616 21036808 
3522.667 20871672 20664740 20423356 20158868 19885840 19617990 19367974 
3526.043 19144668 18956228 18810348 18714602 18674326 18689778 18753876 
3529.418 18852798 18967266 19078334 19171322 19238150 19278458 19297918 
3532.793 19303160 19301528 19297404 19295292 19297926 19308268 19327036 
3536.168 19352450 19376448 19387754 19373542 19323240 19233388 19108852 
3539.544 18961262 18804974 18652816 18513814 18391288 18286438 18199496 
3542.919 18133676 18091718 18074576 18077748 18088408 18088252 18059690 
3546.294 17990104 17881394 17746500 17609086 17495432 17426460 17412298 
3549.669 17451414 17531230 17637608 17754968 17872722 17983378 18081802 
3553.045 18162156 18218822 18245598 18239974 18203000 18139914 18058692 
3556.420 17966842 17870208 17773788 17681524 17602116 17546778 17530790 
3559.795 17565968 17657592 17798290 17967326 18136074 18276336 18367796 
3563.170 18406240 18402996 18381112 18362442 18361578 18375062 18385076 
3566.546 18364246 18286962 18140418 17932382 17688436 17446020 17241482 
3569.921 17099220 17023674 17001808 17006856 17011784 16997684 16959650 
3573.296 16905326 16852186 16815194 16801778 16809674 16827866 16841992 
3576.671 16842468 16827368 16804592 16783368 16773045 16773628 16776366 
3580.047 16764600 16722128 16637437 16509432 16349379 16177788 16019361 
3583.422 15897369 15828855 15822586 15878109 15986813 16134087 16301705 
3586.797 16468663 16616104 16727671 16796370 16822188 16814350 16786434 
3590.172 16751776 16719393 16690735 16657250 16606681 16524822 16404206 
3593.548 16244588 16058115 15864033 15687853 15551586 15470283 15446244 
3596.923 15467933 15509611 15537332 15515453 15416619 15228050 14957089 
3600.298 14630351 14288305 13975017 13730202 13578057 13526175 13565435 
3603.673 13678537 13844442 14047640 14276958 14526623 14790508 15059572 
3607.049 15318012 15546987 15726792 15845554 15900454 15901731 15869906 
3610.424 15829856 15804539 15810635 15852273 15923304 16005481 16077403 
3613.799 16118255 16115446 16068110 15990507 15907684 15850866 15848743 
3617.174 15920466 16068254 16277621 16518937 16756717 16955806 17091916 
3620.550 17153976 17148380 17094016 17017804 16948248 16909250 16914776 
3623.925 16967758 17057902 17165794 17266562 17339548 17370158 17357158 
3627.300 17309768 17245356 17179712 17123412 17076336 17031196 16978990 
3630.675 16919720 16864208 16837746 16869052 16982480 17182954 17452030 
3634.051 17747158 18015258 18204770 18285412 18253348 18135474 17977726 
3637.426 17832382 17743322 17735192 17810332 17952566 18132912 18322838 
3640.801 18499660 18652006 18780478 18896658 19015316 19153078 19318256 
3644.176 19511734 19721666 19929234 20111196 20247830 20328094 20355506 
3647.552 20345830 20323668 20313130 20331364 20381822 20454580 20527976 
3650.927 20578968 20590386 20554252 20477040 20377378 20278062 20201776 
3654.302 20163610 20166884 20199964 20240166 20258046 20225136 20122632 
3657.677 19949180 19721212 19472844 19245808 19081446 19007252 19031240 
3661.052 19138090 19295818 19462072 19599146 19680116 19697452 19660102 
3664.428 19590660 19514318 19452964 19416670 19406190 19408742 19408954 
3667.803 19390352 19344060 19268478 19171590 19064716 18961884 18871088 
3671.178 18792950 18722060 18647704 18559178 18450072 18317796 18165554 
3674.553 17996046 17812600 17614352 17399696 17168398 16927586 16688600 
3677.929 16468296 16281825 16135218 16020846 15921846 15811985 15671317 
3681.304 15491830 15283990 15074149 14896553 14778412 14733542 14755056 
3684.679 14817976 14888804 14937587 14946817 14915729 14858003 14796564 
3688.054 14753608 14744192 14771776 14828729 14898660 14962806 15002659 
3691.430 15005851 14965831 14885304 14773143 14642317 14505663 14374663 
3694.805 14254142 14145698 14046004 13953335 13866819 13790914 13729322 
3698.180 13686747 13661590 13649156 13640182 13627864 13609732 13590360 
3701.555 13578649 13584130 13610022 13652253 13697097 13729079 13735693 
3704.931 13711855 13663741 13604598 13549030 13508436 13485668 13478750 
3708.306 13480380 13485725 13491197 13496669 13500901 13501417 13491391 
3711.681 13464623 13416765 13350042 13274251 13201543 13142094 13100374 
3715.056 13071548 13046687 13016359 12978822 12940286 12913779 12914089 
3718.432 12950288 13019784 13111665 13207423 13290039 13347820 13377271 
3721.807 13378882 13355123 13305615 13228611 13121986 12993451 12859417 
3725.182 12747130 12687072 12704516 12810943 12998564 13241039 13500802 
3728.557 13738121 13919956 14024206 14043721 13982205 13853970 13679584 
3731.933 13486095 13300309 13147661 13046859 13005520 13019049 13074492 
3735.308 13152535 13237836 13320793 13402278 13488031 13585174 13693464 
3738.683 13807409 13912146 13991795 14035220 14041281 14017961 13982384 
3742.058 13952170 13941087 13955767 13993967 14046694 14103062 14149184 
3745.434 14175917 14174737 14140625 14073700 13979209 13867667 13755728 
3748.809 13660925 13598173 13572110 13577865 13599033 13615067 13607418 
3752.184 13566545 13494823 13406660 13319609 13250847 13209408 13194298 
3755.559 13196243 13201825 13200134 13187898 13170765 13163294 13182054 
3758.935 13242629 13351944 13508018 13697567 13903898 14107166 14292404 
3762.310 14451803 14582076 14683707 14755675 14793558 14789410 14734912 
3765.685 14628661 14477825 14303296 14131132 13990167 13899915 13866057 
3769.060 13877781 13914949 13953011 13975835 13979638 13974369 13976911 
3772.436 14003658 14062309 14149096 14249406 14343943 14415926 14456633 
3775.811 14465799 14450606 14421650 14388899 14358792 14333852 14312697 
3779.186 14290904 14261398 14215718 14144882 14044214 13916105 13775716 
3782.561 13646678 13561215 13547145 13619914 13773750 13983289 14205807 
3785.937 14397159 14523271 14569803 14543935 14468048 14371254 14276720 
3789.312 14194828 14124827 14058356 13988069 13912956 13841625 13786752 
3792.687 13762401 13774161 13818754 13882878 13949051 13998376 14017403 
3796.062 13999270 13942694 13851726 13733970 13598048 13455507 13319030 
3799.438 13202200 13117200 13073046 13072675 13113305 13188483 13291242 
3802.813 13416131 13561772 13727666 13911538 14104634 14291057 14445624 
3806.188 14541083 14554503 14476309 14313600 14092715 13852204 13636098 
3809.563 13481303 13411105 13430240 13525884 13670322 13829584 13971066 
3812.938 14068256 14103931 14073216 13980300 13839570 13671538 13503866 
3816.314 13364081 13275645 13254372 13301311 13403993 13539104 13676686 
3819.689 13791086 13866723 13903322 13912736 13916025 13930422 13963851 
3823.064 14010577 14053736 14072246 14052936 13994129 13912433 13835958 
3826.439 13797944 13825893 13932616 14111128 14336781 14571734 14775548 
3829.815 14911321 14956608 14905857 14771205 14579415 14364929 14161687 
3833.190 13995430 13877944 13808216 13774723 13763643 13764221 13775562 
3836.565 13804338 13862089 13955115 14081640 14226033 14364318 14470310 
3839.940 14525386 14521562 14465364 14371157 14255360 14131838 14010224 
3843.316 13895648 13797617 13727046 13702053 13737940 13841796 14005053 
3846.691 14203197 14399358 14555341 14642562 14650571 14588470 14482354 
3850.066 14364126 14261958 14193355 14164891 14171425 14204481 14254150 
3853.441 14311431 14369115 14419987 14455158 14468046 14454005 14415734 
3856.817 14359538 14298690 14245047 14208023 14190717 14190167 14196712 
3860.192 14201452 14193551 14166684 14117616 14046473 13957508 13856908 
3863.567 13755905 13667399 13604951 13581089 13600212 13661180 13754193 
3866.942 13864157 13974544 14070618 14142165 14185294 14199731 14190252 
3870.318 14163181 14127958 14094667 14073784 14073597 14097991 14145686 
3873.693 14209185 14275936 14334421 14374014 14390178 14381607 14350235 
3877.068 14296054 14220354 14122352 14004119 13873814 13746206 13640089 
3880.443 13574389 13558837 13593318 13662169 13744916 13818476 13868838 
3883.819 13892745 13899789 13906317 13929458 13979997 14060148 14162009 
3887.194 14274293 14383232 14480253 14559496 14620178 14662678 14691668 
3890.569 14710392 14724699 14738880 14756056 14773235 14783911 14773641 
3893.944 14728880 14640118 14507083 14342917 14172221 14026229 13931763 
3897.320 13906017 13949662 14046325 14168286 14284683 14370885 14413712 
3900.695 14415885 14390814 14359869 14342087 14351031 14388148 14444056 
3904.070 14501804 14541435 14545839 14507962 14429613 14324491 14211127 
3907.445 14110534 14037729 14000945 13997447 14018372 14049359 14077347 
3910.821 14092411 14090097 14071317 14040116 14002764 13967366 13940978 
3914.196 13929489 13935913 13960123 13998076 14044539 14093242 14142609 
3917.571 14192906 14250680 14322344 14412363 14516553 14624177 14716640 
3920.946 14775974 14789192 14754182 14680753 14587124 14494130 14418948 
3924.322 14369847 14347482 14347542 14365175 14397635 14446376 14511530 
3927.697 14590090 14673005 14747146 14799248 14822601 14820218 14806798 
3931.072 14801650 14822651 14877952 14963104 15061824 15153076 15218187 
3934.447 15249117 15248223 15227070 15199596 15175537 15156866 15138585 
3937.823 15113589 15077000 15030926 14985498 14954150 14949396 14977567 
3941.198 15035121 15107708 15175704 15216044 15211710 15154248 15047343 
3944.573 14907193 14758981 14632100 14555961 14548643 14617021 14751642 
3947.948 14930109 15123286 15301220 15441979 15533926 15577029 15579062 
3951.323 15548334 15493420 15416166 15318809 15203198 15077262 14955134 
3954.699 14854659 14792235 14778307 14813028 14888219 14988557 15099776 
3958.074 15210099 15313709 15406892 15486334 15543959 15569551 15552909 
3961.449 15490967 15391661 15276710 15176305 15121852 15135747 15224909 
3964.824 15377188 15566765 15760653 15928745 16048472 16108006 16103992 
3968.200 16038002 15913876 15737435 15518376 15275133 15030009 14812064 
3971.575 14647838 14554592 14537111 14586265 14684826 14812761 14955482 
3974.950 15106218 15263247 15425116 15584378 15724678 15823266 15858833 
3978.325 15818188 15705831 15539842 15351745 15173467 15028957 14928062 
3981.701 14867730 14835730 14820090 14812303 14812497 14823743 14850171 
3985.076 14890852 14940337 14988635 15030283 15064348 15099484 15147828 
3988.451 15222311 15328016 15460290 15604743 15744038 15862830 15955364 
3991.826 16025368 16086444 16153278 16237225 16339362 16450213 16550139 
3995.202 16615747 16624168 16561342 16423780 16223636 15984699 15743600 
3998.577 15539367 15408629 15373857 15440290 15592065 
##END=
