##TITLE=3D-Fillies_PLA-Rainbow_Salmon-Pink_Filament_r7_ATR-Corrected
##JCAMP-DX=5.01  $$ Nicolet v. 1
##DATATYPE=INFRARED SPECTRUM
##ORIGIN=Curtin University
##OWNER=Nicolet
##LONGDATE=2024/07/18
##TIME=17:04:52
##SPECTROMETER/DATA SYSTEM=Nicolet iS50
##DATA PROCESSING=
Ratio against background
%Transmittance->Absorbance
ATR Correction
Truncated
ElementMultiply or ElementDivide
##COMMENTS=
Number of sample scans: 32
Collection length: 47.29 sec
Sample gain: 1.0
Background collected on: Thu Jul 18 17:03:22 2024 (GMT+08:00);
Number of background scans: 32
Background gain: 1.0
Sample spacing:  1.000
Number of scan points: 16672
Resolution points: 8192
Number of FFT points: 65536
Apodization: N-B strong;
Phase correction: Mertz;
Laser frequency: 15798.3 cm-1
Number of rejected sample scans: 0
Number of rejected background scans: 0
Bench serial number: AUP1200105;
##RESOLUTION=4.000
##XUNITS=1/CM
##YUNITS=ABSORBANCE
##FIRSTX=400.163452
##LASTX=4000.187744
##FIRSTY=0.055383
##MAXX=4000.187744
##MINX=400.163452
##MAXY=0.893143
##MINY=-0.033724
##XFACTOR=1.000000
##YFACTOR=1.000000E-009
##NPOINTS=7468
##DELTAX=0.482125
##ZPD=8192
##XYDATA=(X++(Y..Y))
400.163 55383176 55564660 55487016 55183604 54687692 54031436 53235088 
403.538 52307496 51253188 50083584 48826976 47536052 46286656 45168316 
406.913 44264888 43629196 43262380 43105236 43049912 42967784 42748568 
410.288 42334072 41734560 41020852 40295768 39653988 39149952 38780708 
413.663 38493888 38212184 37865652 37414112 36854616 36209920 35508496 
417.038 34766960 33982700 33140280 32230378 31267126 30298264 29399450 
420.412 28656688 28140192 27883732 27872424 28045418 28308528 28555440 
423.787 28689226 28641840 28384786 27932052 27335854 26676278 26047306 
427.162 25541386 25233376 25167294 25348998 25744522 26287468 26890608 
430.537 27460052 27909022 28168664 28197892 27988250 27572254 27015276 
433.912 26409198 25855178 25442956 25229826 25227066 25397480 25667132 
437.286 25948138 26165762 26279000 26288108 26226156 26138266 26059272 
440.661 25998112 25936968 25844142 25693810 25484172 25243274 25021696 
444.036 24871876 24827648 24888510 25020320 25167694 25276182 25312624 
447.411 25274918 25189622 25096884 25031874 25010658 25025722 25052680 
450.786 25063242 25037836 24972680 24878152 24771288 24666478 24569344 
454.161 24475808 24377442 24268348 24150446 24034256 23935824 23870304 
457.535 23845688 23860540 23903710 23958980 24009558 24042026 24048058 
460.910 24024780 23972900 23895728 23797490 23683020 23554416 23420206 
464.285 23286006 23157740 23041664 22944388 22872080 22829332 22817446 
467.660 22832742 22865604 22902218 22926324 22922500 22879034 22789508 
471.035 22652764 22472134 22254662 22010348 21752528 21498042 21265124 
474.409 21071800 20930502 20845002 20808052 20803200 20809626 20808200 
477.784 20786988 20743392 20682390 20611790 20537166 20458716 20371996 
481.159 20271502 20154876 20026466 19896772 19779242 19685822 19623434 
484.534 19592314 19588122 19604310 19634650 19673192 19713550 19747166 
487.909 19764392 19756888 19723078 19671550 19622012 19601014 19634000 
491.284 19736640 19909204 20136402 20393256 20654012 20899566 21119820 
494.658 21316064 21489320 21636710 21748876 21812920 21819814 21771296 
498.033 21683134 21581566 21495138 21444132 21434388 21456558 21492126 
501.408 21523026 21539366 21541956 21538948 21538140 21539780 21533234 
504.783 21500480 21423968 21294770 21118410 20913230 20704456 20515258 
508.158 20358960 20236648 20139244 20053858 19970084 19883606 19796706 
511.532 19714954 19643354 19583232 19531378 19481086 19423980 19351570 
514.907 19256044 19130834 18971592 18777278 18552000 18305388 18051416 
518.282 17805122 17578814 17378556 17204324 17052390 16919642 16807680 
521.657 16723474 16676674 16674235 16714785 16785752 16865056 16927350 
525.032 16950160 16924934 16855096 16754664 16642211 16533928 16438967 
528.406 16359027 16291112 16232088 16181692 16143166 16120844 16116060 
531.781 16124262 16134003 16129293 16093580 16014924 15889039 15720602 
535.156 15521552 15308021 15096632 14901510 14732717 14595679 14492428 
538.531 14422841 14386294 14382093 14408970 14463599 14538250 14619657 
541.906 14689641 14728441 14719917 14657480 14547394 14408770 14267885 
545.281 14150302 14072222 14035357 14027002 14026179 14012570 13974936 
548.655 13915214 13846558 13787079 13751403 13744714 13761700 13789884 
552.030 13816260 13833155 13840795 13846277 13858884 13885600 13928025 
555.405 13981914 14038792 14090493 14129031 14147980 14142505 14110749 
558.780 14055573 13987149 13924284 13891209 13911485 13998963 14150721 
562.155 14344218 14542669 14706033 14804393 14828079 14790299 14719918 
565.529 14649363 14601020 14579697 14573927 14564977 14538606 14495017 
568.904 14449802 14428127 14452473 14531567 14654911 14796415 14923838 
572.279 15011458 15049185 15044764 15018344 14993220 14986518 15004004 
575.654 15040462 15085683 15130292 15171241 15212544 15262246 15328755 
579.029 15416830 15526294 15653029 15791105 15934533 16077939 16216276 
582.404 16343774 16454257 16542550 16605644 16644785 16665548 16675770 
585.778 16683619 16694739 16711187 16731860 16753368 16772253 16785004 
589.153 16788662 16779954 16755724 16714163 16656885 16590526 16527535 
592.528 16483363 16472917 16505137 16579002 16683461 16799086 16904344 
595.903 16980940 17019284 17019930 16992380 16951742 16914036 16892412 
599.278 16895146 16924708 16978704 17050934 17132722 17214382 17287834 
602.652 17347822 17393562 17429436 17463446 17505196 17561936 17636560 
606.027 17726478 17824904 17923720 18017338 18105108 18192198 18287592 
609.402 18401474 18541462 18709668 18902658 19111698 19325438 19532848 
612.777 19725676 19900002 20057334 20203526 20347680 20499294 20666130 
616.152 20851406 21053138 21264526 21476538 21681650 21877112 22066782 
619.527 22260158 22468782 22701270 22958458 23231670 23503900 23754902 
622.901 23967536 24133586 24256180 24348760 24430488 24520174 24631316 
626.276 24770166 24936092 25125424 25334844 25563688 25813506 26085740 
629.651 26378020 26681644 26981128 27256774 27488998 27663306 27774006 
633.026 27825952 27833256 27816228 27797384 27797798 27834008 27916598 
636.401 28049534 28230452 28451090 28698452 28956172 29207274 29436376 
639.775 29632694 29791618 29915878 30014294 30099624 30185272 30282166 
643.150 30396394 30528490 30673790 30824638 30972936 31112114 31239196 
646.525 31354956 31463500 31570848 31683840 31809184 31952832 32120638 
649.900 32318190 32551240 32824670 33141356 33499870 33893204 34307220 
653.275 34722048 35113620 35458604 35737932 35941280 36068940 36131616 
656.650 36148140 36141068 36131840 36136728 36164368 36215328 36284012 
660.024 36361228 36437192 36504140 36557276 36595380 36619944 36634972 
663.399 36645592 36658064 36679244 36715948 36774168 36858176 36969520 
666.774 37106964 37267040 37445116 37637236 37841456 38058036 38289068 
670.149 38536484 38800384 39077328 39360396 39640384 39907828 40155720 
673.524 40381348 40586664 40777004 40959344 41139536 41320848 41503488 
676.898 41684968 41861808 42031052 42190504 42338720 42474672 42595900 
680.273 42699224 42781964 42843412 42886916 42921144 42960024 43020372 
683.648 43118380 43265164 43463664 43706956 43979080 44258256 44521704 
687.023 44750808 44934540 45072144 45172416 45251076 45327552 45420152 
690.398 45543528 45706152 45909844 46150788 46420824 46710308 47009224 
693.773 47310144 47608408 47903608 48199616 48502808 48821660 49163632 
697.147 49533436 49931268 50351452 50784100 51216984 51638664 52041628 
700.522 52424424 52791524 53151468 53513760 53885216 54267792 54657768 
703.897 55047492 55427596 55790024 56129768 56444628 56734356 56998920 
707.272 57237304 57447852 57629652 57784328 57917108 58036348 58151292 
710.647 58269084 58391848 58515540 58631252 58728088 58797276 58835892 
714.021 58848936 58849060 58855096 58890012 58979820 59152636 59440960 
717.396 59883264 60526704 61429388 62661624 64306616 66459836 69225456 
720.771 72711216 77018272 82227920 88384880 95480736 103439392 112109592 
724.146 121265432 130618248 139836992 148577280 156512080 163360384 
727.039 168909952 173030160 175674352 176873632 176723840 175368176 
729.931 172977984 169733088 165803536 161336352 156447232 151220464 
732.824 145716064 139980720 134060520 128010240 121896600 115796048 
735.717 109788112 103947360 98337984 93010928 88005680 83353440 79080280 
739.091 75208880 71757896 68739368 66155688 63997740 62244652 60865072 
742.466 59819960 59065952 58557884 58251912 58107072 58087344 58163456 
745.841 58313756 58525180 58792828 59118060 59506492 59964500 60496856 
749.216 61104488 61783332 62523836 63311308 64126356 64946144 65745316 
752.591 66497704 67178672 67767032 68246656 68607680 68846232 68962864 
755.966 68960280 68841528 68608296 68260040 67795728 67214560 66518292 
759.340 65711716 64803340 63804932 62729612 61591236 60402804 59176972 
762.715 57925756 56661788 55398708 54150916 52932564 51756620 50632432 
766.090 49564784 48553216 47592388 46673828 45787560 44924732 44078656 
769.465 43246364 42428180 41627352 40848272 40095528 39371888 38678496 
772.840 38013484 37372648 36750864 36143480 35547672 34963536 34394204 
776.214 33844516 33319764 32823368 32355766 31913910 31491802 31081738 
779.589 30676070 30268036 29852440 29425350 28983682 28525550 28050414 
782.964 27560610 27062086 26564858 26081606 25625838 25208684 24836218 
786.339 24508478 24219502 23960614 23723292 23502398 23298814 23118854 
789.714 22972422 22869920 22817930 22816718 22858116 22926742 23001114 
793.089 23057700 23074220 23032702 22922202 22739948 22491258 22188900 
796.463 21851278 21500522 21159870 20851698 20594748 20402554 20281970 
799.838 20232200 20245212 20307328 20401866 20511932 20622824 20723840 
803.213 20809984 20879098 20931450 20967384 20986520 20987552 20969172 
806.588 20930812 20873662 20799948 20711670 20609806 20493322 20359592 
809.963 20206534 20035130 19851642 19667860 19499702 19363468 19271466 
813.337 19228396 19229940 19263924 19314162 19364934 19405708 19433086 
816.712 19450830 19467028 19490678 19527802 19579692 19642646 19709940 
820.087 19774010 19829844 19875980 19915084 19952662 19995234 20048364 
823.462 20115120 20195756 20288338 20389712 20497354 20610260 20729690 
826.837 20858752 21001206 21159804 21335202 21524740 21722708 21921110 
830.212 22111400 22286230 22440896 22574692 22690402 22794240 22895032 
833.586 23002248 23126916 23279556 23469680 23705144 23991084 24328606 
836.961 24714578 25141736 25600314 26080318 26574682 27081808 27606140 
840.336 28157812 28748684 29388128 30078216 30811430 31569514 32326900 
843.711 33056274 33734080 34346232 34889852 35372288 35806348 36204508 
847.086 36573760 36913932 37219212 37483252 37706228 37900188 38090744 
850.460 38314764 38613332 39023692 39572224 40271428 41121464 42116528 
853.835 43251512 44527860 45954424 47543588 49303956 51232428 53309260 
857.210 55498832 57755008 60031188 62288768 64502968 66662856 68765368 
860.585 70808760 72786320 74683880 76483384 78168720 79733104 81181592 
863.960 82529960 83798896 85005432 86157440 87251016 88274184 89213912 
867.335 90062832 90824384 91511312 92140504 92724104 93260912 93732136 
870.709 94101448 94321016 94340240 94114600 93613688 92823848 91747872 
874.084 90401304 88807872 86994696 84989816 82820568 80514216 78098688 
877.459 75603608 73060808 70503280 67963608 65471748 63052624 60725008 
880.834 58501380 56390124 54398916 52538080 50822764 49272212 47906592 
884.209 46741404 45781868 45019828 44434028 43994488 43669276 43431264 
887.583 43262640 43155140 43107188 43118232 43184284 43294608 43432880 
890.958 43579656 43716612 43830192 43912500 43961236 43978044 43966588 
894.333 43930904 43874916 43802124 43715008 43614200 43498264 43364020 
897.708 43207896 43028840 42831020 42625188 42428232 42259624 42136228 
901.083 42067152 42050648 42074004 42117020 42157848 42178724 42171252 
904.458 42137420 42088860 42042808 42017380 42027316 42080436 42176308 
907.832 42306644 42456848 42609992 42749880 42865368 42952368 43014980 
911.207 43065056 43117912 43189584 43293528 43437576 43624528 43852784 
914.582 44117936 44413928 44733516 45067748 45405816 45735096 46043052 
917.957 46319772 46560036 46764812 46939912 47093900 47234196 47364820 
921.332 47485476 47593380 47686668 47766776 47840716 47919600 48016152 
924.706 48141120 48300016 48492492 48713796 48957512 49218276 49493424 
928.081 49783140 50088364 50408724 50740632 51077220 51409396 51728012 
931.456 52026308 52301244 52553372 52786488 53005116 53213196 53412504 
934.831 53602380 53780216 53942152 54085372 54209320 54316768 54413600 
938.206 54507672 54606372 54714016 54830452 54950524 55066556 55171220 
941.581 55261628 55341736 55422196 55518348 55645376 55814052 56028424 
944.955 56284796 56575716 56893208 57233364 57597852 57993380 58428628 
948.330 58909572 59437264 60005432 60603024 61216064 61832044 62441144 
951.705 63037632 63617372 64175724 64703940 65187752 65606564 65934940 
955.080 66145032 66210212 66108876 65827616 65363780 64726136 63934460 
958.455 63017056 62006252 60935024 59832392 58722088 57622456 56547792 
961.829 55510884 54524992 53603984 52762604 52013700 51366972 50826340 
965.204 50390376 50051756 49799076 49618624 49495888 49416948 49370140 
968.579 49346004 49338180 49342928 49358392 49384592 49422184 49472424 
971.954 49536872 49617988 49719084 49843616 49994560 50172388 50373924 
975.329 50591680 50815232 51033640 51238776 51428004 51605688 51781776 
978.703 51969012 52177644 52412128 52668932 52937828 53204852 53457248 
982.078 53687384 53895260 54087824 54277584 54477644 54699032 54947780 
985.453 55224548 55524912 55842096 56168676 56498860 56831044 57166680 
988.828 57512256 57876492 58268844 58695752 59158408 59651464 60163216 
992.203 60679396 61187432 61681576 62165912 62655160 63170656 63735620 
995.578 64368120 65076464 65857260 66697492 67579072 68484128 69399712 
998.952 70319640 71244136 72176920 73122352 74083704 75062328 76059328 
1002.327 77077072 78120976 79200576 80329096 81522256 82797776 84174320 
1005.702 85671408 87309000 89107024 91084768 93260384 95650680 98272448 
1009.077 101144904 104292792 107749248 111556936 115766920 120433248 
1011.970 125605720 131318792 137579776 144356720 151567328 159072352 
1014.862 166674144 174125312 181146816 187457296 192808448 197021536 
1017.755 200015136 201819696 202572496 202494752 201858400 200948448 
1020.648 200027920 199313312 198961728 199068640 199674416 200775872 
1023.540 202339504 204313856 206640624 209263376 212133504 215215056 
1026.433 218484656 221931776 225555280 229360336 233353968 237543552 
1029.326 241935520 246535024 251346976 256375488 261622848 267087872 
1032.219 272764224 278639584 284695520 290909120 297253504 303698400 
1035.113 310207520 316736896 323231648 329626144 335847072 341819840 
1038.006 347476096 352760704 357635008 362074176 366062336 369584448 
1040.899 372621888 375151328 377148224 378592736 379476448 379803584 
1043.792 379589792 378858720 377637088 375953248 373839136 371333440 
1046.685 368484096 365348832 361990976 358474144 354855968 351185984 
1049.578 347506720 343856544 340272448 336791840 333448064 330265632 
1052.471 327253600 324404128 321694240 319094560 316578432 314130816 
1055.364 311753472 309465952 307300672 305298688 303504928 301966336 
1058.257 300733120 299859072 299404000 299431584 300007808 301196000 
1061.150 303054816 305634464 308976160 313111136 318060480 323833792 
1064.043 330427456 337824256 345993376 354893728 364476992 374693856 
1066.936 385498528 396849984 408713568 421057568 433851040 447060320 
1069.829 460647648 474568608 488771648 503197376 517778880 532443872 
1072.722 547119616 561739584 576250880 590617088 604818304 618843584 
1075.615 632680000 646303232 659673408 672736704 685433088 697707328 
1078.509 709514432 720818176 731583936 741767104 751306368 760118400 
1081.402 768107200 775172160 781219328 786167424 789952128 792524608 
1084.295 793854592 793935488 792791872 790483712 787105536 782777472 
1087.188 777632128 771797632 765387840 758496576 751200320 743560768 
1090.081 735630528 727455616 719075904 710526528 701839616 693046208 
1092.974 684177984 675266688 666340800 657419840 648511680 639609792 
1095.867 630698624 621758592 612774528 603738816 594652544 585521344 
1098.760 576351552 567145536 557902400 548619776 539297728 529940352 
1101.653 520555552 511153056 501740992 492325056 482911648 473511872 
1104.546 464148608 454859904 445701120 436741696 428060896 419742656 
1107.439 411870976 404526016 397780608 391697376 386324160 381690720 
1110.332 377806336 374660352 372224672 370459200 369315616 368740672 
1113.225 368676064 369057632 369813440 370865440 372133088 373541472 
1116.118 375029920 376557792 378106272 379674976 381273824 382913856 
1119.011 384601728 386336320 388111904 389921888 391762688 393633376 
1121.905 395533632 397457440 399388256 401296416 403138176 404860800 
1124.798 406406848 407719360 408743936 409432640 409742944 409641696 
1127.691 409105536 408123840 406698720 404843904 402580960 399933088 
1130.584 396920544 393555648 389842176 385774496 381340064 376522560 
1133.477 371305184 365673248 359618976 353143168 346257408 338985280 
1136.370 331360192 323423904 315223616 306809440 298234112 289551840 
1139.263 280819168 272094560 263438016 254908688 246564192 238457600 
1142.156 230636624 223144176 216017552 209288576 202984144 197125936 
1145.049 191729648 186805056 182355456 178378880 174868208 171812048 
1147.942 169196160 167003520 165215920 163813632 162776736 162084512 
1150.835 161715776 161648832 161860576 162326816 163021968 163919216 
1153.728 164992208 166215120 167564816 169021472 170569888 172199248 
1156.621 173903296 175679920 177528960 179453120 181455152 183537344 
1159.514 185700320 187942304 190260720 192652576 195118352 197663728 
1162.407 200302176 203055520 205952592 209026848 212312864 215843376 
1165.301 219648816 223757808 228198800 233003984 238210752 243863728 
1168.194 250014544 256720928 264045056 272052160 280808192 290377536 
1171.087 300820288 312188256 324520800 337840096 352147456 367421152 
1173.980 383613088 400646112 418410688 436759552 455502176 474400544 
1176.873 493169056 511479968 528976544 545291712 560070848 572995008 
1179.766 583800000 592292992 598362560 601982336 603210368 602179968 
1182.659 599085952 594166080 587681984 579901504 571085632 561480448 
1185.552 551312192 540784000 530073120 519330016 508676992 498210400 
1188.445 488004000 478114176 468586240 459455584 450749824 442488000 
1191.338 434678976 427322016 420409216 413929216 407871648 402229152 
1194.231 396998336 392175392 387753856 383720576 380055168 376731936 
1197.124 373724416 371009504 368570496 366397760 364486496 362832832 
1200.017 361430720 360269664 359333664 358602560 358052576 357657440 
1202.910 357388512 357215296 357104640 357023040 356937472 356816576 
1205.803 356632928 356362880 355986624 355487360 354850912 354065184 
1208.697 353119456 352004096 350709376 349225536 347542176 345649408 
1211.590 343541696 341218752 338689216 335970016 333084032 330057376 
1214.483 326913728 323673408 320351392 316960288 313512416 310021792 
1217.376 306504704 302978368 299458496 295958656 292489760 289061888 
1220.269 285687168 282379936 279156224 276031488 273016352 270114464 
1223.162 267321856 264629632 262026704 259504944 257060080 254691568 
1226.055 252400544 250186656 248046448 245973968 243962880 242009840 
1228.948 240116624 238291072 236544928 234892176 233345552 231915680 
1231.841 230611152 229439152 228407632 227525408 226802016 226246336 
1234.734 225865552 225664928 225647040 225812192 226158864 226683216 
1237.627 227379088 228237008 229244320 230386368 231647424 233012912 
1240.520 234468784 236001664 237596192 239232928 240886800 242527408 
1243.413 244120640 245631984 247030752 248292304 249399760 250345104 
1246.306 251128608 251758896 252252704 252633600 252930608 253174960 
1249.199 253397376 253624144 253875488 254165648 254503344 254893984 
1252.093 255340576 255844480 256404544 257016448 257673408 258366384 
1254.986 259088128 259835248 260609952 261420336 262277696 263193072 
1257.879 264174192 265223680 266339424 267515920 268746688 270025632 
1260.772 271346752 272701920 274080192 275465344 276835872 278166528 
1263.665 279429696 280596896 281639264 282527968 283232800 283724256 
1266.558 283973120 283953248 283642944 283026880 282095968 280846944 
1269.451 279280832 277402208 275218240 272738720 269975872 266944768 
1272.344 263663296 260152016 256433456 252533168 248478016 244295152 
1275.237 240011072 235649120 231228000 226761984 222261152 217734928 
1278.130 213194208 208653824 204133152 199655680 195245536 190925328 
1281.023 186713744 182624080 178665680 174844448 171164752 167630096 
1283.916 164243552 161006432 157918608 154977840 152180656 149523728 
1286.809 147004672 144622960 142380096 140278064 138318832 136503520 
1289.702 134831808 133301944 131911128 130655648 129529728 128525016 
1292.595 127630008 126829800 126107680 125446720 124832344 124254288 
1295.489 123707008 123189064 122700568 122242536 121814152 121413320 
1298.382 121037208 120684536 120355752 120054248 119785008 119552520 
1301.275 119359016 119202256 119075936 118969912 118872008 118769832 
1304.168 118652456 118510848 118338064 118128808 117879392 117587544 
1307.061 117252664 116875880 116459888 116007920 115522776 115005104 
1309.954 114452472 113859344 113218392 112521544 111762272 110938392 
1312.847 110051632 109109560 108123880 107110072 106086072 105070704 
1315.740 104082616 103138848 102252960 101433432 100683568 100000728 
1318.633 99377880 98805424 98273032 97771608 97294080 96834056 96386504 
1322.008 95945824 95506632 95064528 94617720 94168840 93725016 93297264 
1325.384 92897992 92539032 92229080 91973736 91776144 91639376 91568168 
1328.759 91569520 91652720 91826904 92098760 92471000 92942128 93508056 
1332.134 94163456 94904552 95729008 96635192 97619632 98674416 99785520 
1335.509 100932968 102092848 103241120 104356792 105424304 106435600 
1338.402 107388344 108285024 109130744 109932368 110697696 111435624 
1341.295 112155888 112870176 113591056 114332368 115108600 115934440 
1344.188 116824128 117790472 118843464 119989992 121232256 122568656 
1347.082 123993808 125500720 127080680 128725064 130424264 132167352 
1349.975 133941504 135732096 137523216 139299616 141046848 142753120 
1352.868 144407280 145997712 147511504 148933200 150247008 151438560 
1355.761 152498464 153423536 154217056 154886768 155441456 155889280 
1358.654 156237008 156490720 156658400 156752256 156789440 156790368 
1361.547 156775456 156761120 156756624 156761776 156768016 156759712 
1364.440 156717008 156616976 156435248 156146512 155724960 155145904 
1367.333 154386752 153430624 152267632 150897520 149331488 147593312 
1370.226 145721488 143769664 141807344 139918448 138198240 136748432 
1373.119 135669312 135051408 134966768 135461248 136549120 138210416 
1376.012 140392080 143011120 145961264 149120288 152359776 155554096 
1378.905 158588880 161366896 163810176 165858896 167466176 168595472 
1381.798 169215664 169302464 168840208 167825376 166270160 164202048 
1384.691 161663264 158707440 155395232 151790480 147956736 143952656 
1387.584 139830336 135632496 131392120 127134072 122877944 118641224 
1390.478 114441720 110298952 106233144 102264320 98409904 94684472 91099760 
1393.853 87666120 84393416 81292944 78376920 75657280 73145240 70849432 
1397.228 68775336 66924764 65295888 63882740 62676124 61663448 60830720 
1400.603 60164316 59653196 59292180 59081884 59029596 59146488 59443796 
1403.979 59927940 60595752 61431272 62403612 63467600 64566716 65635524 
1407.354 66605120 67406592 67976208 68260096 68219048 67833600 67106768 
1410.729 66065112 64756208 63243828 61600400 59898864 58205712 56575296 
1414.104 55047424 53645940 52380580 51248884 50240020 49338244 48526964 
1417.479 47791500 47122888 46518120 45979968 45514388 45127852 44823552 
1420.855 44600424 44452768 44371516 44347424 44372128 44438596 44540432 
1424.230 44670036 44817148 44968856 45111932 45235712 45336384 45418556 
1427.605 45496716 45593052 45733984 45945944 46252600 46672248 47218028 
1430.980 47898428 48718104 49679380 50782536 52027472 53414372 54945412 
1434.356 56625840 58463920 60469972 62655596 65032260 67611768 70407184 
1437.731 73435096 76716352 80275864 84138880 88326312 92849792 97707264 
1441.106 102881496 108341376 114043744 119936592 125960648 132050440 
1443.999 138135088 144141264 149995376 155629392 160983040 166005312 
1446.892 170655536 174902272 178722448 182102256 185038112 187535024 
1449.785 189605840 191266352 192531936 193414352 193921232 194057280 
1452.678 193826576 193232864 192279488 190966864 189291056 187244544 
1455.572 184818544 182008896 178820464 175269376 171382016 167190672 
1458.465 162729792 158033360 153135568 148072144 142883136 137611248 
1461.358 132300344 126990664 121716120 116503368 111373872 106346216 
1464.251 101439784 96675224 92074008 87656848 83441496 79442736 75672208 
1467.626 72138688 68848104 65801384 62993892 60413988 58045024 55867196 
1471.001 53861044 52010104 50301560 48725776 47273904 45935676 44698860 
1474.376 43549408 42473420 41457972 40492676 39568496 38677400 37811960 
1477.752 36965292 36132900 35313436 34510068 33728552 32975826 32256362 
1481.127 31570558 30913686 30278482 29657086 29044996 28442196 27853232 
1484.502 27284860 26743142 26231628 25749858 25294110 24859908 24443418 
1487.877 24043512 23662274 23303822 22973772 22677058 22417200 22194846 
1491.253 22007442 21849720 21714278 21592938 21480076 21374176 21278904 
1494.628 21203338 21158996 21156812 21202962 21295816 21428260 21589226 
1498.003 21769778 21967794 22190500 22453066 22774868 23171922 23650934 
1501.378 24204308 24808314 25426504 26013572 26522678 26910462 27143294 
1504.754 27200172 27075020 26777700 26332338 25773278 25140858 24475520 
1508.129 23812568 23179494 22594766 22069006 21607146 21210248 20876286 
1511.504 20601090 20378280 20199492 20054480 19933240 19826316 19726782 
1514.879 19630094 19534182 19438588 19344130 19251438 19162320 19079108 
1518.255 19004860 18943928 18899906 18875798 18871886 18885286 18910152 
1521.630 18938454 18961842 18973092 18968454 18947550 18913742 18873104 
1525.005 18832804 18799760 18778080 18768980 18769546 18773546 18773484 
1528.380 18762058 18733952 18687168 18623046 18545438 18459598 18370792 
1531.756 18283504 18201494 18127478 18063234 18009342 17964556 17925698 
1535.131 17887962 17845866 17795902 17737544 17674442 17614182 17565660 
1538.506 17536312 17529352 17542070 17566524 17592410 17610284 17615010 
1541.881 17606774 17590246 17572130 17558094 17550240 17546582 17541398 
1545.257 17528266 17501090 17457070 17397034 17325440 17248130 17171828 
1548.632 17101380 17039268 16984700 16934102 16882524 16824700 16756883 
1552.007 16678751 16593298 16506223 16424956 16355986 16303549 16269183 
1555.382 16251737 16248962 16258750 16279956 16312165 16354335 16403934 
1558.758 16455734 16503649 16541373 16565504 16576873 16579609 16581178 
1562.133 16588472 16606376 16635915 16675081 16719099 16763570 16804560 
1565.508 16840630 16871556 16898406 16923196 16948156 16976804 17014152 
1568.883 17065698 17137002 17232044 17351434 17493070 17651862 17822758 
1572.259 18002456 18190656 18389886 18603866 18834922 19081752 19338154 
1575.634 19593836 19835730 20051006 20228802 20361998 20446326 20480380 
1579.009 20464750 20401336 20294376 20150156 19977564 19786896 19588670 
1582.384 19392482 19205506 19032812 18876994 18739132 18618794 18514382 
1585.760 18422708 18340052 18262268 18186282 18111604 18040126 17976338 
1589.135 17924784 17889194 17870236 17865756 17871282 17882214 17895696 
1592.510 17910972 17929668 17953950 17984694 18020552 18058434 18095038 
1595.885 18129002 18162496 18201926 18255944 18333854 18441780 18581992 
1599.260 18751654 18945366 19156626 19381052 19617630 19869380 20141204 
1602.636 20438828 20765038 21118642 21493572 21878790 22260650 22625744 
1606.011 22962912 23265436 23531966 23765746 23973102 24160056 24330218 
1609.386 24482902 24613160 24713052 24774200 24791238 24763024 24693398 
1612.761 24590472 24463808 24323024 24175156 24024848 23874428 23724944 
1616.137 23577782 23434164 23296300 23166412 23046666 22938280 22842200 
1619.512 22758548 22686822 22626092 22575036 22532214 22496470 22467640 
1622.887 22445948 22432794 22429292 22435950 22451724 22474676 22502252 
1626.262 22532626 22565458 22602370 22645208 22695924 22754190 22816836 
1629.638 22877910 22930814 22969570 22991046 22995832 22987936 22973716 
1633.013 22959994 22952850 22956662 22972666 23000650 23037992 23080728 
1636.388 23124222 23163472 23194844 23215918 23227180 23231494 23232938 
1639.763 23236626 23246494 23265346 23293644 23331344 23377272 23430978 
1643.139 23491476 23557636 23627438 23697734 23764242 23823290 23873348 
1646.514 23915202 23951714 23986894 24023954 24063970 24105814 24146830 
1649.889 24184646 24219430 24254058 24293854 24345336 24414348 24503854 
1653.264 24613940 24742362 24886026 25042338 25210248 25388964 25577602 
1656.640 25774530 25976286 26178604 26378178 26573020 26763334 26952488 
1660.015 27144936 27346686 27563062 27798438 28056064 28336944 28640448 
1663.390 28963916 29303322 29653588 30010472 30371530 30736362 31107284 
1666.765 31487532 31880944 32289748 32713688 33150320 33595672 34045548 
1670.141 34496400 34946272 35394396 35841228 36287180 36733180 37179752 
1673.516 37627360 38076944 38529208 38985628 39448676 39921120 40407384 
1676.891 40912396 41440796 41995880 42577744 43182988 43804828 44434508 
1680.266 45063344 45684764 46295692 46895160 47483720 48061508 48628668 
1683.642 49184932 49732960 50279104 50834376 51412232 52025208 52682308 
1687.017 53386988 54136904 54927388 55754216 56616848 57519396 58468568 
1690.392 59472536 60537532 61667100 62863828 64131648 65477660 66914016 
1693.767 68454800 70114272 71902896 73825304 75883640 78081296 80429752 
1697.143 82951720 85682272 88665360 91946824 95568176 99562296 103952536 
1700.518 108758016 114000144 119710824 125936288 132737608 140186080 
1703.411 148356480 157319968 167139696 177867696 189543136 202192544 
1706.304 215825936 230433744 245982240 262410400 279633504 297548608 
1709.197 316044128 335005440 354314880 373843264 393436928 412906144 
1712.090 432023200 450529440 468155552 484646464 499783808 513405856 
1714.983 525420128 535810336 544640704 552050560 558235584 563420096 
1717.876 567820224 571609664 574903040 577756032 580185344 582193152 
1720.769 583788032 584992768 585839808 586360320 586576576 586500864 
1723.662 586144576 585529664 584695104 583694784 582586240 581416576 
1726.555 580215040 578993280 577756672 576515072 575291776 574121472 
1729.448 573040512 572073536 571225792 570487616 569847040 569305216 
1732.342 568888128 568648000 568653440 568974016 569666688 570772608 
1735.235 572325120 574362496 576941824 580141888 584056128 588777984 
1738.128 594386048 600934016 608451264 616950080 626436608 636915264 
1741.021 648386368 660834880 674217408 688454656 703434368 719018880 
1743.914 735057472 751390208 767843456 784215744 800268608 815726848 
1746.807 830298752 843708800 855729216 866202048 875034368 882177152 
1749.700 887597760 891259264 893119552 893142976 891318976 887668608 
1752.593 882240832 875095872 866289536 855870336 843888320 830413248 
1755.486 815551040 799447808 782279104 764229760 745473280 726159936 
1758.379 706419520 686369472 666127168 645817984 625574528 605529280 
1761.272 585806592 566517952 547757568 529602592 512113024 495328480 
1764.165 479265696 463915520 449244576 435202528 421734432 408794240 
1767.058 396353920 384406112 372958976 362023584 351602272 341679712 
1769.951 332220928 323176160 314488768 306104000 297973856 290058400 
1772.844 282323680 274738336 267272800 259898864 252592272 245335648 
1775.738 238118256 230935872 223786848 216669488 209580768 202516320 
1778.631 195474288 188457488 181475984 174546176 167688752 160925216 
1781.524 154274352 147752640 141375072 135158240 129121944 123288400 
1784.417 117680568 112317088 107209664 102361824 97770544 93430304 89336904 
1787.792 85488816 81886504 78528072 75406824 72508680 69813024 67298256 
1791.167 64944720 62739252 60675308 58751072 56965848 55317216 53798352 
1794.542 52400200 51112568 49924636 48826536 47807436 46854400 45951804 
1797.918 45084696 44240612 43413892 42607012 41829812 41094912 40412904 
1801.293 39788108 39216824 38689580 38194656 37722352 37266764 36825480 
1804.668 36397312 35979304 35564676 35145292 34713716 34267580 33812268 
1808.043 33359550 32926544 32527470 32172232 31860560 31584874 31330370 
1811.419 31081246 30823392 30548320 30252846 29939360 29614164 29285244 
1814.794 28961598 28651638 28362024 28097562 27858802 27643556 27445836 
1818.169 27258790 27075052 26888770 26696130 26496078 26288552 26074106 
1821.544 25854056 25629714 25401576 25170072 24934468 24693012 24442396 
1824.920 24179324 23901992 23612204 23316014 23025208 22753478 22514968 
1828.295 22318396 22164510 22043912 21938966 21826252 21682142 21487922 
1831.670 21233746 20918752 20553436 20153834 19739590 19330016 18941604 
1835.045 18585044 18267346 17989616 17751218 17550536 17385822 17256150 
1838.421 17160970 17096936 17058022 17034282 17012086 16977294 16917804 
1841.796 16827378 16707243 16566429 16418334 16276861 16150426 16039407 
1845.171 15933959 15816366 15667291 15470947 15221467 14924850 14599940 
1848.546 14273621 13975134 13731079 13559842 13469414 13458330 13515422 
1851.922 13623903 13761423 13902656 14020802 14091392 14095557 14024804 
1855.297 13883656 13689239 13468437 13250083 13057878 12904520 12789015 
1858.672 12701053 12626885 12557312 12492403 12441864 12419039 12434972 
1862.047 12490256 12573649 12663552 12734440 12764650 12741720 12662539 
1865.423 12530846 12350771 12124004 11848600 11522504 11151131 10752139 
1868.798 10356648 10005791 9740232 9592183 9574586 9678938 9877571 10130364 
1872.655 10392981 10625506 10796311 10886746 10890555 10815348 10680608 
1876.031 10515723 10354944 10232022 10171660 10184480 10264045 10388485 
1879.406 10527451 10650733 10736913 10779005 10783410 10768042 10752602 
1882.781 10753207 10776065 10816328 10859963 10889320 10887485 10843799 
1886.156 10757666 10639771 10509355 10391814 10310019 10281098 10306792 
1889.531 10375485 10461025 10529164 10545051 10481470 10324353 10074763 
1892.907 9747374 9367916 8968584 8584784 8252647 8006776 7874422 7873062 
1896.764 8002163 8242512 8554270 8884739 9180263 9396605 9511679 9528870 
1900.622 9472426 9378879 9282684 9204419 9147155 9096366 9029998 8928973 
1904.479 8784987 8607789 8420271 8253555 8135202 8082263 8095219 8160399 
1908.336 8252883 8346765 8421339 8467509 8489916 8503828 8527982 8578322 
1912.194 8658906 8760734 8860257 8929459 8940812 8879586 8751002 8580625 
1916.051 8409170 8280569 8228961 8266834 8378093 8520822 8636214 8666593 
1919.909 8569534 8331938 7973998 7546074 7115587 6751434 6508081 6415891 
1923.766 6475694 6663602 6940508 7260621 7578183 7854727 8057826 8162934 
1927.624 8154078 8031368 7812505 7535355 7253900 7023405 6883270 6844157 
1931.481 6874513 6914694 6892018 6748530 6465547 6074537 5649252 5283899 
1935.338 5061788 5030528 5189789 5495833 5882412 6281004 6638231 6924734 
1939.196 7125876 7236345 7252992 7176390 7016546 6802306 6581011 6406096 
1943.053 6318497 6330770 6415799 6517305 6569771 6531254 6404363 6238447 
1946.911 6110684 6092635 6220458 6473962 6787417 7075872 7271513 7355958 
1950.768 7363252 7369377 7453196 7660152 7979844 8347783 8665049 8835309 
1954.625 8795414 8537777 8108294 7587005 7064080 6612708 6272029 6041273 
1958.483 5885015 5750469 5578432 5322570 4968325 4529140 4052681 3608829 
1962.340 3275807 3128039 3223938 3598132 4261201 5201715 6381041 7728700 
1966.198 9129056 10423351 11409532 11879171 11660538 10671761 8962749 
1969.573 6721427 4249481 1901425 -3657 -1253109 -1786400 -1701855 -1207226 
1973.430 -555458 35186 443638 664135 804608 1043352 1569166 2524403 3948784 
1977.770 5758234 7763107 9717611 11389266 12618037 13347854 13622280 
1981.145 13561246 13315194 13032688 12820675 12730366 12757139 12853849 
1984.521 12956756 13010378 12979681 12856793 12654781 12398424 12117976 
1987.896 11849036 11630128 11504187 11507109 11664581 11973790 12396998 
1991.271 12865615 13285719 13558234 13594444 13326014 12716809 11761412 
1994.646 10489615 8967371 7296561 5611193 4061136 2784553 1884630 1401776 
1998.504 1304029 1500042 1864342 2277933 2655353 2959810 3197428 3392010 
2002.361 3559283 3692346 3762428 3738730 3608187 3388110 3128241 2883260 
2006.219 2685836 2528969 2367521 2147408 1844296 1493078 1185493 1044641 
2010.076 1179126 1636189 2377682 3284245 4188433 4914331 5327016 5347018 
2013.933 4951348 4163005 3033213 1634024 60914 -1564409 -3081430 -4315329 
2017.791 -5097624 -5298997 -4858837 -3795299 -2202520 -240126 1898078 
2021.166 3991603 5820636 7197941 7987759 8142344 7723003 6883834 5850100 
2025.023 4851565 4051073 3498160 3107768 2710628 2111854 1180844 -87027 
2028.881 -1567290 -3040949 -4278365 -5118860 -5508188 -5495919 -5178725 
2032.256 -4628602 -3856348 -2802800 -1392417 394969 2470646 4614619 6529291 
2036.114 7925554 8608882 8536226 7825608 6696149 5396000 4119746 2963574 
2039.971 1921749 924305 -105617 -1194679 -2296616 -3297192 -4046374 -4411040 
2043.828 -4309723 -3736265 -2757969 -1487141 -55307 1417744 2839987 4141009 
2047.686 5267975 6174172 6815879 7159760 7197590 6959444 6515430 5966543 
2051.543 5427107 4998158 4740320 4664984 4716830 4793810 4776938 4566915 
2055.401 4134805 3532815 2888500 2365077 2107735 2193797 2600210 3206597 
2059.258 3832111 4292804 4458436 4296461 3873627 3331011 2835761 2525916 
2063.115 2480717 2705315 3151511 3745534 4419845 5129597 5849748 6560260 
2066.973 7232931 7817552 8250618 8477007 8468741 8244141 7871913 7456366 
2070.830 7112255 6938368 6992835 7284920 7776786 8394493 9044901 9629671 
2074.688 10063332 10280469 10243624 9948974 9426767 8737691 7963125 7192822 
2078.545 6512299 5988327 5662684 5553254 5654350 5945646 6395784 6964516 
2082.403 7606852 8268046 8890710 9419552 9806726 10020665 10051905 9911339 
2086.260 9628554 9244300 8800675 8334864 7873544 7430319 7007125 6598162 
2090.117 6194005 5789702 5389089 5010695 4686211 4457625 4365903 4439187 
2093.975 4681047 5064937 5534567 6019679 6450371 6777120 6980771 7072573 
2097.832 7085967 7057608 7014311 6966508 6903896 6807326 6658907 6453932 
2101.690 6206913 5951225 5732294 5596393 5579725 5698285 5945697 6289422 
2105.547 6681990 7068367 7398227 7639724 7783151 7843255 7853153 7850015 
2109.405 7864287 7910788 7983196 8062769 8125868 8158503 8161284 8150433 
2113.262 8152011 8189413 8271219 8389131 8513829 8605696 8621247 8523049 
2117.119 8285299 7896544 7359280 6691486 5927484 5117376 4325818 3624722 
2120.977 3082753 2747042 2631960 2709430 2911400 3141035 3297878 3296507 
2124.834 3088359 2671738 2086316 1404897 711543 82888 -428801 -805113 
2128.692 -1059858 -1236099 -1393364 -1591679 -1881701 -2291930 -2823979 
2132.067 -3451964 -4128274 -4787665 -5361849 -5786920 -6013728 -6019092 
2135.442 -5806310 -5413851 -4906495 -4367837 -3891879 -3558922 -3424067 
2138.817 -3505534 -3784216 -4213276 -4732502 -5289474 -5846506 -6387459 
2142.193 -6904740 -7389641 -7820503 -8166739 -8394314 -8490625 -8477604 
2145.568 -8407374 -8363388 -8421300 -8635431 -9013880 -9524230 -10110865 
2148.943 -10720905 -11321816 -11913680 -12515491 -13156886 -13860078 
2151.836 -14648408 -15556085 -16643394 -18001498 -19734226 -21911080 
2154.729 -24509236 -27367794 -30160732 -32443236 -33723624 -33588440 
2157.622 -31831916 -28549006 -24144268 -19250776 -14538407 -10541171 
2160.515 -7541850 -5561390 -4456517 -4022818 -4074793 -4477615 -5147095 
2163.891 -6015741 -7006692 -8015462 -8918006 -9587349 -9925758 -9889037 
2167.266 -9496228 -8831886 -8026818 -7231397 -6589545 -6207807 -6140325 
2170.641 -6382449 -6876164 -7521960 -8204488 -8804605 -9218181 -9359066 
2174.016 -9168988 -8632392 -7779258 -6702846 -5559865 -4541231 -3845065 
2177.392 -3621792 -3927469 -4702401 -5770190 -6875672 -7750443 -8177583 
2180.767 -8051519 -7406869 -6395957 -5240800 -4151546 -3267242 -2625401 
2184.142 -2168630 -1794160 -1409907 -974908 -526416 -157555 17680 -83997 
2188.000 -472466 -1071735 -1728953 -2263059 -2513035 -2385246 -1881030 
2191.375 -1094836 -179139 701497 1418954 1908019 2167606 2235195 2153691 
2195.232 1938849 1568009 1005996 233072 -706741 -1693216 -2537113 -3032588 
2199.090 -3021342 -2454248 -1415912 -109575 1199415 2261279 2914750 3125043 
2202.947 2978404 2644078 2310820 2130433 2180467 2461035 2914871 3455465 
2206.804 3992415 4453485 4781980 4941495 4915358 4716483 4393183 4035068 
2210.662 3757886 3685013 3910415 4471239 5332389 6392190 7507724 8528003 
2214.519 9328931 9837737 10030559 9929032 9576667 9028670 8341413 7572433 
2218.377 6780862 6031838 5390953 4915937 4645094 4588434 4727942 5014104 
2222.234 5381468 5760022 6085515 6314846 6433419 6457816 6431829 6417487 
2226.092 6476716 6653182 6955424 7351957 7779706 8161955 8437463 8581545 
2229.949 8616720 8606656 8629769 8748529 8982731 9297363 9609616 9818871 
2233.806 9835120 9612029 9158052 8533135 7826878 7132550 6526155 6051661 
2237.664 5722684 5537453 5486281 5564909 5774865 6114977 6573656 7121002 
2241.521 7705420 8262342 8726708 9048440 9205473 9208501 9101788 8952176 
2245.379 8834728 8816276 8940217 9213836 9607349 10056493 10475160 10772515 
2249.236 10872255 10727922 10334723 9730527 8986128 8194508 7450783 6837473 
2253.094 6410843 6197064 6192002 6366387 6675144 7064590 7476876 7856426 
2256.951 8150168 8314600 8320148 8156598 7842638 7421986 6967704 6565911 
2260.808 6301005 6238711 6411021 6809230 7387601 8073605 8789590 9465571 
2264.666 10054213 10533000 10901703 11170759 11355367 11465080 11509323 
2268.041 11493827 11429051 11331093 11221619 11121467 11048893 11014261 
2271.416 11022917 11076486 11177061 11328570 11534118 11793009 12092351 
2274.792 12407783 12705883 12952247 13122346 13210132 13230210 13211520 
2278.167 13189532 13193090 13239272 13330257 13460725 13624586 13820118 
2281.542 14052567 14327743 14645089 14990311 15335336 15641417 15873650 
2284.917 16007781 16040323 15987216 15877739 15743515 15608328 15482266 
2288.292 15362017 15235572 15089298 14915568 14713992 14491272 14259729 
2291.668 14032146 13818844 13628446 13465264 13332076 13229040 13154401 
2295.043 13104540 13076391 13065804 13072788 13100053 13152088 13232383 
2298.418 13340344 13468357 13599603 13714465 13791057 13815129 13781688 
2301.793 13698133 13582537 13459248 13354486 13288285 13273349 13311181 
2305.169 13392448 13497992 13604362 13687002 13726130 13711869 13645740 
2308.544 13541675 13421216 13308398 13225324 13185967 13195856 13252618 
2311.919 13348995 13475388 13621734 13778031 13934801 14084198 14220916 
2315.294 14345648 14466788 14597255 14751939 14941150 15165631 15416690 
2318.670 15680555 15946705 16217170 16508682 16847540 17254156 17727090 
2322.045 18229116 18685100 18997400 19070686 18840762 18294624 17476238 
2325.420 16477032 15413141 14400756 13529676 12851088 12372925 12067071 
2328.795 11884527 11773691 11692805 11616657 11535560 11450686 11367270 
2332.171 11290933 11226840 11179764 11154711 11156783 11188102 11246188 
2335.546 11322063 11401573 11467578 11504948 11502702 11457755 11372988 
2338.921 11258341 11127436 10996100 10881110 10796495 10751993 10749973 
2342.296 10783951 10839283 10896285 10935182 10941515 10911413 10851850 
2345.672 10779461 10714746 10676563 10676320 10716244 10788810 10879029 
2349.047 10967952 11036064 11066667 11047681 10973492 10847940 10682266 
2352.422 10496947 10315206 10159095 10044450 9975926 9945904 9937303 9928224 
2356.280 9898726 9838229 9746962 9637211 9529082 9445058 9402574 9410335 
2360.137 9463240 9543166 9622974 9671618 9661426 9576326 9416841 9200426 
2363.994 8958526 8728199 8542550 8421727 8369623 8374728 8416598 8474463 
2367.852 8535278 8596281 8662455 8742513 8839717 8949958 9061048 9157212 
2371.709 9225910 9261729 9268053 9254782 9233096 9211399 9193424 9179174 
2375.567 9169364 9167413 9180156 9216505 9281958 9376460 9492563 9618507 
2379.424 9743007 9859609 9969261 10076662 10187939 10302619 10412652 
2382.799 10501525 10551594 10549739 10492658 10390786 10265336 10141208 
2386.175 10042508 9984655 9973178 10004663 10068442 10152067 10241966 
2389.550 10326631 10398057 10450798 10484754 10503996 10516282 10530413 
2392.925 10553439 10587368 10627162 10662323 10680903 10672711 10633798 
2396.300 10568965 10487826 10404493 10331083 10275783 10241890 10227814 
2399.676 10230352 10244854 10266352 10289223 10307279 10314011 10304986 
2403.051 10279074 10242856 10208233 10190892 10205004 10258560 10348525 
2406.426 10462534 10579982 10680162 10747829 10777070 10772131 10744367 
2409.801 10706425 10667342 10629050 10587435 10535957 10469203 10388540 
2413.177 10302117 10223904 10168198 10146640 10161998 10209525 10278898 
2416.552 10358088 10436098 10506056 10562692 10602354 10617017 10597756 
2419.927 10534188 10423781 10274544 10109637 9964454 9877884 9881877 9989453 
2423.784 10188623 10444205 10705469 10920864 11050212 11074342 10996513 
2427.160 10836677 10623747 10383718 10136583 9892251 9656325 9433926 9232201 
2431.017 9063985 8942932 8880754 8883002 8945732 9056790 9196620 9342704 
2434.875 9473970 9573467 9633754 9654317 9644331 9618696 9593457 9580681 
2438.732 9586002 9606327 9634409 9662096 9685630 9709826 9745952 9806836 
2442.589 9899523 10021260 10155646 10278735 10365326 10395594 10362215 
2445.965 10267944 10123151 9938958 9723547 9484199 9230571 8980916 8763293 
2449.822 8612073 8558443 8617671 8782068 9018231 9277405 9508947 9678207 
2453.679 9773964 9812239 9824017 9842530 9887819 9960234 10041554 10103924 
2457.537 10122841 10085858 9996898 9872219 9734347 9601871 9486792 9391011 
2461.394 9311899 9245101 9188489 9141893 9108206 9088255 9082374 9088353 
2465.252 9103145 9124866 9151290 9181105 9211757 9237307 9252885 9252219 
2469.109 9233232 9197815 9152479 9104485 9062420 9030412 9010288 8999571 
2472.967 8995294 8994569 8996239 9000887 9011240 9030942 9064881 9119270 
2476.824 9200253 9311239 9451846 9612907 9777281 9921599 10021877 10061647 
2480.681 10036643 9959686 9858806 9768770 9722277 9739275 9822291 9953771 
2484.539 10102268 10232638 10312441 10322008 10256391 10125046 9948331 
2487.914 9750951 9558767 9392329 9266616 9189868 9164437 9186187 9247070 
2491.771 9335379 9435719 9532358 9609541 9653745 9657531 9619202 9545246 
2495.629 9448581 9345295 9253744 9189111 9164181 9186233 9259137 9382685 
2499.486 9553159 9760999 9990197 10216850 10410084 10539393 10580939 
2502.862 10525788 10386708 10196429 10003514 9857955 9798124 9839131 9969315 
2506.719 10153049 10344008 10497577 10584425 10598628 10554247 10478784 
2510.094 10400780 10341726 10308018 10293113 10281056 10256057 10207346 
2513.469 10132898 10038755 9935671 9834072 9739675 9654077 9574090 9495002 
2517.327 9414038 9330694 9248164 9172006 9108614 9063890 9043397 9053633 
2521.184 9100933 9191301 9327812 9506038 9713204 9924367 10107377 10226994 
2525.042 10255124 10177944 10003354 9760401 9493507 9253685 9082902 9008110 
2528.899 9032046 9136012 9284659 9437439 9558409 9624698 9631947 9592140 
2532.757 9529633 9477350 9464167 9511277 9625669 9799099 10008903 10222814 
2536.614 10408846 10539645 10602426 10599006 10543787 10460266 10372048 
2539.989 10295357 10238690 10200868 10175948 10159348 10150054 10153935 
2543.365 10179334 10234172 10320178 10430735 10550537 10658048 10730598 
2546.740 10751289 10711058 10614135 10475932 10322522 10185015 10095212 
2550.115 10076828 10140731 10281014 10477860 10699403 10910307 11082031 
2553.490 11198294 11258023 11274341 11266633 11253364 11244624 11240071 
2556.865 11229354 11198180 11134803 11035882 10908676 10772617 10651766 
2560.241 10571559 10553165 10607496 10732717 10915178 11130751 11351080 
2563.616 11548617 11703249 11804719 11856326 11869296 11860525 11844448 
2566.991 11829139 11815541 11797982 11770786 11732826 11687973 11646887 
2570.366 11621275 11618379 11636999 11667596 11694673 11703065 11683634 
2573.742 11637570 11575634 11514536 11471695 11459962 11485563 11545158 
2577.117 11631348 11734318 11844761 11956289 12064845 12169826 12270875 
2580.492 12367478 12457205 12535207 12594127 12625637 12622977 12583525 
2583.867 12510815 12416438 12316060 12227345 12165187 12137136 12144081 
2587.243 12181524 12243167 12323906 12421503 12534589 12658742 12786078 
2590.618 12902626 12992910 13046926 13063775 13053952 13037434 13034032 
2593.993 13055324 13099493 13149592 13182314 13177975 13130816 13052736 
2597.368 12970802 12916968 12914662 12969840 13067902 13179603 13270262 
2600.744 13313351 13297505 13227668 13120736 12998946 12881747 12784059 
2604.119 12713481 12675339 12672976 12708668 12782099 12886483 13010046 
2607.494 13136205 13248608 13337625 13401231 13446224 13482924 13519461 
2610.869 13556274 13586097 13595173 13571579 13510571 13418700 13312696 
2614.245 13215250 13146346 13118969 13135765 13189399 13268311 13361647 
2617.620 13463187 13572757 13694148 13830435 13981549 14141088 14295869 
2620.995 14430235 14528599 14578782 14577681 14530629 14451957 14362086 
2624.370 14283365 14236853 14236735 14288858 14389468 14526876 14684808 
2627.746 14846431 14998517 15133031 15246504 15340606 15417431 15478654 
2631.121 15523553 15549288 15551164 15525014 15469936 15386896 15281894 
2634.496 15163507 15043852 14933274 14843107 14779278 14745164 14739631 
2637.871 14758969 14798061 14852665 14920934 15001372 15093630 15195597 
2641.247 15300618 15399301 15478595 15526236 15533774 15500119 15432266 
2644.622 15343614 15251736 15172000 15114627 15081219 15066464 15059342 
2647.997 15047862 15023043 14981318 14926421 14864743 14805624 14756364 
2651.372 14719807 14694098 14673539 14650123 14617797 14572902 14516326 
2654.748 14451806 14384769 14319496 14258297 14200733 14144668 14087779 
2658.123 14029271 13970829 13914688 13863256 13815285 13766318 13707786 
2661.498 13630408 13525971 13391516 13230348 13052630 12872110 12703512 
2664.873 12558618 12445734 12367371 12321748 12304868 12311112 12334509 
2668.249 12367475 12403134 12432997 12450351 12450632 12432758 12399937 
2671.624 12358696 12315560 12275810 12241061 12209428 12177165 12141213 
2674.999 12100413 12058526 12020744 11993791 11981884 11985386 12000185 
2678.374 12018843 12033919 12039584 12034842 12023280 12011802 12007679 
2681.750 12017200 12042796 12082142 12128867 12173095 12203860 12211534 
2685.125 12189007 12134640 12050672 11944559 11827443 11711646 11609132 
2688.500 11529438 11477883 11456004 11462557 11493599 11544909 11611192 
2691.875 11687766 11769329 11850207 11924085 11985281 12028911 12051811 
2695.250 12052615 12032481 11994202 11941014 11877608 11807051 11732408 
2698.626 11656388 11581431 11509250 11442106 11382712 11333237 11296581 
2702.001 11275186 11271052 11284273 11313689 11356231 11407564 11463263 
2705.376 11518529 11569924 11615272 11651396 11675667 11683727 11670852 
2708.751 11632779 11567041 11476170 11366872 11250197 11139479 11048136 
2712.127 10986336 10960440 10970918 11014977 11085463 11174045 11271023 
2715.502 11365678 11447563 11506760 11535981 11530756 11492882 11428987 
2718.877 11350610 11272299 11207705 11168111 11159533 11182355 11232130 
2722.252 11300500 11377915 11454267 11521358 11573343 11607391 11624853 
2725.628 11629188 11625957 11622173 11622951 11631669 11648146 11669560 
2729.003 11691620 11709304 11718404 11717823 11707832 11691255 11672750 
2732.378 11657167 11650445 11658356 11684102 11729619 11793002 11868580 
2735.753 11947579 12020654 12079470 12119988 12143013 12154960 12163792 
2739.129 12178402 12203932 12241391 12286755 12333146 12372669 12398071 
2742.504 12404933 12389480 12351248 12289762 12208782 12113720 12015232 
2745.879 11927288 11864589 11839834 11858735 11918286 12004993 12099647 
2749.254 12179802 12227774 12234611 12201586 12139816 12065598 11995408 
2752.630 11941592 11908861 11895465 11893583 11893732 11887700 11871064 
2756.005 11843445 11808991 11773698 11743372 11723282 11715548 11721564 
2759.380 11739770 11769245 11808062 11853819 11903843 11952594 11993595 
2762.755 12018528 12019514 11992014 11935185 11854284 11760405 11666690 
2766.131 11586364 11529895 11500524 11496974 11512866 11540246 11572361 
2769.506 11605412 11638939 11675074 11716132 11763793 11817310 11873632 
2772.881 11928770 11977523 12017109 12045098 12062604 12072504 12079895 
2776.256 12090169 12108717 12138796 12180042 12227995 12275037 12311027 
2779.632 12327863 12321535 12292865 12248827 12200121 12159311 12136557 
2783.007 12137727 12163676 12210322 12270867 12337123 12402006 12460293 
2786.382 12509556 12550062 12584707 12617870 12654126 12696558 12744885 
2789.757 12795195 12840944 12874654 12892115 12893687 12886377 12881309 
2793.133 12889799 12920651 12974154 13043307 13115204 13175516 13213094 
2796.508 13222492 13206035 13170740 13125497 13077899 13033755 12996156 
2799.883 12969049 12957214 12964791 12994697 13045348 13109160 13173368 
2803.258 13225020 13255280 13264604 13263503 13269728 13301987 13373268 
2806.634 13485004 13625565 13773718 13905846 14002263 14053339 14061024 
2810.009 14037351 13999917 13966992 13951766 13963959 14005565 14075086 
2813.384 14168026 14278450 14399960 14525676 14651729 14773965 14891152 
2816.759 15002817 15108859 15208328 15299138 15377410 15439440 15482101 
2820.135 15505375 15510392 15501023 15482655 15458978 15435574 15417563 
2823.510 15411577 15426051 15468488 15544209 15653996 15791807 15945144 
2826.885 16098646 16237978 16352778 16440848 16505489 16554760 16595690 
2830.260 16631784 16662378 16682900 16689165 16680213 16661838 16644219 
2833.635 16640864 16662827 16714403 16792086 16884280 16974508 17047522 
2837.011 17092452 17108226 17102554 17090296 17088048 17109742 17162262 
2840.386 17243424 17343618 17450154 17551864 17645110 17734284 17831718 
2843.761 17952894 18110174 18307320 18537766 18785562 19030232 19252808 
2847.136 19441764 19595442 19721194 19831076 19938704 20054434 20184222 
2850.512 20331642 20498232 20686036 20896132 21127376 21373462 21621210 
2853.887 21853690 22053468 22209332 22321438 22402376 22475440 22567044 
2857.262 22699074 22880834 23107248 23360894 23617480 23855078 24061204 
2860.637 24234958 24387422 24536578 24700208 24891098 25113160 25363210 
2864.013 25631998 25911096 26195490 26486446 26791334 27121444 27487480 
2867.388 27897456 28352716 28848840 29375400 29918902 30465252 31003934 
2870.763 31527512 32035570 32531790 33024848 33525210 34043048 34583676 
2874.138 35146276 35722240 36294152 36839316 37334144 37757324 38097240 
2877.514 38350748 38526500 38639376 38706064 38741472 38753968 38745884 
2880.889 38714364 38655076 38563956 38440124 38285132 38101252 37891744 
2884.264 37659144 37406720 37139400 36866136 36599052 36350924 36133388 
2887.639 35952540 35809364 35699444 35615984 35553372 35510456 35489384 
2891.015 35496584 35537388 35614776 35728084 35872796 36042928 36232768 
2894.390 36437804 36653504 36874244 37091832 37294012 37468100 37602024 
2897.765 37688800 37729208 37731228 37707908 37674096 37642136 37619872 
2901.140 37609596 37608020 37610408 37610012 37600900 37579400 37543704 
2904.516 37496608 37443636 37394220 37361056 37356244 37389324 37463596 
2907.891 37575408 37713580 37862724 38007368 38135876 38244356 38337976 
2911.266 38428740 38533060 38668968 38850896 39086568 39376128 39711080 
2914.641 40076728 40453260 40821744 41166100 41477500 41755924 42009404 
2918.017 42250924 42495868 42755232 43037052 43342340 43670132 44017552 
2921.392 44384012 44770764 45180312 45614316 46070812 46542776 47019800 
2924.767 47490092 47945116 48382124 48806408 49229772 49669328 50141568 
2928.142 50660368 51232772 51860204 52538616 53261928 54024596 54825552 
2931.518 55668564 56563276 57521308 58554844 59672732 60878928 62172292 
2934.893 63547908 65002396 66536264 68155376 69870784 71694328 73633768 
2938.268 75685816 77835048 80053072 82301472 84537896 86720632 88811536 
2941.643 90778248 92591864 94228496 95667944 96894064 97900160 98686208 
2945.019 99261336 99638760 99833184 99855024 99710056 99400208 98927312 
2948.394 98298736 97530048 96646504 95678944 94660232 93618248 92573224 
2951.769 91539248 90522456 89527872 88560600 87626648 86733112 85884288 
2955.144 85081800 84323376 83604144 82918536 82261712 81629232 81017848 
2958.520 80423056 79838472 79255224 78665784 78064784 77450528 76826064 
2961.895 76197856 75573192 74958008 74354456 73762248 73178328 72598016 
2965.270 72017584 71433600 70844616 70249688 69649440 69045360 68440952 
2968.645 67839752 67245472 66661752 66089204 65528320 64980224 64448460 
2972.021 63940324 63465848 63035056 62654404 62323192 62033100 61769764 
2975.396 61518176 61268520 61022152 60790624 60593912 60453708 60386564 
2978.771 60399344 60488140 60641636 60846612 61094240 61384560 61725792 
2982.146 62133132 62624128 63214556 63916752 64738640 65683304 66750996 
2985.521 67937968 69235448 70628656 72097320 73615456 75155128 76689848 
2988.897 78196544 79657744 81060936 82396808 83656568 84830528 85904968 
2992.272 86864472 87690216 88364096 88867528 89185136 89307040 89228848 
2995.647 88954840 88496480 87873336 87106888 86222000 85240608 84181240 
2999.022 83055472 81870768 80630600 79334928 77983376 76574680 75107464 
3002.398 73581968 71999960 70365424 68686464 66975728 65249556 63528360 
3005.773 61833240 60184960 58600032 57086808 55645464 54265108 52926572 
3009.148 51605796 50278696 48928920 47551472 46156024 44764312 43406772 
3012.523 42114012 40909468 39804772 38797036 37873552 37013412 36196188 
3015.899 35405300 34629820 33863900 33105976 32356854 31617772 30891566 
3019.274 30181916 29494622 28834688 28206784 27612610 27049592 26512686 
3022.649 25994730 25488664 24990798 24498890 24013228 23535758 23069130 
3026.024 22616592 22183340 21776200 21402596 21070778 20785624 20546918 
3029.400 20348858 20178792 20023276 19867006 19700718 19518498 19320132 
3032.775 19108686 18890576 18672334 18461604 18266334 18093668 17949512 
3036.150 17836730 17752070 17690636 17643568 17604136 17568362 17537890 
3039.525 17517810 17512626 17523576 17545138 17564874 17567656 17539080 
3042.901 17473620 17372682 17248634 17118934 17001164 16908404 16846686 
3046.276 16814908 16805914 16811024 16820026 16824632 16817266 16793632 
3049.651 16751876 16694248 16627695 16563276 16511841 16483426 16479991 
3053.026 16497442 16523607 16541790 16536202 16496796 16423246 16323537 
3056.402 16213452 16111540 16035443 15996851 15999271 16038720 16103009 
3059.777 16177069 16245512 16295603 16322091 16324559 16310183 16288200 
3063.152 16266212 16249044 16235260 16220754 16200382 16171059 16136073 
3066.527 16101897 16077483 16069930 16080376 16104616 16133700 16157951 
3069.903 16171096 16171986 16163403 16151728 16141180 16132897 16123991 
3073.278 16109824 16086377 16054057 16016573 15980620 15953425 15939631 
3076.653 15941715 15957732 15983861 16013613 16038110 16045887 16025476 
3080.028 15965194 15858211 15707619 15526628 15338374 15170335 15045749 
3083.404 14977542 14964593 14992146 15038314 15082222 15111153 15122407 
3086.779 15122287 15121236 15126908 15142103 15163199 15184301 15200132 
3090.154 15208199 15209123 15203312 15188382 15159151 15107941 15028734 
3093.529 14923186 14798541 14670136 14553417 14461447 14398796 14362257 
3096.905 14343339 14333435 14326018 14319950 14319271 14330218 14358399 
3100.280 14407349 14479891 14575413 14692163 14825482 14965716 15098209 
3103.655 15203713 15264531 15267945 15211632 15105983 14969093 14823117 
3107.030 14686481 14568965 14471095 14386524 14307551 14228665 14149967 
3110.406 14073331 14002297 13938535 13879238 13822527 13766216 13713330 
3113.781 13667410 13632632 13609516 13592751 13572229 13539185 13491114 
3117.156 13434683 13385224 13360901 13375487 13431724 13516789 13610343 
3120.531 13687954 13732165 13737316 13710076 13664539 13614917 13570503 
3123.906 13532245 13496383 13457684 13415314 13373456 13340162 13323912 
3127.282 13328791 13354289 13394761 13442783 13490720 13531231 13557304 
3130.657 13560649 13530151 13457311 13338232 13179623 12999285 12824367 
3134.032 12684737 12603356 12590303 12638166 12725683 12825718 12911938 
3137.407 12969225 12994100 12994521 12983500 12975624 12979295 12996731 
3140.783 13022048 13045485 13054526 13038346 12990414 12911456 12810293 
3144.158 12703533 12611680 12555457 12548125 12592443 12677287 12780894 
3147.533 12877909 12945159 12969150 12948915 12893804 12820560 12746242 
3150.908 12685708 12647710 12635311 12647154 12678081 12719033 12759054 
3154.284 12785160 12786375 12757520 12701637 12630967 12564920 12522397 
3157.659 12516497 12549241 12611147 12685221 12752346 12798573 12818387 
3161.034 12814108 12791426 12755309 12706917 12643808 12564394 12470149 
3164.409 12369640 12275669 12202411 12158344 12144107 12151778 12169192 
3167.785 12184279 12191324 12190955 12189208 12192229 12202878 12218088 
3171.160 12231395 12234420 12222496 12193705 12151435 12100457 12045539 
3174.535 11991138 11942768 11908286 11898951 11926234 11997484 12109961 
3177.910 12249144 12389659 12501639 12560617 12555293 12492549 12395442 
3181.286 12294269 12217641 12183115 12192938 12235752 12292198 12341639 
3184.661 12369272 12367097 12335320 12279780 12210699 12141387 12088570 
3188.036 12070156 12103524 12198725 12356547 12561569 12785674 12991741 
3191.411 13143886 13216549 13202206 13113320 12979022 12836153 12719530 
3194.787 12653084 12644202 12684259 12752539 12823088 12872383 12885232 
3198.162 12859048 12803335 12738089 12686730 12670558 12701897 12780445 
3201.537 12890496 13007015 13099370 13139909 13111992 13013349 12857354 
3204.912 12670040 12483018 12326716 12224076 12187436 12217139 12304217 
3208.288 12431433 12579939 12730223 12866722 12977615 13057196 13104905 
3211.663 13125671 13126352 13115213 13099668 13084329 13072212 13063207 
3215.038 13056027 13048844 13040368 13029094 13014263 12995446 12971569 
3218.413 12942947 12910119 12874804 12838189 12801025 12761803 12716540 
3221.789 12658338 12579868 12476386 12346699 12195867 12033369 11873214 
3225.164 11728976 11611111 11526410 11477691 11465177 11488022 11548292 
3228.539 11647301 11786265 11961542 12164527 12378613 12584371 12760077 
3231.914 12889709 12964915 12987171 12965754 12915243 12849469 12781406 
3235.290 12719060 12668489 12632943 12615888 12618092 12637072 12664936 
3238.665 12687394 12686469 12645682 12556256 12421528 12260452 12103678 
3242.040 11985548 11935866 11969608 12082265 12249820 12435120 12597070 
3245.415 12702337 12732654 12689942 12594027 12478447 12379014 12327001 
3248.791 12341537 12424820 12562882 12731314 12898074 13034032 13116755 
3252.166 13135121 13089537 12990744 12855380 12702907 12551821 12417678 
3255.541 12313536 12248656 12230879 12264255 12348485 12478370 12641092 
3258.916 12817062 12981445 13110030 13180547 13179880 13107558 12975559 
3262.292 12807651 12634695 12485814 12383373 12336544 12339241 12371508 
3265.667 12407061 12420029 12395876 12334049 12249816 12169385 12120831 
3269.042 12126441 12193785 12315353 12470525 12632431 12775040 12879312 
3272.417 12936899 12947230 12916415 12852424 12764119 12658274 12542881 
3275.792 12426481 12318593 12229407 12165718 12131034 12123399 12136467 
3279.168 12159946 12182558 12193336 12183839 12149557 12090374 12013304 
3282.543 11930729 11860311 11821026 11828905 11892420 12008416 12162772 
3285.918 12333109 12494618 12625321 12712883 12754424 12755636 12727821 
3289.293 12682849 12632253 12584504 12547193 12527470 12531067 12561510 
3292.669 12617167 12689466 12763877 12823671 12853522 12844607 12797462 
3296.044 12722206 12634374 12551147 12487956 12451316 12443434 12457933 
3299.419 12485337 12513961 12532116 12530747 12504220 12452967 12382829 
3302.794 12305942 12237535 12191962 12180161 12207004 12269641 12361681 
3306.170 12473200 12595041 12718912 12836532 12938265 13012270 13044813 
3309.545 13025246 12948905 12821088 12657273 12480817 12316944 12185250 
3312.920 12097807 12053845 12045415 12058683 12081480 12103398 12119780 
3316.295 12128747 12130952 12130166 12130490 12138571 12160961 12201654 
3319.671 12259664 12326237 12385838 12418490 12407529 12345275 12236487 
3323.046 12098585 11955662 11833364 11749017 11708519 11707439 11733354 
3326.421 11773611 11819770 11867944 11919578 11976565 12037687 12097937 
3329.796 12147972 12179773 12187769 12172282 12138868 12096871 12055755 
3333.172 12022867 12001888 11993597 11995444 12004532 12018079 12034751 
3336.547 12053767 12076022 12103414 12136277 12174170 12212853 12243181 
3339.922 12252873 12229639 12164097 12056898 11919535 11776899 11659690 
3343.297 11600405 11621286 11729185 11910971 12136308 12365544 12557867 
3346.673 12683044 12727048 12695985 12612547 12507717 12413270 12350254 
3350.048 12324383 12323804 12324571 12297789 12220265 12083698 11898048 
3353.423 11691873 11502915 11369482 11318242 11359193 11480954 11657122 
3356.798 11852644 12032549 12169897 12250521 12271132 12240346 12172061 
3360.174 12084452 11993118 11910856 11843956 11790406 11741108 11682251 
3363.549 11601587 11492482 11361785 11229713 11126714 11086731 11133837 
3366.924 11276731 11502551 11779875 12067231 12324785 12522670 12648222 
3370.299 12703983 12704336 12667509 12609262 12540183 12467029 12394647 
3373.675 12329462 12279142 12253499 12258518 12294893 12355982 12429274 
3377.050 12498755 12550199 12575245 12572523 12549476 12518180 12491391 
3380.425 12480184 12487951 12512329 12542366 12565063 12566969 12540834 
3383.800 12488008 12417643 12344885 12285116 12247954 12233294 12230171 
3387.176 12221050 12187930 12120057 12018886 11900037 11789085 11715472 
3390.551 11702872 11763085 11891737 12071648 12274639 12471368 12636197 
3393.926 12753567 12819586 12841943 12835826 12819828 12811207 12820859 
3397.301 12850269 12893429 12937055 12965699 12967199 12934494 12868484 
3400.677 12777341 12673447 12570215 12481282 12417909 12390788 12407667 
3404.052 12474596 12591940 12752226 12938524 13124783 13280143 13374849 
3407.427 13391326 13327025 13199926 13042954 12897230 12801619 12783486 
3410.802 12851178 12993913 13184714 13388369 13569631 13702226 13772884 
3414.177 13784077 13750966 13696951 13644518 13610351 13600277 13608363 
3417.553 13619771 13618376 13592181 13540138 13472307 13407778 13368044 
3420.928 13370042 13419281 13510179 13626627 13747234 13853460 13931441 
3424.303 13975547 13987139 13971808 13937569 13893470 13849243 13815206 
3427.678 13801559 13816454 13865294 13947173 14055463 14179279 14306694 
3431.054 14427273 14533195 14620323 14686807 14730106 14749296 14742978 
3434.429 14714708 14671952 14627804 14597671 14595924 14630399 14699963 
3437.804 14794854 14899097 14994629 15067058 15107276 15112733 15085255 
3441.179 15029786 14952189 14856261 14744183 14615956 14470770 14306660 
3444.555 14123863 13926287 13726609 13545798 13412077 13354382 13393012 
3447.930 13532515 13754508 14019733 14276196 14474490 14580745 14587170 
3451.305 14513925 14400018 14291403 14224105 14215466 14260308 14338323 
3454.680 14422489 14489575 14528939 14539174 14527209 14500324 14464523 
3458.056 14421195 14371722 14320040 14274825 14248230 14251373 14289707 
3461.431 14357693 14440292 14517125 14567570 14579215 14551464 14496240 
3464.806 14432075 14380879 14360390 14380822 14443472 14542677 14667089 
3468.181 14804776 14942510 15069384 15176794 15259270 15314823 15345647 
3471.557 15358701 15365481 15378540 15411367 15474544 15573328 15706459 
3474.932 15867095 16041990 16216600 16376728 16511874 16615387 16685380 
3478.307 16721716 16723916 16690919 16619677 16510420 16368026 16207654 
3481.682 16056465 15948271 15920280 15999222 16195545 16496623 16866372 
3485.058 17254410 17606670 17878230 18045992 18111386 18099742 18050204 
3488.433 18007200 18007584 18074420 18212422 18411812 18652962 18912258 
3491.808 19169320 19409268 19623062 19806688 19958486 20075498 20155116 
3495.183 20194630 20193658 20157824 20100030 20038580 19994964 19989500 
3498.559 20032890 20127280 20263880 20426272 20594482 20754168 20896628 
3501.934 21021728 21135224 21244284 21352674 21458632 21554728 21628954 
3505.309 21667974 21661884 21603592 21493788 21339772 21154034 20956240 
3508.684 20768908 20614782 20512010 20469566 20485582 20544754 20625170 
3512.060 20702308 20757886 20782796 20778452 20752506 20713450 20663646 
3515.435 20599188 20509804 20386158 20224584 20033350 19829572 19634028 
3518.810 19466440 19336494 19244192 19181042 19136184 19100062 19067232 
3522.185 19035340 18998714 18947420 18866570 18741846 18566982 18352728 
3525.561 18127924 17933710 17812510 17792720 17876502 18036356 18221586 
3528.936 18373638 18443012 18404226 18260664 18042862 17794962 17562424 
3532.311 17377916 17255518 17191814 17169536 17166666 17161312 17137478 
3535.686 17087104 17008756 16907054 16791468 16673842 16566981 16482137 
3539.062 16426308 16401641 16404467 16427921 16463602 16504506 16545897 
3542.437 16584689 16622186 16658746 16695790 16735813 16778460 16823844 
3545.812 16870556 16914306 16950586 16974398 16983480 16981866 16979180 
3549.187 16987792 17018040 17071490 17135548 17187126 17194694 17131698 
3552.563 16986090 16768701 16510701 16257670 16053999 15930861 15896007 
3555.938 15936609 16023776 16126333 16219988 16295688 16355682 16408661 
3559.313 16459990 16507996 16539443 16538940 16491685 16391709 16243523 
3562.688 16062632 15867164 15675483 15499997 15350006 15230047 15145378 
3566.063 15100298 15100910 15150449 15248342 15387821 15557558 15743610 
3569.439 15931519 16108148 16264284 16393336 16493969 16566526 16614938 
3572.814 16646497 16667768 16685098 16698122 16703846 16694127 16660692 
3576.189 16598389 16508643 16400311 16285732 16176756 16080461 15998160 
3579.564 15926985 15864544 15813110 15781078 15778530 15811583 15874628 
3582.940 15947521 15997527 15989482 15896488 15710853 15446964 15139622 
3586.315 14831059 14560016 14350844 14210138 14129386 14092893 14085305 
3589.690 14096559 14122338 14159648 14203575 14244508 14271042 14274640 
3593.065 14256371 14226325 14202518 14205025 14246716 14328451 14437028 
3596.441 14548286 14634680 14672616 14647508 14558133 14412540 14227808 
3599.816 14024399 13823967 13644327 13500767 13401109 13348254 13337280 
3603.191 13360616 13408646 13474635 13555822 13652820 13767924 13900306 
3606.566 14042980 14183171 14303151 14388061 14427871 14423403 14384416 
3609.942 14327675 14272249 14232022 14215690 14223868 14252942 14295912 
3613.317 14345059 14391800 14430460 14456440 14471785 14485200 14511680 
3616.692 14572998 14688646 14869550 15113095 15399842 15697617 15969966 
3620.067 16186079 16328102 16395254 16398285 16353300 16274951 16170759 
3623.443 16044954 15900448 15746944 15602507 15492372 15442510 15470530 
3626.818 15580346 15759025 15981724 16218115 16441239 16634557 16790516 
3630.193 16910422 16998268 17057200 17088776 17093720 17075064 17039976 
3633.568 16996966 16955530 16919440 16886870 16851248 16805632 16747585 
3636.944 16683558 16630355 16609050 16641222 16740777 16908492 17134296 
3640.319 17396282 17669850 17931454 18165588 18364656 18529850 18667138 
3643.694 18784314 18887848 18977724 19049658 19093254 19097370 19053674 
3647.069 18959704 18824868 18668118 18515988 18395264 18325282 18313636 
3650.445 18354350 18430442 18523080 18616364 18703424 18787700 18877144 
3653.820 18979358 19095698 19218200 19332044 19419930 19469702 19477668 
3657.195 19450550 19401714 19345996 19294802 19255134 19226498 19206568 
3660.570 19193020 19182900 19175730 19169904 19161126 19143752 19110524 
3663.946 19057140 18981258 18887294 18781518 18669944 18556014 18438990 
3667.321 18314072 18175370 18019430 17848104 17667406 17487540 17316380 
3670.696 17160432 17018718 16888050 16762517 16638562 16515195 16395742 
3674.071 16285123 16189482 16110428 16047593 15997536 15953992 15911665 
3677.447 15867731 15820580 15771573 15722806 15676484 15632000 15585781 
3680.822 15530927 15456853 15352710 15210733 15026981 14808464 14569725 
3684.197 14333787 14125905 13967140 13869562 13831343 13837831 13865887 
3687.572 13889761 13889234 13855304 13792267 13715285 13643590 13593087 
3690.948 13571432 13574190 13586942 13588347 13557917 13482559 13359552 
3694.323 13197769 13016463 12838954 12687090 12575807 12510296 12485881 
3697.698 12489608 12508892 12531645 12552793 12571478 12590785 12611084 
3701.073 12629536 12637978 12623926 12579453 12502205 12401323 12295226 
3704.448 12207534 12159033 12162223 12215025 12304095 12408292 12505592 
3707.824 12582987 12637127 12674809 12709405 12752807 12810344 12878806 
3711.199 12946418 12997936 13019338 13003048 12950172 12869623 12775414 
3714.574 12684785 12613734 12572817 12568616 12600899 12664096 12748291 
3717.949 12841824 12934766 13021151 13100483 13174744 13248654 13321841 
3721.325 13388336 13433591 13438935 13385456 13263434 13075843 12842082 
3724.700 12593618 12367017 12196355 12104522 12096882 12165507 12289276 
3728.075 12440349 12590723 12716745 12800339 12831390 12807884 12736030 
3731.450 12632140 12519008 12424672 12373437 12381764 12453547 12576971 
3734.826 12728495 12880323 13008245 13099398 13152136 13176925 13187739 
3738.201 13195435 13201007 13197964 13172935 13116419 13026158 12914016 
3741.576 12802353 12720530 12695925 12748306 12884958 13098310 13369029 
3744.951 13671644 13976270 14254613 14481476 14634523 14697793 14662974 
3748.327 14533538 14326391 14072105 13808646 13573480 13396295 13290379 
3751.702 13253741 13270108 13317191 13374691 13427568 13469550 13496490 
3755.077 13506378 13490798 13439203 13339913 13187146 12987294 12760438 
3758.452 12538951 12358720 12249868 12227592 12287782 12407875 12555636 
3761.828 12696411 12806077 12873686 12904993 12915823 12925648 12949429 
3765.203 12991955 13045809 13095527 13120980 13106429 13044060 12937634 
3768.578 12800357 12651984 12513400 12400091 12321120 12277126 12262834 
3771.953 12271830 12300348 12347387 12416608 12511552 12631981 12771483 
3775.329 12916073 13048353 13152428 13219699 13252296 13262695 13270192 
3778.704 13292585 13339723 13409222 13486822 13549794 13576785 13552367 
3782.079 13472604 13344815 13185161 13013227 12847964 12705797 12597980 
3785.454 12531592 12509933 12531371 12588974 12669861 12757221 12834616 
3788.830 12889385 12916458 12921772 12918605 12921515 12940250 12975829 
3792.205 13018764 13054488 13070335 13060722 13031592 12996881 12973946 
3795.580 12973058 12994229 13024786 13046601 13044327 13014528 12967346 
3798.955 12926621 12918874 12962006 13058070 13189201 13323039 13421999 
3802.331 13458248 13422355 13326497 13197334 13068656 12968671 12912499 
3805.706 12899523 12915517 12939778 12952987 12943693 12909856 12859222 
3809.081 12804253 12757159 12726207 12714842 12720903 12739565 12765613 
3812.456 12795996 12829186 12865825 12907309 12952885 12997705 13035530 
3815.832 13057949 13057559 13032316 12984887 12924571 12863351 12814101 
3819.207 12783969 12776399 12787067 12808837 12833928 12857113 12877750 
3822.582 12899029 12926699 12964587 13013211 13068363 13122763 13166321 
3825.957 13190212 13186634 13152000 13085405 12991317 12878288 12760125 
3829.333 12653833 12577819 12545647 12561931 12620044 12699409 12774061 
3832.708 12819305 12820149 12778115 12710983 12646523 12611881 12624735 
3836.083 12683181 12767905 12848039 12891936 12880100 12811359 12700566 
3839.458 12574499 12459047 12369854 12306281 12255005 12195252 12109198 
3842.833 11990300 11847525 11703704 11589995 11536292 11562627 11674803 
3846.209 11861320 12095916 12345754 12575271 12753997 12863015 12896755 
3849.584 12862638 12778772 12668148 12554034 12456226 12385911 12348631 
3852.959 12343360 12365997 12410251 12469055 12534440 12597137 12647239 
3856.334 12675339 12676151 12651210 12609907 12569496 12549428 12564909 
3859.710 12621494 12710699 12811659 12895504 12935663 12916002 12837273 
3863.085 12716097 12582649 12469555 12404811 12401972 12458998 12561981 
3866.460 12689646 12823034 12951689 13074700 13198009 13330532 13476148 
3869.835 13629570 13778128 13900745 13981367 14008591 13983298 13917762 
3873.211 13828536 13732692 13641099 13555831 13471838 13382135 13284130 
3876.586 13183646 13094406 13033240 13013885 13040626 13105452 13190115 
3879.961 13274156 13340598 13383212 13406780 13421409 13436820 13454827 
3883.336 13467263 13460244 13419496 13339301 13227692 13104646 12995718 
3886.712 12920898 12887852 12888282 12900526 12902254 12876328 12820920 
3890.087 12749267 12684999 12652282 12665801 12726745 12822659 12933158 
3893.462 13038623 13127347 13197373 13255841 13313024 13377770 13451122 
3896.837 13529439 13602704 13659974 13692522 13694607 13664784 13604085 
3900.213 13517451 13412303 13300231 13195694 13115242 13072299 13073655 
3903.588 13116845 13188596 13266887 13328900 13356630 13341974 13289354 
3906.963 13211937 13127327 13050792 12992377 12954438 12934892 12930745 
3910.338 12939126 12960178 12994289 13038206 13084093 13119409 13131088 
3913.714 13109184 13054474 12979102 12902929 12850665 12838128 12870827 
3917.089 12938187 13019691 13091801 13136848 13148801 13134978 13110286 
3920.464 13090562 13083271 13086450 13088584 13075918 13042687 12993863 
3923.839 12950395 12940853 12992756 13122913 13328354 13586054 13858416 
3927.215 14100316 14273549 14352341 14332575 14227611 14066177 13884243 
3930.590 13718691 13598800 13543880 13559064 13635980 13755215 13890252 
3933.965 14011537 14095003 14123546 14091885 14006835 13885349 13751349 
3937.340 13630213 13544695 13509790 13530254 13599134 13700006 13807226 
3940.716 13894996 13940402 13931969 13872181 13776037 13667363 13571311 
3944.091 13506195 13475573 13469975 13469776 13453502 13405466 13322491 
3947.466 13214989 13102587 13006246 12942318 12917793 12931370 12976994 
3950.841 13047161 13138325 13247854 13373386 13507140 13636182 13744009 
3954.217 13814885 13842986 13833711 13804349 13778815 13776924 13808471 
3957.592 13867257 13935972 13990560 14011967 13992644 13940383 13872234 
3960.967 13807646 13761696 13738098 13729053 13721325 13701818 13664433 
3964.342 13610226 13545815 13479401 13414962 13350111 13278625 13193351 
3967.718 13092824 12983008 12877146 12792063 12741679 12732757 12761869 
3971.093 12816837 12883218 12945774 12997073 13037510 13074776 13122795 
3974.468 13195509 13303410 13449705 13629775 13828760 14025691 14195457 
3977.843 14315975 14372203 14363575 14302836 14214697 14129730 14073469 
3981.219 14059215 14083394 14126867 14161834 14163551 14119490 14033101 
3984.594 13925936 13825670 13758397 13737829 13761058 13810525 13863198 
3987.969 13898971 13909311 13900601 13890024 13897965 13940692 14022754 
3991.344 14134434 14257218 14365098 14435663 14453416 14412864 14322136 
3994.719 14198559 14067492 13956821 13891103 13884906 13939044 14038995 
3998.095 14157806 14265563 14336885 14361862 14348360 14318817 
##END=
