##TITLE=3D-Fillies_PLA-Rainbow_Orange_Filament_r5_ATR-Corrected
##JCAMP-DX=5.01  $$ Nicolet v. 1
##DATATYPE=INFRARED SPECTRUM
##ORIGIN=Curtin University
##OWNER=Nicolet
##LONGDATE=2024/07/18
##TIME=16:13:16
##SPECTROMETER/DATA SYSTEM=Nicolet iS50
##DATA PROCESSING=
Ratio against background
%Transmittance->Absorbance
ATR Correction
Truncated
ElementMultiply or ElementDivide
##COMMENTS=
Number of sample scans: 32
Collection length: 47.28 sec
Sample gain: 1.0
Background collected on: Thu Jul 18 16:10:25 2024 (GMT+08:00);
Number of background scans: 32
Background gain: 1.0
Sample spacing:  1.000
Number of scan points: 16672
Resolution points: 8192
Number of FFT points: 65536
Apodization: N-B strong;
Phase correction: Mertz;
Laser frequency: 15798.3 cm-1
Number of rejected sample scans: 0
Number of rejected background scans: 0
Bench serial number: AUP1200105;
##RESOLUTION=4.000
##XUNITS=1/CM
##YUNITS=ABSORBANCE
##FIRSTX=400.163452
##LASTX=4000.187744
##FIRSTY=0.061024
##MAXX=4000.187744
##MINX=400.163452
##MAXY=0.928345
##MINY=-0.022585
##XFACTOR=1.000000
##YFACTOR=1.000000E-009
##NPOINTS=7468
##DELTAX=0.482125
##ZPD=8192
##XYDATA=(X++(Y..Y))
400.163 61023556 60837540 60480676 59981520 59324828 58482500 57432376 
403.538 56185632 54794488 53340088 51904192 50543420 49277788 48100156 
406.913 46997784 45975312 45063044 44308976 43754432 43410672 43244692 
410.288 43187092 43153404 43073032 42907272 42652212 42323092 41933572 
413.663 41479596 40939688 40288364 39517640 38652136 37748828 36879872 
417.038 36106772 35456948 34916976 34441088 33976084 33485748 32966714 
420.412 32445456 31962212 31547538 31208108 30923552 30660232 30389382 
423.787 30105234 29829934 29607302 29484666 29494998 29643976 29909032 
427.162 30247126 30607358 30941774 31211504 31387426 31449516 31386528 
430.537 31198700 30900998 30525250 30115974 29720836 29384178 29133186 
433.912 28976150 28905748 28906662 28965612 29076368 29239542 29456040 
437.286 29719640 30010566 30296294 30536586 30693608 30740530 30667104 
440.661 30480042 30197530 29843408 29442120 29016470 28588906 28182970 
444.036 27824064 27536244 27338296 27237236 27226186 27283714 27380508 
447.411 27486108 27578858 27650806 27709716 27773948 27864798 27995702 
450.786 28166160 28357866 28538718 28670466 28720024 28669510 28522264 
454.161 28302534 28049442 27806356 27610916 27486564 27440122 27463326 
457.535 27538470 27643500 27756722 27857920 27928242 27949594 27906066 
460.910 27787462 27594976 27344504 27067944 26806596 26598722 26477036 
464.285 26449188 26497024 26580524 26648996 26655368 26569352 26385410 
467.660 26122422 25817544 25515320 25257640 25075748 24986654 24992976 
471.035 25084282 25239136 25426776 25610010 25749146 25808442 25763668 
474.409 25608582 25358138 25045828 24715718 24410734 24161196 23977800 
477.784 23850406 23754798 23662678 23552554 23417328 23264904 23114402 
481.159 22987330 22900336 22859678 22861174 22892966 22941102 22993442 
484.534 23041904 23082174 23112496 23132306 23142530 23146636 23152134 
487.909 23169606 23210936 23284438 23390432 23519364 23652430 23767044 
491.284 23844140 23875012 23865392 23834750 23811972 23826930 23901626 
494.658 24049436 24267800 24540850 24843426 25145834 25419290 25639826 
498.033 25791542 25868292 25874424 25823110 25733738 25627696 25523510 
501.408 25432988 25359204 25296538 25234208 25159918 25064724 24945900 
504.783 24808486 24663360 24524874 24406720 24317990 24261060 24230270 
508.158 24212952 24192568 24152892 24082196 23976312 23839612 23682432 
511.532 23517276 23353350 23193458 23033372 22864928 22680820 22480316 
514.907 22271514 22070634 21897004 21766918 21687894 21657140 21662266 
518.282 21686722 21714314 21732698 21733498 21710488 21657080 21566100 
521.657 21432228 21256452 21050084 20835642 20642794 20500456 20427686 
525.032 20425398 20479464 20561370 20638650 20684822 20685836 20641496 
528.406 20561114 20457260 20339258 20210986 20071822 19920912 19761252 
531.781 19601594 19455012 19334768 19249796 19201586 19183758 19184600 
535.156 19191002 19192158 19181076 19155104 19114016 19058464 18988548 
538.531 18903452 18802524 18686224 18557408 18422052 18289654 18172362 
541.906 18083198 18033254 18027908 18063684 18127154 18196106 18244042 
545.281 18247600 18192748 18079520 17921870 17743226 17568812 17418444 
548.655 17300878 17214480 17150678 17100084 17058366 17028264 17018460 
552.030 17039348 17098380 17196168 17325840 17474502 17626178 17765048 
555.405 17877276 17951834 17983644 17972176 17922960 17847982 17763346 
558.780 17687244 17634466 17613590 17624930 17662350 17716830 17781088 
562.155 17852476 17933476 18028270 18138974 18262344 18389130 18506242 
565.529 18601416 18666896 18700942 18706788 18689774 18654298 18603166 
568.904 18539074 18467172 18397512 18344244 18322114 18341644 18404456 
572.279 18502278 18619802 18740698 18853652 18956174 19053834 19155520 
575.654 19267544 19389338 19512714 19625420 19716686 19782134 19825672 
579.029 19857868 19891260 19935036 19993266 20064476 20144674 20229710 
582.404 20317646 20407142 20496276 20580240 20651838 20703452 20730872 
585.778 20735798 20725810 20711558 20702620 20703116 20710254 20716758 
589.153 20715142 20702542 20682864 20665590 20661394 20677718 20715218 
592.528 20769054 20831836 20899294 20972922 21060242 21170378 21308678 
595.903 21470912 21642744 21802010 21925050 21994178 22002484 21955616 
599.278 21869414 21764830 21662720 21579644 21525978 21506004 21518756 
602.652 21559380 21620532 21693116 21768658 21840514 21906260 21968126 
606.027 22032640 22108146 22202236 22318908 22457728 22614740 22784712 
609.402 22963378 23148896 23341016 23539326 23741518 23942170 24134172 
612.777 24311522 24472076 24619978 24764972 24919460 25093952 25292858 
616.152 25511770 25738244 25954706 26143674 26292754 26398046 26465286 
619.527 26508282 26545542 26596230 26675858 26794290 26953734 27150198 
622.901 27374768 27616336 27864164 28109520 28346906 28573772 28790286 
626.276 28998428 29201834 29405772 29617230 29844482 30095320 30374852 
629.651 30682756 31010616 31342040 31654756 31924910 32132908 32268762 
633.026 32334644 32344676 32321736 32291334 32276374 32292400 32346298 
636.401 32437186 32559454 32705792 32870230 33048488 33237458 33433784 
639.775 33632360 33826108 34007092 34168408 34306936 34424720 34529116 
643.150 34630852 34741036 34867612 35012756 35172548 35338400 35500756 
646.525 35653000 35794496 35931488 36075480 36239976 36435528 36667024 
649.900 36932276 37223304 37529824 37842812 38157368 38473524 38794376 
653.275 39122340 39455896 39785960 40096120 40364268 40567456 40687304 
656.650 40715068 40655544 40527312 40360524 40191204 40054580 39978000 
660.024 39975372 40045540 40173816 40336840 40509312 40670988 40810492 
663.399 40926884 41027508 41124024 41228188 41348368 41488828 41650524 
666.774 41833160 42036544 42261116 42507180 42773352 43055000 43344592 
670.149 43632576 43909580 44167904 44403100 44613688 44800028 44963720 
673.524 45106548 45231448 45342548 45446268 45550792 45664628 45794540 
676.898 45943524 46109532 46286460 46465904 46640364 46805160 46959380 
680.273 47105860 47249212 47393928 47542988 47697140 47856264 48019652 
683.648 48187500 48360724 48540324 48726568 48917464 49109196 49296392 
687.023 49473948 49638860 49791444 49936124 50080936 50235884 50410676 
690.398 50612848 50845208 51105856 51387880 51681576 51976808 52265676 
693.773 52545228 52818456 53093408 53381904 53695896 54044784 54432824 
697.147 54858740 55316068 55795468 56287268 56783788 57280152 57774384 
700.522 58266484 58756100 59241776 59720012 60185924 60634436 61061860 
703.897 61466868 61850436 62215540 62564880 62899648 63218580 63518004 
707.272 63793176 64040548 64258880 64450568 64620972 64776392 64921772 
710.647 65059096 65186196 65298164 65389164 65455256 65496572 65518304 
714.021 65530724 65547860 65585948 65662868 65798388 66015192 66342248 
717.396 66817188 67489800 68424104 69700264 71414216 73675256 76601168 
720.771 80309648 84906608 90472072 97043424 104600400 113052096 122229016 
724.146 131884576 141705280 151332608 160393456 168536656 175468752 
727.039 180982000 184970064 187425936 188426416 188105904 186628608 
729.931 184164192 180871456 176889680 172337600 167315424 161908400 
732.824 156189792 150223600 144067232 137773968 131397960 124997632 
735.717 118639736 112399296 106358064 100598176 95195008 90210144 85685576 
739.091 81641688 78079360 74983512 72328552 70083208 68213968 66686400 
742.466 65465888 64518020 63809320 63308836 62989728 62830044 62813112 
745.841 62925936 63157224 63495396 63927712 64439900 65017736 65647660 
749.216 66318104 67018636 67739264 68468632 69193152 69896848 70562816 
752.591 71174424 71717960 72183152 72563440 72854336 73052280 73152792 
755.966 73150080 73036960 72806824 72455192 71980896 71386792 70679400 
759.340 69867456 68960672 67968808 66901164 65767692 64579980 63352352 
762.715 62102268 60849652 59614740 58415396 57264056 56165556 55116760 
766.090 54107600 53124356 52153424 51185180 50216360 49250612 48297112 
769.465 47367496 46472460 45618900 44808084 44036060 43294916 42575864 
772.840 41871120 41175340 40486888 39807380 39140612 38491668 37865760 
776.214 37267588 36700888 36168392 35671516 35209448 34779368 34375428 
779.589 33989180 33610164 33227588 32831594 32415516 31976442 31515644 
782.964 31037590 30548036 30053198 29558252 29067548 28584872 28115208 
786.339 27665762 27245936 26867562 26542918 26282740 26094480 25980500 
789.714 25936874 25953700 26014608 26099306 26184522 26247232 26266836 
793.089 26228534 26124928 25956754 25732242 25464950 25170838 24865576 
796.463 24562800 24273358 24005584 23765906 23559718 23391596 23264530 
799.838 23179644 23136188 23131518 23162242 23224596 23314978 23428598 
803.213 23559762 23699942 23837202 23957870 24048316 24097492 24098694 
806.588 24050756 23956962 23824126 23661132 23477908 23285252 23095220 
809.963 22920732 22774188 22665298 22598616 22571174 22572984 22588562 
813.337 22600784 22595404 22564384 22507454 22431828 22349358 22273794 
816.712 22217660 22190442 22197218 22239022 22312630 22411554 22526882 
820.087 22648592 22766868 22874012 22965412 23039636 23098008 23143424 
823.462 23179806 23211790 23245048 23286962 23346808 23433702 23554490 
826.837 23709768 23892630 24088174 24277208 24441730 24570088 24661118 
830.212 24724614 24777768 24840088 24927508 25048948 25205856 25394880 
833.586 25610690 25850592 26114132 26402198 26715318 27051936 27408760 
836.961 27783272 28176330 28594274 29048494 29552258 30116212 30744016 
840.336 31429834 32160516 32918144 33685824 34450928 35206428 35949180 
843.711 36676672 37383652 38060796 38695260 39274076 39787816 40233240 
847.086 40614456 40941652 41228876 41491812 41745768 42005768 42286916 
850.460 42605468 42980292 43432456 43985960 44666348 45499584 46509916 
853.835 47717176 49133564 50760804 52588456 54594356 56747036 59010284 
857.210 61347844 63727388 66122608 68512464 70879136 73205112 75470976 
860.585 77655520 79737520 81698976 83527488 85218648 86776168 88210568 
863.960 89536784 90771832 91931992 93031568 94080312 95082768 96038048 
867.335 96940496 97782008 98554192 99250344 99865392 100393600 100824320 
870.709 101137688 101302568 101278192 101020576 100490848 99664472 98536544 
874.084 97122264 95452688 93566112 91500368 89287584 86952696 84515280 
877.459 81994136 79409616 76785896 74150352 71531608 68958416 66458196 
880.834 64057164 61780256 59650156 57685948 55901448 54304040 52895020 
884.209 51671940 50630780 49767876 49080488 48564352 48210824 48004300 
887.583 47921476 47933784 48011784 48129420 48267640 48414024 48560044 
890.958 48697748 48816936 48905704 48952804 48952692 48907932 48830228 
894.333 48735812 48640388 48552944 48473280 48393144 48301160 48188536 
897.708 48053940 47904124 47751436 47608376 47483260 47377624 47287848 
901.083 47208356 47136024 47072276 47022972 46995104 46993668 47018508 
904.458 47064092 47121804 47182764 47240572 47292840 47339888 47383636 
907.832 47425812 47467212 47508556 47551728 47600232 47658628 47731672 
911.207 47822048 47929980 48053556 48190540 48340664 48506828 48694696 
914.582 48911004 49160296 49443556 49756760 50092524 50441888 50796580 
917.957 51149852 51496104 51830304 52146384 52437676 52697964 52923420 
921.332 53113724 53272816 53407548 53525756 53635236 53743164 53856764 
924.706 53984768 54138320 54329620 54569832 54865580 55216468 55614416 
928.081 56046256 56497016 56955112 57414208 57873644 58335616 58801276 
931.456 59267396 59724852 60160364 60559588 60911720 61211264 61459336 
934.831 61661916 61827040 61962948 62076424 62173336 62259636 62342248 
938.206 62428588 62525452 62637052 62763468 62900068 63039572 63174108 
941.581 63298800 63414260 63527680 63652484 63805780 64005352 64266092 
944.955 64597360 65001220 65472068 65998396 66565500 67158888 67767424 
948.330 68385632 69014024 69657624 70322632 71012904 71727336 72458184 
951.705 73191968 73911480 74597960 75233264 75800656 76283464 76664320 
955.080 76924232 77042664 76999160 76776600 76364688 75761896 74976808 
958.455 74027840 72941072 71747592 70481144 69175816 67865064 66580184 
961.829 65349928 64199440 63149108 62214296 61404676 60724420 60172912 
965.204 59745196 59433056 59225304 59108340 59066520 59082424 59137860 
968.579 59215224 59298744 59376320 59441448 59493624 59538884 59588876 
971.954 59658800 59763640 59915340 60119052 60371384 60660636 60969300 
975.329 61277884 61570640 61839416 62085404 62319000 62555896 62812000 
978.703 63098260 63417824 63765004 64128360 64494208 64851476 65194392 
982.078 65522484 65839620 66149996 66456600 66759572 67057564 67349624 
985.453 67637792 67927384 68226168 68541944 68879088 69237936 69613624 
988.828 70000928 70397040 70804728 71233272 71695920 72205536 72770296 
992.203 73390448 74058128 74760616 75485144 76222568 76970792 77733680 
995.578 78518672 79333520 80183496 81071408 81997848 82964136 83972784 
998.952 85027256 86129792 87278352 88464744 89675056 90892256 92101728 
1002.327 93296360 94480112 95669192 96889768 98173656 99553784 101059424 
1005.702 102715192 104540408 106551264 108763456 111193896 113863096 
1008.595 116795696 120021392 123575096 127497048 131833240 136634640 
1011.487 141954784 147843984 154341504 161462032 169180336 177414960 
1014.380 186014848 194753312 203335408 211419952 218658192 224741392 
1017.273 229449888 232690336 234510592 235090768 234709088 233697616 
1020.166 232394800 231105872 230077616 229486240 229438608 229980048 
1023.058 231107776 232785248 234956048 237555440 240520832 243797440 
1025.951 247342560 251124896 255123616 259325392 263721488 268306640 
1028.844 273079232 278041888 283203136 288575392 294174944 300016768 
1031.737 306111072 312458656 319048544 325856064 332844352 339966080 
1034.630 347166368 354386048 361564416 368641120 375558400 382261056 
1037.523 388697216 394818016 400577824 405934784 410850016 415288768 
1040.417 419220224 422618784 425464416 427743904 429451104 430587616 
1043.310 431161568 431186752 430681088 429664512 428159744 426192800 
1046.203 423794816 421004960 417872448 414456864 410826816 407057152 
1049.096 403223936 399399712 395647392 392016896 388542176 385240576 
1051.989 382115008 379157632 376355136 373694048 371164992 368765568 
1054.882 366500192 364379808 362420416 360643360 359075552 357752192 
1057.775 356719264 356034976 355769024 356000416 356811936 358284896 
1060.668 360493664 363502816 367364768 372120224 377799136 384421280 
1063.561 391996512 400523424 409987904 420362848 431607360 443669664 
1066.454 456490624 470009280 484165952 498906304 514180416 529941088 
1069.347 546140224 562725248 579636160 596805632 614160896 631628032 
1072.240 649136064 666622720 684034496 701327424 718461888 735395712 
1075.133 752077824 768445376 784423680 799934656 814905664 829275776 
1078.026 842999872 856040384 868352256 879869248 890489856 900080832 
1080.919 908485056 915546944 921133184 925151360 927555136 928344576 
1083.813 927554880 925249344 921513600 916454336 910194944 902871296 
1086.706 894623808 885588864 875892480 865648640 854960896 843927104 
1089.599 832638912 821183808 809639360 798070976 786530816 775058432 
1092.492 763685376 752436608 741331776 730380864 719579968 708910080 
1095.385 698338624 687826560 677339840 666857664 656375232 645902464 
1098.278 635453696 625039808 614658560 604295104 593927104 583532032 
1101.171 573096000 562617152 552105728 541580096 531061280 520573376 
1104.064 510143872 499808352 489616352 479632928 469937024 460616192 
1106.957 451759456 443450368 435761728 428754752 422478976 416973344 
1109.850 412266464 408374944 405299456 403021952 401502144 400677760 
1112.743 400466720 400773984 401498912 402543232 403818880 405252352 
1115.636 406786656 408381824 410011328 411659232 413316960 414979968 
1118.529 416646976 418319392 420001280 421698752 423418976 425167008 
1121.422 426941376 428730816 430512128 432249184 433895552 435398016 
1124.315 436700064 437746272 438484032 438865792 438850176 438404544 
1127.208 437506976 436148192 434332544 432075200 429399232 426329696 
1130.102 422890240 419099040 414969216 410509984 405727296 400625920 
1132.995 395207456 389469280 383403264 376997408 370238592 363117632 
1135.888 355635872 347808832 339667680 331257984 322634784 313858464 
1138.781 304988992 296083904 287196992 278379776 269682912 261158464 
1141.674 252860400 244842928 237159680 229860304 222986480 216571584 
1144.567 210638640 205201760 200266800 195833472 191895904 188444128 
1147.460 185464320 182939456 180850144 179176800 177900624 177005616 
1150.353 176478000 176305312 176474352 176967264 177760112 178821696 
1153.246 180114736 181599440 183238096 184999248 186861008 188810976 
1156.139 190844816 192962256 195162944 197442560 199792592 202201632 
1159.032 204658240 207154848 209691072 212274944 214922064 217654032 
1161.925 220494080 223466848 226595344 229902448 233411568 237149696 
1164.818 241147776 245443328 250079152 255103952 260570560 266535520 
1167.711 273057920 280199680 288024672 296598656 305988928 316262240 
1170.604 327482880 339710496 352996096 367379040 382881280 399502624 
1173.498 417213856 435948864 455595776 475989728 496906688 518061504 
1176.391 539111552 559666240 579303616 597592192 614114112 628490240 
1179.284 640400256 649603072 655951744 659403648 660024576 657982080 
1182.177 653528576 646974528 638656960 628912832 618056576 606372416 
1185.070 594112064 581498816 568730816 555981888 543398656 531098240 
1187.963 519166048 507659744 496615200 486055808 475998528 466458176 
1190.856 457446528 448969216 441022080 433590784 426652096 420180256 
1193.749 414151936 408549856 403362816 398583168 394201632 390203904 
1196.642 386569824 383274944 380296224 377615264 375221280 373109504 
1199.535 371277280 369718368 368419488 367357600 366502016 365817504 
1202.428 365269664 364826528 364462016 364154048 363884544 363636736 
1205.321 363392160 363130912 362829696 362462496 362000992 361416352 
1208.214 360682560 359778624 358691552 357417056 355957664 354319936 
1211.107 352511552 350538656 348405920 346117952 343683168 341115392 
1214.000 338434528 335663968 332826272 329939264 327012704 324049280 
1216.894 321047136 318004512 314925280 311820096 308707136 305609152 
1219.787 302549056 299546208 296613888 293759136 290983808 288287008 
1222.680 285667424 283124640 280658848 278271040 275962144 273731200 
1225.573 271575552 269490016 267467552 265500128 263580080 261702064 
1228.466 259864720 258072592 256336416 254672256 253098576 251633488 
1231.359 250292064 249084272 248015232 247087648 246304336 245671104 
1234.252 245197360 244895712 244779904 244861312 245145696 245633296 
1237.145 246318960 247193664 248247088 249468496 250846080 252365824 
1240.038 254010080 255755728 257574384 259433744 261299616 263137760 
1242.931 264916032 266604688 268176736 269607904 270877696 271970464 
1245.824 272876800 273596384 274138400 274521248 274771584 274920928 
1248.717 275002976 275050656 275094048 275158752 275266016 275432224 
1251.610 275668832 275982624 276374912 276843360 277382400 277984480 
1254.503 278641984 279348640 280100704 280896736 281737760 282626944 
1257.396 283568544 284567520 285628960 286756448 287951744 289212512 
1260.290 290532032 291897856 293292288 294692672 296072896 297404832 
1263.183 298659712 299809440 300828640 301693760 302385632 302886592 
1266.076 303181920 303256384 303092000 302666464 301953440 300924352 
1268.969 299552320 297816768 295708128 293230112 290399264 287241568 
1271.862 283788608 280073248 276126400 271977472 267654416 263185024 
1274.755 258596096 253913792 249161184 244357504 239519152 234660528 
1277.648 229797280 224947200 220129872 215365104 210671120 206061392 
1280.541 201545776 197131152 192824832 188636064 184577456 180663136 
1283.434 176905136 173310928 169881152 166610064 163488816 160509344 
1286.327 157668208 154967648 152415760 150023072 147799200 145750000 
1289.220 143875600 142171088 140627600 139234624 137981136 136855648 
1292.113 135846368 134939712 134120240 133371072 132675648 132019568 
1295.006 131392568 130789728 130211856 129663720 129152712 128686432 
1297.899 128270600 127908064 127598392 127338888 127125304 126952320 
1300.792 126814288 126704376 126614840 126535744 126455528 126362072 
1303.686 126243768 126091536 125900032 125668136 125397744 125092728 
1306.579 124756704 124392312 123999920 123578712 123128128 122648168 
1309.472 122139880 121604448 121040792 120444784 119807776 119117320 
1312.365 118360424 117526952 116612728 115623168 114573008 113485200 
1315.258 112387496 111308032 110271240 109294872 108388864 107554840 
1318.151 106788752 106082552 105427216 104814136 104236520 103689808 
1321.044 103170848 102677432 102208664 101764152 101344464 100951696 
1323.937 100588640 100259208 99966576 99712504 99496760 99317824 99174000 
1327.312 99064944 98994000 98968688 98999912 99100264 99281176 99551248 
1330.688 99914712 100371856 100921880 101563688 102298800 103129968 
1333.581 104059576 105086040 106200528 107384368 108611184 109848192 
1336.474 111062920 112226592 113319248 114329824 115256088 116101752 
1339.367 116874392 117583832 118241896 118862624 119462584 120059896 
1342.260 120673024 121317760 122006440 122747056 123544792 124404720 
1345.153 125334232 126344264 127448376 128660056 129988640 131435632 
1348.046 132993104 134644096 136365376 138131872 139920160 141711536 
1350.939 143493056 145256128 146994864 148703808 150376160 152002496 
1353.832 153570624 155065680 156472128 157774496 158959824 160019168 
1356.725 160949056 161751936 162436336 163015088 163503696 163918864 
1359.618 164275856 164588192 164866576 165118448 165349616 165563296 
1362.511 165760880 165941040 166099824 166229264 166317200 166346256 
1365.404 166294704 166136192 165840752 165376528 164710768 163813472 
1368.297 162661136 161241456 159558080 157635648 155522240 153289120 
1371.190 151028096 148844704 146851248 145158304 143867280 143063664 
1374.083 142811488 143149808 144088624 145607488 147655152 150151024 
1376.977 152990144 156049536 159197808 162304496 165249680 167931696 
1379.870 170269104 172201120 173682992 174682112 175175472 175147600 
1382.763 174592944 173516640 171936608 169882096 167391904 164511584 
1385.656 161290832 157781024 154034160 150101856 146033200 141873568 
1388.549 137662528 133432272 129208016 125007552 120842960 116723176 
1391.442 112655472 108648592 104715168 100873184 97146736 93563976 90153624 
1394.817 86942136 83947968 81181360 78643360 76329128 74230480 72339496 
1398.192 70649296 69154720 67850728 66732288 65793252 65028212 64434448 
1401.568 64013200 63771000 63718072 63865924 64223528 64792676 65564700 
1404.943 66517136 67613216 68800904 70015720 71183656 72226040 73065760 
1408.318 73633976 73876080 73757872 73268200 72421304 71253720 69821080 
1411.693 68191856 66440836 64641616 62861012 61153764 59559660 58101956 
1415.069 56788360 55614164 54566512 53628488 52784332 52021180 51331056 
1418.444 50710248 50158316 49676252 49265176 48925124 48655648 48454856 
1421.819 48320280 48247692 48231476 48263580 48333328 48428072 48534020 
1425.194 48639168 48734828 48817980 48892684 48969796 49066052 49202368 
1428.570 49400912 49682476 50064072 50558376 51173484 51913528 52780500 
1431.945 53775788 54901448 56161340 57561272 59108844 60812736 62681436 
1435.320 64723624 66947408 69362136 71979960 74817680 77896920 81243152 
1438.695 84882968 88839432 93128096 97753952 102710544 107980720 113537912 
1442.071 119347152 125365200 131537912 137800800 144078128 150287792 
1444.964 156346528 162176944 167713552 172904400 177710512 182105408 
1447.857 186072528 189604512 192703056 195377072 197639328 199501216 
1450.750 200969408 202044032 202720000 202992560 202860032 202326704 
1453.643 201400496 200088080 198390176 196300736 193809648 190910512 
1456.536 187607168 183918816 179877984 175525392 170902400 166046480 
1459.429 160990384 155765424 150404560 144945696 139429920 133898168 
1462.322 128388152 122931936 117557336 112289800 107155248 102179968 
1465.215 97388912 92802992 88435704 84293424 80377584 76687776 73225112 
1468.590 69993248 66996896 64238740 61715848 59418020 57328076 55423716 
1471.966 53681596 52079860 50600728 49230436 47958556 46775800 45672640 
1475.341 44638048 43659500 42723820 41818072 40931088 40055036 39185948 
1478.716 38324412 37474664 36643672 35838440 35065152 34326068 33619904 
1482.091 32941826 32285466 31644336 31014734 30396068 29791264 29204918 
1485.467 28642562 28108414 27604752 27131480 26687680 26271576 25882122 
1488.842 25519484 25184068 24876616 24597378 24345104 24118360 23914882 
1492.217 23733082 23572144 23432880 23316650 23225754 23162370 23128878 
1495.592 23127710 23161620 23234396 23350564 23515330 23734546 24013976 
1498.968 24359172 24774326 25261698 25820124 26442754 27114586 27811406 
1502.343 28498942 29134300 29670208 30060422 30265798 30261712 30042446 
1505.718 29622674 29036622 28332076 27562846 26780096 26025768 25329404 
1509.093 24707282 24164700 23698792 23301842 22965386 22680522 22440748 
1512.469 22240936 22077336 21946498 21844378 21766218 21705966 21657868 
1515.844 21616388 21577626 21538894 21498422 21454860 21407058 21354026 
1519.219 21295874 21234454 21174356 21121400 21081836 21059420 21053652 
1522.594 21059798 21069176 21072460 21062394 21035842 20994612 20943918 
1525.969 20890892 20841334 20798372 20762226 20731122 20702706 20675896 
1529.345 20650532 20628178 20609784 20595928 20585302 20575448 20562552 
1532.720 20543358 20515400 20477258 20429652 20374472 20314744 20254824 
1536.095 20198700 20150206 20111704 20083730 20065820 20056296 20054228 
1539.470 20059828 20074156 20098954 20133444 20174114 20213172 20240928 
1542.846 20247468 20226498 20177988 20107624 20024990 19940724 19861904 
1546.221 19789636 19719596 19643764 19555644 19452270 19337180 19219022 
1549.596 19109050 19016936 18948128 18902116 18873838 18856172 18841982 
1552.971 18826722 18808750 18788220 18766302 18743786 18720402 18695626 
1556.347 18669082 18641512 18614932 18592418 18577688 18573562 18582174 
1559.722 18603696 18637184 18680256 18729148 18779776 18827348 18867382 
1563.097 18896690 18913760 18919698 18917908 18914408 18915596 18928460 
1566.472 18957824 19006586 19074544 19158844 19254054 19353880 19452110 
1569.848 19543884 19627798 19706194 19786146 19877782 19993944 20146198 
1573.223 20343686 20590454 20883382 21212498 21560814 21906388 22226328 
1576.598 22498994 22708618 22846490 22911264 22908368 22847100 22739270 
1579.973 22596658 22430396 22250114 22063980 21879294 21702070 21537170 
1583.349 21388012 21256174 21141812 21044234 20961668 20893028 20837242 
1586.724 20793400 20759502 20732902 20709156 20683226 20650550 20608842 
1590.099 20558264 20502008 20444690 20391030 20344238 20305082 20272640 
1593.474 20246158 20225476 20213480 20215130 20236208 20281742 20353500 
1596.850 20450044 20566824 20698146 20839490 20989518 21149988 21326054 
1600.225 21524408 21751334 22010988 22304912 22631100 22984850 23359412 
1603.600 23746976 24139774 24530810 24914842 25287834 25647768 25992238 
1606.975 26318378 26621732 26895876 27133434 27327082 27471636 27564976 
1610.351 27608526 27607192 27567862 27497788 27403904 27291468 27164316 
1613.726 27024656 26873718 26711992 26540426 26359518 26171154 25978278 
1617.101 25785676 25599404 25426464 25273920 25147062 25048228 24977152 
1620.476 24930566 24903656 24891136 24888962 24894636 24906992 24925480 
1623.852 24949436 24977586 25007644 25037442 25065740 25093218 25122216 
1627.227 25156532 25199530 25253678 25318592 25391208 25467064 25540730 
1630.602 25608830 25670030 25726328 25782158 25843120 25914056 25997492 
1633.977 26093060 26196672 26301870 26400950 26485692 26549728 26587946 
1637.353 26598372 26581586 26540612 26481978 26415018 26350900 26301244 
1640.728 26276204 26281330 26316990 26377224 26451724 26528702 26597136 
1644.103 26649832 26683952 26701678 26707466 26707024 26704768 26704146 
1647.478 26707432 26716892 26736048 26769106 26821014 26896444 26998100 
1650.854 27126238 27278508 27449882 27634246 27824618 28015320 28201208 
1654.229 28379726 28549646 28712060 28868934 29023702 29179954 29341128 
1657.604 29509634 29687478 29875382 30074486 30285568 30510138 30749020 
1660.979 31002240 31268158 31543008 31822420 32102558 32381858 32662972 
1664.354 32951388 33254794 33580404 33932304 34311364 34714060 35135700 
1667.730 35571328 36018140 36475532 36944220 37423780 37911836 38403228 
1671.105 38891712 39372064 39842928 40307736 40772792 41245320 41729444 
1674.480 42223552 42720912 43211392 43687312 44146788 44596764 45051328 
1677.855 45527892 46041744 46600880 47203652 47839744 48494040 49151000 
1681.231 49799524 50434464 51055580 51665820 52268924 52868268 53467236 
1684.606 54070292 54684512 55318720 55982088 56681776 57421596 58201364 
1687.981 59018960 59872744 60764732 61701624 62692760 63748896 64877912 
1691.356 66083304 67364464 68718640 70145544 71647992 73234992 74918888 
1694.732 76712760 78628584 80676936 82869936 85225680 87772192 90549504 
1698.107 93607592 96999184 100771592 104960672 109586632 114658928 120185360 
1701.482 126184896 132697296 139785536 147531616 156025056 165349744 
1704.375 175573568 186742608 198881616 211999376 226092784 241149184 
1707.268 257143856 274034560 291756800 310223776 329329696 348956064 
1710.161 368972704 389237664 409588608 429834976 449755904 469103968 
1713.054 487621184 505056992 521190240 535845216 548907008 560329664 
1715.948 570143808 578454016 585426944 591264512 596171648 600322624 
1718.841 603842432 606804416 609246144 611190208 612663360 613701376 
1721.734 614344832 614628416 614574016 614191808 613492608 612501056 
1724.627 611264704 609852928 608342976 606803584 605281856 603798656 
1727.520 602358144 600957504 599599232 598294144 597056000 595892928 
1730.413 594802752 593775488 592806144 591908864 591127104 590534208 
1733.306 590220800 590275392 590766784 591736064 593202368 595177600 
1736.199 597686016 600773632 604508480 608969600 614232576 620356352 
1739.092 627380992 635330112 644221504 654071744 664895040 676692608 
1741.985 689435456 703052480 717424640 732392384 747769152 763355840 
1744.878 778950848 794350848 809347200 823724608 837264960 849760192 
1747.771 861025536 870907136 879283072 886055232 891140416 894471040 
1750.664 896001344 895720448 893658560 889881408 884469888 877497856 
1753.557 869014208 859042752 847598528 834713024 820456832 804948992 
1756.450 788349120 770838592 752597440 733788608 714556160 695028992 
1759.344 675329856 655582144 635907328 616419328 597218240 578385408 
1762.237 559986240 542073344 524693600 507889984 491701408 476156832 
1765.130 461272224 447047424 433468320 420510880 408148992 396356448 
1768.023 385109952 374385952 364156832 354387456 345035232 336051744 
1770.916 327387264 318994976 310833568 302867488 295064736 287392960 
1773.809 279819136 272308768 264830208 257357232 249873392 242372512 
1776.702 234858096 227338992 219826784 212333024 204869072 197447296 
1779.595 190084256 182799584 175617136 168560128 161647104 154890928 
1782.488 148298736 141874608 135624592 129560024 123698928 118063160 
1785.381 112674672 107550336 102699800 98124312 93819648 89778752 85995168 
1788.756 82463216 79177168 76130144 73311472 70706768 68297424 66060908 
1792.132 63974208 62014576 60162480 58404860 56736820 55161028 53686956 
1795.507 52325796 51084364 49960652 48941684 48004388 47122420 46271972 
1798.882 45439188 44621768 43827804 43069472 42357768 41696472 41082940 
1802.257 40509632 39968572 39455188 38969128 38512320 38086228 37688208 
1805.633 37312260 36949276 36591984 36235544 35879700 35525532 35174660 
1809.008 34825696 34475768 34121748 33764252 33407920 33060766 32730296 
1812.383 32418124 32117922 31816368 31497880 31151896 30778562 30391648 
1815.758 30013970 29671516 29384076 29159802 28993956 28873982 28785204 
1819.134 28717078 28664922 28625936 28594368 28556646 28491374 28374826 
1822.509 28187832 27924878 27596320 27227502 26850530 26495240 26180182 
1825.884 25910272 25676436 25462054 25248426 25020740 24770380 24494408 
1829.259 24194516 23875652 23543320 23204400 22865506 22532514 22208538 
1832.635 21893824 21584748 21277066 20967536 20658276 20357146 20078362 
1836.010 19838384 19652416 19527208 19460652 19438242 19438536 19434520 
1839.385 19402214 19323418 19190752 19007382 18785418 18540918 18290432 
1842.760 18044202 17805848 17572064 17336226 17093406 16846102 16604485 
1846.135 16385481 16207121 16081221 16008355 15976116 15962787 15945332 
1849.511 15906170 15840922 15757762 15675502 15613159 15585880 15595760 
1852.886 15634807 15685400 15729375 15750134 15738750 15692944 15616524 
1856.261 15516058 15401130 15280949 15166057 15064793 14983186 14920685 
1859.636 14870201 14818001 14748447 14648029 14512155 14346903 14169668 
1863.012 14003810 13872320 13791475 13766265 13789434 13844676 13908945 
1866.387 13960415 13978368 13949436 13866157 13729769 13548941 13340799 
1869.762 13126183 12928889 12767365 12654467 12591908 12573732 12588187 
1873.137 12624520 12675184 12740632 12824229 12931352 13063044 13211753 
1876.513 13362646 13496193 13592064 13636238 13623220 13557215 13450473 
1879.888 13319570 13182160 13054136 12946650 12865660 12810482 12775174 
1883.263 12745678 12706280 12642386 12547330 12424268 12290507 12170715 
1886.638 12092050 12071727 12111305 12190842 12274681 12318604 12284825 
1890.014 12154230 11933142 11652331 11361179 11112805 10952953 10907060 
1893.389 10977481 11142006 11360609 11583772 11763087 11860004 11853840 
1896.764 11744654 11555478 11325133 11102767 10932876 10848171 10858387 
1900.139 10950646 11092677 11244318 11366612 11433518 11431304 11360044 
1903.515 11224629 11031562 10783846 10487625 10154165 9809231 9491230 
1906.890 9247876 9122859 9145682 9320685 9626134 10018604 10447398 10864059 
1910.747 11235639 11542712 11780920 11952466 12062530 12118760 12132880 
1914.123 12116632 12087244 12055652 12024431 11977992 11888891 11721291 
1917.498 11451090 11073032 10612035 10116245 9644820 9244820 8942563 8734863 
1921.355 8599916 8509501 8449741 8423801 8451018 8551332 8728564 8955422 
1925.213 9179227 9333326 9363284 9247116 9009428 8709733 8427871 8230621 
1929.070 8153291 8185994 8287748 8404359 8496936 8556724 8611113 8707322 
1932.927 8892128 9183594 9562273 9968934 10326082 10556670 10617431 10505606 
1936.785 10264399 9963058 9678301 9466883 9356279 9338532 9385887 9460441 
1940.642 9534583 9592242 9631648 9652524 9651730 9612256 9513888 9338890 
1944.500 9092659 8800142 8516632 8307497 8236420 8340668 8626559 9061341 
1948.357 9586913 10128685 10610442 10962855 11133226 11086208 10816899 
1951.732 10352971 9760621 9133143 8571583 8153037 7905631 7787314 7703337 
1955.590 7529568 7171547 6598796 5876228 5147201 4595181 4375174 4563511 
1959.447 5122423 5923691 6791314 7574896 8183591 8613676 8904167 9110756 
1963.305 9255351 9332413 9316281 9211762 9074694 9024261 9198395 9707973 
1967.162 10567769 11684844 12858993 13853936 14463920 14584945 14235763 
1970.537 13549991 12724967 11969690 11443987 11252217 11429775 11977553 
1973.913 12859816 14029098 15397569 16854650 18246026 19430856 20299544 
1977.288 20838418 21126666 21328800 21619076 22121442 22845180 23687952 
1980.663 24457468 24940136 24948572 24384594 23252288 21665544 19796524 
1984.038 17853616 16015364 14415122 13121537 12158805 11507851 11137450 
1987.414 10998019 11030040 11154233 11282375 11319701 11201484 10904366 
1990.789 10472069 9997862 9607162 9401202 9431576 9658080 9974149 10231515 
1994.646 10310830 10156133 9810983 9393931 9056155 8911057 8991714 9228094 
1998.504 9479512 9578963 9404590 8919815 8183874 7322973 6490703 5808724 
2002.361 5348274 5120776 5108856 5284538 5644460 6191794 6932719 7837425 
2006.219 8840124 9821929 10661766 11255279 11559578 11576786 11360494 
2009.594 10970247 10469306 9907641 9342231 8835485 8471484 8322510 8428404 
2013.451 8762757 9226524 9656539 9880885 9760414 9243391 8367869 7252906 
2017.309 6047231 4893062 3884058 3076271 2494514 2168619 2142498 2469378 
2021.166 3179879 4258717 5606164 7062241 8418891 9490057 10139613 10325599 
2025.023 10090148 9553375 8855488 8144069 7535027 7119773 6953499 7072280 
2028.881 7477721 8147076 9002384 9929604 10780242 11411520 11715083 11649632 
2032.738 11249097 10626731 9920010 9275365 8787336 8503091 8403374 8445820 
2036.596 8576245 8766460 9009043 9330212 9754553 10302584 10964910 11708169 
2040.453 12473307 13199927 13831640 14331663 14682891 14888974 14956791 
2043.828 14901852 14735804 14481420 14164466 13837013 13558955 13405378 
2047.204 13440969 13706669 14188983 14822293 15487365 16040254 16348798 
2050.579 16330918 15972907 15334903 14532156 13712561 13012119 12526667 
2053.954 12275322 12204159 12192665 12106681 11840349 11361688 10718000 
2057.329 10024014 9414785 9005436 8844743 8911107 9119999 9367318 9565132 
2061.187 9672847 9704733 9713495 9759568 9889978 10116577 10428990 10801121 
2065.044 11216533 11668865 12163052 12692255 13227153 13705926 14047922 
2068.419 14173234 14035600 13637123 13038983 12337479 11643846 11047061 
2071.795 10600343 10311902 10160378 10112583 10143772 10242742 10410468 
2075.170 10648084 10946496 11277254 11599294 11865597 12042109 12114472 
2078.545 12094878 12012728 11906248 11803642 11720621 11649583 11573905 
2081.920 11469623 11323107 11134207 10918080 10694502 10485614 10301620 
2085.296 10146713 10018242 9921180 9873145 9908146 10062758 10362664 
2088.671 10800689 11326729 11847493 12250650 12432592 12337483 11971259 
2092.046 11407477 10761420 10159495 9699156 9428306 9340379 9393234 9532261 
2095.904 9720293 9938783 10188195 10461407 10736369 10968827 11108811 
2099.279 11122486 11015961 10836162 10664200 10581918 10644791 10856121 
2102.654 11171399 11509438 11783008 11923142 11897194 11704003 11370752 
2106.029 10934368 10440525 9933669 9465879 9086563 8840679 8749789 8804923 
2109.887 8960673 9153171 9320080 9426802 9479644 9524661 9618861 9805604 
2113.744 10081327 10393810 10651466 10758759 10646180 10299911 9758891 
2117.119 9104518 8428929 7811991 7299754 6906966 6622383 6424754 6290176 
2120.977 6196446 6117470 6029267 5907908 5740717 5535756 5321758 5139987 
2124.834 5028598 4998161 5025781 5051146 5001563 4810748 4446817 3914741 
2128.692 3257730 2531563 1794821 1093026 466450 -40810 -368726 -450434 
2132.549 -227485 310515 1107497 2028600 2894919 3531285 3832839 3791992 
2136.406 3504475 3117529 2773114 2541100 2404146 2266440 2008851 1539786 
2140.264 843382 -25179 -955689 -1838452 -2596286 -3214555 -3720812 -4167064 
2144.121 -4586373 -4984195 -5325990 -5570797 -5681737 -5661454 -5547612 
2147.497 -5416300 -5363670 -5495375 -5908393 -6690011 -7892388 -9526739 
2150.872 -11530346 -13773270 -16053114 -18145286 -19839642 -21020232 
2153.765 -21683922 -21957376 -22034530 -22111782 -22293616 -22528774 
2156.658 -22584730 -22107488 -20708212 -18154372 -14478819 -10056684 
2159.551 -5513425 -1538783 1350020 2930526 3323717 2879884 2068136 1321241 
2163.408 949361 1071800 1642172 2467329 3316760 3986729 4367479 4447864 
2167.266 4306159 4053033 3796399 3590716 3445000 3313740 3136702 2852995 
2171.123 2434661 1887342 1265654 653536 162657 -111039 -97451 199588 702217 
2175.463 1249144 1647051 1708458 1332455 532629 -542832 -1664307 -2568418 
2179.320 -3051331 -3010467 -2481723 -1599430 -547140 524505 1534253 2494549 
2183.178 3467641 4519943 5654896 6797102 7798326 8490033 8731859 8473750 
2187.035 7761813 6739531 5597719 4539393 3722314 3249957 3146056 3376722 
2190.893 3853132 4465660 5086297 5599469 5909959 5964857 5749768 5304097 
2194.750 4694663 4014646 3350366 2770105 2312575 1992710 1803602 1736434 
2198.607 1786805 1965254 2288591 2775482 3428916 4231545 5131701 6052554 
2202.465 6897663 7576943 8017638 8191050 8111447 7838015 7451055 7036182 
2206.322 6656785 6349354 6112616 5929854 5774208 5639277 5534932 5495200 
2210.180 5559296 5762901 6116514 6605053 7184357 7794338 8363846 8831123 
2214.037 9145514 9286035 9255229 9091096 8857486 8641020 8528031 8590000 
2217.895 8858817 9320762 9912061 10542040 11109157 11540899 11803475 
2221.270 11918764 11946915 11967547 12043591 12204933 12426293 12642797 
2224.645 12758309 12684207 12357227 11770216 10971387 10063938 9181162 
2228.020 8466727 8039699 7981048 8313069 9004573 9970101 11094971 12240722 
2231.878 13272187 14066444 14534442 14624715 14342399 13747799 12954586 
2235.253 12110241 11375236 10881480 10710351 10866459 11281388 11827569 
2238.628 12358064 12742266 12906061 12840852 12605497 12299407 12032086 
2242.003 11882466 11885023 12015998 12211022 12383578 12456886 12383550 
2245.379 12164420 11841296 11486664 11179220 10978813 10908793 10952563 
2248.754 11058821 11166340 11225129 11221880 11181516 11165503 11242904 
2252.129 11470193 11864272 12400794 13015314 13633509 14186189 14635129 
2255.504 14968434 15198744 15339361 15397102 15362858 15223134 14970082 
2258.880 14618458 14206045 13788091 13419104 13140204 12965348 12885650 
2262.255 12881183 12939380 13064927 13282601 13624541 14112270 14736342 
2265.630 15452114 16179163 16825540 17307704 17575902 17623626 17489494 
2269.005 17239646 16950740 16685203 16480893 16341409 16243501 16147397 
2272.381 16016139 15825534 15577266 15297583 15031021 14825166 14718044 
2275.756 14724758 14837654 15026506 15254930 15490322 15716588 15933640 
2279.131 16155662 16398715 16674727 16983678 17316156 17655420 17985704 
2282.506 18291198 18559604 18776536 18926652 18992828 18966510 18850270 
2285.882 18667470 18456148 18263148 18127292 18068818 18080038 18130338 
2289.257 18175638 18178152 18116604 17996142 17840940 17685234 17556540 
2292.632 17467154 17408124 17357732 17287516 17177294 17018764 16819506 
2296.007 16597001 16374761 16173441 16010208 15895357 15834861 15829206 
2299.383 15875252 15963435 16080398 16207265 16326131 16420564 16482320 
2302.758 16509505 16508773 16489493 16463296 16438486 16423678 16423931 
2306.133 16444609 16488368 16556935 16646445 16748518 16850254 16937486 
2309.508 16999392 17031666 17038490 17031066 17023244 17026334 17044920 
2312.884 17076222 17109876 17135120 17144932 17142106 17138730 17155258 
2316.259 17214722 17336454 17528478 17788144 18101156 18450774 18821168 
2319.634 19206414 19610386 20042212 20505786 20988456 21451826 21833494 
2323.009 22055442 22042786 21744258 21147668 20285582 19231000 18082072 
2326.385 16944724 15911795 15050107 14390228 13930322 13641770 13484095 
2329.760 13416720 13406275 13429474 13472013 13523027 13574610 13620185 
2333.135 13655123 13680984 13702783 13727800 13762474 13807046 13855167 
2336.510 13895463 13914580 13902926 13858284 13785742 13696292 13602096 
2339.885 13513681 13437106 13375431 13328355 13294860 13274481 13265969 
2343.261 13264686 13263954 13252048 13219829 13159971 13073323 12967753 
2346.636 12859316 12763914 12696994 12665492 12668095 12696385 12738322 
2350.011 12781462 12816493 12837423 12841634 12827221 12793231 12738939 
2353.386 12665917 12578818 12486554 12400340 12331794 12288894 12272368 
2356.762 12276380 12288536 12293501 12278300 12233675 12157312 12051575 
2360.137 11924287 11782798 11634788 11486892 11343863 11209344 11088714 
2363.512 10985227 10902130 10838955 10792546 10756176 10721931 10681177 
2366.887 10629708 10567446 10500641 10440156 10399230 10389213 10415916 
2370.263 10477455 10563307 10656819 10739973 10797831 10824652 10824309 
2373.638 10811727 10806530 10828123 10887899 10986678 11113119 11249175 
2377.013 11374397 11474353 11543443 11586348 11613724 11638721 11668751 
2380.388 11705891 11744725 11777507 11797452 11803991 11802069 11801981 
2383.764 11815232 11851261 11913521 12000192 12104976 12219332 12334705 
2387.139 12443973 12541044 12622464 12685656 12729564 12756338 12768771 
2390.514 12771749 12768952 12762703 12752601 12737598 12717049 12692800 
2393.889 12670709 12657924 12662639 12687684 12731138 12783531 12833616 
2397.265 12869891 12886877 12885848 12875402 12864713 12863434 12873989 
2400.640 12893728 12913072 12922754 12913825 12881520 12825749 12750367 
2404.015 12660850 12566224 12474875 12398982 12347583 12329647 12347933 
2407.390 12398834 12473007 12558763 12646174 12732415 12820633 12920376 
2410.766 13038605 13176794 13324929 13464642 13574706 13639950 13657421 
2414.141 13640215 13610358 13593053 13602821 13639676 13686527 13716273 
2417.516 13702536 13629951 13499710 13331039 13150883 12988060 12862455 
2420.891 12781468 12738783 12721179 12711363 12695612 12663603 12611667 
2424.267 12539798 12452218 12357128 12265829 12191174 12145364 12134273 
2427.642 12156375 12200375 12249280 12285503 12299504 12293881 12284263 
2431.017 12294441 12347413 12457234 12620285 12816307 13013826 13177657 
2434.392 13281050 13310394 13267272 13163256 13016305 12841692 12650041 
2437.768 12448460 12242588 12041333 11856954 11703017 11591710 11527944 
2441.143 11506592 11515817 11540829 11569698 11598742 11633444 11684862 
2444.518 11764881 11877952 12018774 12172948 12321791 12448893 12545618 
2447.893 12614238 12666057 12715439 12774281 12849995 12940613 13038014 
2451.269 13129543 13202441 13242468 13239477 13183895 13073650 12912588 
2454.644 12716674 12510512 12328177 12201938 12156337 12199562 12321139 
2458.019 12493034 12678792 12840819 12949978 12988406 12949858 12835625 
2461.394 12653686 12415838 12140905 11856113 11597936 11406794 11317512 
2464.770 11347625 11489609 11708640 11950854 12157340 12282747 12306564 
2468.145 12239818 12114978 11976702 11862052 11794530 11777134 11800955 
2471.520 11852022 11921582 12008896 12119369 12255510 12411868 12570383 
2474.895 12704005 12783247 12789308 12719234 12591266 12439678 12306322 
2478.271 12229322 12234026 12325720 12492178 12704038 12924675 13116562 
2481.646 13248205 13298820 13259766 13134752 12937081 12688985 12416041 
2485.021 12145718 11906669 11724197 11619375 11605639 11684030 11842545 
2488.396 12054661 12283415 12488861 12637245 12709565 12705348 12644669 
2491.771 12559501 12486082 12454409 12480384 12565209 12696060 12853821 
2495.147 13018692 13172774 13305414 13408477 13478831 13514445 13517057 
2498.522 13490579 13442550 13382428 13320020 13262964 13215446 13177977 
2501.897 13151236 13134638 13131965 13147085 13182701 13235212 13295219 
2505.272 13346434 13372113 13359722 13307308 13225443 13133717 13054658 
2508.648 13005014 12989848 13000506 13017397 13019644 12991497 12931762 
2512.023 12852131 12777530 12732978 12737357 12795506 12895318 13010271 
2515.398 13109930 13166182 13164910 13105990 13003753 12878696 12750901 
2518.773 12631180 12521807 12416710 12310824 12204315 12108671 12043491 
2522.149 12030585 12084180 12203814 12369250 12547041 12696072 12783981 
2525.524 12792855 12725274 12602379 12456244 12319561 12218750 12168900 
2528.899 12174950 12231927 12329957 12455161 12591112 12717971 12815864 
2532.274 12866096 12857082 12786417 12664269 12511681 12357529 12232899 
2535.650 12165228 12173914 12270897 12455739 12719354 13041329 13393233 
2539.025 13738221 14039389 14263002 14387391 14407777 14337572 14203020 
2542.400 14038577 13874945 13735423 13630078 13560035 13518904 13501061 
2545.775 13501228 13517109 13544780 13579043 13609385 13624524 13612998 
2549.151 13570770 13501762 13419134 13342209 13291523 13282313 13323676 
2552.526 13413928 13543609 13696908 13857737 14010850 14146377 14259587 
2555.901 14350205 14422067 14479456 14525627 14562279 14589158 14607540 
2559.276 14620258 14634615 14657311 14695578 14750368 14815929 14880231 
2562.652 14929241 14952535 14950354 14932328 14915245 14914344 14934121 
2566.027 14963206 14975412 14937541 14822671 14621217 14350162 14048986 
2569.402 13770103 13563579 13464494 13482193 13601740 13789925 14005996 
2572.777 14214073 14390658 14525089 14621564 14691545 14752651 14819834 
2576.153 14906941 15019352 15155698 15303540 15445135 15557948 15622114 
2579.528 15625989 15570661 15469892 15348112 15233234 15151451 15120197 
2582.903 15146701 15228479 15354117 15507773 15671492 15828345 15964936 
2586.278 16072651 16149117 16197521 16225155 16238879 16241902 16231094 
2589.654 16198337 16133010 16028661 15886404 15718861 15545794 15390364 
2593.029 15269997 15194359 15162254 15167511 15201962 15263187 15353728 
2596.404 15480593 15648253 15854051 16086332 16324766 16546126 16731597 
2599.779 16868812 16956422 16999190 17006188 16985106 16943264 16885572 
2603.155 16816914 16742455 16668415 16598551 16534710 16474962 16418437 
2606.530 16365577 16323734 16303618 16318815 16378209 16482009 16618572 
2609.905 16768809 16910338 17025766 17107260 17158822 17191160 17216046 
2613.280 17240232 17263812 17280362 17282494 17266064 17234050 17194548 
2616.656 17158372 17133540 17123492 17126028 17137816 17156298 17184834 
2620.031 17229418 17297552 17391728 17507202 17629960 17740692 17819070 
2623.406 17851742 17834540 17775462 17691548 17605220 17537596 17504412 
2626.781 17513458 17563702 17646674 17749492 17856872 17956508 18039642 
2630.156 18102794 18147202 18177188 18196198 18206000 18205702 18190686 
2633.532 18158738 18109482 18046200 17977668 17913104 17861470 17826142 
2636.907 17805706 17795476 17788966 17784050 17782948 17792502 17821782 
2640.282 17876924 17958398 18059902 18167678 18265008 18336310 18370442 
2643.657 18364540 18321332 18251404 18168184 18086276 18017528 17972534 
2647.033 17954876 17964382 17996082 18043392 18097584 18151176 18198538 
2650.408 18236554 18262268 18273442 18265878 18235360 18177598 18091780 
2653.783 17979850 17850124 17713306 17581724 17463868 17365454 17285508 
2657.158 17219478 17161562 17108452 17058988 17014782 16977896 16949046 
2660.534 16924300 16896410 16855090 16790760 16696692 16573066 16424075 
2663.909 16259294 16090451 15928907 15783355 15660239 15563234 15492620 
2667.284 15447147 15423782 15417165 15422100 15432507 15443360 15450810 
2670.659 15453154 15448499 15436218 15413524 15377810 15325394 15255186 
2674.035 15169342 15074852 14982220 14903571 14849411 14825141 14829520 
2677.410 14854742 14890309 14924629 14950420 14964711 14969023 14968299 
2680.785 14965591 14962523 14957475 14946843 14927653 14899720 14865563 
2684.160 14830314 14798835 14773474 14752877 14732813 14707244 14671657 
2687.536 14624606 14570327 14515128 14467578 14434267 14418896 14420579 
2690.911 14435620 14458160 14481607 14500909 14512540 14514687 14507889 
2694.286 14494396 14478188 14463422 14453891 14451683 14455353 14462098 
2697.661 14466404 14464281 14455189 14441658 14431017 14431421 14449578 
2701.037 14488125 14544631 14612488 14684092 14751459 14811235 14861237 
2704.412 14902906 14935789 14959240 14970985 14969023 14953340 14926116 
2707.787 14891886 14856461 14823934 14796031 14772478 14751106 14731175 
2711.162 14713057 14698935 14691448 14690693 14694216 14696555 14692973 
2714.538 14681195 14663494 14646875 14640275 14649344 14674546 14708239 
2717.913 14738929 14753310 14743431 14709461 14659880 14609188 14571983 
2721.288 14558229 14570849 14604022 14648072 14691133 14725352 14746601 
2724.663 14756068 14758312 14758728 14762437 14771724 14786414 14804859 
2728.039 14822209 14834533 14838161 14832817 14820142 14807003 14800456 
2731.414 14807926 14832992 14874114 14924141 14973640 15013153 15038185 
2734.789 15049190 15053219 15059362 15076522 15109481 15158163 15217884 
2738.164 15281673 15342728 15394979 15433460 15453833 15451862 15424772 
2741.540 15372367 15299794 15216707 15137920 15077249 15044819 15042309 
2744.915 15062264 15091070 15112887 15115078 15092573 15047470 14989171 
2748.290 14928734 14877683 14842479 14826449 14829231 14848351 14880208 
2751.665 14919559 14960397 14997001 15023277 15037270 15039809 15036437 
2755.041 15033151 15036062 15045535 15056766 15060142 15044271 15001287 
2758.416 14928672 14832347 14724147 14618232 14529046 14466404 14434946 
2761.791 14436358 14469258 14530618 14617297 14722642 14839071 14955175 
2765.166 15059641 15142254 15197982 15227647 15238841 15242426 15250746 
2768.542 15272353 15311532 15365590 15427944 15488463 15537283 15565662 
2771.917 15569392 15547069 15501289 15437341 15362302 15282582 15204513 
2775.292 15132573 15070291 15020565 14986101 14969418 14973043 14998007 
2778.667 15043769 15107264 15183183 15266040 15351444 15436511 15520493 
2782.042 15603013 15682954 15757786 15822275 15871651 15902910 15916508 
2785.418 15916366 15909208 15900081 15891137 15880037 15861543 15831245 
2788.793 15789142 15743373 15707703 15699742 15733832 15816189 15941404 
2792.168 16093485 16249670 16388100 16492166 16555915 16583642 16588008 
2795.543 16584298 16586686 16602792 16635058 16679553 16729232 16776767 
2798.919 16816608 16846966 16867930 16883250 16897074 16913724 16936868 
2802.294 16968220 17008428 17056938 17111404 17167774 17219546 17258514 
2805.669 17276094 17264544 17221954 17151808 17066646 16985232 16929556 
2809.044 16918116 16962550 17062892 17209074 17383192 17565424 17738952 
2812.420 17892422 18021182 18125686 18208182 18271780 18318552 18352368 
2815.795 18378148 18404026 18439104 18490400 18560954 18648314 18745286 
2819.170 18843436 18936886 19024958 19111550 19204062 19307344 19422066 
2822.545 19541870 19657070 19756446 19832462 19884356 19916856 19938998 
2825.921 19961054 19991586 20036790 20100386 20186100 20295956 20431486 
2829.296 20589574 20762324 20936202 21095090 21222078 21306348 21343586 
2832.671 21338720 21302526 21248838 21192268 21144378 21114432 21109708 
2836.046 21134804 21192512 21280460 21392738 21517888 21643374 21757520 
2839.422 21854480 21935772 22009906 22090396 22189510 22316948 22477328 
2842.797 22670496 22896198 23153116 23442444 23763540 24114718 24488046 
2846.172 24872188 25252342 25615112 25952574 26263252 26550966 26821768 
2849.547 27080654 27329442 27565330 27786362 27991944 28185748 28374800 
2852.923 28567430 28767596 28974054 29178488 29368488 29532908 29664938 
2856.298 29765806 29844326 29913070 29985530 30071212 30173808 30291106 
2859.673 30417092 30543908 30665336 30778260 30884240 30990350 31107494 
2863.048 31249592 31430472 31661082 31944382 32277032 32647312 33041410 
2866.424 33445812 33852236 34259892 34673784 35101816 35550288 36021764 
2869.799 36513936 37023704 37549036 38092224 38658780 39253860 39876552 
2873.174 40516456 41152668 41757708 42306872 42784396 43189556 43536372 
2876.549 43847468 44145104 44441028 44733860 45007668 45239200 45406928 
2879.925 45497656 45510612 45457448 45355084 45221988 45071848 44912652 
2883.300 44746892 44573976 44392404 44201784 44001244 43790260 43567764 
2886.675 43335224 43097804 42866692 42660284 42499592 42404400 42388300 
2890.050 42453916 42591468 42781612 43000780 43226800 43442724 43639788 
2893.426 43815904 43972136 44112444 44239308 44353988 44460368 44562320 
2896.801 44665896 44777180 44900136 45033792 45171492 45302768 45414784 
2900.176 45497844 45547256 45565196 45559604 45542056 45522904 45509520 
2903.551 45505312 45509872 45521128 45538960 45564780 45602288 45656380 
2906.927 45731256 45827544 45943836 46075480 46218368 46370016 46532728 
2910.302 46711716 46916112 47153936 47431240 47747880 48099272 48476052 
2913.677 48866796 49261196 49651136 50033160 50407092 50774904 51139416 
2917.052 51501232 51861748 52219352 52575164 52929660 53285888 53646656 
2920.427 54014312 54390868 54775736 55167628 55564696 55964144 56364668 
2923.803 56765124 57164616 57563436 57964132 58372896 58798560 59254988 
2927.178 59755120 60310012 60923236 61589688 62295940 63024520 63759976 
2930.553 64494968 65233348 65990908 66788576 67648872 68588864 69616680 
2933.928 70734624 71943192 73245544 74651616 76176136 77833864 79632520 
2937.304 81566112 83614024 85743200 87915480 90095176 92255272 94377520 
2940.679 96450160 98461408 100393160 102218168 103902376 105408552 106703528 
2944.054 107764160 108578840 109147480 109479992 109591280 109498720 
2946.947 109222144 108782992 108203448 107506888 106716296 105854008 
2949.840 104939720 103991584 103025072 102054360 101091064 100143936 
2952.733 99217656 98313176 97428168 96559760 95705480 94867648 94048632 
2956.109 93254120 92485752 91742752 91020368 90311504 89611224 88919320 
2959.484 88240680 87586136 86964464 86382136 85836184 85316088 84804104 
2962.859 84281184 83729472 83136360 82496200 81807280 81074688 80306288 
2966.234 79515544 78719704 77938928 77193168 76497168 75857656 75269976 
2969.610 74718568 74182432 73642080 73083136 72502832 71905712 71304320 
2972.985 70712072 70140712 69598656 69092200 68628200 68215240 67862440 
2976.360 67578008 67365960 67222664 67138352 67101308 67100428 67131872 
2979.735 67200240 67318040 67501200 67766584 68126616 68589168 69159176 
2983.111 69838184 70628616 71532904 72551768 73681984 74914632 76235504 
2986.486 77625880 79064008 80531672 82012176 83493352 84966096 86421240 
2989.861 87849648 89237376 90566984 91814728 92952984 93951600 94781432 
2993.236 95417896 95846216 96063192 96078336 95910256 95581688 95112896 
2996.612 94517904 93801352 92961968 91996216 90903592 89691360 88375248 
2999.987 86976848 85520912 84029920 82520240 81001592 79477064 77944024 
3003.362 76396088 74825144 73222552 71582656 69906264 68201304 66484632 
3006.737 64779928 63112512 61503196 59962792 58490632 57076232 55705076 
3010.113 54365808 53055132 51779192 50549004 49373808 48256040 47185968 
3013.488 46145712 45113600 44073936 43021240 41962048 40912460 39889032 
3016.863 38905012 37965568 37066820 36202032 35366100 34557764 33780672 
3020.238 33040736 32340486 31678222 31046536 30435344 29838590 29256052 
3023.614 28694986 28168590 27689410 27266024 26898714 26580488 26299378 
3026.989 26042484 25800388 25567266 25340448 25118096 24897764 24673404 
3030.364 24440322 24192678 23930274 23656186 23379302 23110062 22859090 
3033.739 22634062 22437942 22268882 22120144 21981496 21844556 21700638 
3037.115 21547580 21388460 21232684 21092828 20981288 20905322 20863714 
3040.490 20845740 20834100 20809458 20757366 20671780 20560878 20440628 
3043.865 20334490 20263962 20245556 20285340 20379958 20518796 20685780 
3047.240 20863504 21035360 21185528 21301066 21373942 21400628 21386452 
3050.615 21342068 21284010 21229328 21190966 21175200 21179468 21193914 
3053.991 21205384 21202560 21179480 21136946 21082364 21026326 20979122 
3057.366 20948370 20936030 20939842 20952412 20964776 20965194 20945632 
3060.741 20899588 20826540 20730180 20620402 20510394 20412212 20337610 
3064.116 20290506 20271222 20274516 20293482 20322462 20357120 20396744 
3067.492 20441646 20491926 20545840 20599770 20649170 20689398 20717030 
3070.867 20730512 20726638 20703636 20657264 20585338 20487956 20371112 
3074.242 20247830 20135588 20054238 20019420 20038492 20108996 20217410 
3077.617 20345532 20473086 20584944 20671358 20730450 20764686 20777990 
3080.993 20774192 20753800 20716396 20660310 20584292 20488548 20375144 
3084.368 20246458 20106648 19959748 19811782 19671258 19548552 19455604 
3087.743 19403528 19399188 19443226 19526952 19633352 19738130 19814992 
3091.118 19839496 19796328 19682356 19509094 19300866 19089390 18908234 
3094.494 18783294 18729342 18746922 18822760 18935972 19062138 19180540 
3097.869 19276084 19341152 19373846 19375298 19348514 19298170 19229474 
3101.244 19152002 19077740 19020454 18993070 19002800 19049556 19122508 
3104.619 19204566 19274856 19314588 19310490 19260132 19170610 19056732 
3107.995 18937922 18833702 18758494 18720978 18720852 18751760 18800964 
3111.370 18853948 18897540 18923056 18927240 18913962 18889060 18862376 
3114.745 18836206 18810966 18779756 18732830 18661290 18560100 18431344 
3118.120 18285078 18136054 18001246 17894580 17825384 17797238 17808578 
3121.496 17854608 17929266 18025230 18134762 18247370 18353100 18439456 
3124.871 18496352 18518310 18505736 18465536 18410734 18354970 18310116 
3128.246 18282158 18269212 18262468 18249938 18219222 18161896 18076486 
3131.621 17968876 17851456 17740430 17652300 17600428 17591570 17625100 
3134.997 17692522 17777864 17861968 17926522 17957182 17948986 17907084 
3138.372 17846938 17788782 17754524 17758410 17804358 17883738 17976858 
3141.747 18058722 18106328 18105206 18053318 17959836 17845118 17732272 
3145.122 17644210 17595816 17594080 17637118 17715658 17817576 17928512 
3148.498 18035260 18128206 18200134 18248612 18273934 18279800 18270748 
3151.873 18251846 18226062 18194128 18155090 18106514 18046804 17976064 
3155.248 17896724 17814190 17734708 17665372 17610958 17576136 17563134 
3158.623 17571860 17600620 17645082 17698260 17751664 17795432 17821278 
3161.999 17823888 17802620 17762124 17711112 17659020 17613282 17578478 
3165.374 17553748 17534858 17515532 17490782 17460180 17426804 17399584 
3168.749 17390326 17411580 17475280 17586976 17745960 17943014 18162190 
3172.124 18381898 18580604 18740396 18851112 18910906 18926364 18909080 
3175.500 18870674 18820418 18764062 18703962 18642454 18583280 18531776 
3178.875 18494768 18475260 18471124 18474352 18472242 18454636 18417156 
3182.250 18365030 18313956 18282746 18288400 18336284 18419362 18518188 
3185.625 18607746 18667374 18686998 18671848 18638170 18608874 18601944 
3189.000 18625746 18675368 18735502 18786658 18812000 18804876 18768592 
3192.376 18716856 18666180 18632432 18625380 18647178 18691724 18750558 
3195.751 18813380 18872572 18924704 18968362 19005592 19038322 19067300 
3199.126 19091774 19110554 19121604 19123626 19116184 19100890 19079352 
3202.501 19054150 19029156 19008992 18999586 19007718 19039858 19099678 
3205.877 19186762 19294448 19411010 19520610 19609020 19665004 19685104 
3209.252 19671132 19630946 19571442 19497250 19408256 19302846 19179496 
3212.627 19044252 18909092 18795158 18726316 18722324 18792390 18932242 
3216.002 19123672 19339280 19550118 19730672 19865014 19948138 19984232 
3219.378 19985060 19966084 19942992 19930716 19941280 19979670 20046120 
3222.753 20131010 20220154 20295346 20339136 20340118 20295132 20208712 
3226.128 20093428 19964134 19835460 19721188 19631072 19575100 19562186 
3229.503 19597658 19683498 19814738 19977520 20150792 20310882 20437680 
3232.879 20520174 20559216 20567828 20565458 20572436 20603460 20664080 
3236.254 20750404 20852972 20959058 21057674 21141620 21206316 21249238 
3239.629 21268528 21260796 21223520 21152442 21047114 20909380 20745564 
3243.004 20568090 20392656 20238236 20123472 20061032 20055614 20100044 
3246.380 20176352 20259446 20325218 20355528 20346100 20305006 20251118 
3249.755 20205848 20185250 20196546 20235712 20292266 20355178 20419312 
3253.130 20485214 20559784 20649034 20753420 20864734 20968316 21049274 
3256.505 21097946 21116950 21119752 21126710 21156904 21220536 21314332 
3259.881 21422422 21522976 21595270 21628634 21625026 21597058 21563148 
3263.256 21540100 21537794 21555136 21584242 21611814 21626758 21620944 
3266.631 21593804 21550284 21498946 21448800 21408762 21384212 21377580 
3270.006 21388870 21414460 21448648 21484598 21515612 21536284 21545182 
3273.382 21544832 21544150 21553162 21583214 21642032 21730402 21841288 
3276.757 21960372 22070128 22153892 22201280 22210942 22191806 22158430 
3280.132 22128460 22115270 22124590 22152906 22189186 22218404 22228628 
3283.507 22212558 22170176 22107562 22033654 21957300 21885564 21822768 
3286.883 21772122 21736608 21719002 21722632 21748162 21792962 21851820 
3290.258 21918006 21986656 22057978 22137634 22232936 22349988 22487590 
3293.633 22632004 22759510 22841810 22852250 22775938 22616840 22396144 
3297.008 22149562 21917042 21733194 21620538 21584862 21618204 21703166 
3300.384 21820912 21953688 22088850 22218506 22336320 22435948 22509370 
3303.759 22547904 22543634 22492866 22397044 22265374 22113100 21959356 
3307.134 21824044 21725536 21674958 21675892 21720902 21793974 21873532 
3310.509 21936634 21965448 21951382 21897866 21819042 21735856 21670590 
3313.885 21639752 21650254 21698448 21771522 21852764 21925444 21979732 
3317.260 22011832 22026528 22029950 22031814 22038030 22050834 22070012 
3320.635 22092204 22114742 22135946 22156596 22178704 22205848 22239710 
3324.010 22280402 22325022 22367308 22400204 22415428 22409164 22380282 
3327.385 22334042 22281960 22238378 22218418 22233730 22288602 22377772 
3330.761 22488608 22603632 22705126 22781196 22825660 22841752 22836642 
3334.136 22817722 22789372 22751138 22698856 22628152 22540810 22445588 
3337.511 22359440 22301910 22289970 22330374 22416744 22529670 22641734 
3340.886 22727980 22770168 22765130 22721846 22659202 22596088 22546574 
3344.262 22514376 22494328 22474154 22441258 22387074 22309116 22211658 
3347.637 22102916 21992236 21889082 21800882 21735304 21698100 21695138 
3351.012 21726884 21788734 21868530 21946204 21996840 21997750 21933454 
3354.387 21800658 21612110 21392510 21175696 20995970 20879952 20842672 
3357.763 20883132 20985798 21126094 21275478 21409898 21514084 21583164 
3361.138 21622766 21642596 21653050 21657850 21652364 21626398 21568076 
3364.513 21469354 21332600 21170022 21002214 20850442 20730664 20648084 
3367.888 20596832 20563904 20537418 20511602 20491554 20489274 20519500 
3371.264 20589268 20694972 20819756 20939366 21031582 21082216 21091694 
3374.639 21074630 21052228 21044460 21061762 21100972 21147576 21180678 
3378.014 21181318 21140168 21057776 20946974 20826834 20718708 20639756 
3381.389 20600546 20602348 20638470 20695064 20755198 20800680 20819114 
3384.765 20805018 20762936 20705252 20649718 20611012 20598696 20609368 
3388.140 20629718 20639714 20620220 20559262 20457518 20327392 20190860 
3391.515 20071730 19991990 19965094 19995738 20081320 20211962 20374348 
3394.890 20552080 20725666 20875236 20982864 21036756 21035286 20989860 
3398.266 20923174 20864466 20840588 20869016 20951160 21071502 21203772 
3401.641 21318486 21393436 21420262 21404306 21364434 21320320 21287064 
3405.016 21267762 21252230 21223640 21167228 21077936 20967100 20860244 
3408.391 20791154 20788946 20868982 21024442 21229366 21444916 21632236 
3411.767 21764792 21834180 21850352 21834614 21807744 21783158 21760632 
3415.142 21729834 21677894 21598382 21496228 21387844 21296558 21243498 
3418.517 21241328 21290860 21381668 21498608 21625590 21747782 21852194 
3421.892 21925456 21950412 21911956 21799594 21617578 21387764 21148946 
3425.268 20947846 20826940 20807772 20888298 21040372 21223484 21397106 
3428.643 21535186 21632044 21698726 21752402 21805974 21858990 21898632 
3432.018 21906672 21869242 21784596 21666924 21539296 21425724 21341918 
3435.393 21291456 21268002 21261170 21264614 21281460 21320492 21391548 
3438.769 21496716 21625856 21754466 21852468 21889654 21849916 21731720 
3442.144 21553568 21346462 21146498 20987696 20894706 20878770 20937364 
3445.519 21054096 21204564 21359374 21489568 21573220 21598490 21564302 
3448.894 21478522 21353310 21201522 21033242 20856942 20682576 20525344 
3452.270 20407274 20355622 20393026 20531824 20761760 21051456 21349298 
3455.645 21598034 21746492 21764514 21648324 21420316 21123846 20810616 
3459.020 20531752 20329312 20230940 20250726 20386278 20620704 20922802 
3462.395 21249708 21554078 21790718 21927314 21952378 21876226 21731682 
3465.771 21561254 21409666 21309544 21276970 21309760 21391974 21501842 
3469.146 21618516 21727642 21822576 21901442 21965746 22014664 22047018 
3472.521 22059302 22048124 22014864 21965364 21909080 21858272 21825206 
3475.896 21818418 21840610 21888168 21952574 22024248 22093604 22156780 
3479.271 22212610 22267052 22324786 22390962 22465938 22545508 22622640 
3482.647 22689490 22742066 22782006 22816684 22858634 22921580 23016910 
3486.022 23149446 23316984 23509108 23710346 23902626 24069030 24197910 
3489.397 24285952 24337950 24367050 24391572 24428796 24491894 24585704 
3492.772 24705538 24839650 24973222 25092834 25192000 25271422 25337676 
3496.148 25401002 25469654 25550224 25646734 25760244 25893012 26046468 
3499.523 26219560 26407230 26597570 26770982 26905614 26982070 26990274 
3502.898 26933150 26826392 26693744 26558588 26436756 26333216 26240404 
3506.273 26145448 26037354 25911620 25774404 25639758 25524714 25441914 
3509.649 25395396 25376772 25370324 25355004 25313770 25238098 25130116 
3513.024 25002818 24875264 24767682 24696048 24664878 24668262 24690114 
3516.399 24707354 24697950 24644962 24541388 24391474 24206718 24004042 
3519.774 23797668 23598610 23412194 23239140 23080148 22937008 22814568 
3523.150 22718998 22656112 22628398 22633038 22661856 22702178 22739790 
3526.525 22759500 22748618 22697044 22601564 22466088 22303774 22136570 
3529.900 21990694 21891772 21855130 21881018 21950596 22030882 22082928 
3533.275 22074066 21989306 21835518 21641796 21448282 21295246 21210004 
3536.651 21199232 21249296 21331816 21412582 21464242 21469542 21427994 
3540.026 21350516 21256608 21167438 21101916 21071124 21078154 21116960 
3543.401 21174232 21231514 21270360 21275040 21237438 21157552 21043456 
3546.776 20907306 20762426 20618240 20480344 20349568 20226394 20112014 
3550.152 20010952 19930492 19878252 19858660 19871490 19910910 19969186 
3553.527 20038682 20114526 20196602 20287052 20386606 20491206 20591418 
3556.902 20672558 20719078 20719738 20672244 20584824 20475164 20364640 
3560.277 20271190 20205682 20166100 20142888 20122658 20095008 20058620 
3563.653 20023536 20007826 20031588 20107288 20234360 20396068 20562750 
3567.028 20702660 20790270 20816444 20791934 20742016 20698794 20687444 
3570.403 20717096 20776724 20839614 20870014 20838520 20728326 20543120 
3573.778 20302708 20038154 19782212 19559350 19383122 19254850 19166146 
3577.154 19104056 19055634 19010198 18960908 18904888 18840928 18770834 
3580.529 18696638 18621826 18549402 18483682 18427798 18384630 18354428 
3583.904 18336834 18325600 18312202 18284378 18230460 18142390 18020398 
3587.279 17878304 17742076 17644780 17620458 17691618 17860844 18107510 
3590.655 18392072 18662922 18871734 18982926 18983548 18882106 18704246 
3594.030 18482742 18250728 18030854 17839870 17683438 17563374 17480042 
3597.405 17431642 17415416 17424260 17449986 17484040 17519310 17553742 
3600.780 17591200 17639772 17707790 17799004 17910768 18033924 18153980 
3604.156 18256560 18331378 18373350 18384146 18368232 18332602 18283062 
3607.531 18223108 18156612 18086834 18018852 17958964 17913816 17887414 
3610.906 17882060 17896184 17924476 17964036 18011112 18065346 18129528 
3614.281 18206568 18300598 18411622 18537470 18669668 18798030 18910910 
3617.656 18996894 19049416 19066640 19050488 19009208 18952982 18893590 
3621.032 18842076 18810342 18808110 18845352 18928160 19056684 19225236 
3624.407 19417924 19608250 19767876 19868072 19891520 19835266 19715476 
3627.782 19564388 19420578 19319946 19285508 19318992 19405694 19517268 
3631.157 19627298 19716524 19783848 19841438 19912456 20018730 20171866 
3634.533 20367506 20584084 20790008 20951698 21044458 21059828 21008272 
3637.908 20916030 20817668 20748718 20735096 20790874 20915592 21098298 
3641.283 21320568 21563232 21808808 22043958 22258398 22445368 22598974 
3644.658 22715760 22793746 22836586 22851984 22853906 22857294 22875394 
3648.034 22913982 22969622 23026998 23064640 23058606 22993668 22866988 
3651.409 22692420 22498562 22320624 22193718 22142764 22175760 22283668 
3654.784 22441834 22616642 22772100 22879680 22922156 22896536 22811898 
3658.159 22685440 22540022 22398644 22280102 22198186 22157698 22157294 
3661.535 22185434 22225878 22260674 22272838 22250904 22191670 22098564 
3664.910 21983400 21857876 21733924 21619066 21514156 21415384 21315488 
3668.285 21206572 21084216 20946680 20796804 20642100 20490202 20348624 
3671.660 20223904 20115914 20022078 19934130 19841974 19733660 19602024 
3675.036 19444732 19266088 19077558 18896274 18740476 18626318 18565760 
3678.411 18565112 18623656 18734262 18882902 19049362 19207860 19330862 
3681.786 19391668 19371608 19261394 19066806 18806002 18505528 18194910 
3685.161 17899460 17634850 17406390 17212716 17046302 16900856 16773408 
3688.537 16664216 16576240 16512699 16478546 16474891 16502250 16557910 
3691.912 16635463 16721200 16796574 16838584 16827304 16751576 16618814 
3695.287 16452752 16292848 16181165 16150365 16211247 16348133 16522327 
3698.662 16683711 16787312 16806840 16741270 16615724 16469223 16343506 
3702.038 16270177 16262507 16315561 16410409 16519289 16615311 16676387 
3705.413 16689721 16653435 16576691 16479334 16388040 16329607 16325651 
3708.788 16382143 16488934 16619604 16741248 16821814 16844376 16809036 
3712.163 16733920 16644992 16566364 16510837 16477423 16453702 16425371 
3715.539 16383978 16332874 16283372 16251901 16248036 16270548 16304394 
3718.914 16328661 16321318 16270896 16179005 16061693 15940998 15841326 
3722.289 15778866 15763098 15791550 15857132 15950402 16061019 16178904 
3725.664 16294586 16396582 16475039 16520707 16529957 16503895 16451491 
3729.040 16386474 16326059 16286975 16281715 16315658 16387450 16485620 
3732.415 16594065 16690049 16754065 16769979 16733518 16648788 16531412 
3735.790 16402507 16284585 16194152 16139336 16120533 16133118 16168354 
3739.165 16221616 16288031 16366484 16452849 16541615 16623775 16689671 
3742.541 16729781 16740331 16722187 16682358 16631488 16580733 16539995 
3745.916 16519180 16523186 16557042 16623516 16722001 16844858 16979052 
3749.291 17104376 17199736 17245396 17231788 17159018 17040638 16896360 
3752.666 16749041 16617274 16512871 16437346 16384924 16346941 16315734 
3756.042 16287286 16265742 16260665 16286390 16355006 16473200 16637105 
3759.417 16830890 17028900 17199540 17315708 17359870 17329220 17237208 
3762.792 17106000 16962548 16826128 16705938 16599584 16497243 16387573 
3766.167 16265532 16135907 16013943 15919691 15873069 15889093 15972208 
3769.542 16117901 16313728 16540041 16773636 16987374 17154088 17246464 
3772.918 17245762 17143104 16949214 16691752 16414557 16168412 16000180 
3776.293 15940318 15998706 16158598 16384531 16631039 16852222 17013520 
3779.668 17097050 17101762 17043446 16944232 16828540 16714981 16613301 
3783.043 16523501 16439127 16351065 16253231 16143981 16028505 15915923 
3786.419 15816363 15735911 15675712 15630703 15593667 15556367 15515382 
3789.794 15469700 15421343 15373354 15327260 15283688 15245179 15217060 
3793.169 15211129 15241987 15322460 15456513 15634527 15832029 16015891 
3796.544 16151929 16218517 16212571 16152110 16066728 15990350 15946750 
3799.920 15945975 15980037 16031656 16080363 16113564 16129095 16133936 
3803.295 16138148 16151136 16174821 16205259 16235195 16256608 16263252 
3806.670 16251810 16220242 16166368 16088918 15990423 15880952 15777834 
3810.045 15704386 15685471 15736278 15859256 16037751 16242327 16438304 
3813.421 16596323 16699765 16747452 16751228 16728060 16692502 16652720 
3816.796 16608715 16557159 16495626 16426802 16356681 16292937 16237866 
3820.171 16188920 16134083 16060952 15959810 15832055 15688039 15548095 
3823.546 15432417 15358660 15332590 15349742 15395940 15454557 15509097 
3826.922 15548551 15569197 15571417 15560318 15541788 15521722 15505871 
3830.297 15499757 15509007 15538248 15590953 15666608 15762413 15871707 
3833.672 15985398 16091814 16179530 16237507 16258411 16238252 16179839 
3837.047 16091889 15988775 15885511 15797120 15733110 15696559 15686074 
3840.423 15698576 15731120 15782816 15854316 15942670 16038511 16123705 
3843.798 16174851 16169291 16094146 15955063 15778393 15606716 15486853 
3847.173 15457145 15533067 15703857 15933665 16174376 16379632 16520167 
3850.548 16588977 16601620 16587202 16576646 16594578 16650030 16738124 
3853.924 16845976 16956184 17054042 17127278 17169300 17171964 17130992 
3857.299 17043146 16913190 16750803 16575353 16408913 16273182 16179396 
3860.674 16128981 16111493 16113505 16122492 16133938 16153008 16192768 
3864.049 16265752 16378971 16526753 16691009 16844328 16957712 17005252 
3867.425 16974236 16863990 16686803 16465837 16229959 16009718 15832165 
3870.800 15717110 15673885 15699144 15779449 15892671 16015129 16124930 
3874.175 16208451 16262317 16292728 16310833 16329462 16356133 16392283 
3877.550 16431423 16466290 16486896 16488556 16471134 16440211 16403437 
3880.926 16370678 16348168 16341111 16347686 16363356 16378509 16383531 
3884.301 16368801 16330674 16271096 16201753 16138114 16098514 16093880 
3887.676 16126435 16186833 16257521 16318472 16355891 16367286 16362155 
3891.051 16358197 16373893 16418759 16489943 16571306 16639795 16673125 
3894.427 16659424 16599977 16509365 16409747 16324967 16272107 16261475 
3897.802 16292952 16360825 16453234 16557677 16657321 16736634 16779690 
3901.177 16776541 16725479 16636806 16531009 16434727 16372506 16358986 
3904.552 16392356 16455259 16520530 16560728 16557282 16507564 16422933 
3907.927 16326781 16243815 16194824 16192246 16237793 16328350 16457791 
3911.303 16618283 16801216 16994160 17179444 17331922 17424710 17434586 
3914.678 17350252 17176666 16937016 16669167 16418200 16223937 16114291 
3918.053 16097536 16163345 16284887 16427968 16558502 16650518 16691266 
3921.428 16682820 16639210 16583385 16538177 16523277 16549328 16616484 
3924.804 16715171 16830304 16944030 17042676 17115208 17157656 17168306 
3928.179 17149250 17101130 17025654 16925174 16804822 16673140 16543010 
3931.554 16429696 16346741 16303495 16302075 16334595 16388975 16449945 
3934.929 16505666 16550872 16589109 16629465 16683264 16756047 16845452 
3938.305 16937782 17011288 17043294 17015716 16923530 16775815 16596170 
3941.680 16415576 16264226 16165735 16129332 16153593 16226804 16333282 
3945.055 16458269 16591739 16727891 16865676 17003502 17139128 17266868 
3948.430 17377862 17460874 17504380 17497396 17433950 17314424 17149000 
3951.806 16957630 16768087 16611706 16514679 16490772 16536830 16631454 
3955.181 16741324 16830182 16870752 16852552 16784170 16689830 16599040 
3958.556 16536837 16517926 16540863 16595075 16665723 16741168 16817556 
3961.931 16896352 16981668 17076292 17176248 17272252 17351698 17404500 
3965.307 17423736 17410458 17370762 17314328 17250982 17191468 17144290 
3968.682 17120214 17128536 17178436 17274056 17411824 17579944 17758090 
3972.057 17919674 18040746 18101196 18091954 18016050 17889172 17736458 
3975.432 17587844 17474738 17422292 17445434 17543130 17698900 17881896 
3978.808 18053228 18175454 18222296 18186122 18078640 17928616 17770576 
3982.183 17639036 17555992 17528656 17550644 17605572 17672786 17733480 
3985.558 17772450 17778336 17744190 17666266 17544948 17389310 17213098 
3988.933 17039264 16890764 16789222 16747333 16768048 16842310 16954392 
3992.309 17085206 17218466 17340410 17442074 17518506 17567412 17587852 
3995.684 17583422 17561870 17536168 17521426 17531836 17575298 17649550 
3999.059 17740824 17826634 17883412 17890388 
##END=
