##TITLE=3D-Fillies_PLA-Rainbow_Purple_Filament_r3_ATR-Corrected
##JCAMP-DX=5.01  $$ Nicolet v. 1
##DATATYPE=INFRARED SPECTRUM
##ORIGIN=Curtin University
##OWNER=Nicolet
##LONGDATE=2024/07/18
##TIME=13:55:27
##SPECTROMETER/DATA SYSTEM=Nicolet iS50
##DATA PROCESSING=
Ratio against background
%Transmittance->Absorbance
ATR Correction
Truncated
ElementMultiply or ElementDivide
##COMMENTS=
Number of sample scans: 32
Collection length: 47.28 sec
Sample gain: 1.0
Background collected on: Thu Jul 18 13:52:46 2024 (GMT+08:00);
Number of background scans: 32
Background gain: 1.0
Sample spacing:  1.000
Number of scan points: 16672
Resolution points: 8192
Number of FFT points: 65536
Apodization: N-B strong;
Phase correction: Mertz;
Laser frequency: 15798.3 cm-1
Number of rejected sample scans: 0
Number of rejected background scans: 0
Bench serial number: AUP1200105;
##RESOLUTION=4.000
##XUNITS=1/CM
##YUNITS=ABSORBANCE
##FIRSTX=400.163452
##LASTX=4000.187744
##FIRSTY=0.057708
##MAXX=4000.187744
##MINX=400.163452
##MAXY=0.902214
##MINY=-0.011081
##XFACTOR=1.000000
##YFACTOR=1.000000E-009
##NPOINTS=7468
##DELTAX=0.482125
##ZPD=8192
##XYDATA=(X++(Y..Y))
400.163 57708148 57407436 57299904 57248620 57087376 56703208 56070824 
403.538 55255208 54375824 53552552 52859280 52307612 51863136 51480992 
406.913 51136596 50835040 50591516 50399740 50204640 49902452 49369948 
410.288 48511796 47307208 45827144 44215932 42643548 41246808 40089368 
413.663 39154184 38368092 37649764 36953180 36291600 35728320 35343004 
417.038 35190488 35267684 35508052 35801520 36031828 36114784 36021072 
420.412 35775324 35436924 35068712 34713100 34378460 34042892 33670132 
423.787 33229746 32713458 32143474 31569172 31054526 30662242 30437446 
427.162 30396260 30521948 30768032 31066862 31342444 31523540 31556108 
430.537 31412504 31095490 30637098 30090852 29520818 28994250 28567156 
433.912 28277190 28138428 28139104 28245070 28405110 28562662 28665602 
437.286 28679028 28591220 28416190 28188624 27955026 27761174 27641474 
440.661 27610968 27662912 27771492 27898990 28005044 28056940 28038422 
444.036 27953704 27827516 27699176 27612376 27602812 27687608 27859102 
447.411 28085894 28321830 28518518 28639326 28668262 28611972 28494572 
450.786 28347534 28198000 28062110 27940880 27825456 27701278 27557108 
454.161 27388312 27199240 27000486 26806560 26631304 26484944 26371592 
457.535 26288770 26227704 26175630 26120008 26052986 25974772 25894968 
460.910 25829560 25795122 25801246 25845552 25912416 25974724 26011004 
464.285 26005058 25953224 25863166 25747952 25617822 25474542 25311686 
467.660 25120374 24898514 24657636 24424498 24233804 24116516 24086976 
471.035 24135576 24229908 24324726 24375806 24353564 24249968 24077218 
474.409 23860258 23627064 23400496 23196038 23022944 22887846 22797272 
477.784 22756692 22766714 22820748 22903338 22993604 23071792 23125860 
481.159 23155398 23170542 23186244 23214790 23259414 23312830 23360594 
484.534 23387844 23386030 23356474 23309110 23257446 23212440 23177880 
487.909 23150004 23120758 23083312 23037164 22990512 22958884 22960540 
491.284 23010130 23114020 23266634 23451410 23644450 23820276 23956670 
494.658 24045332 24089924 24107202 24122876 24164358 24252382 24393736 
498.033 24578214 24780402 24966524 25104068 25170746 25159704 25079688 
501.408 24949660 24791746 24623376 24453410 24282516 24106670 23921846 
504.783 23728062 23530004 23335412 23151576 22982506 22827740 22683672 
508.158 22545956 22412258 22283612 22164316 22060026 21975872 21914878 
511.532 21877004 21859354 21856070 21858126 21853880 21829048 21769638 
514.907 21664840 21512038 21319946 21109896 20912230 20760062 20679924 
518.282 20683772 20763358 20890310 21021562 21108310 21107628 20991776 
521.657 20754366 20411294 19996696 19556224 19137796 18783596 18524046 
525.032 18373058 18331408 18384832 18509326 18675402 18852520 19012664 
528.406 19132578 19195852 19193408 19124050 18993820 18815026 18604158 
531.781 18378660 18154334 17942942 17751374 17582280 17436192 17313924 
535.156 17217652 17150532 17114956 17108860 17123984 17145522 17154894 
538.531 17134516 17073460 16971642 16840318 16698901 16568402 16464615 
541.906 16393172 16348245 16315952 16280651 16231503 16167128 16095700 
545.281 16031731 15989237 15976025 15989771 16018476 16044414 16050784 
548.655 16027391 15974637 15903108 15830493 15775587 15752248 15765484 
552.030 15809491 15869904 15926896 15960790 15956452 15907256 15816221 
555.405 15695529 15562319 15437841 15340218 15281222 15265168 15289002 
558.780 15344745 15423552 15518714 15626917 15748020 15881011 16021278 
562.155 16157571 16272588 16346430 16362783 16314942 16209468 16066566 
565.529 15914800 15783755 15696144 15662311 15679579 15736142 15817825 
568.904 15914395 16023558 16150333 16302621 16484613 16692005 16909610 
572.279 17114290 17280464 17387752 17426656 17401230 17327304 17228160 
575.654 17127614 17045242 16992288 16971422 16978228 17004372 17040212 
579.029 17078086 17113168 17144624 17175244 17210714 17258272 17324440 
582.404 17413104 17523476 17649130 17779044 17899602 17998654 18068104 
585.778 18106704 18119584 18116368 18107356 18100016 18096792 18095190 
589.153 18090128 18077380 18056790 18033244 18015772 18013922 18033212 
592.528 18072118 18121140 18165202 18188302 18179262 18136124 18067472 
595.903 17991198 17929062 17901576 17922122 17994236 18110904 18257232 
599.278 18413816 18561184 18683298 18770072 18818832 18834032 18827404 
602.652 18814692 18813230 18837700 18896238 18987412 19100050 19215622 
606.027 19313996 19379518 19407368 19406208 19396678 19406508 19462342 
609.402 19582270 19770020 20014208 20291422 20572500 20830098 21045102 
612.777 21209922 21329058 21415832 21488480 21565094 21660230 21782462 
616.152 21934172 22112358 22310036 22518244 22727578 22929730 23117884 
619.527 23287764 23437292 23567150 23680804 23784610 23887046 23998250 
622.901 24128060 24283926 24469292 24682160 24915888 25161012 25408366 
626.276 25652648 25894538 26141434 26405162 26697668 27026856 27392388 
629.651 27783676 28180708 28557654 28887646 29148654 29327538 29422650 
633.026 29443818 29409566 29343134 29268108 29204076 29164454 29155744 
636.401 29178574 29230422 29307622 29407714 29530060 29674586 29840700 
639.775 30025222 30221886 30422118 30616726 30798736 30965302 31119022 
643.150 31267256 31420126 31588088 31779320 31997736 32242232 32506470 
646.525 32780326 33051300 33306968 33538170 33742076 33924020 34098308 
649.900 34285616 34509072 34787688 35130836 35534268 35980084 36439864 
653.275 36880656 37271748 37590452 37824388 37972040 38040360 38041944 
656.650 37992600 37909420 37809292 37707632 37616168 37541208 37482176 
660.024 37433184 37385776 37333824 37278120 37228188 37200896 37215124 
663.399 37284968 37414436 37594372 37806064 38027292 38239936 38436280 
666.774 38620336 38804872 39005392 39233164 39491004 39773032 40067744 
670.149 40363192 40651560 40930468 41202252 41470244 41735540 41994924 
673.524 42241756 42468120 42668268 42840908 42989684 43122248 43247508 
676.898 43373916 43508284 43655076 43817492 43996820 44193000 44402572 
680.273 44619256 44834096 45036936 45219012 45375524 45506688 45617892 
683.648 45716932 45811528 45906652 46003544 46100888 46197276 46293724 
687.023 46395532 46511216 46650088 46818196 47015648 47234680 47461604 
690.398 47681372 47882216 48060608 48223340 48386404 48570776 48796484 
693.773 49077788 49419404 49816260 50255704 50721816 51198896 51674876 
697.147 52142200 52597748 53041620 53476664 53907680 54342252 54789552 
700.522 55260000 55762180 56300148 56870348 57461376 58055260 58631596 
703.897 59172264 59666028 60109920 60508416 60869896 61202128 61509252 
707.272 61790604 62042084 62259616 62442204 62593684 62722632 62840328 
710.647 62957792 63083740 63223444 63379080 63551156 63739396 63944064 
714.021 64166436 64409280 64678744 64985344 65347352 65792216 66358536 
717.396 67095824 68064736 69336856 70995192 73136192 75870160 79319808 
720.771 83614280 88877256 95208776 102663560 111228008 120799808 131175968 
724.146 142051792 153034560 163672720 173499792 182085520 189086480 
727.039 194285328 197607328 199112816 198968096 197403328 194670144 
729.931 191006832 186616864 181660464 176256816 170492736 164433312 
732.824 158132560 151640720 145009680 138295136 131557016 124858600 
735.717 118264880 111839936 105644672 99733904 94155432 88949584 84150016 
739.091 79784792 75877424 72445712 69499016 67034372 65033012 63458344 
742.466 62258360 61371548 60735600 60296668 60015952 59871772 59856172 
745.841 59968396 60206820 60562964 61019624 61553468 62140360 62761648 
749.216 63407360 64076140 64771548 65495976 66245280 67005804 67755472 
752.591 68467664 69116760 69682640 70152808 70521640 70787264 70948048 
755.966 70999360 70933288 70740072 70410424 69938288 69323056 68568920 
759.340 67685032 66684084 65582068 64397728 63153164 61872720 60581784 
762.715 59303288 58054816 56845440 55674768 54534200 53410240 52289484 
766.090 51162900 50029024 48894432 47771956 46677328 45625176 44626084 
769.465 43684940 42801432 41971584 41189924 40451196 39751168 39087160 
772.840 38456568 37856292 37282288 36730320 36196688 35679492 35179276 
776.214 34698748 34241472 33810068 33404678 33021760 32654752 32295242 
779.589 31935126 31568378 31191188 30802522 30401554 29986932 29555456 
782.964 29102824 28625750 28124522 27605046 27079754 26565960 26082390 
786.339 25645614 25266734 24950396 24695442 24498096 24354280 24262180 
789.714 24221338 24230930 24286512 24378030 24489340 24599950 24688306 
793.089 24735678 24728596 24659274 24525254 24328338 24073100 23768640 
796.463 23429126 23075462 22734034 22433816 22200842 22052246 21992492 
799.838 22012334 22092712 22210508 22345680 22485888 22627484 22772722 
803.213 22925438 23085634 23246602 23396238 23519810 23604338 23641926 
806.588 23630448 23572024 23471020 23331484 23156978 22951870 22723576 
809.963 22483600 22247650 22032806 21853368 21717806 21626112 21570200 
813.337 21536734 21510834 21479822 21436088 21378206 21310494 21242786 
816.712 21187596 21158192 21165644 21215562 21305326 21423678 21551818 
820.087 21668236 21754552 21801806 21813188 21804102 21796730 21813586 
823.462 21869670 21969120 22105210 22265398 22437112 22613280 22793790 
826.837 22983432 23186316 23401174 23618662 23823012 23997540 24131472 
830.212 24224830 24290154 24348884 24424982 24537838 24696492 24898312 
833.586 25131028 25378742 25626610 25865350 26093642 26317590 26548762 
836.961 26801596 27091148 27430412 27829752 28294596 28825508 29418012 
840.336 30063876 30752282 31472224 32213564 32967534 33725752 34479228 
843.711 35216704 35924972 36589676 37197596 37738760 38208328 38607224 
847.086 38941092 39219660 39455560 39663824 39862248 40070684 40310744 
850.460 40604296 40971652 41430520 41995840 42680392 43496964 44458660 
853.835 45578572 46867276 48329688 49961920 51750520 53673876 55705992 
857.210 57821720 59999744 62223216 64478948 66752836 69027568 71281736 
860.585 73490776 75631448 77684976 79640056 81491640 83238536 84880336 
863.960 86414568 87838240 89148792 90348968 91448168 92462376 93410928 
867.335 94311456 95176088 96008408 96803168 97548296 98225528 98811624 
870.709 99277408 99587096 99698048 99564688 99143888 98402304 97322976 
874.084 95908288 94178872 92168784 89919936 87476816 84883992 82185472 
877.459 79426056 76650488 73902136 71218896 68629248 66150636 63788904 
880.834 61543536 59412380 57397360 55507392 53757888 52167632 50754456 
884.209 49530460 48500284 47660732 47001992 46509284 46164676 45946652 
887.583 45831288 45793260 45807680 45853064 45914564 45984368 46061016 
890.958 46145988 46239788 46337932 46430708 46503812 46542808 46536544 
894.333 46480468 46376588 46233056 46059304 45864712 45656124 45438336 
897.708 45215360 44992716 44777768 44579652 44406852 44265156 44155280 
901.083 44072876 44009204 43953988 43898256 43836748 43768604 43697368 
904.458 43629140 43570688 43527508 43502828 43497740 43511248 43541832 
907.832 43587992 43648368 43722544 43809688 43909348 44020160 44141712 
911.207 44273900 44418380 44578400 44758508 44962844 45194348 45452468 
914.582 45733480 46030212 46333864 46635416 46927268 47204020 47462808 
917.957 47702332 47922452 48123652 48307368 48476032 48633472 48784540 
921.332 48934360 49086344 49241868 49399324 49555240 49706132 49850568 
924.706 49990864 50133664 50288096 50464036 50669012 50906776 51175968 
928.081 51471820 51787000 52115228 52451812 52794708 53143252 53497048 
931.456 53853544 54207364 54549552 54869336 55155008 55396760 55588328 
934.831 55727644 55817364 55863780 55875764 55863016 55835224 55801300 
938.206 55768960 55744624 55733012 55737068 55756776 55789896 55831788 
941.581 55876708 55919636 55958280 55994536 56034312 56087068 56164516 
944.955 56277864 56436704 56647664 56914756 57239804 57622908 58063320 
948.330 58558968 59106192 59699680 60332392 60995936 61681172 62378492 
951.705 63077232 63764736 64425020 65038620 65582268 66030644 66359200 
955.080 66546536 66577016 66441500 66138224 65671832 65051892 64292728 
958.455 63412480 62432444 61376108 60268752 59135032 57998560 56880780 
961.829 55800468 54774140 53816548 52941000 52158432 51477692 50903288 
965.204 50435352 50069604 49797532 49608820 49491456 49433828 49424436 
968.579 49452660 49508408 49582900 49668812 49762400 49862756 49972916 
971.954 50098040 50243916 50415056 50613316 50836848 51080848 51337652 
975.329 51598776 51854508 52095808 52314332 52504292 52663488 52795220 
978.703 52908484 53018224 53142636 53299400 53501356 53752640 54047464 
982.078 54370532 54701112 55018200 55306576 55560872 55786932 55999832 
985.453 56218896 56462376 56740996 57055756 57397432 57751028 58098988 
988.828 58429420 58739008 59035208 59332928 59651972 60010304 60421372 
992.203 60890900 61418200 61998148 62623984 63289688 63990800 64724216 
995.578 65487668 66279428 67099176 67949184 68835792 69768232 70757088 
998.952 71809312 72924656 74092104 75290296 76490840 77665992 78795776 
1002.327 79874928 80916120 81948320 83011480 84149056 85400880 86797904 
1005.702 88360032 90099160 92021928 94135504 96450912 98985512 101762640 
1009.077 104810896 108162376 111853056 115922440 120415512 125381080 
1011.970 130868496 136918752 143550400 150742192 158416752 166427232 
1014.862 174556352 182525888 190023376 196737744 202400960 206826832 
1017.755 209936544 211767248 212464128 212253584 211412992 210235056 
1020.648 208997376 207938288 207241664 207028880 207359840 208240192 
1023.540 209633440 211477312 213699264 216230464 219014432 222011024 
1026.433 225195312 228554080 232082528 235781744 239657392 243721056 
1029.326 247989152 252481424 257218784 262218416 267490960 273037184 
1032.219 278847968 284904864 291181344 297645184 304259296 310982592 
1035.113 317770400 324574912 331345472 338028352 344566688 350899968 
1038.006 356964320 362694368 368026880 372903808 377277984 381114336 
1040.899 384392512 387103264 389245056 390819968 391830880 392280032 
1043.792 392169728 391505600 390298720 388567616 386340544 383654688 
1046.685 380557568 377105984 373366624 369414016 365328224 361189600 
1049.578 357072896 353039392 349132960 345376544 341774784 338317440 
1052.471 334987904 331768288 328644832 325609216 322659040 319795712 
1055.364 317025088 314358976 311818656 309438240 307266400 305365088 
1058.257 303806048 302663520 302010208 301912992 302433952 303631072 
1061.150 305561760 308282368 311846080 316296384 321662368 327952704 
1064.043 335155616 343242400 352175488 361915616 372429344 383689664 
1066.936 395674048 408357472 421705856 435671424 450194400 465207104 
1069.829 480642848 496441632 512552096 528927808 545520960 562273280 
1072.722 579113472 595958528 612723712 629330752 645717888 661840640 
1075.615 677667904 693173248 708328448 723096576 737433472 751288448 
1078.509 764606656 777323264 789361408 800625984 811008064 820391232 
1081.402 828670208 835763200 841622400 846230144 849590336 851714752 
1084.295 852613696 852297408 850784384 848109120 844329984 839527616 
1087.188 833797504 827238528 819948800 812022656 803556416 794650432 
1090.081 785409792 775936704 766321152 756630528 746906432 737167040 
1092.974 727417216 717658048 707895424 698139456 688400512 678680960 
1095.867 668970368 659243648 649470016 639619712 629675584 619637120 
1098.760 609519936 599346752 589139584 578910336 568659072 558374080 
1101.653 548040064 537645824 527192416 516695008 506184768 495704160 
1104.546 485303744 475038912 464969376 455158336 445675168 436595040 
1107.439 427997984 419964832 412572768 405889184 399968576 394848064 
1110.332 390547488 387067296 384389664 382477536 381276608 380716160 
1113.225 380715424 381188000 382050112 383225600 384650112 386270432 
1116.118 388043264 389929504 391892128 393896448 395912128 397918240 
1119.011 399909536 401896800 403906048 405970464 408121088 410375232 
1121.905 412730656 415161760 417622720 420052768 422382880 424541952 
1124.798 426459520 428068832 429307552 430120288 430463328 430307360 
1127.691 429641824 428472384 426818560 424705696 422159488 419199840 
1130.584 415840672 412090048 407953664 403435232 398536480 393255136 
1133.477 387583904 381509952 375019936 368103840 360762592 353011616 
1136.370 344882816 336422048 327685248 318733568 309630048 300436928 
1139.263 291215232 282023424 272918080 263951904 255174640 246632256 
1142.156 238368800 230426880 222849760 215679200 208955776 202714864 
1145.049 196984256 191780944 187109584 182963184 179324624 176168912 
1147.942 173467696 171191888 169314192 167810656 166660704 165845536 
1150.835 165347552 165148288 165227552 165563472 166132864 166912528 
1153.728 167880736 169017168 170304448 171727072 173271456 174924368 
1156.621 176672848 178503952 180405376 182367088 184382816 186450768 
1159.514 188575344 190765744 193034832 195396656 197865216 200452416 
1162.407 203168880 206024192 209029552 212199536 215553824 219117712 
1165.301 222923040 227007040 231412544 236187008 241383536 247059568 
1168.194 253277296 260102272 267601584 275842048 284888320 294800960 
1171.087 305636096 317444512 330270752 344150816 359108416 375149088 
1173.980 392251488 410357792 429364704 449114304 469389600 489912896 
1176.873 510351008 530325280 549429184 567247616 583382784 597476160 
1179.766 609232128 618436736 624970816 628814720 630045376 628822592 
1182.659 625369024 619947328 612840000 604332672 594706112 584229056 
1185.552 573156224 561721152 550131008 538561408 527151584 516005824 
1188.445 505197696 494777504 484781152 475234080 466155520 457557696 
1191.338 449444480 441810720 434643136 427922464 421628960 415745856 
1194.231 410262784 405175008 400483840 396192480 392302176 388809504 
1197.124 385703808 382966752 380573344 378494656 376700800 375164992 
1200.017 373865760 372787776 371920512 371254432 370777824 370472832 
1202.910 370314656 370271808 370309248 370392032 370487488 370565280 
1205.803 370597120 370554848 370408960 370130144 369692064 369074240 
1208.697 368265504 367264256 366075040 364704576 363157088 361431616 
1211.590 359522784 357424224 355132896 352652896 349995904 347180896 
1214.483 344230016 341166912 338014816 334797056 331538016 328262880 
1217.376 324996480 321760736 318571040 315434624 312351168 309315712 
1220.269 306323328 303372832 300469856 297625536 294854208 292169088 
1223.162 289580128 287090048 284696672 282393600 280172704 278025472 
1226.055 275944320 273921952 271951488 270025728 268138800 266286256 
1228.948 264468496 262691056 260966128 259311760 257750336 256305664 
1231.841 254999968 253850544 252868528 252058416 251419184 250946848 
1234.734 250637200 250489168 250504736 250689440 251050176 251592720 
1237.627 252319632 253228448 254310816 255552048 256932352 258427408 
1240.520 260009440 261648480 263314368 264977696 266611872 268194144 
1243.413 269704672 271126528 272443712 273639808 274699072 275607136 
1246.306 276355872 276944864 277384288 277693760 277900672 278034624 
1249.199 278124480 278195200 278267104 278357184 278480704 278652160 
1252.093 278884480 279188672 279570720 280031680 280568480 281175328 
1254.986 281846880 282580928 283379488 284247264 285191744 286219840 
1257.879 287337280 288546912 289847584 291232960 292690272 294199552 
1260.772 295733120 297257984 298739296 300144544 301447840 302630752 
1263.665 303682176 304593952 305356640 305956032 306371552 306577728 
1266.558 306547552 306254400 305675424 304790976 303586624 302051616 
1269.451 300180160 297973376 295439968 292596704 289465536 286071808 
1272.344 282439456 278589600 274540832 270310944 265919680 261390864 
1275.237 256751776 252032064 247259712 242459152 237650720 232850496 
1278.130 228072800 223331648 218640928 214014784 209466448 205007056 
1281.023 200647152 196396064 192263920 188261584 184399456 180686256 
1283.916 177126624 173720880 170466112 167357632 164392960 161573200 
1286.809 158903808 156392880 154048704 151876288 149876096 148042864 
1289.702 146366912 144835632 143436000 142153648 140974976 139885600 
1292.595 138871200 137918080 137014896 136154384 135334656 134558032 
1295.489 133830384 133158464 132546872 131996976 131506112 131068616 
1298.382 130677792 130326880 130011560 129729224 129478424 129257920 
1301.275 129064472 128892664 128733976 128577800 128412264 128225864 
1304.168 128008928 127754600 127458856 127120496 126739680 126317576 
1307.061 125854464 125350328 124804328 124214896 123580144 122898120 
1309.954 122165416 121377920 120530232 119616800 118633848 117581552 
1312.847 116465592 115298632 114098672 112887344 111686432 110514696 
1315.740 109385944 108307624 107282808 106310528 105389256 104516952 
1318.633 103693048 102916880 102187256 101501584 100855232 100241704 
1321.526 99654048 99085904 98533208 97994328 97470800 96966024 96484568 
1324.901 96031736 95612928 95234344 94903184 94627832 94417704 94281840 
1328.277 94228160 94261488 94383960 94595400 94895240 95284536 95766928 
1331.652 96348584 97036208 97834680 98743608 99755328 100855960 102025880 
1335.027 103242960 104485928 105735800 106976624 108194968 109377944 
1337.920 110513104 111586984 112587864 113507296 114342208 115096720 
1340.813 115780768 116410112 117002888 117578368 118155976 118754808 
1343.706 119394288 120093976 120873152 121749120 122735016 123837976 
1346.599 125059736 126395616 127837416 129374400 130995320 132688624 
1349.492 134442096 136242288 138074320 139921488 141766608 143592528 
1352.385 145383232 147123664 148799552 150396512 151900048 153295376 
1355.279 154569168 155710320 156711008 157567616 158280320 158852480 
1358.172 159291664 159608240 159817472 159937856 159991456 160001552 
1361.065 159990304 159976160 159971280 159981488 160005376 160035104 
1363.958 160057792 160056272 160009104 159892560 159680496 159345456 
1366.851 158860416 158199088 157337840 156257120 154944752 153398592 
1369.744 151632576 149680800 147601344 145476224 143407392 141510704 
1372.637 139904512 138699600 137989504 137841808 138293456 139348768 
1375.530 140979968 143129792 145715760 148635984 151775680 155013280 
1378.423 158229008 161309792 164154336 166675488 168799200 170464512 
1381.316 171621840 172234720 172280896 171754336 170666624 169043056 
1384.209 166920720 164342208 161354320 158006432 154351792 150448384 
1387.102 146358304 142144352 137863504 133562880 129275160 125019344 
1389.995 120804320 116633608 112511408 108445488 104449344 100541832 
1392.888 96745512 93085136 89586664 86275136 83172816 80297176 77658496 
1396.264 75258600 73090992 71142784 69397920 67840800 66459364 65246204 
1399.639 64200244 63323476 62620804 62097936 61760376 61614292 61666444 
1403.014 61923532 62391592 63072212 63959712 65035648 66266412 67601072 
1406.389 68973168 70303824 71507384 72498928 73201120 73551256 73507448 
1409.765 73052280 72194888 70970616 69437576 67670248 65752200 63767120 
1413.140 61791560 59888168 58102400 56461512 54977020 53647704 52465072 
1416.515 51416964 50491560 49678444 48969408 48357864 47837736 47403628 
1419.890 47049812 46771416 46563576 46421756 46341720 46317516 46342056 
1423.266 46405240 46495860 46601560 46711404 46818480 46920628 47022296 
1426.641 47132952 47266544 47438748 47665612 47961208 48338040 48806932 
1430.016 49377716 50060132 50863748 51797436 52868584 54082504 55442200 
1433.391 56950300 58608956 60422072 62395248 64534984 66848956 69344744 
1436.767 72031304 74920440 78028936 81379168 84997264 88909800 93138288 
1440.142 97694144 102574832 107762832 113227176 118925400 124806816 
1443.035 130813136 136879792 142937808 148915328 154741840 160351280 
1445.928 165685440 170694320 175336176 179576272 183387888 186753296 
1448.821 189666432 192132976 194168256 195792640 197026368 197885040 
1451.714 198378448 198510672 198283424 197696032 196746848 195430544 
1454.607 193738320 191658032 189178176 186295344 183016880 179364368 
1457.500 175371024 171074912 166514176 161723344 156733552 151575856 
1460.393 146284144 140896240 135452992 129994320 124557280 119174608 
1463.286 113875224 108686824 103636848 98752216 94056896 89570200 85305200 
1466.662 81269504 77467736 73902728 70577856 67495152 64653724 62047748 
1470.037 59666088 57493140 55510492 53699332 52041696 50519692 49115300 
1473.412 47810020 46585748 45426296 44320180 43260840 42246312 41277152 
1476.787 40352940 39469928 38621788 37800220 36998604 36214540 35449708 
1480.163 34708800 33995588 33310424 32648236 31999934 31355850 30709736 
1483.538 30061548 29418080 28791054 28192044 27630612 27110700 26631316 
1486.913 26188520 25778104 25397580 25046976 24727040 24438418 24179508 
1490.288 23946160 23732824 23535054 23350692 23180710 23029730 22903636 
1493.664 22807636 22744596 22714392 22713922 22739210 22787200 22857658 
1497.039 22954476 23086016 23263284 23498868 23804376 24188170 24653602 
1500.414 25197678 25810002 26471612 27155924 27828698 28450404 28978198 
1503.789 29371018 29593644 29622642 29450188 29086528 28559386 27909022 
1507.165 27181748 26423054 25671574 24956370 24297382 23706678 23190158 
1510.540 22749986 22384064 22086946 21849952 21662050 21511730 21388598 
1513.915 21284580 21194032 21112974 21038922 20969136 20901170 20832912 
1517.290 20763988 20695598 20629920 20569860 20517350 20472852 20435758 
1520.666 20404564 20378650 20358484 20345070 20339548 20341148 20347174 
1524.041 20352466 20351146 20338716 20313044 20275306 20228836 20178008 
1527.416 20126580 20076472 20027428 19978878 19930194 19882262 19836234 
1530.791 19793784 19755802 19721396 19688020 19652470 19611200 19562052 
1534.167 19504238 19438274 19365778 19288950 19210246 19132706 19059680 
1537.542 18994162 18938308 18891804 18851882 18813562 18771122 18719996 
1540.917 18658862 18590292 18519946 18455184 18402576 18366334 18347468 
1544.292 18343940 18351200 18363866 18376020 18381490 18375106 18352278 
1547.667 18310256 18249070 18172462 18087476 18003768 17931356 17878262 
1551.043 17849204 17844088 17859350 17889460 17928570 17971560 18014678 
1554.418 18055288 18091528 18121858 18145002 18161060 18171138 18178514 
1557.793 18187588 18202870 18227762 18263120 18307844 18358118 18410068 
1561.168 18460084 18506198 18548026 18586634 18623614 18660618 18698116 
1564.544 18735748 18771478 18803604 18829982 18849600 18863786 18876210 
1567.919 18892696 18921216 18970272 19047264 19157212 19302192 19480698 
1571.294 19689308 19922768 20176512 20445956 20728026 21019674 21317810 
1574.669 21618024 21913962 22197422 22458116 22684988 22867278 22995876 
1578.045 23064440 23070136 23014796 22903800 22745506 22550682 22330628 
1581.420 22095848 21856244 21620798 21397678 21195594 21022288 20884306 
1584.795 20784792 20723290 20694186 20688286 20695226 20705092 20710404 
1588.170 20706662 20691904 20665254 20625610 20571562 20502224 20417758 
1591.546 20322490 20222836 20128346 20048646 19991238 19960322 19955486 
1594.921 19974026 20011786 20066220 20136586 20224922 20333968 20465992 
1598.296 20621626 20799216 20996068 21209644 21438718 21685068 21952290 
1601.671 22245130 22567214 22919652 23300090 23702724 24119802 24543254 
1605.047 24966210 25384318 25794630 26194864 26581110 26945988 27279128 
1608.422 27567706 27799204 27964474 28060130 28090080 28064104 27995650 
1611.797 27898204 27782590 27654640 27515904 27365490 27201678 27024790 
1615.172 26837948 26646148 26455176 26269704 26092560 25925034 25767292 
1618.548 25620226 25486004 25367916 25268746 25190672 25132710 25092694 
1621.923 25067080 25052364 25046156 25046688 25053010 25063068 25073912 
1625.298 25082414 25085722 25083896 25080052 25080554 25092010 25119902 
1628.673 25165306 25224494 25289264 25350428 25400200 25435162 25457138 
1632.049 25473238 25492982 25526148 25579856 25656894 25754926 25866788 
1635.424 25980748 26083314 26161598 26206552 26214160 26187648 26136676 
1638.799 26075762 26020278 25983186 25971888 25986404 26020376 26064074 
1642.174 26107116 26142270 26167112 26183320 26195184 26208124 26226382 
1645.550 26252168 26285940 26327712 26377260 26434600 26499902 26573234 
1648.925 26654324 26742496 26837250 26938766 27047054 27162914 27285506 
1652.300 27413412 27543686 27673428 27800584 27925096 28048832 28175172 
1655.675 28307244 28447060 28594860 28749286 28908224 29070308 29235616 
1659.051 29405794 29584066 29773770 29978710 30201950 30446504 30715642 
1662.426 31012732 31341008 31702206 32096334 32519966 32966874 33428580 
1665.801 33896096 34360344 34814360 35254932 35682948 36103536 36526232 
1669.176 36962376 37423020 37915100 38439704 38989332 39551064 40108860 
1672.552 40648160 41161332 41648720 42119824 42588716 43069640 43572240 
1675.927 44098992 44645236 45202884 45764032 46325016 46887328 47457372 
1679.302 48042540 48648952 49278460 49928824 50594308 51268404 51944964 
1682.677 52620652 53294200 53966548 54640660 55320660 56011904 56720992 
1686.052 57453788 58215412 59009840 59839036 60703364 61603484 62541000 
1689.428 63519752 64545684 65627320 66774020 67996312 69304096 70708160 
1692.803 72218648 73845272 75596168 77476664 79489712 81636880 83922240 
1696.178 86356800 88962504 91773872 94836408 98202288 101923136 106043816 
1699.553 110598952 115612712 121103752 127092704 133611736 140709568 
1702.447 148450944 156911936 166172608 176306560 187376848 199431424 
1705.340 212503552 226611648 241758768 257928256 275080288 293147008 
1708.233 312033792 331627296 351804288 372440704 393412224 414586400 
1711.126 435808480 456887200 477588960 497645248 516770592 534688224 
1714.019 551154432 565980480 579046848 590314944 599832768 607733504 
1716.912 614217920 619525760 623893760 627518784 630535616 633016768 
1719.805 634991296 636470912 637471296 638018688 638144704 637875264 
1722.698 637222528 636189376 634783680 633035072 631003584 628775360 
1725.591 626444224 624090816 621764672 619481728 617236288 615017920 
1728.484 612827200 610683712 608617152 606656192 604816704 603100160 
1731.377 601501440 600024192 598692800 597558528 596691968 596169024 
1734.270 596057024 596407168 597257024 598642560 600609856 603222080 
1737.163 606556544 610694080 615707712 621651712 628561536 636458752 
1740.056 645358336 655271616 666202816 678136832 691026496 704785152 
1742.949 719287488 734380608 749896256 765660288 781492096 797196416 
1745.843 812554624 827325120 841256768 854114048 865697984 875860608 
1748.736 884497280 891527936 896876672 900463552 902214464 902082176 
1751.629 900067840 896224512 890642880 883421056 874634816 864326592 
1754.522 852511680 839205504 824452928 808349312 791044736 772729280 
1757.415 753610496 733889344 713746688 693339072 672800832 652251648 
1760.308 631801536 611552768 591601344 572038976 552951296 534418176 
1763.201 516508448 499275104 482748256 466932608 451808320 437339648 
1766.094 423486304 410216640 397514208 385378560 373815872 362827456 
1768.987 352396352 342482560 333023488 323945184 315175520 306655520 
1771.880 298347840 290234432 282309632 274570464 267007536 259600256 
1774.773 252318688 245127472 237993136 230887824 223793312 216699968 
1777.666 209606112 202516464 195440496 188392496 181389872 174451936 
1780.559 167597312 160843040 154202304 147687040 141310768 135091008 
1783.452 129051920 123222008 117629984 112299240 107242064 102458456 
1786.345 97938672 93667936 89633832 85829728 82255808 78916144 75812856 
1789.721 72942144 70291896 67843024 65572888 63458784 61482500 59631928 
1793.096 57900140 56284128 54783200 53395692 52118296 50943372 49859380 
1796.471 48850348 47897820 46984348 46096132 45226464 44376232 43552468 
1799.846 42765180 42023660 41334032 40698736 40117152 39587584 39107388 
1803.222 38672052 38274512 37902808 37542692 37180180 36807168 36424420 
1806.597 36042352 35675872 35337680 35031160 34745952 34460696 34151040 
1809.972 33798896 33400844 32969118 32527342 32100524 31705604 31345736 
1813.347 31011468 30688664 30367258 30048562 29745198 29476134 29256672 
1816.723 29089424 28961098 28844772 28710352 28534774 28311220 28049822 
1820.098 27773628 27509504 27278616 27091700 26945456 26825022 26708160 
1823.473 26570142 26387582 26143046 25828620 25449014 25021688 24574644 
1826.848 24140480 23748682 23419306 23157628 22955268 22794706 22655422 
1830.224 22521080 22381762 22234344 22078326 21913274 21736618 21544060 
1833.599 21331418 21096752 20839762 20562506 20265486 19948276 19611070 
1836.974 19258930 18904516 18569090 18279060 18058158 17918284 17854466 
1840.349 17844306 17853722 17847168 17797806 17693064 17534916 17336148 
1843.725 17112056 16875612 16635373 16396265 16163468 15943160 15743759 
1847.100 15572072 15430849 15318283 15227769 15153388 15092210 15045430 
1850.475 15017493 15010470 15020942 15038420 15047153 15032865 14987353 
1853.850 14911657 14814275 14706778 14597044 14487521 14373821 14250936 
1857.226 14116107 13973277 13831461 13700556 13585893 13485657 13391272 
1860.601 13292462 13183457 13066636 12954096 12861326 12803009 12787944 
1863.976 12816475 12884059 12983390 13106900 13247144 13392702 13525777 
1867.351 13622384 13657558 13615822 13497883 13326696 13141859 12987570 
1870.727 12896262 12876470 12907005 12945371 12941519 12857144 12678967 
1874.102 12421984 12123913 11831405 11585307 11410825 11314963 11290818 
1877.477 11325886 11408043 11528372 11680418 11854806 12035956 12202058 
1880.852 12328795 12396695 12397151 12337770 12242142 12143753 12079652 
1884.228 12079766 12159606 12315326 12523426 12744819 12934821 13050819 
1887.603 13062858 12960180 12752274 12466465 12142106 11820887 11540346 
1890.978 11328553 11201196 11164018 11212946 11337373 11521043 11742588 
1894.353 11978443 12203203 12392562 12526637 12591828 12583164 12503643 
1897.729 12365049 12187342 11997329 11826986 11708809 11669765 11724462 
1901.104 11870050 12083438 12326282 12553573 12724562 12813036 12814743 
1904.479 12746087 12639845 12535676 12472239 12477189 12563922 12726430 
1907.854 12938485 13154618 13313777 13350247 13207791 12855900 12303809 
1911.229 11604678 10847772 10139854 9577566 9224751 9100273 9174638 9389087 
1915.087 9675655 9979099 10265577 10523680 10752585 10950829 11108452 
1918.462 11206974 11227770 11161236 11013454 10804323 10559560 10301533 
1921.837 10041523 9780305 9517491 9260169 9031213 8867797 8810532 8888614 
1925.695 9102508 9418143 9771123 10081965 10280244 10323625 10213197 9990823 
1929.552 9728682 9508856 9400290 9439583 9626344 9922438 10267456 10600203 
1933.410 10873151 11072367 11213789 11334963 11477276 11664748 11889181 
1936.785 12112351 12276157 12328204 12244409 12041720 11779816 11538647 
1940.160 11394181 11391410 11526454 11748535 11976005 12121828 12120919 
1943.535 11945606 11612066 11178144 10721714 10330033 10081287 10029553 
1946.911 10194981 10556430 11052440 11591714 12072973 12404707 12530832 
1950.286 12439302 12159862 11747885 11259756 10731383 10171977 9568487 
1953.661 8905406 8184663 7440920 6735919 6145690 5742760 5578810 5679790 
1957.519 6051216 6686711 7577499 8705359 10031726 11489674 12978728 14377346 
1961.376 15569843 16476924 17071924 17381446 17460874 17368534 17139630 
1964.751 16778152 16273020 15629297 14895785 14172750 13596512 13301558 
1968.126 13372111 13817478 14564651 15485652 16437896 17302912 18017140 
1971.502 18567414 18968252 19238122 19373534 19344964 19113990 18657364 
1974.877 17995534 17209284 16425177 15800135 15477226 15552109 16035059 
1978.252 16847984 17834806 18811770 19603604 20095822 20248578 20106412 
1981.627 19769888 19366900 19009302 18755422 18590470 18427350 18139404 
1985.003 17604092 16749389 15593970 14248893 12903396 11771664 11043782 
1988.378 10830223 11139516 11877503 12873733 13923925 14840003 15492267 
1991.753 15837584 15916247 15835702 15729371 15714476 15853053 16136730 
1995.128 16484438 16774872 16877510 16693078 16176796 15347067 14269307 
1998.504 13034869 11741243 10477690 9324337 8359722 7668086 7333563 7424833 
2002.361 7969247 8921855 10162533 11504797 12735276 13665676 14185955 
2005.736 14294676 14101911 13782704 13525127 13468656 13663743 14076651 
2009.112 14618485 15187874 15707113 16137937 16472755 16715594 16868766 
2012.487 16923928 16878414 16745631 16574107 16438985 16418092 16558040 
2015.862 16839074 17174082 17418842 17423418 17094026 16429717 15543348 
2019.237 14627460 13889793 13488517 13472701 13770076 14216010 14614217 
2022.613 14799175 14687709 14289061 13684949 12981299 12265499 11581426 
2025.988 10930593 10293792 9657966 9031392 8441056 7910850 7443553 7010779 
2029.845 6566631 6078804 5558312 5074840 4745701 4698290 5019455 5716370 
2033.703 6700223 7814143 8872380 9720677 10267110 10495271 10451665 10219986 
2037.560 9894109 9563489 9306072 9188943 9256870 9530181 9993002 10593891 
2041.417 11250131 11871712 12379140 12724763 12891305 12884246 12713434 
2044.793 12386401 11909809 11311457 10662384 10082681 9731137 9754007 
2048.168 10227155 11100000 12191167 13228073 13933907 14111874 13706073 
2051.543 12804265 11599967 10334402 9226870 8425161 7978377 7846335 7934448 
2055.401 8138268 8380731 8628668 8882022 9153122 9441934 9728901 9978776 
2059.258 10158514 10249247 10258895 10214404 10155386 10119973 10141066 
2062.633 10245391 10461185 10816490 11336715 12026202 12854167 13743035 
2066.009 14574680 15211638 15533282 15469653 15022862 14272241 13349273 
2069.384 12406114 11577845 10956646 10579093 10433524 10475328 10643868 
2072.759 10878481 11122717 11329769 11461787 11496962 11430697 11282086 
2076.134 11092135 10915020 10805203 10798864 10904294 11096509 11326101 
2079.510 11533800 11665685 11689337 11596714 11400620 11128144 10809891 
2082.885 10472612 10139561 9830912 9565701 9364514 9244523 9217336 9282248 
2086.742 9424734 9620004 9835823 10041086 10206947 10309410 10328527 
2090.117 10247492 10053447 9745832 9340012 8877698 8425835 8068576 7892072 
2093.975 7962337 8304805 8893831 9652237 10469575 11227541 11824727 12196762 
2097.832 12323623 12223084 11939730 11529463 11050043 10553760 10087430 
2101.208 9690710 9397116 9230537 9204083 9315865 9551096 9883666 10281809 
2105.065 10711563 11141571 11541522 11886317 12156338 12338797 12433648 
2108.440 12454765 12427865 12386783 12362547 12376569 12431078 12512414 
2111.815 12594010 12647263 12651425 12596601 12484532 12320097 12104431 
2115.191 11830077 11479303 11033771 10484183 9837540 9122463 8387718 7689468 
2119.048 7081705 6605124 6280965 6112286 6089341 6193537 6404759 6698994 
2122.906 7050155 7424941 7783583 8081602 8275708 8330164 8224246 7954914 
2126.763 7535841 6994755 6364155 5674389 4944620 4180234 3373358 2509285 
2130.620 1581278 605805 -362443 -1226562 -1855199 -2111469 -1888206 -1153174 
2134.478 26661 1484524 2988923 4299343 5235065 5718116 5789594 5580377 
2138.335 5253971 4944131 4703997 4490530 4184340 3643102 2761469 1516582 
2142.193 -9084 -1647961 -3189025 -4437124 -5257409 -5610530 -5552024 
2145.568 -5203909 -4716856 -4219062 -3780433 -3395208 -2994540 -2479438 
2148.943 -1776299 -878882 120887 1032802 1618722 1648717 982465 -382435 
2152.801 -2291998 -4479167 -6624234 -8453122 -9800045 -10631597 -11022286 
2156.176 -11080807 -10882295 -10410436 -9563590 -8217734 -6316105 -3940433 
2159.551 -1326186 1216064 3414046 5116983 6314264 7087250 7548935 7778711 
2163.408 7813692 7653656 7306881 6814345 6262697 5754878 5378262 5157464 
2167.266 5060279 5005589 4910508 4730103 4473177 4199453 3973127 3828132 
2171.123 3745275 3654082 3468807 3131376 2651019 2106745 1618029 1296205 
2174.981 1194390 1286025 1475834 1643588 1701538 1624948 1453076 1264536 
2178.838 1129578 1074888 1076716 1071313 1003340 855264 664538 519846 527848 
2183.178 771824 1289567 2070030 3067996 4234771 5529201 6924241 8389257 
2187.035 9870576 11277475 12480213 13332559 13706482 13529948 12815479 
2190.410 11670167 10281282 8880406 7694947 6895512 6558259 6646339 7024312 
2194.268 7497485 7870866 8010037 7882026 7560695 7197677 6962006 6973949 
2198.125 7263252 7755585 8303064 8749377 8988050 9003635 8870239 8715825 
2201.983 8662812 8774287 9033171 9355417 9634759 9797857 9837789 9822443 
2205.840 9860627 10048845 10427939 10960017 11535778 12013890 12266940 
2209.215 12228471 11907375 11381335 10770837 10204887 9790842 9595451 
2212.591 9639006 9898067 10315269 10809832 11291945 11681496 11924804 
2215.966 12008800 11961593 11843131 11723362 11657333 11664107 11723046 
2219.341 11788270 11813761 11780806 11709106 11658757 11704355 11905751 
2222.716 12283208 12807787 13411609 14012628 14542217 14963524 15273416 
2226.092 15490074 15630396 15694000 15659591 15492395 15164032 14673451 
2229.467 14053836 13368131 12694974 12103496 11641864 11330249 11166804 
2232.842 11143549 11255018 11503443 11891865 12412664 13033940 13696520 
2236.217 14323815 14839583 15190033 15357943 15367882 15272710 15133807 
2239.593 14995535 14871771 14745179 14577544 14331109 13986881 13556362 
2242.968 13077794 12603999 12182103 11842326 11588098 11401268 11255037 
2246.343 11124199 10997010 10873925 10762474 10671469 10604990 10562364 
2249.718 10542927 10552273 10605943 10726902 10935509 11238441 11619915 
2253.094 12040314 12441560 12764825 12967367 13034344 12985257 12867304 
2256.469 12739697 12658562 12661947 12761203 12943452 13176860 13419828 
2259.844 13632896 13782603 13848973 13824043 13711551 13525008 13285985 
2263.219 13022830 12767309 12550646 12402629 12341809 12373170 12485369 
2266.594 12650647 12830481 12984004 13080425 13108188 13080425 13032076 
2269.970 13012974 13071230 13241530 13533387 13927365 14381860 14842105 
2273.345 15254486 15577968 15790431 15889436 15889432 15816638 15702518 
2276.720 15579778 15477694 15420415 15421762 15484075 15598653 15747517 
2280.095 15910590 16070837 16221497 16366091 16517838 16692592 16902526 
2283.471 17150774 17429758 17724424 18015518 18285532 18520466 18709232 
2286.846 18844518 18921482 18937908 18896616 18806158 18682124 18541900 
2290.221 18401944 18270914 18148042 18023046 17880460 17706208 17494410 
2293.596 17248162 16980146 16708301 16450718 16221000 16028421 15875997 
2296.972 15764665 15693041 15658360 15656153 15679013 15717823 15763076 
2300.347 15808733 15853176 15899336 15953111 16019236 16098414 16187172 
2303.722 16276747 16357908 16422573 16465992 16486134 16482746 16455971 
2307.097 16406650 16336638 16251603 16160782 16076077 16008599 15965672 
2310.473 15948782 15955534 15984772 16039167 16128926 16269507 16474443 
2313.848 16745755 17070212 17416128 17742470 18008124 18186348 18270722 
2317.223 18277728 18239304 18195002 18182042 18231284 18366168 18603612 
2320.598 18952926 19409584 19948384 20515014 21027814 21387700 21501204 
2323.974 21302594 20773626 19951220 18919292 17791678 16687978 15710538 
2327.349 14926687 14361519 14000716 13803122 13715073 13686616 13679824 
2330.724 13671931 13652761 13622229 13582676 13538565 13494439 13452409 
2334.099 13412795 13373318 13328183 13271506 13198966 13111819 13018051 
2337.475 12932021 12869808 12845390 12864601 12923064 13007625 13099611 
2340.850 13179617 13233730 13255869 13247905 13218628 13180685 13146346 
2344.225 13125842 13124841 13142103 13171650 13201919 13220858 13218295 
2347.600 13189416 13137903 13074315 13011333 12961020 12928591 12910027 
2350.976 12896346 12876743 12845371 12804675 12765303 12740681 12740923 
2354.351 12764700 12798836 12820895 12808264 12746858 12638625 12501818 
2357.726 12365052 12257266 12197691 12188081 12214624 12252968 12277238 
2361.101 12270167 12226032 12150758 12057084 11956883 11857127 11758209 
2364.477 11657360 11551883 11444391 11343445 11261096 11207653 11188449 
2367.852 11199848 11231242 11269711 11304305 11331773 11356628 11389675 
2371.227 11442592 11522710 11630054 11756608 11889038 12012783 12116138 
2374.602 12192873 12242092 12267198 12273432 12265483 12248526 12227655 
2377.978 12208846 12198964 12205344 12233506 12284977 12356742 12441876 
2381.353 12531042 12616255 12691041 12752752 12802261 12841392 12872864 
2384.728 12899469 12924561 12953025 12991028 13044180 13115297 13201426 
2388.103 13293129 13374533 13428230 13440084 13403567 13322594 13209256 
2391.479 13079920 12949422 12828439 12722186 12633399 12565859 12526959 
2394.854 12527312 12576584 12676577 12818013 12978097 13125237 13227722 
2398.229 13262572 13223623 13123964 12989736 12853217 12742266 12672992 
2401.604 12646783 12651900 12669669 12681076 12671288 12632954 12566546 
2404.979 12479230 12383336 12295074 12232115 12211571 12247264 12345453 
2408.355 12503121 12705793 12930077 13146169 13326239 13447183 13497697 
2411.730 13478138 13402065 13291801 13172679 13068340 12994906 12958054 
2415.105 12951082 12959016 12963142 12948464 12909212 12851703 12793443 
2418.480 12756980 12760578 12812212 12903397 13012731 13110504 13170060 
2421.856 13176177 13131582 13054950 12977154 12928761 12931659 12989779 
2425.231 13088686 13197568 13276464 13289198 13209835 13033698 12778610 
2428.606 12481879 12195126 11970780 11851585 11860453 11994444 12227603 
2431.981 12518385 12818579 13086820 13293424 13424112 13477826 13459824 
2435.357 13379053 13245628 13071631 12876180 12685020 12530023 12443974 
2438.732 12450360 12556431 12748452 12994517 13251375 13476861 13641103 
2442.107 13731824 13756016 13734705 13694113 13657361 13639051 13644697 
2445.482 13670614 13708608 13749573 13784232 13805432 13805686 13777094 
2448.858 13711590 13602167 13444711 13241999 13004969 12752368 12510902 
2452.233 12308686 12172183 12118670 12152957 12266873 12440747 12647969 
2455.608 12860166 13053214 13207967 13312106 13358500 13344710 13273100 
2458.983 13151727 12996086 12829769 12679745 12573160 12528755 12550849 
2462.359 12627768 12736924 12850429 12944983 13008341 13040316 13050719 
2465.734 13050295 13046479 13038852 13021132 12987842 12937902 12878014 
2469.109 12821496 12782268 12766210 12768701 12774426 12761920 12712777 
2472.484 12618521 12484448 12328540 12177234 12056566 11987354 11979819 
2475.860 12033004 12134417 12261610 12386706 12478475 12511143 12468710 
2479.235 12352391 12181201 11988695 11814434 11690904 11634828 11642493 
2482.610 11693644 11762038 11829043 11890584 11958814 12055379 12197464 
2485.985 12387857 12609695 12832167 13021816 13156336 13232912 13266946 
2489.361 13284298 13305242 13334797 13358770 13350408 13284709 13151280 
2492.736 12962567 12752500 12564038 12435474 12385121 12406662 12473214 
2496.111 12548574 12600039 12609168 12576273 12515237 12446137 12387238 
2499.486 12348498 12331191 12330639 12340810 12359702 12388999 12436587 
2502.862 12512549 12625042 12779223 12972947 13196849 13432819 13656986 
2506.237 13841253 13958826 13989024 13922203 13763621 13532288 13259432 
2509.612 12980731 12731278 12538495 12417448 12371522 12392079 12464257 
2512.987 12569906 12692367 12819524 12942442 13056397 13156321 13237812 
2516.363 13291323 13309230 13284003 13215707 13114197 12998981 12897243 
2519.738 12835596 12832394 12892141 13001870 13135411 13261995 13357848 
2523.113 13412781 13433796 13440596 13458828 13505950 13587737 13693458 
2526.488 13802874 13892753 13946800 13959724 13937186 13890884 13831749 
2529.864 13764530 13688206 13598358 13493458 13379948 13273457 13193601 
2533.239 13157463 13172032 13228497 13304537 13371854 13406711 13398459 
2536.614 13354047 13297537 13260071 13271101 13347941 13490978 13684176 
2539.989 13901685 14114968 14301081 14444293 14537827 14581896 14578856 
2543.365 14534318 14456799 14357224 14252838 14162342 14102573 14083713 
2546.740 14104070 14148541 14193284 14211020 14180864 14095096 13960452 
2550.115 13797455 13633906 13496930 13407748 13376734 13405625 13487697 
2553.490 13611001 13760064 13917346 14062702 14178545 14250183 14270200 
2556.865 14241916 14178435 14100168 14029260 13983654 13972891 13999744 
2560.241 14059164 14146535 14258266 14393349 14550689 14724972 14904078 
2563.616 15068900 15197808 15272335 15284080 15238094 15151066 15045481 
2566.991 14942798 14856721 14792259 14747007 14715277 14692938 14679993 
2570.366 14678691 14692491 14720195 14758269 14801106 14845429 14894003 
2573.742 14955213 15040481 15158901 15309033 15478019 15641984 15773391 
2577.117 15849866 15862703 15820276 15747245 15674451 15631536 15636537 
2580.492 15690355 15779054 15878113 15962210 16012315 16020514 15991814 
2583.867 15940612 15884357 15838072 15809147 15795756 15789751 15778704 
2587.243 15752520 15707899 15649173 15589295 15544884 15531335 15559196 
2590.618 15628239 15728733 15843207 15950413 16032141 16077042 16083604 
2593.993 16060703 16025322 15996033 15989238 16012534 16063502 16126616 
2597.368 16180677 16203329 16179001 16105928 15998676 15886238 15803652 
2600.744 15782462 15840013 15975395 16166722 16380552 16580494 16737640 
2604.119 16837770 16881264 16879398 16847822 16799760 16743269 16683424 
2607.494 16624354 16573500 16541660 16540334 16575849 16644547 16732672 
2610.869 16819252 16882776 16911716 16907542 16885274 16867824 16876386 
2614.245 16921434 16998420 17089250 17168062 17212062 17207750 17155986 
2617.620 17070052 16970438 16877844 16807412 16767172 16757132 16772022 
2620.995 16804720 16848094 16896774 16947064 16997194 17047078 17098660 
2624.370 17155112 17218922 17290080 17366038 17439734 17500908 17541426 
2627.746 17556314 17546710 17521630 17493706 17477012 17481364 17509348 
2631.121 17557264 17614666 17669614 17712538 17736868 17742156 17731398 
2634.496 17708138 17677776 17643410 17607884 17572606 17540244 17513110 
2637.871 17493858 17484366 17485160 17495726 17514108 17538268 17565638 
2641.247 17593814 17620402 17642908 17659642 17669622 17674092 17675890 
2644.622 17679740 17691326 17714222 17749860 17795126 17844242 17887492 
2647.997 17917126 17925916 17912242 17877434 17826290 17765056 17698810 
2651.372 17631198 17564464 17499486 17438330 17384024 17341838 17316064 
2654.748 17310548 17323158 17346584 17369652 17376914 17354420 17292766 
2658.123 17188812 17049512 16886756 16717978 16558994 16422778 16314153 
2661.498 16231075 16164968 16103489 16034391 15948623 15841538 15715275 
2664.873 15575911 15433113 15296368 15173460 15068159 14981983 14912792 
2668.249 14858089 14815100 14782664 14759622 14745085 14737262 14731766 
2671.624 14722952 14705255 14674996 14632531 14584129 14538226 14506570 
2674.999 14498057 14516738 14560830 14622179 14689662 14752319 14802872 
2678.374 14838612 14862228 14878750 14893388 14908572 14923217 14933099 
2681.750 14932727 14916508 14883089 14833360 14771817 14704224 14637145 
2685.125 14575096 14520862 14474900 14436313 14403751 14375954 14352388 
2688.500 14331697 14313796 14297057 14279319 14259141 14234802 14207748 
2691.875 14181222 14161459 14155508 14168340 14201051 14247866 14297594 
2695.250 14334686 14344211 14316121 14250397 14156519 14051946 13957654 
2698.626 13891292 13863644 13874626 13915578 13972390 14030579 14080100 
2702.001 14117043 14142852 14162867 14182528 14205369 14231846 14260147 
2705.376 14287003 14308969 14322412 14324237 14311898 14283662 14238067 
2708.751 14178288 14109042 14039319 13977939 13932893 13908286 13902850 
2712.127 13910593 13923890 13935097 13940578 13940597 13939705 13944549 
2715.502 13960317 13990114 14033308 14085627 14140066 14189418 14226120 
2718.877 14244325 14239280 14209975 14158311 14090207 14014788 13943994 
2722.252 13889792 13862315 13867599 13905666 13972237 14058297 14153343 
2725.628 14247332 14331765 14400318 14450609 14482619 14499086 14502931 
2729.003 14498720 14489107 14474635 14454571 14426167 14386851 14337718 
2732.378 14281977 14228504 14187940 14171009 14184049 14227451 14294161 
2735.753 14372553 14448954 14511985 14556682 14583852 14599647 14612597 
2739.129 14630420 14657902 14696140 14744049 14797491 14852976 14905540 
2742.504 14950854 14984034 15000938 14998602 14977207 14939960 14893952 
2745.879 14847931 14810185 14786525 14778522 14783234 14795786 14809630 
2749.254 14820253 14824788 14822035 14812917 14798163 14778974 14757560 
2752.630 14735769 14717574 14705833 14702403 14706179 14713835 14719462 
2756.005 14717785 14706490 14687981 14669369 14660651 14670613 14703345 
2759.380 14755894 14819385 14880495 14927457 14952665 14955741 14943524 
2762.755 14926487 14914908 14916582 14932261 14957030 14983106 15002051 
2766.131 15008287 15000879 14982791 14959126 14934990 14913350 14893471 
2769.506 14872094 14845137 14808783 14762751 14711409 14661998 14624287 
2772.881 14607584 14617656 14655735 14717552 14794189 14874120 14946536 
2776.256 15003521 15041432 15061653 15069209 15070518 15072388 15078920 
2779.632 15090953 15106070 15121189 15132954 15140432 15143990 15146803 
2783.007 15152974 15164282 15181762 15202140 15220750 15231891 15232844 
2786.382 15223796 15210815 15203252 15213833 15253323 15327546 15436705 
2789.757 15572594 15721658 15866103 15989253 16077302 16123390 16127301 
2793.133 16096041 16041985 15979558 15922742 15881862 15861986 15862938 
2796.508 15879754 15904650 15930871 15954090 15975159 15998207 16029814 
2799.883 16076004 16139131 16216576 16301485 16384827 16458323 16517254 
2803.258 16562836 16600152 16637102 16681978 16739400 16810040 16890700 
2806.634 16974788 17055132 17124852 17178554 17213310 17228628 17226110 
2810.009 17210464 17189146 17170844 17165570 17182122 17225516 17296900 
2813.384 17392238 17503690 17622188 17739696 17850250 17951766 18044416 
2816.759 18129338 18208326 18283080 18353312 18419306 18481058 18539610 
2820.135 18596944 18655820 18719370 18790538 18870846 18961442 19059770 
2823.510 19161752 19259776 19345202 19408598 19443390 19447090 19422628 
2826.885 19378556 19327522 19282468 19256056 19256576 19288234 19350858 
2830.260 19440654 19552690 19680022 19814270 19947246 20069308 20172148 
2833.635 20249260 20297664 20319262 20320996 20313852 20310332 20322478 
2837.011 20361482 20433092 20539050 20675752 20834226 21001962 21164986 
2840.386 21309604 21427474 21517802 21589006 21657260 21746532 21880624 
2843.761 22079510 22356030 22711414 23135886 23612250 24117126 24626802 
2847.136 25117602 25570614 25969688 26305390 26572822 26773918 26915858 
2850.512 27011242 27076634 27128720 27183634 27254498 27348782 27470640 
2853.887 27618462 27788020 27970418 28156390 28334896 28495958 28632108 
2857.262 28739534 28818712 28872908 28908702 28931612 28946480 28957666 
2860.637 28967788 28982564 29008804 29057952 29142260 29274200 29461364 
2864.013 29706060 30003662 30344230 30714202 31101334 31496804 31897202 
2867.388 32304094 32723844 33164654 33633300 34134416 34666792 35224608 
2870.763 35797344 36371900 36935632 37479496 37999648 38498380 38982144 
2874.138 39458104 39931732 40403344 40866412 41309716 41719612 42084420 
2877.514 42396100 42651020 42850800 42997868 43095512 43146092 43149460 
2880.889 43106388 43017768 42886324 42715632 42511296 42278668 42023880 
2884.264 41753640 41476452 41201812 40940660 40703104 40497796 40329404 
2887.639 40200596 40110876 40059568 40046192 40071060 40134000 40233052 
2891.015 40361824 40511712 40671268 40830600 40983260 41129260 41273132 
2894.390 41421428 41580796 41753316 41935340 42118940 42293184 42448852 
2897.765 42579552 42684080 42764412 42824784 42870576 42905044 42931264 
2901.140 42951832 42969908 42990684 43019520 43062484 43122800 43201148 
2904.516 43293572 43393396 43492264 43582800 43659404 43720784 43771024 
2907.891 43816780 43867248 43932092 44018720 44133236 44279240 44459084 
2911.266 44675072 44930048 45225960 45565540 45946072 46362768 46805788 
2914.641 47262336 47719384 48168124 48603396 49026600 49442248 49856344 
2918.017 50271204 50684932 51091460 51482240 51850276 52193328 52515700 
2921.392 52826948 53139588 53464408 53808004 54170404 54546060 54925888 
2924.767 55301084 55666388 56022080 56374832 56734900 57115352 57528116 
2928.142 57982672 58484352 59034476 59631496 60271316 60950068 61666072 
2931.518 62418408 63210832 64049348 64942984 65902292 66939668 68066720 
2934.893 69295008 70633296 72087648 73661096 75352064 77155272 79060592 
2938.268 81055320 83122800 85242152 87388088 89530568 91635112 93665000 
2941.643 95583224 97357288 98959568 100372064 101584624 102593336 103397688 
2945.019 103998936 104398376 104597632 104600776 104417432 104064472 
2947.912 103564072 102943856 102233920 101461120 100647736 99809680 98955840 
2951.287 98089768 97212096 96322080 95420528 94510360 93598128 92693848 
2954.662 91811280 90963520 90162800 89415656 88722376 88075208 87460784 
2958.037 86863024 86267880 85667064 85058792 84448208 83843392 83253208 
2961.413 82681432 82127080 81583256 81040032 80488480 79920400 79332640 
2964.788 78725640 78102464 77467080 76824088 76178512 75534504 74896464 
2968.163 74267384 73648016 73035400 72422144 71799232 71157592 70491832 
2971.538 69805976 69111624 68430304 67786712 67204576 66700548 66280568 
2974.914 65939948 65664648 65438992 65249204 65086760 64951660 64848484 
2978.289 64783968 64765096 64794668 64874500 65006160 65193624 65446540 
2981.664 65777412 66200384 66728196 67366616 68115256 68967576 69913584 
2985.039 70944976 72056448 73246888 74516216 75863232 77281096 78754360 
2988.415 80260288 81771160 83257736 84693816 86058640 87335552 88511384 
2991.790 89574776 90511936 91308640 91948200 92415984 92699928 92792336 
2995.165 92690792 92398360 91922776 91275616 90472328 89529480 88468168 
2998.540 87307952 86068480 84765984 83411696 82012040 80570112 79085680 
3001.916 77560592 75999912 74414376 72819800 71235168 69678024 68161592 
3005.291 66689312 65254784 63843144 62434052 61009884 59558232 58078268 
3008.666 56579944 55081936 53608468 52180404 50814132 49517552 48290284 
3012.041 47124832 46010388 44933964 43882856 42846708 41817156 40790136 
3015.417 39766804 38753524 37762816 36808440 35904484 35060540 34279188 
3018.792 33555408 32878582 32237050 31621058 31027100 30456366 29912338 
3022.167 29397030 28907152 28433578 27962994 27483020 26988028 26482326 
3025.542 25980760 25504264 25074802 24707378 24406564 24163662 23961390 
3028.917 23778908 23598136 23408230 23207260 22999610 22794484 22598216 
3032.293 22415400 22244718 22082786 21925320 21771098 21619904 21475842 
3035.668 21342068 21220836 21110422 21007028 20904838 20799352 20689544 
3039.043 20577666 20468418 20369064 20284320 20215816 20161008 20115390 
3042.418 20073342 20031896 19992174 19958486 19936866 19933776 19952298 
3045.794 19991004 20044278 20102998 20158150 20201224 20226670 20233050 
3049.169 20221684 20198000 20169798 20145688 20135118 20145282 20179882 
3052.544 20236984 20307146 20375792 20425146 20439160 20406724 20326780 
3055.919 20208264 20067928 19926324 19802998 19709870 19651170 19621460 
3059.295 19609328 19603158 19593696 19579184 19563536 19556116 19568256 
3062.670 19608204 19678960 19775704 19889790 20008360 20117592 20208508 
3066.045 20275636 20318850 20341748 20349386 20348454 20341744 20332758 
3069.420 20321908 20310334 20298340 20286442 20275578 20265122 20253524 
3072.796 20237064 20211912 20173210 20117952 20043960 19953088 19848958 
3076.171 19739012 19631830 19537038 19462394 19412256 19385804 19375280 
3079.546 19370034 19355984 19322562 19265522 19189510 19107990 19038880 
3082.921 18999690 19000280 19039006 19100960 19162214 19197148 19185110 
3086.297 19117676 19001678 18856402 18708086 18582980 18499034 18461968 
3089.672 18466720 18498666 18540694 18577022 18599134 18606294 18603066 
3093.047 18597028 18595874 18603866 18621320 18646160 18674020 18701582 
3096.422 18726860 18748714 18766304 18777862 18778290 18762782 18724366 
3099.798 18660734 18573964 18472176 18367966 18276022 18208958 18174278 
3103.173 18172102 18195770 18234978 18276910 18310822 18328166 18323398 
3106.548 18294000 18239764 18162868 18068838 17965388 17862956 17771046 
3109.923 17695816 17636958 17588318 17539034 17478668 17400838 17306694 
3113.299 17205636 17110084 17031962 16976916 16942750 16920810 16901370 
3116.674 16879416 16857766 16846774 16859216 16905866 16986546 17091322 
3120.049 17201898 17297542 17362638 17390462 17385184 17356118 17313632 
3123.424 17263686 17206810 17139754 17059674 16968674 16875654 16793938 
3126.800 16735908 16707543 16706554 16721614 16737519 16742095 16729135 
3130.175 16701898 16669713 16642664 16629053 16627830 16633334 16636312 
3133.550 16629308 16609900 16584702 16562648 16555630 16570374 16607847 
3136.925 16662687 16724911 16784004 16832478 16867918 16891988 16908062 
3140.301 16919510 16924530 16918806 16893896 16842310 16760143 16650228 
3143.676 16522054 16393004 16281534 16204629 16171360 16181011 16221682 
3147.051 16274074 16317727 16335320 16320825 16278243 16222868 16174769 
3150.426 16152631 16167568 16219912 16298585 16385956 16461829 16510554 
3153.802 16524184 16503334 16456455 16395278 16332179 16275099 16227631 
3157.177 16189251 16156793 16126968 16098725 16073221 16054809 16048573 
3160.552 16058015 16084202 16122475 16162882 16193232 16200682 16176216 
3163.927 16118541 16036242 15946394 15870525 15828697 15834076 15888283 
3167.302 15980622 16091255 16198851 16286198 16344884 16377235 16393861 
3170.678 16406560 16422454 16439943 16449358 16436325 16388712 16303213 
3174.053 16187148 16057868 15937388 15844662 15790656 15775060 15789807 
3177.428 15823297 15865849 15914276 15971774 16044529 16135644 16242037 
3180.803 16351137 16442996 16498081 16500689 16447483 16347203 16221600 
3184.179 16097572 16001914 15954372 15963409 16024770 16122792 16235271 
3187.554 16339242 16417710 16461454 16473141 16464509 16452026 16451729 
3190.929 16472191 16512237 16561501 16604999 16628383 16625328 16601494 
3194.304 16571332 16554231 16565619 16611304 16683150 16763173 16828636 
3197.680 16862274 16856988 16818658 16763262 16708063 16666049 16639801 
3201.055 16621483 16596828 16552413 16480280 16382469 16270885 16162502 
3204.430 16074391 16020633 16007897 16037162 16102657 16195476 16303916 
3207.805 16415412 16517906 16601184 16659310 16691409 16701885 16698901 
3211.181 16690964 16683456 16675619 16661104 16629238 16570425 16480027 
3214.556 16361265 16225880 16092192 15979819 15907731 15888555 15927808 
3217.931 16022077 16162332 16332746 16514666 16686520 16829936 16929662 
3221.306 16977894 16974382 16927214 16850424 16758805 16666625 16585451 
3224.682 16522091 16481206 16465396 16476722 16514774 16575556 16648803 
3228.057 16719367 16767977 16776439 16732922 16636007 16495746 16332174 
3231.432 16167382 16022813 15913308 15844293 15814152 15816946 15846504 
3234.807 15899593 15974494 16071754 16189877 16323991 16465753 16603336 
3238.183 16723495 16815898 16874010 16896398 16887290 16855358 16810702 
3241.558 16764075 16722653 16689701 16661523 16631812 16591437 16534407 
3244.933 16460612 16378641 16303284 16251739 16236303 16260048 16312318 
3248.308 16371462 16410593 16407691 16351959 16250024 16122680 15998691 
3251.684 15903983 15854800 15851701 15882608 15929006 15974436 16009193 
3255.059 16035670 16060518 16092576 16133700 16177345 16209327 16216420 
3258.434 16189773 16132975 16060214 15992463 15947852 15937427 15957706 
3261.809 15995147 16030746 16049074 16043684 16019261 15988594 15965579 
3265.185 15959838 15971603 15992789 16011896 16020171 16018484 16015369 
3268.560 16028360 16075306 16168395 16308310 16484123 16674379 16853740 
3271.935 16998512 17091762 17124788 17099104 17021264 16903776 16761119 
3275.310 16608661 16461778 16335178 16240723 16186228 16174108 16201537 
3278.686 16261162 16343007 16437303 16535807 16632810 16725004 16809416 
3282.061 16881980 16937836 16971696 16979142 16959832 16917506 16861948 
3285.436 16804398 16757842 16731435 16729375 16749350 16786304 16831320 
3288.811 16878658 16924806 16970302 17018790 17073144 17136230 17206182 
3292.187 17279026 17348358 17407558 17451748 17476402 17479402 17458528 
3295.562 17412122 17339062 17239676 17119372 16986218 16852374 16731327 
3298.937 16633810 16567454 16532160 16523406 16534004 16557332 16589079 
3302.312 16627805 16673964 16726775 16782928 16835554 16876118 16898084 
3305.688 16898332 16879516 16847506 16810604 16773807 16738106 16700398 
3309.063 16655916 16602768 16544614 16490662 16452672 16441198 16459685 
3312.438 16501712 16553190 16595021 16612321 16598519 16558271 16508013 
3315.813 16468186 16457580 16486758 16555749 16654786 16767314 16878328 
3319.188 16976248 17055952 17117200 17160322 17185308 17187804 17162230 
3322.564 17105234 17018254 16910868 16800564 16706498 16645402 16625188 
3325.939 16640753 16677728 16715826 16736429 16729595 16695986 16645746 
3329.314 16593926 16553033 16527528 16513623 16501391 16481783 16451560 
3332.689 16417759 16396232 16405195 16459407 16561020 16699890 16854016 
3336.065 16996578 17104174 17163366 17173792 17145162 17092128 17029448 
3339.440 16966082 16903598 16838408 16763240 16672149 16560990 16430993 
3342.815 16286409 16135858 15990436 15864586 15772434 15727201 15737087 
3346.190 15801223 15909990 16044924 16183384 16303945 16392464 16444314 
3349.566 16465314 16465215 16454447 16437726 16411902 16369116 16299579 
3352.941 16199363 16073734 15937183 15812064 15721189 15681984 15701095 
3356.316 15773382 15882680 16008100 16127491 16224651 16291345 16327785 
3359.691 16340936 16341703 16342135 16351912 16376333 16416647 16470829 
3363.067 16534043 16599417 16660416 16709374 16738946 16741682 16711367 
3366.442 16645283 16547365 16428553 16308924 16213648 16168341 16190071 
3369.817 16283493 16434986 16615909 16787978 16913666 16966722 16937832 
3373.192 16838054 16690539 16525138 16366376 16227709 16110504 16008085 
3376.568 15913447 15826482 15756687 15721606 15740028 15821826 15962966 
3379.943 16141968 16326142 16478786 16571319 16590454 16540233 16439335 
3383.318 16313704 16188048 16080733 16001621 15953671 15935306 15945965 
3386.693 15984762 16049096 16134441 16230373 16325086 16405299 16463280 
3390.069 16498446 16517950 16534725 16560374 16602280 16661588 16733427 
3393.444 16810514 16886722 16958628 17026346 17089880 17145916 17188538 
3396.819 17210790 17207650 17182648 17148178 17122586 17125130 17167214 
3400.194 17247154 17350372 17451230 17524642 17552902 17533148 17475504 
3403.570 17401186 17332446 17285140 17265446 17268576 17282094 17291394 
3406.945 17284476 17254942 17202780 17133354 17057516 16990454 16946688 
3410.320 16941200 16982574 17070722 17195604 17337918 17475484 17589520 
3413.695 17670066 17721670 17758290 17798134 17856764 17940162 18043292 
3417.071 18154710 18261700 18355766 18436794 18510160 18581828 18652490 
3420.446 18715826 18760014 18774026 18754050 18708354 18653568 18610254 
3423.821 18594382 18609064 18644778 18682680 18703352 18696216 18663898 
3427.196 18621796 18592102 18594716 18640354 18725806 18837410 18955618 
3430.572 19063154 19148394 19208782 19248800 19277080 19303868 19337582 
3433.947 19384094 19448488 19530776 19626930 19726232 19812874 19866542 
3437.322 19868406 19804476 19672432 19481834 19253810 19016064 18796408 
3440.697 18615160 18482940 18398138 18351650 18329624 18320412 18317434 
3444.073 18321384 18337930 18373428 18432742 18512304 18602066 18685846 
3447.448 18746864 18772736 18759052 18712844 18647422 18580126 18524736 
3450.823 18486120 18462074 18442656 18417674 18380754 18333172 18283374 
3454.198 18244224 18226496 18235412 18269018 18319204 18375320 18429714 
3457.573 18478672 18523240 18569208 18620648 18682312 18755370 18838672 
3460.949 18930008 19026256 19121836 19209662 19279854 19322174 19328120 
3464.324 19295582 19229202 19141756 19049990 18970300 18914784 18890076 
3467.699 18897704 18936172 19006650 19110334 19249440 19421672 19615756 
3471.074 19813180 19988888 20116166 20177956 20169914 20103552 20003118 
3474.450 19899164 19821548 19793150 19826700 19925614 20083864 20290046 
3477.825 20528316 20779422 21020586 21230874 21391902 21493576 21536558 
3481.200 21532054 21498882 21458446 21429116 21423068 21444882 21494684 
3484.575 21570262 21669524 21792720 21938340 22104644 22285310 22471794 
3487.951 22654366 22825974 22982982 23127954 23264526 23397860 23530768 
3491.326 23663020 23793906 23923312 24053586 24189434 24334974 24491746 
3494.701 24655632 24816642 24962518 25080656 25165738 25218332 25246788 
3498.076 25262406 25274962 25289292 25303030 25310644 25303872 25279878 
3501.452 25241014 25196360 25159130 25141472 25151540 25190172 25251600 
3504.827 25323672 25394230 25452640 25493470 25516588 25526712 25529514 
3508.202 25527822 25521164 25503984 25467164 25402314 25304216 25174758 
3511.577 25024104 24868568 24726616 24615622 24546246 24521458 24536890 
3514.953 24581322 24639734 24696034 24734706 24740108 24701338 24609254 
3518.328 24462544 24268548 24043958 23811410 23597308 23422026 23295760 
3521.703 23215310 23162332 23112892 23043056 22937776 22797506 22637896 
3525.078 22483830 22362800 22294026 22283440 22320874 22384760 22447004 
3528.454 22483884 22479006 22428560 22340486 22229366 22112176 22003620 
3531.829 21912374 21841172 21788708 21752026 21727800 21715680 21716508 
3535.204 21730516 21757482 21791700 21826048 21849114 21851140 21825700 
3538.579 21770646 21688818 21588778 21479318 21369480 21265806 21170912 
3541.955 21086828 21014142 20954410 20912756 20892390 20898448 20931650 
3545.330 20989386 21062748 21140296 21208576 21256742 21277740 21273008 
3548.705 21250030 21222040 21204176 21209558 21245954 21312420 21399784 
3552.080 21492190 21572332 21625280 21642542 21624458 21579626 21521042 
3555.456 21462326 21415540 21387856 21382038 21397600 21432296 21483852 
3558.831 21549532 21624206 21701168 21770622 21820710 21839940 21821476 
3562.206 21762666 21666614 21541814 21399030 21248200 21099258 20960228 
3565.581 20836740 20735736 20661662 20619302 20607234 20619966 20645634 
3568.957 20667362 20667036 20630030 20548308 20424126 20269114 20102562 
3572.332 19947614 19825132 19752264 19737420 19781222 19876378 20011046 
3575.707 20170836 20342092 20511374 20668224 20802908 20907478 20974466 
3579.082 20999770 20979998 20916946 20816002 20684738 20532292 20368390 
3582.458 20200020 20034744 19879302 19742714 19636046 19571692 19558446 
3585.833 19599094 19684394 19794034 19898292 19965020 19968786 19896804 
3589.208 19755310 19565620 19358318 19167606 19020106 18929548 18896794 
3592.583 18912702 18959102 19017084 19068332 19100308 19105042 19080350 
3595.958 19029722 18962198 18888144 18820226 18767250 18732720 18715080 
3599.334 18706484 18698610 18685904 18665588 18641040 18616848 18596394 
3602.709 18578588 18558364 18529556 18488536 18438442 18390752 18361182 
3606.084 18365450 18410706 18493458 18596558 18697516 18773578 18810938 
3609.459 18808244 18776382 18734944 18705364 18703018 18737242 18807332 
3612.835 18908820 19032150 19168612 19309848 19448468 19578282 19694916 
3616.210 19796060 19882188 19955234 20018470 20072980 20117308 20150594 
3619.585 20171986 20187794 20209800 20254906 20338674 20468908 20639314 
3622.960 20827906 21001240 21125962 21178308 21153858 21071214 20964080 
3626.336 20872998 20832424 20861010 20960006 21115684 21307000 21513016 
3629.711 21718868 21914068 22092266 22246004 22366110 22444024 22475570 
3633.086 22464268 22424512 22376806 22344600 22344876 22385712 22464196 
3636.461 22569464 22688580 22810672 22928522 23040298 23144522 23240218 
3639.837 23326394 23401090 23465770 23525694 23589184 23665802 23760696 
3643.212 23872164 23991754 24103910 24193784 24249960 24268500 24253310 
3646.587 24215298 24166844 24120466 24087330 24076524 24095414 24151146 
3649.962 24248268 24387182 24561522 24757922 24956120 25134350 25271942 
3653.338 25353744 25372834 25330912 25235212 25098400 24932892 24752838 
3656.713 24570426 24396964 24242550 24116288 24025072 23973348 23960994 
3660.088 23984218 24033552 24095210 24152578 24189018 24191090 24150784 
3663.463 24069178 23956874 23829756 23707914 23608238 23540586 23504604 
3666.839 23491050 23483778 23465164 23419404 23337868 23218442 23065560 
3670.214 22888480 22699526 22511282 22334124 22174202 22033626 21907706 
3673.589 21788792 21667888 21538936 21402310 21267142 21147374 21057086 
3676.964 21001706 20975082 20954742 20911800 20816492 20650896 20415008 
3680.340 20127232 19818932 19523828 19267462 19061440 18901574 18775878 
3683.715 18669672 18574062 18485100 18404154 18330224 18257640 18177504 
3687.090 18082768 17971214 17853458 17750386 17686834 17680124 17734232 
3690.465 17833230 17947844 18042332 18086746 18066592 17983822 17854632 
3693.841 17702776 17552252 17422374 17328112 17280244 17286708 17353466 
3697.216 17477454 17646818 17834826 18006796 18124036 18156898 18091816 
3700.591 17938072 17723306 17488174 17271368 17102264 16994012 16943152 
3703.966 16936056 16954262 16981404 17007062 17025530 17036184 17039144 
3707.342 17035154 17025822 17011400 16994860 16980054 16971954 16975524 
3710.717 16993636 17026412 17070630 17117722 17158606 17182224 17179976 
3714.092 17148378 17089408 17010522 16922040 16835156 16757088 16691076 
3717.467 16636992 16596336 16572228 16574001 16614249 16703939 16846844 
3720.843 17035022 17248562 17459322 17637992 17762982 17824650 17825960 
3724.218 17777744 17695328 17592060 17479914 17370612 17276266 17211482 
3727.593 17188242 17212564 17276966 17361992 17439554 17485156 17487168 
3730.968 17454814 17418704 17417958 17487082 17636744 17853364 18095586 
3734.344 18312756 18459796 18512876 18473200 18364530 18220408 18070750 
3737.719 17932462 17808928 17694884 17585584 17481390 17388326 17315912 
3741.094 17268158 17242446 17229380 17218692 17205872 17197058 17205416 
3744.469 17245244 17321578 17422142 17518094 17570284 17541928 17412286 
3747.844 17181604 16877110 16544357 16238315 16011544 15903687 15936224 
3751.220 16110349 16408710 16798636 17236504 17673842 18063250 18367936 
3754.595 18567194 18660560 18663834 18606316 18519076 18428922 18349828 
3757.970 18284318 18226344 18168740 18107340 18046682 17994828 17962366 
3761.345 17955848 17973776 18006956 18042040 18065404 18066586 18042292 
3764.721 17994030 17926462 17845762 17757602 17664630 17567980 17469164 
3768.096 17369828 17271604 17177906 17092264 17018976 16962582 16930920 
3771.471 16931064 16972626 17063578 17208496 17406784 17647990 17915716 
3774.846 18184186 18425694 18613270 18725742 18753196 18696856 18571256 
3778.222 18396644 18197196 17993414 17798596 17618690 17450782 17290952 
3781.597 17133754 16977922 16826250 16685436 16564859 16475033 16425712 
3784.972 16424261 16473729 16572628 16710840 16869762 17023796 17146302 
3788.347 17214564 17217898 17163126 17072946 16982238 16925520 16930720 
3791.723 17007886 17149568 17333330 17530112 17711344 17856800 17952486 
3795.098 17993662 17977640 17903640 17774690 17599054 17393638 17184126 
3798.473 17002180 16877936 16832008 16869502 16977990 17131558 17298412 
3801.848 17450810 17570924 17655668 17711530 17750590 17782012 17810134 
3805.224 17831634 17838994 17823660 17781808 17715214 17633684 17552140 
3808.599 17488298 17457862 17469896 17526706 17621560 17739416 17862154 
3811.974 17972936 18059998 18121670 18162922 18194472 18224502 18257092 
3815.349 18287260 18302612 18289070 18236020 18139866 18006864 17847630 
3818.725 17674938 17499030 17325648 17157610 16999400 16858682 16747361 
3822.100 16678352 16660241 16692540 16763233 16853142 16939754 17007696 
3825.475 17051202 17078192 17103402 17143348 17206880 17293882 17394366 
3828.850 17493854 17577990 17638932 17674888 17689168 17685494 17665910 
3832.226 17630276 17579622 17518174 17457482 17411284 17391392 17402436 
3835.601 17435444 17470000 17478878 17438936 17340658 17194696 17030722 
3838.976 16890108 16812816 16825336 16934132 17124084 17364778 17618682 
3842.351 17850042 18033742 18156102 18215288 18216026 18167570 18080988 
3845.727 17967206 17838336 17706870 17586714 17490496 17427496 17403270 
3849.102 17417304 17462788 17528398 17600724 17665208 17710234 17725864 
3852.477 17708736 17661668 17594208 17519894 17453690 17408256 17390554 
3855.852 17401636 17434024 17476874 17518574 17550732 17571010 17582898 
3859.228 17595816 17619984 17663544 17729608 17814050 17905628 17989216 
3862.603 18049932 18075472 18060520 18006998 17923702 17823954 17722888 
3865.978 17632806 17561608 17512012 17480922 17462770 17452384 17444716 
3869.353 17439248 17436760 17439316 17448876 17464918 17485758 17509068 
3872.729 17534842 17563480 17599774 17647624 17710532 17787730 17873388 
3876.104 17956474 18024656 18067020 18076924 18053846 18003362 17934026 
3879.479 17855452 17774136 17693324 17612624 17531126 17448836 17369516 
3882.854 17297980 17243064 17210754 17205742 17225820 17265152 17313468 
3886.229 17360106 17395176 17414772 17421094 17422738 17433096 17467154 
3889.605 17537420 17648992 17797850 17966956 18130904 18260498 18330158 
3892.980 18324084 18241986 18098582 17921772 17744412 17598196 17505036 
3896.355 17474856 17505194 17582120 17688036 17801688 17905710 17985740 
3899.730 18033800 18046478 18027678 17987452 17940030 17903442 17892846 
3903.106 17915576 17970466 18042754 18110750 18148950 18138242 18069588 
3906.481 17949120 17796844 17640748 17509880 17427786 17407036 17447788 
3909.856 17538022 17658522 17787180 17902518 17987766 18031772 18031110 
3913.231 17989438 17915648 17821924 17721630 17626558 17545232 17480142 
3916.607 17432082 17397518 17373038 17355638 17342166 17332234 17325312 
3919.982 17323638 17331938 17357164 17409438 17497962 17628392 17796562 
3923.357 17986460 18169458 18309684 18371476 18329826 18180232 17941614 
3926.732 17655390 17375974 17159368 17051050 17073520 17224864 17478450 
3930.108 17791608 18115432 18404106 18625214 18763552 18820652 18811762 
3933.483 18759518 18687762 18614932 18551184 18497442 18447902 18394530 
3936.858 18330862 18256234 18177642 18107336 18061020 18051754 18088392 
3940.233 18168978 18283498 18413232 18534822 18623572 18659000 18630242 
3943.609 18538342 18397690 18233896 18079722 17966074 17915030 17932680 
3946.984 18007418 18113770 18220018 18297870 18331580 18321912 18283678 
3950.359 18238552 18205322 18193256 18198914 18211064 18216724 18210474 
3953.734 18196810 18191878 18213958 18276176 18381460 18516454 18658380 
3957.110 18781794 18864022 18894692 18874188 18813096 18724538 18622040 
3960.485 18517000 18419900 18342548 18298478 18301768 18362516 18481682 
3963.860 18648410 18838564 19021084 19164740 19245326 19252718 19191266 
3967.235 19079298 18941392 18804526 18693692 18625638 18610354 18647316 
3970.611 18726446 18829010 18929738 19003222 19029748 19002910 18930414 
3973.986 18834606 18743842 18682744 18662240 18674762 18698198 18702730 
3977.361 18665168 18578306 18455060 18324594 18222086 18175924 18196782 
3980.736 18275496 18389022 18508316 18609910 18683388 18730208 18760360 
3984.112 18783314 18800668 18807214 18792672 18750886 18684260 18606808 
3987.487 18540686 18510076 18529676 18600312 18707842 18826628 18930614 
3990.862 19000410 19029576 19025192 19004488 18987122 18989816 19021540 
3994.237 19082976 19170386 19275892 19392140 19512438 19629022 19733454 
3997.613 19817418 19871394 19889466 19870690 19820544 19749746 19672632 
##END=
