##TITLE=3D-Fillies_PLA+_Blue_Filament_r7_ATR-Corrected
##JCAMP-DX=5.01  $$ Nicolet v. 1
##DATATYPE=INFRARED SPECTRUM
##ORIGIN=Curtin University
##OWNER=Nicolet
##LONGDATE=2024/07/18
##TIME=10:05:24
##SPECTROMETER/DATA SYSTEM=Nicolet iS50
##DATA PROCESSING=
Ratio against background
%Transmittance->Absorbance
ATR Correction
Truncated
ElementMultiply or ElementDivide
##COMMENTS=
Number of sample scans: 32
Collection length: 47.28 sec
Sample gain: 1.0
Background collected on: Thu Jul 18 10:03:33 2024 (GMT+08:00);
Number of background scans: 32
Background gain: 1.0
Sample spacing:  1.000
Number of scan points: 16672
Resolution points: 8192
Number of FFT points: 65536
Apodization: N-B strong;
Phase correction: Mertz;
Laser frequency: 15798.3 cm-1
Number of rejected sample scans: 0
Number of rejected background scans: 0
Bench serial number: AUP1200105;
##RESOLUTION=4.000
##XUNITS=1/CM
##YUNITS=ABSORBANCE
##FIRSTX=400.163452
##LASTX=4000.187744
##FIRSTY=0.064152
##MAXX=4000.187744
##MINX=400.163452
##MAXY=1.193359
##MINY=-0.012337
##XFACTOR=1.000000
##YFACTOR=1.000000E-008
##NPOINTS=7468
##DELTAX=0.482125
##ZPD=8192
##XYDATA=(X++(Y..Y))
400.163 6415220 6237976 6066147 5915995 5795766 5706438 5641209 5587488 
404.020 5530590 5457586 5360576 5238460 5096701 4945390 4796267 4660010 
407.877 4543917 4451086 4380532 4328182 4288345 4254953 4222587 4187098 
411.734 4146000 4098791 4047191 3995181 3948439 3913071 3893727 3891773 
415.591 3904053 3923044 3938464 3940190 3921126 3879279 3818133 3745075 
419.448 3668614 3595398 3528401 3466887 3408045 3349369 3290493 3233917 
423.305 3183940 3144819 3118630 3104224 3097455 3092730 3084942 3071132 
427.162 3050944 3026112 2999290 2973044 2949356 2929855 2916262 2910662 
431.019 2915031 2930328 2955285 2985949 3016066 3038470 3047158 3039056 
434.876 3014966 2979047 2937314 2895726 2858556 2827717 2802921 2782563 
438.733 2764598 2747241 2729254 2710059 2689762 2669373 2650936 2637434 
442.590 2632127 2637529 2654022 2679086 2707382 2731954 2746351 2746752 
446.447 2733443 2710805 2685916 2666168 2656705 2658859 2669862 2684088 
450.304 2695058 2697553 2688995 2669905 2643348 2613823 2586046 2563963 
454.161 2550070 2545172 2548276 2556742 2566584 2573046 2571457 2558334 
458.017 2532336 2494851 2449848 2403030 2360510 2327374 2306615 2298605 
461.874 2301226 2310503 2321603 2329493 2330837 2323764 2308517 2287379 
465.731 2264193 2243391 2228844 2222679 2224525 2231447 2238605 2240632 
469.588 2233111 2213894 2183632 2145615 2104781 2066411 2034856 2012656 
473.445 2000275 1996335 1998139 2002350 2005565 2004798 1997885 1983878 
477.302 1963308 1938236 1911930 1888230 1870600 1861192 1860322 1866393 
481.159 1876452 1887058 1895242 1899212 1898573 1894046 1886909 1878401 
485.016 1869291 1859823 1849824 1839003 1827113 1814035 1799660 1783837 
488.873 1766365 1747164 1726546 1705406 1685290 1668101 1655674 1649199 
492.730 1648791 1653391 1661002 1669042 1675595 1679317 1679931 1678045 
496.587 1674829 1671515 1669031 1667894 1668267 1670249 1674055 1680125 
500.444 1688965 1700895 1715681 1732374 1749321 1764423 1775548 1780943 
504.301 1779600 1771341 1756840 1737461 1715051 1691751 1669811 1651316 
508.158 1637964 1630771 1629837 1634334 1642614 1652613 1662317 1670214 
512.015 1675551 1678255 1678668 1677166 1673858 1668532 1660818 1650522 
515.871 1637911 1623796 1609314 1595519 1582944 1571350 1559786 1547001 
519.728 1531986 1514516 1495316 1475977 1458469 1444609 1435503 1431355 
523.585 1431490 1434593 1439078 1443155 1445508 1444897 1440413 1431568 
527.442 1418492 1402045 1383841 1366022 1350825 1340023 1334399 1333470 
531.299 1335567 1338237 1338942 1335784 1328061 1316476 1302939 1290040 
535.156 1280244 1275217 1275294 1279372 1285283 1290394 1292445 1290196 
539.013 1283822 1274768 1265256 1257510 1252985 1251887 1253147 1254804 
542.870 1254740 1251438 1244504 1234804 1224137 1214602 1207858 1204589 
546.727 1204338 1205710 1206919 1206466 1203667 1198938 1193650 1189685 
550.584 1188755 1191795 1198553 1207650 1216904 1224065 1227510 1226752 
554.441 1222557 1216583 1210776 1206575 1204720 1204876 1206135 1207588 
558.298 1208974 1211007 1215250 1223634 1237688 1257957 1283645 1312812 
562.155 1342831 1370960 1394889 1413003 1424374 1428662 1426046 1417230 
566.012 1403539 1387016 1370247 1356010 1346732 1343866 1347611 1356911 
569.869 1369861 1384355 1398677 1411871 1423650 1434141 1443453 1451420 
573.725 1457631 1461724 1463782 1464601 1465608 1468492 1474561 1484204 
577.582 1496566 1509753 1521374 1529332 1532530 1531273 1527234 1523014 
581.439 1521434 1524790 1534264 1549700 1569680 1591943 1613904 1633232 
585.296 1648288 1658374 1663724 1665352 1664710 1663335 1662563 1663270 
589.153 1665874 1670297 1676146 1682804 1689558 1695739 1700808 1704486 
593.010 1706784 1708056 1708973 1710372 1713076 1717708 1724563 1733507 
596.867 1744064 1755541 1767106 1777950 1787362 1794770 1799747 1802084 
600.724 1801842 1799408 1795516 1791215 1787689 1786166 1787683 1792969 
604.581 1802333 1815630 1832230 1851112 1870956 1890308 1907886 1922825 
608.438 1934951 1944840 1953739 1963224 1974773 1989343 2007139 2027651 
612.295 2049930 2072990 2096220 2119508 2143247 2168016 2194268 2222090 
616.152 2251094 2280548 2309602 2337508 2363786 2388232 2410871 2431888 
620.009 2451568 2470304 2488569 2506819 2525378 2544259 2563050 2580992 
623.866 2597263 2611290 2623122 2633544 2643921 2655740 2670087 2687201 
627.723 2706389 2726333 2745609 2763343 2779594 2795337 2812040 2831044 
631.579 2852889 2877047 2902006 2925863 2946977 2964635 2979320 2992523 
635.436 3006257 3022308 3041686 3064302 3089089 3114361 3138417 3159960 
639.293 3178434 3193984 3207248 3219021 3229982 3240525 3250773 3260773 
643.150 3270669 3280900 3292209 3305512 3321651 3341070 3363566 3388208 
647.007 3413419 3437316 3458079 3474471 3486060 3493408 3497962 3501677 
650.864 3506660 3514647 3526705 3543065 3563157 3585863 3609787 3633622 
654.721 3656364 3677418 3696642 3714168 3730344 3745556 3760236 3774746 
658.578 3789448 3804690 3820746 3837774 3855787 3874608 3893892 3913245 
662.435 3932256 3950619 3968161 3984878 4000897 4016489 4032004 4047882 
666.292 4064555 4082342 4101340 4121288 4141611 4161489 4180144 4197121 
670.149 4212467 4226791 4241012 4255957 4272002 4288789 4305313 4320311 
674.006 4332850 4342808 4351099 4359459 4369879 4383860 4401847 4423052 
677.863 4445733 4467869 4487886 4505269 4520487 4534801 4549581 4565648 
681.720 4582948 4600500 4616816 4630420 4640366 4646530 4649593 4650845 
685.577 4651826 4654030 4658705 4666694 4678379 4693653 4711923 4732147 
689.433 4753052 4773371 4792166 4809010 4824143 4838315 4852482 4867506 
693.290 4883857 4901489 4919878 4938268 4955842 4971968 4986271 4998702 
697.147 5009536 5019302 5028758 5038740 5050011 5062980 5077502 5092766 
701.004 5107367 5119663 5128205 5132150 5131583 5127466 5121330 5114783 
704.861 5109047 5104597 5101132 5097815 5093628 5087739 5079739 5069673 
708.718 5057877 5044738 5030437 5014854 4997429 4977344 4953680 4925621 
712.575 4892673 4854802 4812501 4766723 4718625 4669311 4619417 4568894 
716.432 4516880 4461878 4402104 4335968 4262545 4181837 4094844 4003358 
720.289 3909570 3815672 3723435 3633996 3547798 3464662 3384034 3305345 
724.146 3228351 3153470 3081989 3016101 2958637 2912648 2880779 2864697 
728.003 2864699 2879598 2907031 2943980 2987540 3035564 3087170 3142888 
731.860 3204449 3274281 3354884 3448137 3554818 3674344 3804810 3943286 
735.717 4086309 4230392 4372494 4510298 4642276 4767672 4886337 4998573 
739.574 5105041 5206715 5304795 5400602 5495450 5590357 5685851 5781844 
743.431 5877690 5972363 6064759 6154054 6239839 6322289 6402071 6480253 
747.287 6558163 6637280 6719092 6804993 6895991 6992520 7094161 7199573 
751.144 7306543 7412375 7514269 7609728 7696787 7773974 7840071 7893794 
755.001 7933651 7957956 7965132 7954117 7924653 7877387 7813640 7735041 
758.858 7643100 7538969 7423533 7297626 7162390 7019460 6870896 6718923 
762.715 6565531 6412188 6259750 6108672 5959278 5812046 5667708 5527123 
766.572 5390994 5259543 5132428 5008859 4887958 4769173 4652578 4538945 
770.429 4429529 4325621 4228122 4137133 4051991 3971292 3893317 3816430 
774.286 3739491 3662058 3584474 3507651 3432835 3361186 3293481 3229780 
778.143 3169448 3111126 3053086 2993530 2930962 2864476 2793918 2719918 
782.000 2643714 2566996 2491601 2419203 2351060 2287763 2229084 2174059 
785.857 2121169 2068734 2015385 1960468 1904268 1847935 1793132 1741559 
789.714 1694429 1652165 1614362 1580005 1547894 1517011 1486803 1457206 
793.571 1428537 1401257 1375753 1352248 1330749 1311160 1293342 1277153 
797.428 1262488 1249224 1237225 1226360 1216532 1207713 1199908 1193150 
801.285 1187472 1182822 1179108 1176164 1173958 1172429 1171545 1171208 
805.141 1171256 1171427 1171421 1170958 1169869 1168073 1165545 1162259 
808.998 1158128 1153081 1147196 1140840 1134753 1130014 1127758 1128880 
812.855 1133728 1141979 1152719 1164758 1176956 1188518 1199078 1208547 
816.712 1216875 1223879 1229131 1232187 1232821 1231305 1228462 1225497 
820.569 1223651 1223793 1226160 1230321 1235458 1240640 1245228 1249016 
824.426 1252217 1255295 1258819 1263285 1269113 1276638 1286067 1297330 
828.283 1309942 1322824 1334447 1343132 1347605 1347602 1344170 1339685 
832.140 1337323 1340216 1350653 1369412 1395767 1427728 1462799 1498720 
835.997 1534023 1568213 1601680 1635298 1670144 1707199 1747362 1791418 
839.854 1840113 1894093 1953777 2019196 2089907 2164959 2243029 2322563 
843.711 2401916 2479381 2553257 2621830 2683618 2737505 2783145 2821114 
847.568 2852945 2880836 2907175 2934113 2963187 2995364 3031356 3072138 
851.425 3119431 3175865 3244825 3329881 3434095 3559452 3706510 3874523 
855.282 4061801 4266216 4485623 4717983 4961361 5213591 5472110 5733828 
859.139 5995233 6252625 6502519 6741842 6968170 7179638 7374930 7553103 
862.995 7713552 7856004 7980507 8087488 8177608 8251689 8310420 8354226 
866.852 8383134 8396894 8395145 8377718 8344859 8297288 8236085 8162293 
870.709 8076598 7978944 7868432 7743503 7602439 7444030 7268115 7076040 
874.566 6870663 6655957 6436409 6216158 5998398 5784987 5576452 5372409 
878.423 5172110 4975101 4781603 4592680 4410024 4235636 4071406 3918754 
882.280 3778635 3651563 3537902 3438019 3352417 3281593 3225895 3185201 
886.137 3158850 3145504 3143303 3150060 3163486 3181387 3201799 3223048 
889.994 3243860 3263311 3280943 3296745 3311096 3324586 3337797 3351054 
893.851 3364182 3376449 3386757 3393773 3396479 3394375 3387805 3377892 
897.708 3366335 3355037 3345664 3339189 3335732 3334515 3334092 3332723 
901.565 3328889 3321657 3310934 3297514 3282879 3268863 3257183 3249137 
905.422 3245372 3245818 3249849 3256505 3264778 3273781 3282845 3291534 
909.279 3299551 3306646 3312560 3317032 3319819 3320829 3320143 3318041 
913.136 3314961 3311354 3307637 3304066 3300756 3297670 3294744 3291919 
916.993 3289182 3286511 3283769 3280580 3276315 3270102 3260984 3248233 
920.849 3231514 3211077 3187754 3162814 3137702 3113694 3091742 3072347 
924.706 3055632 3041443 3029479 3019365 3010652 3002734 2994846 2986075 
928.563 2975621 2962898 2947856 2931001 2913427 2896490 2881602 2869828 
932.420 2861769 2857427 2856289 2857502 2860053 2862925 2865220 2866281 
936.277 2865790 2863789 2860781 2857677 2855661 2856011 2859825 2867839 
940.134 2880300 2896933 2917114 2940022 2964856 2990956 3017917 3045536 
943.991 3073805 3102882 3133042 3164670 3198278 3234440 3273745 3316704 
947.848 3363619 3414511 3469099 3526753 3586615 3647709 3709079 3769884 
951.705 3829470 3887317 3942941 3995649 4044440 4087863 4124025 4150784 
955.562 4165934 4167476 4153864 4124108 4077795 4015101 3936774 3844165 
959.419 3739265 3624744 3503828 3380164 3257415 3138912 3027332 2924449 
963.276 2831221 2747885 2674262 2609981 2554597 2507688 2468767 2437278 
967.133 2412616 2394166 2381358 2373707 2370710 2371811 2376269 2383234 
970.990 2391841 2401389 2411544 2422315 2434001 2446900 2461162 2476635 
974.847 2492991 2509997 2527698 2546634 2567655 2591595 2618871 2649173 
978.703 2681449 2714215 2746025 2776052 2804252 2831364 2858513 2886663 
982.560 2916359 2947466 2979511 3011947 3044544 3077488 3111292 3146455 
986.417 3183227 3221430 3260611 3300353 3340417 3380990 3422548 3465516 
990.274 3510005 3555599 3601530 3647037 3691733 3736015 3780973 3828185 
994.131 3879254 3935284 3996694 4063188 4133991 4208221 4285157 4364367 
997.988 4445711 4529175 4614839 4702786 4793202 4886326 4982540 5082250 
1001.845 5185785 5293357 5405066 5521040 5641655 5767563 5899779 6039419 
1005.702 6187512 6344723 6511317 6687250 6872430 7066995 7271474 7486711 
1009.559 7713677 7953147 8205562 8470988 8749358 9040711 9345511 9664655 
1013.416 9999304 10350480 10718691 11103559 11503860 11917660 12342635 
1016.791 12776509 13217320 13663514 14113936 14567745 15024102 15482163 
1020.166 15940943 16399200 16855360 17307590 17753862 18192252 18621252 
1023.540 19040268 19449796 19851650 20248748 20644786 21043854 21449966 
1026.916 21866784 22297570 22745126 23211922 23700138 24211784 24748654 
1030.291 25312352 25904300 26525564 27176786 27857894 28567802 29304146 
1033.666 30063090 30839416 31626764 32418048 33205902 33982964 34742060 
1037.041 35476204 36178516 36842268 37460992 38028624 38539756 38989648 
1040.417 39374308 39690584 39936188 40109936 40212108 40244652 40211184 
1043.792 40116648 39966840 39767652 39524728 39243240 38927968 38583620 
1047.167 38215024 37827132 37424944 37013256 36596472 36178608 35763308 
1050.542 35354008 34953916 34565844 34191920 33833320 33490104 33161398 
1053.917 32845762 32541796 32248602 31966150 31695506 31438812 31199210 
1057.293 30980834 30788816 30629310 30509306 30436436 30418608 30463498 
1060.668 30578208 30768988 31041086 31398686 31844804 32381246 33008304 
1064.043 33724668 34527332 35411804 36372544 37403464 38498604 39652508 
1067.418 40860320 42117684 43420388 44764096 46144120 47555576 48993504 
1070.794 50453140 51930052 53420340 54920584 56427980 57940364 59456324 
1074.169 60974868 62494892 64014392 65529604 67034512 68520944 69979296 
1077.544 71399456 72772000 74088392 75340736 76521048 77620504 78629288 
1080.919 79537072 80334208 81012560 81565944 81989760 82280080 82433136 
1084.295 82445432 82315168 82043776 81637264 81106472 80465960 79731976 
1087.670 78920136 78043976 77114128 76138864 75124928 74078408 73005392 
1091.045 71912208 70805304 69691208 68576240 67466096 66365528 65277708 
1094.420 64203788 63142876 62092424 61049264 60010640 58975184 57943220 
1097.796 56916476 55897208 54887324 53887696 52898140 51917852 50946204 
1101.171 49983188 49029736 48087508 47158508 46244644 45347632 44469120 
1104.546 43611028 42775856 41966724 41187228 40441040 39731580 39061756 
1107.921 38433892 37849780 37310772 36817816 36371316 35971092 35616376 
1111.297 35305892 35038116 34811448 34624480 34475856 34364216 34287912 
1114.672 34244864 34232484 34248032 34288844 34352712 34438192 34544656 
1118.047 34672208 34821572 34993884 35190512 35412876 35662140 35938916 
1121.422 36242732 36571684 36922176 37288896 37665032 38042628 38413052 
1124.798 38767280 39096160 39390624 39641984 39842336 39985140 40065728 
1128.173 40081604 40032272 39918892 39743584 39508744 39216592 38869016 
1131.548 38467656 38013888 37508860 36953484 36348248 35693356 34989024 
1134.923 34235900 33435556 32590860 31705934 30785844 29836306 28863186 
1138.299 27872456 26870170 25862620 24856382 23858196 22874604 21911490 
1141.674 20973796 20065382 19189276 18347998 17543952 16779648 16057709 
1145.049 15380619 14750315 14167906 13633467 13146096 12704097 12305216 
1148.424 11946911 11626510 11341327 11088737 10866341 10672014 10504051 
1151.800 10361173 10242379 10146803 10073433 10020998 9987996 9972849 
1155.175 9974225 9991284 10023852 10072292 10137321 10219712 10320010 
1158.550 10438540 10575397 10730755 10905009 11098959 11313847 11551326 
1161.925 11813360 12102273 12420765 12772058 13159977 13588938 14063820 
1165.301 14589772 15172037 15815842 16526429 17309170 18169768 19114318 
1168.676 20149334 21281500 22517512 23863634 25325448 26907530 28613186 
1172.051 30444076 32399660 34476692 36668592 38964768 41350164 43804780 
1175.426 46303608 48816540 51308756 53741408 56072832 58260340 60262204 
1178.802 62039912 63560336 64797508 65734220 66363160 66687476 66720588 
1182.177 66485024 66010152 65329264 64476740 63485576 62386060 61205364 
1185.552 59967844 58695440 57407940 56123008 54855584 53617652 52417940 
1188.927 51262164 50153600 49093832 48083420 47122600 46211376 45349708 
1192.302 44537304 43773488 43057172 42386888 41760772 41176840 40633088 
1195.678 40127736 39659260 39226476 38828388 38464096 38132488 37832160 
1199.053 37561212 37317372 37098148 36901100 36723952 36564608 36421060 
1202.428 36291136 36172272 36061516 35955648 35851540 35746448 35638128 
1205.803 35524792 35404824 35276352 35136996 34983800 34813484 34622892 
1209.179 34409512 34171692 33908792 33620992 33309004 32973808 32616534 
1212.554 32238388 31840798 31425312 30993656 30547538 30088610 29618322 
1215.929 29138166 28649610 28154362 27654374 27151852 26648990 26147896 
1219.304 25650340 25157720 24671040 24191048 23718300 23253318 22796628 
1222.680 22348800 21910452 21482184 21064488 20657786 20262266 19878012 
1226.055 19504992 19143208 18792732 18453858 18126904 17812208 17509904 
1229.430 17219846 16941570 16674431 16417779 16171283 15934873 15708771 
1232.805 15493217 15288246 15093374 14907646 14729762 14558518 14393091 
1236.181 14233381 14079943 13933779 13795902 13666897 13546607 13434142 
1239.556 13328014 13226725 13129041 13034439 12943140 12855956 12773955 
1242.931 12698099 12628882 12566222 12509495 12457784 12410171 12366076 
1246.306 12325389 12288558 12256356 12229720 12209391 12195749 12188692 
1249.682 12187767 12192314 12201751 12215687 12234043 12256909 12284476 
1253.057 12316795 12353747 12395073 12440479 12489834 12543267 12601128 
1256.432 12663884 12731874 12805147 12883256 12965354 13050281 13136713 
1259.807 13223404 13309239 13393243 13474572 13552482 13626304 13695455 
1263.183 13759451 13817900 13870385 13916455 13955523 13986874 14009801 
1266.558 14023669 14028060 14022711 14007454 13981971 13945726 13897841 
1269.933 13837236 13762878 13673991 13570337 13452214 13320269 13175294 
1273.308 13017987 12848765 12667830 12475315 12271515 12057095 11833096 
1276.684 11600899 11361965 11117786 10869563 10618339 10364985 10110331 
1280.059 9855276 9600772 9347812 9097363 8850314 8607528 8369952 8138689 
1283.916 7915207 7701277 7498872 7310067 7136730 6980377 6842048 6722399 
1287.774 6621679 6539923 6476928 6432278 6405284 6394917 6399841 6418506 
1291.631 6449293 6490704 6541362 6600114 6665769 6737087 6812559 6890391 
1295.489 6968657 7045422 7119043 7188307 7252486 7311370 7364958 7413441 
1299.346 7457018 7495866 7530178 7560275 7586668 7610003 7630975 7650149 
1303.203 7667821 7683892 7697900 7709224 7717237 7721594 7722322 7719891 
1307.061 7715098 7708888 7702175 7695651 7689692 7684368 7679447 7674537 
1310.918 7669169 7662904 7655399 7646555 7636461 7625496 7614241 7603466 
1314.776 7593899 7586207 7580742 7577549 7576296 7576404 7577193 7578088 
1318.633 7578754 7579231 7579854 7581215 7583840 7588108 7594025 7601256 
1322.490 7609141 7617024 7624397 7631176 7637828 7645372 7655072 7668349 
1326.348 7686328 7709693 7738553 7772579 7811182 7853815 7900221 7950590 
1330.205 8005482 8065711 8132027 8204759 8283826 8368557 8457941 8550850 
1334.063 8646366 8743932 8843461 8945244 9049777 9157592 9269101 9384474 
1337.920 9503777 9626948 9753954 9884914 10020030 10159753 10304587 10455180 
1341.778 10612109 10775861 10946701 11124571 11309040 11499394 11694605 
1345.153 11893678 12095791 12300520 12507947 12718634 12933429 13153078 
1348.528 13377996 13607921 13841777 14077745 14313382 14546028 14772926 
1351.903 14991631 15200025 15396413 15579428 15748031 15901455 16039126 
1355.279 16160619 16265629 16353831 16424908 16478546 16514646 16533586 
1358.654 16536479 16525297 16502763 16471951 16435868 16396914 16356602 
1362.029 16315576 16273870 16231175 16187194 16141580 16093783 16042693 
1365.404 15986335 15921822 15845600 15753910 15643448 15511917 15358339 
1368.780 15183294 14989011 14779238 14559405 14336579 14119469 13918217 
1372.155 13743989 13608314 13522309 13495748 13536273 13648583 13833921 
1375.530 14089717 14409494 14782979 15196614 15634339 16078687 16512148 
1378.905 16918406 17283534 17596462 17849030 18035470 18151816 18195468 
1382.281 18165018 18060498 17883602 17637930 17328856 16963150 16548507 
1385.656 16093050 15604892 15091760 14560725 14017920 13468315 12915711 
1389.031 12362798 11811553 11263564 10720474 10184161 9656829 9140856 
1392.406 8638716 8152826 7685560 7239309 6816438 6419340 6050164 5710642 
1396.264 5401734 5123434 4874692 4653432 4456845 4281713 4124860 3983523 
1400.121 3855555 3739565 3634650 3540206 3455577 3379875 3311967 3250535 
1403.979 3194442 3142802 3095237 3051715 3012399 2977383 2946472 2919165 
1407.836 2894688 2872186 2850928 2830421 2810411 2790897 2772021 2754020 
1411.693 2737189 2721946 2708810 2698338 2690988 2686913 2685968 2687549 
1415.551 2690797 2694792 2698785 2702362 2705539 2708659 2712295 2717045 
1419.408 2723429 2731863 2742718 2756256 2772739 2792362 2815210 2841174 
1423.266 2870007 2901312 2934831 2970508 3008608 3049787 3094924 3144955 
1427.123 3200680 3262567 3330750 3405082 3485249 3570993 3662186 3758908 
1430.980 3861356 3969855 4084849 4207004 4337363 4477595 4629979 4797459 
1434.838 4983381 5191188 5424070 5684850 5975894 6299378 6657567 7052969 
1438.695 7488179 7965591 8486746 9051790 9659086 10305165 10984956 11692135 
1442.553 12419437 13158895 13901886 14639375 15362172 16061530 16729553 
1445.928 17359694 17946782 18486890 18977148 19415542 19801020 20133616 
1449.303 20414502 20645746 20829956 20969616 21066688 21122306 21136846 
1452.678 21110142 21041624 20930346 20775116 20574496 20327150 20032370 
1456.054 19690738 19304338 18876792 18412552 17916150 17391526 16841878 
1459.429 16270010 15678975 15072507 14455214 13832228 13208613 12588967 
1462.804 11977138 11376335 10789485 10219464 9669048 9140687 8636164 8156407 
1466.662 7701584 7271407 6865579 6483979 6126724 5793786 5484807 5198630 
1470.519 4933477 4687104 4457226 4242002 4040147 3851086 3674769 3511410 
1474.376 3361270 3224496 3101041 2990579 2892431 2805571 2728619 2659993 
1478.234 2598119 2541607 2489490 2441130 2396151 2354232 2314975 2277822 
1482.091 2242228 2207764 2174420 2142546 2112841 2086072 2062894 2043514 
1485.949 2027699 2014895 2004327 1995293 1987226 1979790 1972756 1965978 
1489.806 1959267 1952399 1945110 1937186 1928447 1918905 1908563 1897639 
1493.664 1886426 1875344 1864904 1855646 1848021 1842262 1838316 1835821 
1497.521 1834156 1832608 1830496 1827331 1822850 1817063 1810128 1802351 
1501.378 1794119 1785796 1777734 1770235 1763500 1757647 1752707 1748670 
1505.236 1745501 1743171 1741694 1741052 1741173 1741843 1742718 1743403 
1509.093 1743499 1742761 1741047 1738442 1735126 1731309 1727175 1722870 
1512.951 1718520 1714306 1710523 1707432 1705281 1704103 1703645 1703378 
1516.808 1702651 1700896 1697824 1693584 1688675 1683733 1679298 1675558 
1520.666 1672245 1668743 1664329 1658521 1651297 1643155 1634981 1627730 
1524.523 1622059 1618150 1615549 1613412 1610750 1606791 1601206 1594244 
1528.380 1586552 1578985 1572250 1566705 1562298 1558605 1555081 1551181 
1532.238 1546639 1541450 1535847 1530189 1524788 1519846 1515417 1511385 
1536.095 1507612 1503867 1499964 1495651 1490690 1484939 1478288 1470810 
1539.953 1462722 1454380 1446164 1438413 1431300 1424914 1419303 1414591 
1543.810 1411042 1409011 1408928 1411030 1415226 1420953 1427284 1433024 
1547.667 1437064 1438617 1437377 1433662 1428244 1422200 1416566 1412152 
1551.525 1409305 1407915 1407455 1407077 1405948 1403351 1398949 1392872 
1555.382 1385639 1378092 1371109 1365433 1361444 1359085 1357941 1357408 
1559.240 1356889 1356022 1354812 1353553 1352736 1352774 1353894 1355986 
1563.097 1358613 1361141 1362814 1363049 1361538 1358385 1354061 1349332 
1566.955 1345039 1341910 1340341 1340313 1341388 1342876 1344037 1344323 
1570.812 1343525 1341824 1339687 1337723 1336459 1336215 1337066 1338896 
1574.669 1341354 1344091 1346728 1348945 1350541 1351502 1351958 1352249 
1578.527 1352742 1353817 1355666 1358232 1361194 1364131 1366643 1368583 
1582.384 1370123 1371739 1373945 1377125 1381336 1386305 1391529 1396537 
1586.242 1401145 1405509 1410005 1414997 1420567 1426372 1431686 1435685 
1590.099 1437788 1437939 1436717 1435166 1434485 1435685 1439288 1445309 
1593.957 1453323 1462719 1472747 1482848 1492502 1501281 1508850 1515034 
1597.814 1519864 1523716 1527181 1531038 1535878 1542022 1549341 1557365 
1601.671 1565453 1573075 1580034 1586454 1592747 1599366 1606701 1614928 
1605.529 1624060 1634036 1644864 1656501 1668954 1682082 1695580 1709039 
1609.386 1722116 1734720 1747153 1760094 1774430 1790896 1809772 1830704 
1613.244 1852691 1874346 1894157 1910862 1923659 1932355 1937236 1939058 
1617.101 1938832 1937675 1936643 1936735 1938663 1942815 1949204 1957429 
1620.958 1966765 1976212 1984841 1991835 1996741 1999503 2000424 2000054 
1624.816 1998998 1997818 1996870 1996276 1995920 1995519 1994723 1993195 
1628.673 1990743 1987335 1983075 1978224 1973020 1967758 1962676 1958042 
1632.531 1954144 1951362 1950063 1950516 1952667 1956161 1960147 1963516 
1636.388 1965037 1963692 1958945 1950787 1939903 1927390 1914537 1902672 
1640.246 1892794 1885491 1880719 1877993 1876399 1874922 1872661 1869085 
1644.103 1864114 1858268 1852352 1847350 1844102 1843120 1844505 1848025 
1647.960 1853272 1859795 1867181 1875103 1883171 1890885 1897660 1902877 
1651.818 1906125 1907362 1907063 1906056 1905323 1905665 1907448 1910622 
1655.675 1914846 1919783 1925331 1931728 1939478 1949106 1960814 1974309 
1659.533 1988758 2002975 2015748 2026147 2033790 2038900 2042183 2044640 
1663.390 2047308 2051089 2056607 2064224 2073997 2085753 2099098 2113465 
1667.248 2128245 2142867 2156957 2170335 2183141 2195654 2208147 2220786 
1671.105 2233537 2246199 2258533 2270465 2282130 2293911 2306382 2320076 
1674.962 2335316 2352178 2370430 2389741 2409791 2430495 2451952 2474422 
1678.820 2498103 2522984 2548666 2574480 2599544 2623054 2644434 2663584 
1682.677 2680817 2696848 2712572 2728940 2746716 2766443 2788367 2812526 
1686.535 2838844 2867196 2897425 2929410 2963012 2998132 3034613 3072387 
1690.392 3111322 3151323 3192279 3234141 3276981 3321037 3366817 3415031 
1694.250 3466508 3521990 3581918 3646237 3714363 3785370 3858255 3932236 
1698.107 4007079 4083025 4160799 4241314 4325465 4413884 4506917 4604701 
1701.964 4707342 4814977 4927927 5046692 5171825 5303841 5443165 5590179 
1705.822 5745103 5908251 6079816 6259931 6448686 6646048 6852054 7066808 
1709.679 7290639 7524124 7767996 8022962 8289578 8568050 8858214 9159587 
1713.537 9471460 9793070 10123617 10462312 10808307 11160740 11518812 
1716.912 11881845 12249513 12621830 12999307 13382663 13772875 14170951 
1720.287 14577974 14995153 15423901 15866198 16324617 16802578 17304326 
1723.662 17834830 18399578 19004288 19654390 20354980 21110468 21924802 
1727.038 22801612 23744518 24757348 25844086 27008998 28256402 29590816 
1730.413 31017402 32542524 34174128 35921888 37796240 39806692 41959684 
1733.788 44256720 46693928 49263196 51954932 54761172 57677716 60704072 
1737.163 63841320 67088372 70438536 73877016 77381296 80923048 84471544 
1740.539 87995944 91466296 94852984 98125568 101252640 104203424 106949832 
1743.914 109468344 111739584 113746440 115471336 116895400 118000760 
1746.807 118775080 119216552 119335864 119154392 118698656 117994448 
1749.700 117062856 115920056 114580144 113058368 111373056 109544192 
1752.593 107590520 105526112 103359280 101094184 98734496 96287224 93765064 
1755.968 91186040 88571088 85940600 83311616 80696776 78105120 75543832 
1759.344 73019928 70541408 68117112 65756144 63466836 61256196 59129564 
1762.719 57090600 55141360 53282256 51511932 49827380 48224104 46696796 
1766.094 45240216 43849904 42522708 41256680 40050588 38903172 37812328 
1769.469 36774796 35786148 34841136 33934180 33059824 32213012 31389066 
1772.844 30583594 29792368 29011378 28237030 27466350 26697290 25928936 
1776.220 25161198 24394678 23629934 22867198 22105950 21345248 20584110 
1779.595 19822250 19060744 18302224 17550660 16810792 16087058 15383108 
1782.970 14701194 14042410 13407114 12795553 12208155 11645831 11109652 
1786.345 10600600 10119174 9665205 9238002 8836501 8459675 8106613 7776793 
1790.203 7469843 7185537 6923320 6682150 6460319 6255504 6065169 5886848 
1794.060 5718747 5560035 5410911 5272224 5144952 5029470 4925078 4829824 
1797.918 4740905 4655229 4570272 4484714 4398563 4312979 4229831 4150790 
1801.775 4077125 4009262 3947008 3889755 3836777 3787369 3740922 3696830 
1805.633 3654518 3613336 3572780 3532487 3492300 3452257 3412451 3372883 
1809.490 3333614 3294675 3256242 3218701 3182464 3147775 3114402 3081543 
1813.347 3047913 3012119 2973245 2931293 2887520 2844241 2804225 2769987 
1817.205 2743101 2723622 2710272 2700758 2692381 2682828 2670407 2654370 
1821.062 2634784 2612436 2588628 2564940 2542924 2523760 2507878 2494721 
1824.920 2482833 2470017 2454101 2433400 2407303 2376353 2342086 2306295 
1828.777 2270695 2236283 2203357 2171650 2140586 2109668 2078690 2047645 
1832.635 2016740 1986272 1956623 1928350 1902134 1878751 1858762 1842278 
1836.492 1828671 1816598 1804314 1790051 1772576 1751521 1727378 1701167 
1840.349 1674149 1647306 1621268 1596345 1572799 1551096 1532021 1516420 
1844.207 1504793 1497159 1492748 1490204 1488063 1485124 1480948 1475754 
1848.064 1470326 1465445 1461448 1458010 1454090 1448282 1439237 1426155 
1851.922 1409259 1389504 1368569 1348335 1330349 1315325 1303087 1292462 
1855.779 1281646 1268689 1252147 1231400 1207100 1181026 1155784 1134185 
1859.636 1118453 1109889 1108276 1112158 1119188 1126778 1132802 1136056 
1863.494 1136500 1134853 1132334 1129932 1128005 1126228 1123767 1119761 
1867.351 1113903 1106568 1098884 1092277 1087838 1085953 1086000 1086632 
1871.209 1086271 1083760 1078948 1072442 1065524 1059471 1055057 1052227 
1875.066 1050345 1048494 1046031 1042887 1039394 1036196 1033689 1031711 
1878.924 1029668 1026748 1022338 1016393 1009448 1002525 996691 992862 
1882.781 991639 993099 997207 1003668 1011726 1020143 1026946 1029784 
1886.638 1026452 1015660 997717 974786 950325 928282 911805 902268 899262 
1890.978 900764 904416 908290 911622 914562 917859 921957 926851 931932 
1895.318 936704 941319 946783 954519 965789 980617 997569 1013749 1026110 
1899.657 1032164 1031132 1023857 1012389 998749 984199 968783 951830 932762 
1903.997 912036 891445 873745 861749 857258 860487 870224 884406 901134 
1908.336 919082 937555 955765 972446 985225 991252 988003 974575 952304 
1912.676 924684 896373 871991 854441 844492 841166 842282 845733 850083 
1917.016 854629 858990 862738 865061 865131 862745 858772 855227 854490 
1921.355 858171 865714 873906 877434 870384 848339 810574 760675 706362 
1925.695 657369 623044 609528 618403 646093 685097 725910 759675 779750 
1930.034 783353 771560 748440 719672 690888 666036 646961 632922 622028 
1934.374 611736 600744 589250 579541 574770 578318 591964 615669 646976 
1938.714 681749 715121 742590 760403 766451 759944 742134 715921 686674 
1943.053 661172 647319 651925 679010 727069 789030 853072 905565 934841 
1947.393 935379 909552 867596 824081 793788 786303 803731 840406 885705 
1951.732 928075 959535 977121 982907 980615 972802 957878 931108 885867 
1956.072 818508 730276 629981 531713 452187 405863 401307 439344 513955 
1960.412 613755 725789 836870 935137 1009647 1052213 1058103 1028874 972971 
1964.751 906167 846775 811753 810459 841673 893684 949213 990950 1008463 
1969.091 1000432 974027 940027 907727 880306 855605 826696 787975 736935 
1973.430 676754 613680 556100 511760 489350 497595 548339 653495 821075 
1977.770 1047469 1314654 1590001 1834893 2014068 2106319 2107047 2029033 
1981.627 1895595 1733683 1566379 1409002 1267630 1143373 1035191 944340 
1985.485 874445 831130 817450 832809 870498 919990 968741 1006008 1024439 
1989.824 1021645 999462 963992 923085 885398 858182 845535 846826 857184 
1994.164 868696 874988 873877 871390 879737 914533 987116 1099111 1237985 
1998.504 1379664 1494530 1557593 1556201 1494081 1388616 1263830 1140743 
2002.361 1031774 937605 852951 772123 696700 636882 608676 625782 691896 
2006.701 794646 909042 1005419 1059913 1061690 1015558 936027 841319 745084 
2011.040 654883 571923 496443 431393 384370 365569 385452 449347 556098 
2015.380 697425 860905 1030238 1189052 1319293 1403697 1425602 1373204 
2019.237 1242430 1040941 788516 515386 255888 43106 -99710 -159328 -134667 
2023.577 -33013 132392 344973 585216 831855 1062358 1256925 1400489 1487920 
2027.917 1524074 1523151 1503462 1482511 1471866 1475115 1488603 1505016 
2031.774 1516173 1516354 1503108 1477772 1443363 1405712 1371318 1347143 
2035.631 1338718 1346939 1367252 1389273 1398682 1382146 1331693 1247981 
2039.489 1139876 1022485 911267 817994 747965 700874 672902 660281 660184 
2043.828 670287 686014 699422 699723 677592 630074 565358 502659 467380 
2048.168 481107 552640 671507 811227 937955 1023259 1052149 1027336 965047 
2052.508 889219 822304 779536 765214 774031 794846 815991 829485 832568 
2056.847 826084 813200 796082 776509 755233 733999 715355 702793 698994 
2061.187 705304 720624 742781 769495 799933 834806 875840 923180 974289 
2065.526 1022778 1059705 1076042 1065605 1027516 967010 893925 820209 756918 
2069.866 711765 687949 684569 697481 721347 750499 780456 807720 830629 
2074.206 848871 863433 875561 886820 897711 907760 915388 918765 916112 
2078.545 907323 893556 877906 864360 857428 860996 877669 907932 949723 
2082.885 997950 1044996 1081174 1096975 1084938 1042427 972760 885586 794885 
2087.224 715817 660447 634908 637180 658262 684493 701664 698845 670895 
2091.564 619577 552518 480911 417068 371436 351078 358293 390784 442116 
2095.904 503470 565223 619246 660110 685903 698138 700786 698634 695934 
2100.243 695512 698316 703766 710818 717959 723980 727602 727340 721239 
2104.583 707728 686033 657237 624923 594657 573091 566175 577437 607247 
2108.922 652280 706990 764577 819072 865929 902898 929401 946229 954607 
2113.262 956311 952962 946682 939437 932819 927253 921650 912957 896730 
2117.602 868146 823624 762144 686579 603132 520867 449234 396248 366250 
2121.941 359211 370596 393020 417997 438282 449217 449496 440201 423933 
2126.281 402567 376327 343044 298767 238845 159920 61365 -53694 -178470 
2130.620 -302775 -414424 -500999 -551510 -558264 -518678 -436417 -321816 
2134.478 -190924 -63223 42022 109450 131241 107983 48585 -32874 -120929 
2138.817 -202838 -270734 -323430 -363964 -397847 -429267 -460289 -488942 
2142.675 -511993 -526259 -531667 -531554 -532535 -541827 -565191 -603629 
2146.532 -654196 -709572 -761779 -804040 -832565 -846250 -846172 -832455 
2150.390 -805218 -763365 -707901 -643323 -579875 -532124 -516735 -546460 
2154.247 -626221 -748978 -897044 -1044074 -1162679 -1229713 -1233734 
2157.622 -1176344 -1073734 -950259 -833464 -746707 -703327 -705459 -746192 
2161.480 -811870 -884819 -946659 -980902 -975106 -925251 -835014 -717390 
2165.337 -590256 -473067 -381903 -326853 -311003 -331651 -382286 -455488 
2169.195 -543365 -638296 -732405 -817592 -885461 -929711 -946662 -937280 
2173.052 -906131 -861529 -812415 -767999 -734962 -717958 -718124 -734105 
2176.909 -760701 -789598 -809185 -806738 -770999 -696161 -583641 -444423 
2180.767 -295691 -158153 -48903 21483 53284 54417 37723 15234 -5023 -20493 
2185.589 -32797 -44852 -58221 -71825 -81480 -82425 -69518 -39982 7087 69665 
2190.410 143970 223634 300478 364055 403809 410837 380600 315130 223913 
2194.750 122439 29075 -39741 -72489 -66411 -26654 35386 105266 168865 216160 
2199.572 242425 249436 243935 236714 238835 259727 303616 368395 444893 
2203.911 519950 578616 609270 605705 569041 506445 429018 347583 271566 
2208.251 206934 157869 126991 117387 131468 170121 230136 304475 381707 
2212.591 449570 498125 523139 527111 518698 509175 508931 523857 554551 
2216.930 596392 642595 685998 721737 747088 762124 768117 767283 762102 
2221.270 755450 749679 746666 745767 744325 737114 718853 685613 638247 
2225.609 582464 529083 490159 476546 493324 539310 606726 684258 760099 
2229.949 825033 873826 905442 921572 925197 919327 907136 891745 877418 
2234.289 868577 869593 882635 907182 938741 970383 994028 1003426 995446 
2238.628 971339 935985 896240 858605 827737 805288 790538 781257 775501 
2242.968 772072 771377 774150 780868 790468 800344 806863 806961 799508 
2247.307 786491 772614 764003 765811 780367 805595 836007 863988 883024 
2251.647 889552 884441 872100 858806 849875 848053 852876 861696 871463 
2255.987 880571 889269 899360 911796 925863 937769 941838 932517 906981 
2260.326 866450 816885 767143 726478 701839 696507 709487 737374 775715 
2264.666 821109 871471 926086 984174 1044128 1102738 1155820 1198759 1228180 
2269.005 1242114 1240824 1226352 1202196 1172782 1143197 1118725 1104305 
2272.863 1103336 1117129 1143717 1178330 1214100 1243613 1261089 1263564 
2276.720 1251883 1230228 1204956 1183117 1170746 1172033 1188615 1219691 
2280.578 1261970 1310664 1359731 1403161 1435931 1455069 1460405 1454624 
2284.435 1442197 1428507 1417932 1413115 1414319 1420313 1428984 1438614 
2288.292 1448179 1457356 1465753 1472352 1475011 1470946 1457358 1432820 
2292.150 1397741 1354828 1308359 1263063 1222961 1190676 1167020 1151630 
2296.007 1143407 1141176 1143918 1150765 1160518 1171672 1182430 1191189 
2299.865 1196960 1199957 1201266 1202714 1205914 1211695 1219594 1228170 
2303.722 1235188 1238824 1238001 1233126 1225743 1218366 1213708 1213985 
2307.580 1220484 1233187 1250784 1271102 1291410 1309171 1322637 1331347 
2311.437 1336002 1338509 1340969 1345202 1351907 1360542 1369725 1377840 
2315.294 1383859 1388099 1391920 1397417 1406411 1419616 1436450 1455570 
2319.152 1475715 1497011 1521238 1551556 1590894 1640153 1696295 1752177 
2323.009 1797496 1821295 1815048 1775114 1703798 1608773 1501275 1393386 
2326.867 1295587 1214752 1153294 1109605 1079478 1057988 1041103 1026717 
2330.724 1014441 1005219 1000161 999720 1003314 1009697 1017168 1024347 
2334.582 1030223 1034453 1037098 1038375 1038348 1037052 1034379 1030148 
2338.439 1024279 1016772 1007744 997523 986656 976147 967091 960718 958002 
2342.779 959304 964133 971332 979178 986101 991066 993938 995414 996671 
2347.118 998839 1002587 1007813 1013781 1019373 1023624 1025761 1025617 
2350.976 1023294 1019050 1013183 1006015 997908 989499 981560 974948 970178 
2355.315 967178 965130 962538 957580 948774 935431 918064 898147 877980 
2359.655 859946 846032 837238 833616 834125 837025 840132 841503 839512 
2363.994 833405 823332 810452 796589 784050 774832 770439 771260 776760 
2368.334 785473 795757 805998 815286 823336 830551 837587 844974 852817 
2372.674 860711 867729 872910 875332 874692 871275 865959 860102 855155 
2377.013 852224 851904 854103 858249 863589 869552 876193 884110 894226 
2381.353 907269 923289 941356 959681 976111 988866 997249 1001735 1003900 
2385.692 1005436 1007507 1009971 1011612 1010515 1005262 995652 983451 
2389.550 971685 964016 963363 970962 985891 1005549 1026388 1045028 1058961 
2393.889 1066939 1068588 1064266 1054539 1040318 1022831 1004080 986528 
2397.747 972917 965582 965672 972862 985345 1000347 1015157 1027668 1036835 
2402.086 1042638 1045661 1046643 1046145 1044569 1042365 1040127 1038814 
2405.944 1039345 1042283 1047510 1054149 1060839 1066203 1069246 1069751 
2409.801 1067875 1064031 1058330 1050601 1040488 1027943 1013579 998896 
2413.659 985920 976461 971585 970971 973176 975956 977218 975667 971164 
2417.998 964542 957092 949907 943601 938329 934033 930861 929298 930074 
2422.338 933830 940649 949813 960115 970033 978602 985504 991322 996908 
2426.677 1003006 1009652 1016195 1021092 1022847 1020327 1013345 1002630 
2430.535 989765 976661 965155 956646 951818 950729 952886 957380 963194 
2434.875 969271 974886 979551 983191 986001 988291 990452 992776 995549 
2439.214 999124 1003866 1010162 1018019 1026877 1035330 1041450 1043053 
2443.072 1038706 1028136 1012813 995549 979760 968489 963233 963758 968235 
2447.411 974007 978709 981292 982043 982465 984494 989596 998249 1009628 
2451.751 1022038 1033281 1041263 1044373 1041853 1033568 1020469 1004114 
2455.608 986950 971540 960224 954359 953881 957149 961521 964085 962744 
2459.948 956831 947322 936123 925447 916694 910200 905416 901692 898889 
2464.287 898035 900920 909573 924772 945823 969765 992418 1009257 1016868 
2468.627 1013764 1000815 980547 956608 932492 911105 894189 882570 876201 
2472.967 874530 876617 881507 888209 895964 904392 913338 922767 932432 
2477.306 941514 948894 953271 953962 951429 947428 944686 945973 952899 
2481.646 965204 980453 995013 1005295 1009286 1007521 1003039 1000284 
2485.503 1003387 1014672 1033723 1057444 1081179 1100115 1110715 1111255 
2489.361 1102096 1084668 1061129 1033436 1003673 973907 946512 924269 909844 
2493.700 905196 910846 925743 947193 971727 995841 1016789 1033029 1044232 
2498.040 1050860 1053955 1054643 1054052 1053285 1053313 1054947 1058514 
2501.897 1063707 1069279 1073497 1074507 1070869 1062101 1049174 1033873 
2505.755 1018693 1005764 996545 991195 988896 988088 987263 985481 982600 
2510.094 979340 976951 976635 979224 984551 991788 999221 1004960 1007347 
2514.434 1005463 999324 990062 979385 969546 962362 959096 960029 964548 
2518.773 971409 979115 986328 992482 997392 1001764 1006526 1012622 1020677 
2523.113 1030762 1042413 1054770 1066779 1077602 1086639 1093701 1098856 
2526.970 1102465 1104841 1106186 1106430 1105507 1102925 1098343 1091338 
2530.828 1081883 1070080 1056690 1042712 1029661 1018938 1011667 1008377 
2534.685 1008603 1011151 1014387 1016633 1017055 1015543 1013140 1011142 
2538.543 1010902 1012749 1016058 1019283 1020504 1018336 1012614 1004537 
2542.400 996440 990873 989931 994260 1003108 1014453 1025922 1035354 1041537 
2546.740 1044059 1043286 1039734 1033744 1025374 1014606 1001780 987869 
2550.597 974389 963489 957062 956458 961979 973049 988272 1006047 1024942 
2554.937 1043899 1062157 1079081 1093894 1105505 1112739 1114550 1110488 
2558.794 1101116 1088084 1074125 1062336 1055676 1056252 1064676 1079825 
2562.652 1099105 1118971 1135690 1146375 1149621 1145758 1136802 1125567 
2566.509 1115076 1107460 1103673 1103313 1105154 1107716 1110065 1111882 
2570.366 1113733 1116532 1121138 1127838 1136435 1146018 1155725 1164722 
2574.224 1172628 1179278 1184733 1188922 1191457 1191904 1189806 1184927 
2578.081 1177587 1168285 1157935 1147229 1136899 1127507 1119703 1114331 
2581.939 1112535 1115231 1123063 1135662 1151658 1168665 1184028 1195443 
2585.796 1201779 1203501 1202331 1200684 1200942 1204286 1210579 1218410 
2589.654 1225775 1230853 1232800 1232006 1229804 1227923 1227908 1230421 
2593.511 1235385 1242036 1249715 1257989 1267145 1277740 1290072 1303663 
2597.368 1316982 1327433 1332043 1328448 1315694 1294868 1269020 1242471 
2601.226 1219795 1204408 1197843 1199434 1206708 1216278 1225138 1231341 
2605.083 1234719 1236378 1238231 1241848 1247876 1255689 1263846 1270494 
2608.941 1274488 1275747 1275353 1275151 1276944 1281800 1289449 1298459 
2612.798 1306781 1312234 1313484 1310326 1303653 1295217 1287041 1280923 
2616.656 1278125 1279299 1284455 1293088 1304296 1316825 1329246 1340136 
2620.513 1348456 1353660 1356098 1356734 1356975 1358174 1361186 1366170 
2624.370 1372607 1379576 1386265 1392103 1397036 1401283 1405154 1408681 
2628.228 1411893 1414383 1416063 1417002 1417676 1418783 1420844 1424035 
2632.085 1428066 1432038 1435029 1436123 1434910 1431407 1426083 1419589 
2635.943 1412837 1406604 1401634 1398706 1398387 1400873 1405890 1412548 
2639.800 1419562 1425569 1429666 1431823 1432971 1434695 1438716 1446055 
2643.657 1456511 1468551 1479700 1487356 1489562 1485704 1476658 1464437 
2647.515 1451645 1440493 1432474 1427963 1426508 1427007 1428387 1429749 
2651.372 1430641 1430830 1430378 1429321 1427730 1425532 1422702 1419256 
2655.230 1415283 1410998 1406710 1402715 1399254 1396353 1393772 1390940 
2659.087 1387090 1381269 1372779 1361378 1347343 1331530 1315169 1299321 
2662.945 1284755 1271506 1259074 1246586 1233166 1218440 1202622 1186550 
2666.802 1171528 1158680 1148935 1142536 1139233 1138376 1139118 1140735 
2670.659 1142684 1144579 1146207 1147424 1148195 1148483 1148448 1148324 
2674.517 1148388 1148756 1149438 1150155 1150461 1149853 1148000 1144873 
2678.374 1140796 1136421 1132493 1129595 1128103 1127938 1128778 1129959 
2682.232 1130997 1131470 1131278 1130484 1129296 1127873 1126117 1123786 
2686.089 1120474 1115877 1109965 1103027 1095898 1089647 1085374 1083958 
2689.947 1085754 1090447 1097167 1104529 1111119 1115713 1117633 1116887 
2693.804 1114159 1110753 1108077 1107329 1109249 1113704 1119775 1125912 
2697.661 1130527 1132254 1130624 1125986 1119423 1112416 1106175 1101214 
2701.519 1097291 1093538 1088961 1083009 1075826 1068378 1062113 1058233 
2705.376 1057318 1059044 1062219 1065250 1066779 1066073 1063320 1059280 
2709.234 1055031 1051459 1048983 1047511 1046773 1046533 1046882 1048184 
2713.091 1050964 1055523 1061744 1068866 1075837 1081467 1084892 1085684 
2716.948 1084069 1080582 1075929 1070685 1065194 1059473 1053388 1046827 
2720.806 1039882 1032909 1026615 1021866 1019572 1020371 1024584 1031858 
2724.663 1041393 1051871 1061970 1070515 1076849 1081060 1083705 1085739 
2728.521 1088002 1091050 1095004 1099551 1104256 1108716 1112703 1116189 
2732.378 1119155 1121372 1122457 1121722 1118655 1112907 1104843 1095250 
2736.236 1085415 1076584 1069828 1065623 1063898 1064177 1065573 1067171 
2740.093 1068110 1067739 1065700 1061928 1056881 1051273 1046342 1043216 
2743.950 1042840 1045527 1050867 1057842 1065032 1071196 1075627 1078277 
2747.808 1079826 1081164 1083026 1085707 1088858 1091697 1093397 1093423 
2751.665 1091802 1089085 1086055 1083567 1081952 1081156 1080609 1079628 
2755.523 1077708 1074607 1070676 1066624 1063289 1061456 1061549 1063487 
2759.380 1066874 1070926 1074730 1077511 1078696 1078091 1075693 1071587 
2763.238 1065991 1058934 1050481 1040768 1030239 1019745 1010541 1004062 
2767.095 1001695 1004135 1011209 1021820 1033990 1045600 1054809 1060595 
2770.952 1062974 1062910 1061816 1061018 1061360 1062861 1064974 1066699 
2774.810 1067329 1066504 1064388 1061520 1058642 1056059 1053912 1051811 
2778.667 1049375 1046399 1043050 1040035 1038292 1038751 1041924 1047748 
2782.525 1055602 1064417 1073124 1080876 1087337 1092534 1096765 1100243 
2786.382 1103052 1104947 1105502 1104482 1101867 1098104 1093995 1090518 
2790.240 1088627 1088982 1091793 1096993 1104194 1112947 1122806 1133351 
2794.097 1144311 1155398 1166359 1177062 1187228 1196658 1205026 1211777 
2797.954 1216265 1217795 1215991 1210982 1203771 1196079 1190203 1188374 
2801.812 1192225 1202182 1217282 1235429 1253858 1269939 1281801 1288822 
2805.669 1291561 1291482 1290323 1289632 1290277 1292407 1295582 1299031 
2809.527 1302133 1304624 1306749 1309176 1312809 1318515 1326833 1337848 
2813.384 1351121 1365804 1380843 1395182 1408045 1418800 1427359 1433694 
2817.241 1438095 1440891 1442668 1444144 1446196 1449799 1455710 1464244 
2821.099 1475051 1487178 1499197 1509697 1517748 1523160 1526622 1529299 
2824.956 1532488 1537119 1543402 1550844 1558593 1565794 1571935 1577035 
2828.814 1581604 1586203 1591451 1597640 1604925 1613352 1623124 1634525 
2832.671 1647977 1663651 1681369 1700542 1720420 1740327 1760063 1780113 
2836.529 1801565 1825919 1854485 1888233 1927417 1971806 2020864 2074006 
2840.386 2130979 2191869 2257161 2327605 2404228 2488199 2580721 2683037 
2844.243 2796346 2921366 3058448 3207194 3366488 3534493 3708691 3885772 
2848.101 4061722 4231739 4390329 4531701 4650336 4741733 4803068 4833670 
2851.958 4834921 4809807 4762156 4695899 4614422 4520418 4416151 4303623 
2855.816 4184955 4062508 3938755 3815914 3695720 3579287 3467093 3359324 
2859.673 3256125 3157917 3065300 2979022 2899861 2828309 2764756 2709358 
2863.531 2662194 2623474 2593387 2571834 2558447 2552305 2552076 2556238 
2867.388 2563271 2572112 2582188 2593579 2606750 2622365 2641065 2663282 
2871.245 2689282 2719243 2753297 2791723 2834847 2882851 2935707 2992884 
2875.103 3053288 3115274 3176833 3235967 3290989 3340687 3384601 3422830 
2878.960 3455886 3484213 3508130 3527445 3541713 3550349 3553114 3550133 
2882.818 3542158 3530458 3516367 3500916 3484705 3467626 3449197 3429016 
2886.675 3407101 3384240 3362171 3342997 3328862 3321240 3320466 3325691 
2890.532 3335156 3346749 3358760 3370402 3381980 3394655 3410015 3429215 
2894.390 3452563 3479334 3507915 3536442 3563435 3588359 3611834 3635300 
2898.247 3660637 3689250 3721816 3757877 3796057 3834568 3871816 3906695 
2902.105 3938927 3968994 3997757 4026397 4056026 4087520 4121757 4159445 
2905.962 4201279 4247709 4299055 4355483 4416823 4483035 4554347 4631231 
2909.820 4714622 4805755 4905877 5016104 5137121 5269228 5412290 5565919 
2913.677 5729619 5902575 6083788 6271709 6464261 6658854 6852524 7042085 
2917.534 7224569 7397207 7557734 7704238 7835173 7949295 8045792 8124150 
2921.392 8184478 8227388 8254027 8265941 8264855 8252386 8230062 8199010 
2925.249 8160214 8114413 8062383 8005237 7944391 7881772 7819729 7760874 
2929.107 7707750 7662476 7626326 7599647 7581879 7571766 7567847 7568989 
2932.964 7574720 7585485 7602538 7627599 7662645 7709304 7768801 7841691 
2936.822 7928011 8027141 8137946 8258819 8387560 8521519 8657617 8792484 
2940.679 8922707 9045005 9156297 9253727 9334645 9396591 9437456 9455449 
2944.536 9449582 9419814 9367216 9293764 9202152 9095208 8975519 8844917 
2948.394 8704609 8555210 8397111 8230947 8058003 7880112 7699766 7519660 
2952.251 7342328 7169750 7003199 6843243 6689881 6542896 6402045 6267360 
2956.109 6139123 6017884 5904239 5798574 5700747 5610010 5525111 5444343 
2959.966 5366023 5288841 5212344 5136829 5063518 4993971 4929774 4871798 
2963.823 4820201 4774204 4732448 4693566 4656547 4621157 4587884 4557582 
2967.681 4531179 4508938 4490553 4474914 4460739 4446888 4432808 4418827 
2971.538 4406046 4395950 4390071 4389387 4394329 4404574 4419410 4438029 
2975.396 4459777 4484312 4511749 4542448 4576804 4615288 4658153 4705601 
2979.253 4757862 4815447 4879044 4949740 5029040 5118287 5219073 5332439 
2983.111 5459194 5599758 5754191 5922476 6104405 6299520 6506838 6724679 
2986.968 6950367 7180439 7410866 7637686 7857671 8068651 8269799 8461165 
2990.825 8643119 8815580 8977498 9126501 9259307 9372260 9462101 9526534 
2994.683 9564640 9577011 9565209 9531443 9478366 9408365 9323645 9226084 
2998.540 9117080 8997518 8867914 8728471 8579397 8421032 8254418 8081238 
3002.398 7903763 7724554 7546065 7370008 7197258 7027522 6859790 6692631 
3006.255 6524735 6355203 6183845 6011196 5838412 5666947 5498221 5333620 
3010.113 5173999 5019789 4871128 4727638 4589006 4454875 4325133 4199738 
3013.970 4078821 3962468 3850646 3743232 3640025 3540880 3445833 3355040 
3017.827 3268720 3187011 3109659 3036198 2965815 2897677 2831221 2766004 
3021.685 2701995 2639212 2577645 2517140 2457418 2398389 2340377 2284300 
3025.542 2231605 2183878 2142391 2107497 2078491 2053630 2030702 2007556 
3029.400 1982787 1955844 1927167 1897774 1868683 1840894 1814772 1790450 
3033.257 1767733 1746582 1726793 1708344 1691105 1674789 1659123 1643870 
3037.115 1629083 1615170 1602679 1592132 1583794 1577339 1571983 1566677 
3040.972 1560472 1552889 1544059 1534758 1526118 1519046 1514329 1511927 
3044.829 1511421 1511763 1511798 1510292 1506232 1498904 1487969 1473712 
3048.687 1457012 1439379 1422661 1408842 1399473 1395189 1395787 1399912 
3052.544 1405673 1410996 1414276 1414673 1412176 1407519 1401746 1395797 
3056.402 1390174 1384898 1379487 1373214 1365343 1355442 1343409 1329592 
3060.259 1314820 1300167 1286782 1275933 1268544 1265271 1266228 1271049 
3064.116 1278926 1288774 1299426 1309775 1318876 1325968 1330498 1332041 
3067.974 1330505 1325971 1318898 1310129 1300762 1292112 1285236 1280917 
3071.831 1279341 1280179 1282528 1285330 1287537 1288407 1287560 1285149 
3075.689 1281750 1277989 1274721 1272441 1271363 1271480 1272194 1272682 
3079.546 1272109 1269588 1264769 1257599 1248645 1239049 1230111 1223304 
3083.404 1219773 1220201 1224692 1232764 1243305 1254861 1265926 1275014 
3087.261 1280954 1283199 1281706 1277029 1270202 1262444 1254859 1248367 
3091.118 1243363 1239897 1237671 1236468 1236029 1236491 1238039 1240985 
3094.976 1245535 1251495 1258399 1265419 1271697 1276339 1278900 1279265 
3098.833 1277681 1274604 1270531 1265886 1260981 1255774 1250264 1244296 
3102.691 1237912 1231204 1224370 1217690 1211527 1206266 1202124 1199414 
3106.548 1198333 1198851 1200866 1203909 1207203 1209718 1210290 1207941 
3110.406 1202108 1193050 1181640 1169374 1157927 1148557 1141745 1137125 
3114.263 1133556 1129714 1124789 1118760 1112864 1109028 1109314 1115161 
3118.120 1126688 1142460 1160042 1176360 1188992 1196456 1198811 1197244 
3121.978 1193609 1189640 1186546 1184485 1183185 1181686 1179205 1175345 
3125.835 1170105 1163923 1157478 1151387 1146182 1142293 1139887 1138986 
3129.693 1139454 1140885 1142922 1144929 1146382 1147019 1146682 1145603 
3133.550 1144167 1142814 1142058 1142223 1143478 1145864 1149164 1152872 
3137.407 1156310 1158605 1158962 1156958 1152531 1146445 1139749 1133796 
3141.265 1129646 1127920 1128586 1131017 1134341 1137676 1140403 1142091 
3145.122 1142350 1140560 1135963 1127791 1115674 1100138 1082854 1066471 
3148.980 1054028 1048038 1049734 1058594 1072549 1088646 1103887 1116459 
3152.837 1125771 1132654 1138474 1144497 1151080 1157592 1162735 1165202 
3156.695 1164325 1160631 1155491 1150993 1148699 1149307 1152238 1155856 
3160.552 1158102 1157201 1152445 1144158 1133779 1123301 1114512 1108594 
3164.409 1105741 1105338 1106152 1106775 1106119 1103304 1098088 1090564 
3168.267 1081123 1070432 1059462 1049274 1041305 1036881 1037218 1043051 
3172.124 1054308 1069966 1088119 1106186 1121344 1131101 1133850 1129037 
3175.982 1117560 1101476 1083703 1067507 1055902 1051097 1054280 1065268 
3179.839 1082704 1104364 1127448 1149075 1166768 1178695 1183851 1182084 
3183.697 1174135 1161376 1145762 1129592 1115207 1104788 1099890 1101110 
3187.554 1107909 1118522 1130289 1140175 1145664 1145283 1139243 1129406 
3191.411 1118874 1111155 1109233 1114583 1126942 1144193 1163212 1180606 
3195.269 1193714 1201178 1203186 1201017 1196657 1191890 1188019 1185515 
3199.126 1184390 1184280 1184939 1186284 1188441 1191412 1194930 1198214 
3202.984 1200246 1199956 1196731 1190658 1182644 1174201 1167158 1162984 
3206.841 1162527 1165670 1171515 1178487 1184786 1188921 1189979 1187916 
3210.698 1183557 1178348 1174147 1172531 1174478 1179861 1187565 1195562 
3214.556 1201789 1204430 1202913 1197752 1190676 1183717 1178863 1177083 
3218.413 1178443 1182147 1187046 1192173 1196904 1201054 1204442 1206539 
3222.271 1206418 1202808 1194845 1182528 1167117 1150928 1136750 1126922 
3226.128 1122511 1123002 1126630 1131035 1134288 1135373 1134368 1132002 
3229.986 1129096 1125866 1121912 1116597 1109479 1101074 1092721 1086416 
3233.843 1083955 1086276 1092994 1102534 1112737 1121657 1128202 1132360 
3237.700 1134843 1136699 1138599 1140781 1142931 1144811 1146334 1147956 
3241.558 1150303 1154015 1159245 1165409 1171552 1176473 1179347 1180021 
3245.415 1178852 1176696 1174159 1171589 1168736 1164917 1159284 1151350 
3249.273 1140885 1128257 1114227 1099782 1085996 1073759 1063876 1056639 
3253.130 1052105 1049958 1049679 1050845 1053283 1057253 1063290 1071840 
3256.988 1083045 1096181 1109887 1122304 1131971 1138322 1141974 1144735 
3260.845 1148695 1155400 1164931 1175816 1185222 1190086 1188299 1179532 
3264.702 1165539 1149645 1135777 1127295 1126076 1132265 1144535 1160652 
3268.560 1178206 1195145 1209884 1221437 1229137 1232827 1232604 1229079 
3272.417 1223311 1216470 1209550 1202935 1196460 1189175 1180103 1168732 
3276.275 1155334 1141287 1128485 1119052 1114400 1114815 1119370 1126347 
3280.132 1133589 1139464 1142962 1144040 1143200 1141208 1138854 1136674 
3283.990 1135075 1134420 1135200 1137935 1142952 1150177 1158833 1167589 
3287.847 1174801 1179005 1179419 1176208 1170479 1163891 1158159 1154360 
3291.704 1152902 1153335 1154736 1156159 1156955 1156926 1156204 1155031 
3295.562 1153659 1152209 1150848 1149915 1150094 1152168 1156809 1164107 
3299.419 1173326 1182878 1190758 1195100 1194712 1189404 1179936 1167487 
3303.277 1153215 1137837 1121728 1105152 1088806 1074078 1062945 1057383 
3307.134 1058564 1066093 1077953 1090890 1101522 1107395 1107821 1104048 
3310.991 1098726 1094740 1094269 1098056 1105250 1113907 1121848 1127202 
3314.849 1128960 1126998 1121792 1114238 1105341 1096276 1088228 1082372 
3318.706 1079682 1080636 1085104 1092145 1100617 1109326 1117417 1124612 
3322.564 1130944 1136523 1141094 1143912 1144134 1141002 1134538 1125595 
3326.421 1115907 1107371 1101455 1098726 1098730 1100223 1101727 1102087 
3330.279 1100634 1097335 1092479 1086531 1080014 1073551 1068211 1065116 
3334.136 1065504 1070032 1078291 1088657 1098648 1105535 1107421 1104049 
3337.993 1096899 1088754 1082770 1081288 1085123 1093509 1104553 1116180 
3341.851 1126896 1136088 1143987 1150963 1157081 1161704 1163715 1162061 
3345.708 1156385 1147366 1136791 1127053 1120419 1118524 1121905 1129827 
3349.566 1140716 1152302 1162124 1167675 1167082 1159111 1143738 1122374 
3353.423 1097905 1074005 1054646 1042930 1040370 1046365 1058545 1073441 
3357.281 1087490 1098160 1104349 1106627 1106640 1106507 1108214 1112816 
3361.138 1120595 1131003 1142886 1154840 1165338 1173020 1176829 1176188 
3364.995 1170996 1161959 1150424 1138201 1127414 1119975 1117347 1120172 
3368.853 1127992 1139460 1152215 1163522 1170781 1172096 1166814 1155764 
3372.710 1140962 1125301 1111495 1101382 1095422 1092604 1091048 1088612 
3376.568 1083808 1076299 1066950 1057362 1049418 1044505 1043290 1045570 
3380.425 1050570 1057399 1065245 1073456 1081680 1089580 1096952 1103535 
3384.282 1109341 1114539 1119376 1124136 1128717 1132722 1135473 1136324 
3388.140 1135151 1132564 1129930 1128959 1131157 1137114 1146107 1156247 
3391.997 1164941 1169695 1168943 1162457 1151414 1137965 1124560 1113203 
3395.855 1105188 1100742 1099356 1100124 1102073 1104464 1106980 1109554 
3399.712 1112379 1115749 1119846 1124717 1130191 1135860 1141236 1145829 
3403.570 1149242 1151394 1152500 1152834 1152713 1152171 1151015 1148789 
3407.427 1145220 1140239 1134266 1128167 1123034 1119767 1118878 1120186 
3411.284 1122941 1126084 1128692 1130173 1130595 1130253 1129786 1129717 
3415.142 1130356 1131610 1133287 1134998 1136413 1137098 1136608 1134566 
3418.999 1130594 1124726 1117532 1110165 1104349 1101833 1103975 1111122 
3422.857 1122294 1135389 1147563 1155945 1158338 1154006 1143725 1129588 
3426.714 1114567 1101729 1093601 1091546 1095625 1104443 1115737 1126726 
3430.572 1134958 1138749 1137867 1133329 1127277 1122244 1120373 1122640 
3434.429 1128748 1137231 1145982 1153163 1157800 1160120 1161315 1162901 
3438.286 1165969 1170519 1175403 1178566 1177916 1172164 1161492 1147659 
3442.144 1133708 1123075 1118830 1122654 1134653 1153143 1175253 1197601 
3446.001 1217071 1231263 1239185 1241040 1238173 1232655 1226756 1222457 
3449.859 1220968 1222672 1227004 1232709 1238243 1242038 1243064 1240596 
3453.716 1234851 1226542 1217020 1207958 1201306 1198737 1201618 1210457 
3457.573 1224865 1243472 1264375 1285286 1304379 1320462 1333381 1343701 
3461.431 1352532 1360915 1369624 1378916 1388430 1397647 1406009 1413076 
3465.288 1418581 1422337 1424030 1423347 1420147 1414615 1407609 1400624 
3469.146 1395541 1394203 1397785 1406359 1418743 1432874 1446301 1457038 
3473.003 1464025 1467331 1468151 1468018 1468431 1470227 1473443 1477509 
3476.861 1481599 1485132 1487980 1490619 1493758 1498122 1504023 1511324 
3480.718 1519373 1527412 1534791 1541169 1546733 1551960 1557644 1564589 
3484.575 1573566 1585300 1600376 1619181 1641742 1667559 1695585 1724196 
3488.433 1751546 1776008 1796748 1813635 1827697 1840428 1853492 1868083 
3492.290 1884706 1903047 1922309 1941402 1959495 1975963 1990479 2002829 
3496.148 2012988 2021026 2027293 2032423 2037613 2043967 2052580 2063711 
3500.005 2077067 2091356 2105228 2117434 2127373 2135174 2141612 2147392 
3503.863 2152798 2157533 2160775 2161649 2159732 2155351 2149579 2143852 
3507.720 2139492 2137098 2136649 2137379 2138451 2139063 2138814 2137480 
3511.577 2134718 2129984 2122346 2110942 2095216 2075356 2052402 2027946 
3515.435 2003676 1980925 1960379 1942130 1926028 1911952 1900174 1891122 
3519.292 1885183 1882112 1880988 1880218 1877842 1872276 1862598 1848889 
3523.150 1831953 1813005 1793311 1773944 1755721 1739195 1724865 1713085 
3527.007 1703913 1696961 1691295 1685652 1678955 1670566 1660828 1650862 
3530.865 1642409 1637039 1635761 1638705 1645128 1653600 1662737 1671155 
3534.722 1677907 1682387 1684133 1682941 1678621 1671268 1661329 1649316 
3538.579 1636020 1622093 1608010 1594055 1580417 1567334 1555243 1544467 
3542.437 1535347 1527660 1520825 1513941 1506416 1498046 1489686 1482807 
3546.294 1479177 1480150 1486189 1496704 1510109 1524550 1538321 1550313 
3550.152 1559839 1566516 1569819 1568985 1563159 1551898 1535700 1516159 
3554.009 1496115 1478672 1466851 1462495 1466178 1477083 1493394 1512817 
3557.866 1533058 1552127 1568548 1581293 1589979 1594557 1595774 1594619 
3561.724 1592236 1589482 1586835 1584152 1580787 1576134 1569964 1562517 
3565.581 1554626 1547210 1541022 1536205 1532581 1529553 1526631 1523673 
3569.439 1521037 1519211 1518724 1519813 1522301 1525852 1530158 1534836 
3573.296 1539527 1543573 1546054 1545497 1540525 1530323 1515226 1496884 
3577.154 1478192 1462417 1452490 1450137 1455575 1467707 1484716 1504535 
3581.011 1525464 1545982 1564674 1579812 1589499 1591644 1584816 1568714 
3584.868 1544464 1514718 1483182 1453671 1429698 1413626 1406487 1407948 
3588.726 1416308 1428763 1441894 1451932 1455634 1450905 1437528 1417111 
3592.583 1393040 1369099 1348733 1333781 1324267 1318463 1314207 1309601 
3596.441 1304178 1298885 1295754 1296745 1303002 1314142 1328341 1342942 
3600.298 1355273 1363289 1366047 1363714 1357360 1348367 1338277 1328449 
3604.156 1320137 1314135 1310926 1310535 1312831 1317212 1323354 1331125 
3608.013 1340538 1351666 1364209 1377010 1388428 1396361 1399288 1396783 
3611.870 1389978 1381386 1374204 1371091 1373363 1380227 1389280 1397030 
3615.728 1400395 1397378 1387651 1372542 1354408 1335909 1319571 1307281 
3619.585 1300502 1300288 1307380 1322011 1343896 1371818 1403748 1436807 
3623.443 1468077 1494925 1515673 1529942 1538587 1543462 1546968 1551408 
3627.300 1558496 1568730 1581591 1595318 1607628 1616212 1619720 1618076 
3631.157 1612651 1605742 1599743 1596405 1596082 1597729 1599644 1599942 
3635.015 1598134 1595122 1593325 1595557 1603900 1618783 1638531 1659834 
3638.872 1679073 1693457 1702360 1707316 1711578 1718659 1731109 1749444 
3642.730 1772094 1795975 1817899 1835349 1847857 1856447 1863488 1871581 
3646.587 1882857 1898355 1917980 1940892 1965772 1991310 2016333 2039443 
3650.445 2059156 2073889 2082375 2084023 2079480 2070680 2060751 2053088 
3654.302 2050625 2054894 2065618 2080739 2097092 2111365 2120950 2124595 
3658.159 2122308 2115254 2105115 2093450 2081574 2070139 2059512 2049571 
3662.017 2040021 2030273 2019736 2007759 1994120 1979175 1964069 1950410 
3665.874 1939958 1933979 1932425 1933823 1935529 1934246 1927302 1913430 
3669.732 1893343 1869512 1845420 1824327 1808116 1796910 1788975 1781469 
3673.589 1771525 1757049 1737537 1713727 1687736 1661914 1638379 1618410 
3677.447 1602611 1590833 1582844 1578410 1577337 1579526 1584499 1591222 
3681.304 1598181 1603578 1605549 1602716 1594569 1581527 1564673 1545512 
3685.161 1525621 1506306 1488530 1472822 1459687 1449276 1441586 1435918 
3689.019 1430987 1424749 1415031 1399871 1378652 1352312 1323454 1295604 
3692.876 1272266 1255572 1245585 1240246 1235980 1229133 1217313 1200247 
3696.734 1179970 1159987 1144270 1135571 1134917 1141212 1151891 1163685 
3700.591 1173729 1180108 1182127 1179983 1174613 1167153 1158703 1150325 
3704.448 1142873 1136927 1133007 1131003 1130730 1131557 1132942 1134363 
3708.306 1135451 1136032 1135932 1135089 1133479 1131361 1129328 1128361 
3712.163 1129473 1133386 1139913 1147769 1154883 1158962 1158369 1152816 
3716.021 1143579 1133001 1123909 1118176 1116398 1117523 1119566 1120617 
3719.878 1119559 1116725 1113816 1112856 1115570 1122333 1132266 1143084 
3723.736 1152451 1158218 1159412 1156143 1149717 1141933 1134745 1129743 
3727.593 1127850 1129339 1133603 1139286 1144635 1147894 1148018 1145029 
3731.450 1140272 1136223 1135535 1140240 1150764 1165652 1181904 1195943 
3735.308 1204887 1207536 1204986 1199816 1195355 1194249 1197398 1203692 
3739.165 1210537 1214575 1213121 1205025 1190895 1173118 1154988 1139952 
3743.023 1130820 1129005 1134459 1145487 1159342 1172690 1182466 1186457 
3746.880 1183909 1175532 1163252 1149918 1138284 1130412 1127142 1127763 
3750.738 1130685 1133859 1135983 1136717 1137114 1139063 1144544 1154650 
3754.595 1169105 1185872 1201842 1213468 1217812 1213491 1201406 1184240 
3758.452 1165979 1150965 1142759 1143294 1152638 1169200 1190262 1212738 
3762.310 1233766 1251059 1263231 1269513 1269914 1265136 1256700 1246577 
3766.167 1237256 1230990 1229412 1232650 1239664 1248012 1254766 1257267 
3770.025 1254017 1245101 1231992 1217106 1202846 1190951 1182113 1176232 
3773.882 1172655 1170953 1171002 1173294 1178508 1186787 1197829 1210299 
3777.740 1222357 1232022 1237780 1238859 1235458 1228499 1219431 1209717 
3781.597 1200633 1193061 1187571 1184149 1182533 1181963 1181558 1180383 
3785.454 1177691 1173255 1167529 1161335 1156011 1152721 1152172 1154379 
3789.312 1158825 1164574 1170793 1176925 1182970 1189422 1196863 1205685 
3793.169 1215713 1226239 1235830 1242688 1245278 1242408 1233797 1220191 
3797.027 1203175 1184964 1167878 1153984 1144574 1140042 1140035 1143552 
3800.884 1149441 1156537 1164257 1172156 1180071 1187633 1194219 1198725 
3804.741 1199943 1196946 1189477 1178235 1165009 1152213 1142324 1137146 
3808.599 1137239 1141817 1148876 1155809 1160291 1160768 1157278 1151282 
3812.456 1145335 1142401 1144912 1153696 1167969 1185034 1201226 1212839 
3816.314 1217450 1214509 1205782 1194532 1184617 1179070 1179385 1185014 
3820.171 1193769 1202577 1208671 1210214 1206897 1199523 1189532 1178224 
3824.029 1166520 1154825 1143359 1132464 1123099 1116450 1113936 1116361 
3827.886 1123806 1135402 1149659 1164841 1179466 1192498 1203322 1211478 
3831.743 1216579 1218037 1215504 1208889 1198883 1186994 1175308 1166166 
3835.601 1161360 1161993 1168053 1178633 1192227 1206824 1220503 1231407 
3839.458 1237802 1238278 1232011 1218962 1200193 1177756 1154636 1133808 
3843.316 1117823 1108092 1104756 1106831 1112844 1121385 1131520 1142787 
3847.173 1155199 1168451 1182014 1194760 1205520 1213250 1217591 1219003 
3851.031 1218667 1218164 1219049 1222288 1228266 1236471 1245759 1254740 
3854.888 1261924 1266148 1266912 1264341 1259516 1254111 1250135 1249067 
3858.745 1251735 1257676 1265396 1272758 1277750 1279134 1277012 1272401 
3862.603 1267054 1262402 1259193 1257183 1255366 1252530 1247680 1240429 
3866.460 1230866 1219185 1205618 1190112 1172798 1154306 1136199 1120645 
3870.318 1110122 1106555 1110450 1120674 1134788 1149863 1163547 1174535 
3874.175 1183044 1190031 1196695 1203401 1209578 1213920 1215067 1212398 
3878.032 1206427 1198708 1191066 1184962 1180604 1177164 1173141 1167227 
3881.890 1159006 1149346 1140085 1133362 1130886 1133112 1139369 1148012 
3885.747 1156969 1164515 1169639 1172066 1172432 1171618 1170907 1171337 
3889.605 1173909 1178999 1186441 1195286 1204004 1210842 1214252 1213519 
3893.462 1209109 1202437 1195608 1190753 1189445 1192374 1199412 1209650 
3897.320 1221973 1235328 1248621 1260722 1270496 1276603 1277945 1273936 
3901.177 1264796 1251877 1237172 1222868 1210841 1202211 1197240 1195395 
3905.034 1196063 1198609 1202719 1208290 1215349 1223518 1232472 1241468 
3908.892 1250049 1257849 1264764 1270703 1275507 1278667 1279582 1277703 
3912.749 1272975 1265856 1257495 1248988 1241408 1235027 1229613 1224602 
3916.607 1219629 1214865 1211184 1209686 1211273 1216065 1223055 1230504 
3920.464 1236426 1239286 1238824 1235809 1231863 1228676 1227466 1228284 
3924.322 1230479 1232896 1234645 1235426 1235604 1236109 1237690 1240476 
3928.179 1244011 1247035 1248250 1246554 1241657 1234123 1225393 1217213 
3932.036 1211392 1209441 1211939 1218728 1228750 1240218 1250968 1258779 
3935.894 1261836 1259271 1251305 1239396 1225986 1213928 1205967 1203933 
3939.751 1208668 1219558 1234843 1251974 1268059 1280544 1287623 1288478 
3943.609 1283554 1274193 1262618 1251027 1241331 1234622 1231098 1230010 
3947.466 1230227 1230680 1230712 1230374 1230327 1231439 1234569 1239875 
3951.323 1246962 1254764 1261961 1267260 1269908 1269562 1266589 1261767 
3955.181 1256152 1250932 1247097 1245506 1246807 1251106 1258075 1266975 
3959.038 1276564 1285310 1291798 1294811 1293779 1288898 1281133 1272110 
3962.896 1263761 1257896 1255826 1257818 1263198 1270326 1277165 1281901 
3966.753 1283421 1281816 1278329 1274935 1273712 1275907 1281640 1289416 
3970.611 1296862 1301209 1300359 1293370 1281063 1265544 1249784 1236887 
3974.468 1229199 1227968 1233198 1243763 1257781 1273184 1288194 1301681 
3978.325 1312995 1322386 1330331 1337376 1343771 1349343 1353415 1355188 
3982.183 1354022 1349930 1343777 1336863 1330892 1327103 1326066 1327357 
3986.040 1329993 1332669 1334575 1335468 1335656 1335751 1335993 1336048 
3989.898 1334837 1331081 1323941 1313347 1300487 1287211 1275652 1267223 
3993.755 1262338 1260265 1259577 1258902 1257387 1255178 1253289 1252720 
3997.613 1254419 1258520 1264543 1271595 1278757 1285546 1291870 
##END=
