##TITLE=3D-Fillies_PLA-Rainbow_Purple_Filament_r7_ATR-Corrected
##JCAMP-DX=5.01  $$ Nicolet v. 1
##DATATYPE=INFRARED SPECTRUM
##ORIGIN=Curtin University
##OWNER=Nicolet
##LONGDATE=2024/07/18
##TIME=14:15:22
##SPECTROMETER/DATA SYSTEM=Nicolet iS50
##DATA PROCESSING=
Ratio against background
%Transmittance->Absorbance
ATR Correction
Truncated
ElementMultiply or ElementDivide
##COMMENTS=
Number of sample scans: 32
Collection length: 47.28 sec
Sample gain: 1.0
Background collected on: Thu Jul 18 14:11:41 2024 (GMT+08:00);
Number of background scans: 32
Background gain: 1.0
Sample spacing:  1.000
Number of scan points: 16672
Resolution points: 8192
Number of FFT points: 65536
Apodization: N-B strong;
Phase correction: Mertz;
Laser frequency: 15798.3 cm-1
Number of rejected sample scans: 0
Number of rejected background scans: 0
Bench serial number: AUP1200105;
##RESOLUTION=4.000
##XUNITS=1/CM
##YUNITS=ABSORBANCE
##FIRSTX=400.163452
##LASTX=4000.187744
##FIRSTY=0.061853
##MAXX=4000.187744
##MINX=400.163452
##MAXY=0.877108
##MINY=-0.020172
##XFACTOR=1.000000
##YFACTOR=1.000000E-009
##NPOINTS=7468
##DELTAX=0.482125
##ZPD=8192
##XYDATA=(X++(Y..Y))
400.163 61853088 60340748 58860584 57381644 55876176 54362552 52903956 
403.538 51593676 50521208 49741032 49246788 48971724 48805572 48632076 
406.913 48365824 47980040 47509808 47034136 46640568 46390292 46292172 
410.288 46299224 46323036 46266104 46054728 45662392 45113856 44472112 
413.663 43813256 43202040 42673880 42230876 41846872 41481140 41091456 
417.038 40644756 40122628 39520904 38846948 38117236 37355220 36590336 
420.412 35857304 35194540 34638124 34215984 33939096 33798720 33763948 
423.787 33789348 33824548 33827652 33774708 33665312 33517998 33361312 
427.162 33219766 33104028 33007010 32907550 32780812 32610252 32396156 
430.537 32157232 31922940 31721216 31565998 31449952 31351484 31242758 
433.912 31104790 30939362 30770746 30638742 30582408 30623990 30756474 
437.286 30943514 31128524 31252198 31269454 31160354 30931526 30609634 
440.661 30230702 29831198 29442386 29091588 28802846 28599122 28498530 
444.036 28508614 28619688 28802154 29010492 29194122 29310580 29338084 
447.411 29279226 29157178 29003638 28845598 28696166 28554052 28410566 
450.786 28260666 28110928 27981042 27895228 27870982 27906650 27979738 
454.161 28051470 28082332 28046132 27940882 27788054 27622382 27475934 
457.535 27364272 27279974 27198856 27093002 26947326 26769304 26589580 
460.910 26451290 26394606 26440450 26582324 26786934 27001800 27178302 
464.285 27277226 27279356 27186834 27017572 26798346 26557118 26319188 
467.660 26103868 25924476 25786158 25686352 25612982 25547738 25469034 
471.035 25359172 25209520 25025468 24824906 24634190 24479768 24380100 
474.409 24339972 24349534 24387212 24426372 24441958 24416464 24342064 
477.784 24221034 24063000 23882226 23694428 23514512 23354772 23224490 
481.159 23128880 23068714 23040766 23038406 23053158 23076850 23103994 
484.534 23133456 23169124 23219022 23292748 23397938 23536242 23701448 
487.909 23878388 24046482 24183954 24274358 24311548 24302696 24267106 
491.284 24232234 24226920 24275048 24389990 24572486 24810956 25083132 
494.658 25364360 25627654 25849164 26012518 26111480 26152002 26150740 
498.033 26131518 26117658 26124218 26151122 26181078 26183690 26125110 
501.408 25980654 25745956 25440982 25106864 24793862 24546950 24392328 
504.783 24331274 24341032 24384916 24423326 24425462 24374898 24269984 
508.158 24118892 23934220 23727992 23510766 23291918 23081852 22892316 
511.532 22734930 22617830 22542334 22501630 22482262 22467534 22442866 
514.907 22398922 22333698 22251324 22159608 22066986 21980292 21903474 
518.282 21837520 21780630 21728642 21675750 21615044 21539812 21445248 
521.657 21329746 21195336 21046834 20891044 20734020 20580826 20435384 
525.032 20299038 20175940 20068124 19975334 19893006 19811214 19716614 
528.406 19595890 19441888 19258132 19060568 18873704 18723458 18627346 
531.781 18587408 18587920 18599900 18590446 18534738 18424198 18270298 
535.156 18099948 17946926 17840596 17797238 17816380 17882146 17969836 
538.531 18053780 18114068 18140894 18134568 18102938 18056670 18004544 
541.906 17950086 17890482 17818044 17723820 17601954 17454476 17292018 
545.281 17133482 17000814 16913070 16880234 16899736 16957264 17031496 
548.655 17100748 17150282 17174904 17179376 17172908 17163660 17153410 
552.030 17136146 17100660 17036196 16938366 16812718 16674561 16544646 
555.405 16442658 16380733 16362010 16379012 16418310 16465925 16512077 
558.780 16554106 16595194 16642004 16699597 16768677 16843662 16914376 
562.155 16969806 17002442 17012350 17007898 17004340 17019134 17065940 
565.529 17149574 17263414 17390262 17507148 17592096 17630528 17619906 
568.904 17570072 17500548 17434596 17393450 17391048 17432360 17513706 
572.279 17625526 17755424 17891534 18024246 18146692 18255086 18348014 
575.654 18425786 18489766 18541404 18581824 18611406 18630348 18639314 
579.029 18640858 18639840 18643530 18659754 18695318 18752934 18831060 
582.404 18923910 19023804 19123426 19218102 19306040 19387376 19462102 
585.778 19528594 19583034 19620262 19636786 19631932 19609464 19576364 
589.153 19540516 19508496 19483686 19466246 19454536 19447402 19445776 
592.528 19453608 19476494 19520264 19588968 19682758 19797604 19925200 
595.903 20053746 20169412 20257944 20307186 20309924 20266026 20183536 
599.278 20077520 19966604 19868250 19793826 19745830 19718448 19701526 
602.652 19685672 19667748 19652958 19653642 19684378 19756264 19871640 
606.027 20022762 20193066 20362222 20511288 20627548 20706300 20751468 
609.402 20772946 20784392 20800800 20836016 20901286 21003188 21142660 
612.777 21314454 21508270 21711226 21911514 22101502 22279492 22449040 
616.152 22616694 22787930 22964514 23143248 23317818 23481490 23629702 
619.527 23762666 23884890 24003886 24127980 24264736 24420384 24599872 
622.901 24807276 25045138 25312958 25606102 25914590 26224816 26522644 
626.276 26798520 27050626 27286746 27522166 27774078 28055330 28368712 
629.651 28704512 29042286 29356068 29621374 29821586 29951940 30019778 
633.026 30042450 30041544 30038378 30049406 30084442 30145904 30230696 
636.401 30332320 30443558 30558214 30672872 30786444 30900318 31017182 
639.775 31140222 31272374 31416044 31572536 31741776 31922084 32109868 
643.150 32300290 32488238 32669928 32844682 33015788 33189580 33373590 
646.525 33573484 33790640 34022020 34261944 34506068 34755576 35019516 
649.900 35312808 35651952 36047564 36498012 36986428 37482400 37948736 
653.275 38350204 38661432 38871560 38984060 39012816 38976348 38893444 
656.650 38780600 38652884 38524888 38412148 38329296 38288148 38293700 
660.024 38343120 38426600 38530120 38640500 38748796 38851196 38948168 
663.399 39041276 39130668 39214800 39291872 39363156 39435500 39521856 
666.774 39638488 39800372 40015788 40283192 40590960 40920960 41253560 
670.149 41573008 41870760 42145348 42401264 42644552 42880436 43111356 
673.524 43336804 43554348 43761380 43955968 44137428 44306300 44463348 
676.898 44609420 44744736 44868752 44980724 45080044 45167092 45244072 
680.273 45315640 45389520 45474988 45581332 45715184 45878248 46066000 
683.648 46267880 46469496 46655832 46815264 46942580 47040384 47118796 
687.023 47193024 47279788 47393720 47544100 47732980 47955536 48201092 
690.398 48456716 48710788 48955896 49190756 49420252 49653644 49900828 
693.773 50170180 50465708 50786904 51129916 51490000 51863736 52250356 
697.147 52652124 53073064 53517736 53989416 54489288 55016216 55565568 
700.522 56130508 56701488 57267572 57818144 58345676 58847880 59328948 
703.897 59798172 60266660 60741944 61223172 61698900 62149020 62550084 
707.272 62883072 63140108 63327676 63465096 63578352 63691908 63822536 
710.647 63974684 64142636 64314568 64479568 64631984 64774200 64916024 
714.021 65072456 65260484 65497740 65801680 66191168 66688544 67322720 
717.396 68132576 69170384 70506056 72229896 74453208 77305112 80924648 
720.771 85447336 90988736 97626096 105380464 114202112 123959480 134434496 
724.146 145325504 156258352 166810176 176542800 185046144 191984080 
727.039 197132640 200402512 201837632 201591776 199889936 196985952 
729.931 193124640 188518144 183334800 177701104 171710528 165435136 
732.824 158936672 152274080 145507584 138699632 131913376 125210480 
735.717 118648680 112281024 106155768 100317072 94806392 89662992 84922888 
739.091 80616544 76765728 73380040 70455416 67974848 65911300 64231688 
742.466 62901616 61887852 61159304 60685348 60434144 60371688 60462088 
745.841 60671480 60971012 61340844 61770816 62258296 62803848 63406736 
749.216 64060560 64752692 65466032 66181736 66883104 67557096 68194376 
752.591 68787744 69330416 69814456 70230128 70566848 70813128 70957224 
755.966 70986960 70889768 70653560 70268696 69731008 69044136 68220536 
759.340 67280376 66248408 65149440 64004548 62828972 61632164 60419512 
762.715 59195068 57963356 56731032 55505988 54296648 53110740 51955076 
766.090 50834816 49753968 48714960 47718456 46762720 45843912 44956760 
769.465 44096488 43260136 42448232 41664568 40914420 40202440 39531248 
772.840 38899004 38300220 37727136 37171476 36626280 36086988 35551288 
776.214 35019012 34492036 33973892 33469942 32986506 32529440 32101948 
779.589 31702210 31322628 30950986 30573734 30180066 29766186 29336282 
782.964 28900646 28471692 28057524 27658882 27267894 26872354 26461786 
786.339 26034552 25602548 25190966 24833198 24562520 24402994 24362794 
789.714 24432240 24585994 24789952 25008312 25210326 25373536 25484188 
793.089 25535346 25523576 25447062 25305166 25098720 24832330 24515454 
796.463 24163234 23795568 23435236 23104758 22824470 22609954 22471176 
799.838 22411622 22428724 22514042 22654064 22832294 23030028 23228902 
803.213 23413582 23572338 23697726 23786874 23839938 23859186 23846702 
806.588 23804894 23734692 23636910 23512574 23363502 23192922 23005436 
809.963 22806572 22603512 22404084 22217534 22053366 21921156 21828914 
813.337 21781320 21778222 21813280 21874786 21946872 22012712 22057950 
816.712 22074126 22059864 22021970 21973118 21928534 21902944 21906674 
820.087 21943924 22012582 22105452 22213034 22326524 22439898 22551262 
823.462 22662338 22776468 22896506 23022270 23149920 23272778 23382874 
826.837 23474366 23545768 23601606 23651694 23708988 23786374 23893556 
830.212 24034768 24207962 24406340 24620102 24839048 25054764 25261534 
833.586 25456540 25640958 25818320 25995012 26179864 26384100 26620122 
836.961 26900542 27236072 27633954 28097030 28623390 29207264 29840420 
840.336 30512956 31214706 31934832 32661862 33383846 34088956 34766920 
843.711 35411752 36022508 36604148 37165928 37717488 38264856 38806652 
847.086 39333440 39829268 40276992 40665024 40992368 41272364 41530648 
850.460 41800952 42118468 42513720 43009808 43623020 44366164 45253080 
853.835 46301192 47530312 48958380 50594668 52433872 54452928 56613924 
857.210 58869252 61171564 63481532 65772592 68031528 70254056 72439144 
860.585 74582408 76673552 78696048 80630768 82460008 84172088 85762968 
863.960 87236736 88604512 89880600 91081200 92221464 93313456 94365104 
867.335 95379032 96351888 97275312 98135816 98916168 99595640 100150416 
870.709 100553160 100773456 100779048 100538264 100023928 99217456 98111144 
874.084 96709976 95029904 93095232 90935616 88583408 86071960 83435136 
877.459 80707792 77924856 75121424 72331648 69587984 66921300 64359224 
880.834 61926840 59644984 57529148 55589172 53829172 52249216 50848516 
884.209 49627632 48590360 47742344 47087820 46624172 46338024 46202824 
887.583 46181752 46232884 46317432 46406172 46483416 46546044 46599604 
890.958 46651880 46708148 46768492 46828904 46882904 46925124 46952160 
894.333 46962600 46954732 46926072 46872120 46788012 46670860 46521688 
897.708 46345744 46151556 45948344 45744428 45545540 45355768 45178508 
901.083 45018216 44879960 44768468 44685660 44629732 44594856 44573360 
904.458 44558992 44549768 44548808 44562908 44598532 44658060 44736936 
907.832 44824032 44905424 44969932 45013772 45044092 45078104 45138272 
911.207 45246684 45417796 45654616 45946816 46273308 46607936 46925284 
914.582 47207420 47447512 47650816 47832272 48011248 48205888 48426856 
917.957 48675000 48941316 49210000 49464228 49690732 49883576 50044580 
921.332 50181232 50303232 50419092 50534856 50654240 50780656 50919088 
924.706 51077332 51264612 51489856 51758440 52071236 52423752 52807848 
928.081 53213676 53631856 54053680 54471180 54876752 55262216 55619928 
931.456 55944340 56233580 56490404 56721520 56935436 57139788 57339052 
934.831 57533140 57717436 57885168 58028656 58141280 58218272 58257108 
938.206 58257080 58219672 58148832 58051772 57938800 57823232 57719332 
941.581 57641448 57601248 57607108 57663304 57770132 57925600 58125676 
944.955 58366488 58644448 58957940 59306948 59693196 60119376 60587620 
948.330 61098164 61648716 62234732 62850600 63491872 64155632 64841396 
951.705 65548040 66271028 66997596 67705120 68360768 68925568 69359488 
955.080 69628384 69709272 69592864 69282432 68791912 68140168 67348720 
958.455 66438108 65428316 64338484 63188084 61998440 60793176 59597636 
961.829 58438980 57343836 56336900 55438100 54660932 54010792 53485984 
965.204 53078432 52777132 52570344 52447212 52398432 52414856 52486148 
968.579 52599812 52741652 52898228 53058884 53218372 53377192 53539908 
971.954 53711760 53896348 54092372 54295324 54498220 54694904 54882372 
975.329 55061036 55234236 55406124 55580640 55760484 55947920 56145716 
978.703 56357248 56586364 56835208 57103292 57386244 57677196 57968936 
982.078 58256576 58539976 58822984 59112012 59412500 59726640 60052572 
985.453 60385224 60719776 61053676 61388352 61728492 62080440 62448260 
988.828 62832808 63232400 63644180 64066872 64503120 64959316 65445104 
992.203 65969864 66540644 67160536 67828080 68539120 69288232 70069992 
995.578 70881464 71721064 72590136 73491480 74429376 75408024 76429952 
998.952 77494824 78597216 79726576 80868896 82009064 83134736 84240256 
1002.327 85329584 86416488 87524400 88683608 89928056 91292072 92806808 
1005.702 94497968 96383168 98472336 100768536 103271616 105983904 108915616 
1009.077 112090672 115549288 119346144 123547056 128220872 133431208 
1011.970 139228176 145639712 152662864 160253248 168315248 176692112 
1014.862 185162336 193444096 201216288 208151312 213959120 218433504 
1017.755 221485984 223162320 223633280 223163520 222070016 220676640 
1020.648 219277344 218110976 217350128 217100800 217410448 218278480 
1023.540 219669792 221527136 223782608 226367312 229219136 232288160 
1026.433 235538864 238950624 242517088 246243136 250142480 254234640 
1029.326 258540992 263082656 267876688 272933856 278257664 283844352 
1032.219 289683136 295758528 302050336 308535136 315184864 321965728 
1035.113 328836352 335746912 342638112 349443360 356090560 362506144 
1038.006 368620384 374372128 379712320 384604608 389023936 392951232 
1040.899 396368960 399256512 401589472 403341856 404491872 405026944 
1043.792 404947872 404270656 403023904 401245952 398982624 396284864 
1046.685 393208768 389816448 386174368 382351584 378415456 374427680 
1049.578 370442080 366501664 362640704 358885888 355257536 351769888 
1052.471 348430656 345240160 342191232 339270368 336462624 333754720 
1055.364 331141600 328629632 326240800 324011776 321994720 320253952 
1058.257 318863968 317904928 317458944 317605824 318419264 319964480 
1061.150 322297440 325464864 329506368 334453792 340332224 347156736 
1064.043 354929632 363637632 373251104 383726112 395010304 407050368 
1066.936 419798496 433215424 447269184 461929280 477158656 492908544 
1069.829 509116000 525706816 542601600 559721472 576991680 594340864 
1072.722 611697728 628987008 646129280 663043648 679654208 695895744 
1075.615 711719232 727090048 741985088 756386432 770274432 783624000 
1078.509 796399936 808551872 820011712 830690176 840481216 849267200 
1081.402 856934272 863383168 868541568 872364544 874832064 875941120 
1084.295 875700800 874132864 871280384 867211840 862028352 855856448 
1087.188 848837952 841112832 832807232 824027200 814859520 805376512 
1090.081 795643840 785722624 775669760 765534848 755359104 745173376 
1092.974 735001344 724860992 714765504 704722752 694732416 684783808 
1095.867 674857984 664930944 654980608 644991552 634958720 624884160 
1098.760 614773760 604629440 594446720 584213824 573916224 563541376 
1101.653 553085056 542553344 531964000 521342528 510722624 500142464 
1104.546 489646592 479285632 469117664 459207360 449625792 440447648 
1107.439 431750720 423612864 416110560 409315136 403289312 398081120 
1110.332 393720096 390212512 387541248 385666784 384531584 384064864 
1113.225 384187296 384815456 385863264 387244896 388876064 390678688 
1116.118 392586272 394548128 396533504 398530432 400541728 402577760 
1119.011 404649984 406765312 408926016 411131040 413379392 415670592 
1121.905 418002912 420366240 422736256 425067552 427293792 429332672 
1124.798 431095616 432499968 433477568 433981280 433984800 433479776 
1127.691 432471808 430975360 429011520 426605408 423784736 420575200 
1130.584 416997984 413065984 408783072 404144064 399137728 393752128 
1133.477 387976832 381806720 375242656 368291104 360963808 353278080 
1136.370 345256864 336929952 328334816 319516256 310526560 301422880 
1139.263 292266784 283121408 274050880 265118784 256386752 247913184 
1142.156 239750768 231946336 224538928 217559344 211031504 204972832 
1145.049 199395328 194306448 189708816 185600256 181973264 178815456 
1147.942 176110416 173838784 171979888 170512304 169415008 168666080 
1150.835 168243216 168123152 168281536 168694176 169337776 170190768 
1153.728 171233680 172449472 173822240 175337184 176980080 178736944 
1156.621 180594112 182538944 184559520 186645552 188789120 190984128 
1159.514 193228272 195522848 197873824 200291040 202789072 205385136 
1162.407 208099216 210952832 213968336 217168432 220577040 224219184 
1165.301 228122704 232319824 236848976 241756080 247095264 252927632 
1168.194 259319360 266339008 274054272 282530112 291828320 302007872 
1171.087 313126432 325239136 338396576 352639104 367988064 384437536 
1173.980 401944352 420421504 439733216 459694496 480070240 500577920 
1176.873 520890880 540643072 559439616 576869760 592528704 606041792 
1179.766 617092224 625449344 630990272 633710016 633721024 631237120 
1182.659 626546240 619978112 611872384 602552640 592310208 581397824 
1185.552 570030656 558391680 546639104 534912160 523333536 512009792 
1188.445 501029184 490459200 480346144 470715104 461574560 452921792 
1191.338 444748832 437048032 429814496 423045728 416739328 410889952 
1194.231 405487104 400514528 395952896 391782720 387987872 384556736 
1197.124 381480992 378753408 376363296 374295040 372526592 371032000 
1200.017 369783648 368756000 367927456 367279520 366796416 366461664 
1202.910 366256928 366159968 366144960 366183552 366244768 366295968 
1205.803 366303072 366233088 366055744 365746912 365290496 364679072 
1208.697 363912192 362992288 361918848 360685216 359278048 357679552 
1211.590 355874848 353857408 351633152 349222208 346653792 343961312 
1214.483 341175200 338320960 335417152 332478624 329519008 326552704 
1217.376 323594880 320659712 317758368 314897760 312081024 309309376 
1220.269 306584224 303908416 301285760 298720288 296214464 293768480 
1223.162 291382176 289054592 286787904 284585632 282451776 280388288 
1226.055 278392832 276458208 274574688 272733632 270930272 269167040 
1228.948 267453136 265801424 264225248 262735600 261339392 260042128 
1231.841 258849200 257769024 256813760 255998848 255340432 254853152 
1234.734 254548576 254435664 254520800 254808896 255302544 256001680 
1237.627 256900288 257985264 259236960 260629984 262136816 263731008 
1240.520 265388992 267090016 268814272 270541056 272246496 273904544 
1243.413 275488160 276971840 278334176 279558528 280632992 281549216 
1246.306 282302336 282892032 283323808 283611552 283777952 283852928 
1249.199 283870208 283863712 283863040 283891328 283965536 284097888 
1252.093 284296832 284569696 284922272 285359200 285882912 286494080 
1254.986 287192032 287975904 288845632 289801344 290843584 291971328 
1257.879 293180928 294466560 295819104 297227040 298676768 300152256 
1260.772 301634624 303101664 304529312 305892672 307168608 308337280 
1263.665 309382016 310288256 311040608 311620224 312002720 312160640 
1266.558 312064960 311689152 311011264 310016736 308696096 307044992 
1269.451 305062368 302751040 300119200 297181120 293958624 290479456 
1272.344 286773664 282870784 278795968 274568064 270201632 265707456 
1275.237 261096800 256384128 251587424 246728384 241831376 236921152 
1278.130 232021504 227154144 222337984 217589840 212924112 208354000 
1281.023 203892112 199550432 195340752 191273824 187358976 183602928 
1283.916 180009200 176577920 173306864 170192496 167231152 164420864 
1286.809 161760880 159251296 156892416 154682432 152618048 150693712 
1289.702 148902560 147238224 145695520 144270736 142960848 141762720 
1292.595 140671472 139679424 138776816 137951584 137191984 136487264 
1295.489 135828800 135210768 134629648 134083808 133573144 133098288 
1298.382 132660208 132260632 131901488 131583688 131307576 131071224 
1301.275 130869464 130694584 130535152 130378112 130209472 130016072 
1304.168 129788056 129519208 129208368 128858000 128472936 128057736 
1307.061 127614584 127142624 126636672 126089168 125492232 124838080 
1309.954 124121344 123338120 122485824 121562544 120567032 119499768 
1312.847 118364856 117171584 115935488 114677992 113423880 112198392 
1315.740 111024024 109917032 108886224 107932944 107051320 106231136 
1318.633 105458792 104720696 104004936 103302544 102609008 101924080 
1321.526 101251472 100596936 99966928 99366800 98799928 98267752 97770976 
1324.901 97311128 96891512 96517872 96197696 95938632 95748160 95632264 
1328.277 95594976 95639760 95769600 95987696 96297568 96702584 97205272 
1331.652 97807408 98509144 99309616 100206504 101194384 102264072 103401008 
1335.027 104585256 105792472 106997472 108176976 109313488 110396024 
1337.920 111419504 112382528 113284320 114122536 114894640 115599376 
1340.813 116239904 116826424 117376568 117912448 118457664 119033488 
1343.706 119656552 120338912 121089592 121917344 122832440 123846032 
1346.599 124969296 126209568 127568288 129039048 130609464 132261960 
1349.492 133977608 135738080 137526912 139329824 141133424 142924704 
1352.385 144689632 146413728 148081056 149675696 151182032 152585280 
1355.279 153873184 155035984 156067904 156966432 157732432 158369232 
1358.172 158882256 159279936 159572992 159775984 159906672 159985888 
1361.065 160034576 160071712 160111760 160162784 160226672 160299408 
1363.958 160371952 160431488 160459536 160432368 160319424 160083760 
1366.851 159685264 159084112 158247168 157152752 155794784 154185232 
1369.744 152354560 150350480 148237648 146095328 144015424 142099200 
1372.637 140451696 139175664 138362336 138083904 138386304 139284112 
1375.530 140760256 142766800 145229392 148051296 151119296 154308992 
1378.423 157491840 160541840 163344048 165800560 167834528 169390640 
1381.316 170434224 170947392 170925936 170376368 169313744 167759136 
1384.209 165739664 163286640 160436432 157231040 153719008 149954656 
1387.102 145996576 141903824 137730032 133520336 129307840 125114888 
1389.995 120955392 116838848 112774376 108772752 104848232 101017136 
1392.888 97297552 93708104 90267400 86994432 83907600 81024520 78359736 
1396.264 75922832 73717096 71738520 69977096 68418728 67048884 65856168 
1399.639 64834364 63983424 63308516 62818528 62523708 62434080 62558488 
1403.014 62904000 63473232 64263412 65261864 66442752 67764504 69168960 
1406.389 70584184 71928768 73118840 74074208 74725224 75016848 74913216 
1409.765 74399288 73484152 72200472 70603344 68765184 66769896 64703612 
1413.140 62646508 60665496 58810000 57110960 55581728 54222252 53022780 
1416.515 51968080 51040896 50224780 49506880 48878084 48334892 47877520 
1419.890 47508388 47228704 47036612 46925716 46885932 46905188 46972152 
1423.266 47076764 47211892 47370104 47543840 47723180 47897468 48057808 
1426.641 48200492 48330260 48461248 48616440 48823936 49112128 49506892 
1430.016 50028308 50690244 51501568 52466248 53584672 54854488 56270312 
1433.391 57826116 59516708 61339668 63297620 65398060 67653088 70078064 
1436.767 72690656 75509584 78555496 81850640 85417616 89278016 93447728 
1440.142 97933552 102730688 107821936 113179568 118766536 124539992 
1443.035 130450472 136441920 142450720 148406896 154236560 159866160 
1445.928 165227152 170259168 174912064 179147296 182938688 186272304 
1448.821 189148672 191580064 193587680 195196288 196428768 197301536 
1451.714 197822336 197991344 197803584 197251152 196325232 195017184 
1454.607 193318704 191223856 188732272 185851488 182598512 178999184 
1457.500 175083568 170881328 166418704 161719040 156806208 151709120 
1460.393 146464672 141117120 135713824 130299624 124913032 119584488 
1463.286 114338968 109199440 104190416 99338416 94669696 90206952 85966288 
1466.662 81956000 78179360 74635784 71325216 68248496 65406196 62797316 
1470.037 60416516 58252556 56288372 54502056 52867740 51358400 49947676 
1473.412 48612500 47334512 46102744 44913312 43768272 42673752 41635328 
1476.787 40656280 39734408 38862692 38030656 37227836 36446320 35682256 
1480.163 34935980 34210472 33508606 32831966 32179300 31547994 30934586 
1483.538 30336940 29754346 29188388 28641288 28115850 27613576 27135518 
1486.913 26681958 26252904 25849362 25472494 25124066 24805034 24515484 
1490.288 24254180 24017978 23803448 23606890 23425902 23259406 23108526 
1493.664 22975384 22863660 22776808 22718384 22692510 22703574 22756950 
1497.039 22860040 23021088 23248828 23551426 23933642 24397490 24939662 
1500.414 25552306 26221502 26927614 27644320 28338962 28973280 29505360 
1503.789 29894120 30104820 30114574 29918228 29529710 28981220 28316646 
1507.165 27585034 26832502 26095706 25401782 24767098 24201182 23706988 
1510.540 23283846 22926758 22626816 22372636 22151782 21954174 21774334 
1513.915 21611486 21469512 21353922 21269284 21215782 21189736 21184018 
1517.290 21190388 21201848 21212946 21220562 21222624 21217036 21201298 
1520.666 21173268 21133248 21084144 21032094 20984390 20948010 20926296 
1524.041 20919106 20922284 20930204 20937710 20941716 20941652 20939024 
1527.416 20935190 20930360 20922170 20907336 20881928 20843372 20791660 
1530.791 20728666 20657052 20579688 20498310 20413638 20326144 20237142 
1534.167 20149086 20065964 19991756 19929826 19881132 19844102 19814494 
1537.542 19786806 19755904 19717624 19671026 19617990 19562922 19511820 
1540.917 19470776 19444114 19432784 19434076 19441464 19446648 19440610 
1544.292 19416816 19372988 19311844 19241128 19171006 19111392 19069564 
1547.667 19048022 19043400 19048646 19053892 19049786 19029932 18990982 
1551.043 18934620 18865698 18791818 18720808 18659702 18613430 18584484 
1554.418 18572146 18574306 18587746 18609510 18638070 18673328 18715658 
1557.793 18765868 18823326 18886080 18951104 19015694 19077984 19138290 
1561.168 19198582 19261308 19327588 19396308 19463742 19525408 19576922 
1564.544 19616892 19648130 19676500 19709478 19753320 19810984 19881348 
1567.919 19959786 20040416 20119334 20196104 20274966 20363530 20471244 
1571.294 20607420 20779348 20992030 21247902 21546358 21883286 22249726 
1574.669 22631300 23007962 23356316 23653150 23880284 24028338 24097508 
1578.045 24096534 24038460 23936792 23801534 23638966 23451896 23242278 
1581.420 23014174 22775278 22535888 22308352 22103020 21927260 21783672 
1584.795 21670260 21581842 21512566 21456314 21408332 21364606 21322696 
1588.170 21280486 21237224 21193664 21151810 21114660 21085636 21066430 
1591.546 21056612 21052820 21049950 21042070 21025306 20998570 20965440 
1594.921 20932778 20910452 20908488 20936174 21000194 21104186 21248868 
1598.296 21431830 21648774 21893418 22158698 22438354 22727272 23023328 
1601.671 23328510 23648064 23989602 24360654 24765804 25205044 25671832 
1605.047 26153720 26634890 27097966 27527730 27912776 28246786 28528140 
1608.422 28758232 28940070 29076310 29167934 29215162 29218016 29177274 
1611.797 29096700 28981962 28840604 28680590 28508822 28329310 28143608 
1615.172 27950160 27747346 27534060 27312524 27088696 26872212 26674378 
1618.548 26506498 26376262 26286688 26234616 26212218 26208256 26211978 
1621.923 26215646 26216634 26217952 26226244 26248158 26287736 26343820 
1625.298 26410280 26477056 26534252 26575136 26597958 26607016 26610080 
1628.673 26616894 26635084 26668874 26719728 26785024 26862096 26947468 
1632.049 27038626 27132760 27226798 27315656 27393204 27452454 27488146 
1635.424 27497096 27480240 27442756 27392268 27337816 27287614 27248098 
1638.799 27223228 27214304 27220446 27239686 27269214 27305818 27346394 
1642.174 27388182 27428118 27463438 27491758 27511374 27523008 27529776 
1645.550 27538298 27557642 27597582 27665442 27763364 27886784 28025340 
1648.925 28164226 28289222 28389506 28461354 28507632 28537820 28564778 
1652.300 28601258 28657414 28739150 28848086 28983912 29144154 29326920 
1655.675 29529254 29747768 29977278 30210484 30439820 30658282 30861624 
1659.051 31049856 31227384 31403444 31589702 31799338 32044072 32331240 
1662.426 32662638 33032958 33429812 33837324 34238928 34622280 34981652 
1665.801 35320020 35646776 35975540 36319496 36689372 37090812 37525940 
1669.176 37994200 38494924 39025456 39582264 40157356 40738596 41310640 
1672.552 41858384 42372096 42850688 43303588 43748112 44204344 44688320 
1675.927 45207024 45757536 46328180 46906444 47481964 48052848 48624356 
1679.302 49206904 49811504 50445308 51108672 51795460 52494520 53191608 
1682.677 53873164 54528248 55150624 55739788 56303244 56855000 57414104 
1686.052 58002220 58637724 59334640 60098500 60928136 61817576 62759688 
1689.428 63749596 64787224 65876692 67026048 68244400 69540128 70921864 
1692.803 72397624 73977472 75672920 77496936 79462200 81579400 83858392 
1696.178 86309536 88948296 91798520 94894808 98280968 102005600 106115384 
1699.553 110650248 115640048 121108528 127078768 133583504 140670544 
1702.447 148406256 156869744 166144768 176309792 187429072 199548192 
1705.340 212694496 226877312 242092272 258318864 275519328 293634016 
1708.233 312582560 332265696 352572576 373384928 394576032 416003648 
1711.126 437496864 458846720 479803104 500084768 519399648 537468224 
1714.019 554048768 568953664 582065792 593346176 602843328 610688896 
1716.912 617085248 622273344 626494784 629951168 632785088 635076672 
1719.805 636864128 638166656 639007360 639416192 639426816 639062144 
1722.698 638330880 637230080 635763456 633955200 631862016 629564928 
1725.591 627152768 624699648 622251264 619823104 617412672 615018688 
1728.484 612652992 610345024 608130752 606037696 604075520 602235328 
1731.377 600503168 598876544 597380480 596069632 595021376 594316032 
1734.270 594021568 594184640 594835840 596001408 597720448 600050688 
1737.163 603066304 606846784 611462976 616965632 623386560 630741696 
1740.056 639040768 648290304 658491392 669626112 681646784 694465920 
1742.949 707959552 721976192 736353408 750924800 765524352 779975872 
1745.843 794086464 807643712 820428096 832230336 842875200 852230976 
1748.736 860206016 866731904 871746688 875185856 876987776 877107712 
1751.629 875534336 872288896 867416320 860963200 852962240 843427392 
1754.522 832368704 819813568 805829632 790533760 774087488 756676352 
1757.415 738491200 719707520 700481344 680948544 661232064 641446784 
1760.308 621703296 602107904 582763264 563767936 545216576 527195936 
1763.201 509779456 493018176 476935520 461525088 446758432 432597120 
1766.094 419008032 405973696 393497632 381593536 370274240 359535168 
1768.987 349345696 339649376 330374240 321446336 312804544 304406624 
1771.880 296229920 288262912 280496192 272914816 265496224 258211136 
1774.773 251029520 243924144 236873024 229857536 222861168 215868480 
1777.666 208865488 201844160 194804512 187757328 180723728 173731200 
1780.559 166809792 159988048 153291728 146743456 140364512 134175568 
1783.452 128196256 122441640 116922280 111641360 106597752 101788536 
1786.345 97215056 92883592 88806488 84995656 81458536 78191568 75179800 
1789.721 72398600 69820544 67421504 65184816 63100836 61164548 59370036 
1793.096 57708176 56164680 54724912 53374872 52105388 50910924 49788528 
1796.471 48733128 47737416 46791396 45885980 45015356 44180692 43386516 
1799.846 42639972 41944096 41298176 40695028 40126328 39585004 39069340 
1803.222 38580916 38122976 37695108 37291008 36897956 36500872 36086740 
1806.597 35650752 35195996 34734120 34278920 33843196 33434256 33054580 
1809.972 32701648 32372188 32061256 31764656 31476010 31187504 30889458 
1813.347 30574692 30239406 29888284 29532580 29189458 28874948 28602208 
1816.723 28376404 28196216 28054848 27944948 27860470 27797372 27750596 
1820.098 27713044 27670908 27606502 27499328 27331614 27091860 26779132 
1823.473 26402154 25980068 25537444 25101644 24696246 24338934 24036112 
1826.848 23785138 23574216 23387248 23208834 23029306 22844732 22657920 
1830.224 22472174 22288124 22101210 21901516 21678936 21428354 21152584 
1833.599 20863544 20575270 20299794 20038546 19783982 19521260 19239226 
1836.974 18935580 18623354 18327042 18073112 17879316 17746966 17658626 
1840.349 17586396 17500604 17384596 17236994 17072818 16914196 16780844 
1843.725 16681127 16610375 16554192 16496796 16426513 16341282 16245207 
1847.100 16145473 16045824 15946072 15839156 15718769 15579838 15424114 
1850.475 15259029 15096701 14951259 14836890 14764174 14740441 14766606 
1853.850 14836201 14932686 15032922 15105911 15123934 15064635 14920010 
1857.226 14696688 14414849 14102197 13788879 13501704 13260955 13079282 
1860.601 12962764 12908416 12905682 12934349 12968675 12981190 12951549 
1863.976 12872444 12754648 12623250 12510885 12445436 12441619 12495711 
1867.351 12590867 12701731 12808139 12897625 12968160 13021424 13058408 
1870.727 13072041 13052793 12991313 12889596 12762690 12638765 12548521 
1874.102 12514419 12539212 12604959 12676932 12719019 12705805 12634031 
1877.477 12521733 12402949 12311983 12272738 12288782 12345176 12412483 
1880.852 12459006 12459098 12401962 12291173 12144758 11985947 11838864 
1884.228 11719340 11631442 11565364 11500207 11410495 11276320 11090887 
1887.603 10867817 10636013 10435907 10303370 10259531 10301908 10406914 
1890.978 10537309 10657057 10742776 10789793 10810399 10826374 10856153 
1894.353 10909924 10985547 11076235 11174619 11282613 11407755 11561662 
1897.729 11749220 11963204 12179904 12367193 12491478 12530124 12478703 
1901.104 12353855 12185672 12012707 11868019 11775852 11745060 11774205 
1904.479 11850026 11955477 12067845 12165224 12224261 12227225 12158616 
1907.854 12012305 11789430 11499295 11157244 10782530 10395493 10020490 
1911.229 9681216 9402958 9208635 9115997 9130600 9245733 9436624 9670265 
1915.087 9907941 10118882 10282352 10395331 10465415 10510637 10543786 
1918.462 10571221 10585983 10570544 10503303 10366065 10150377 9864031 
1921.837 9527466 9175931 8844262 8567537 8368342 8257301 8228715 8269620 
1925.695 8360428 8484423 8629588 8794337 8981728 9199415 9449575 9728386 
1929.552 10020040 10304364 10559259 10771712 10941074 11084935 11227136 
1932.927 11393644 11591831 11808615 12000530 12112191 12088278 11899946 
1936.303 11555123 11104081 10620556 10182166 9836435 9592153 9413571 9248322 
1940.160 9050795 8817738 8592492 8462708 8519473 8825134 9373055 10086068 
1944.018 10826193 11444220 11817772 11895615 11705167 11342358 10931038 
1947.393 10589816 10398827 10392576 10563422 10885626 11323200 11845411 
1950.768 12417518 12998760 13529690 13944095 14174412 14181467 13955018 
1954.143 13527784 12959035 12323542 11683417 11086998 10559028 10119117 
1957.519 9787465 9604048 9618751 9889447 10454948 11322706 12443835 13723120 
1961.376 15026646 16207311 17126652 17689140 17848576 17626552 17100520 
1964.751 16403133 15679512 15080838 14716088 14647041 14856796 15263793 
1968.126 15720326 16054559 16088741 15698781 14840457 13586009 12112667 
1971.502 10684864 9587263 9066742 9254024 10135267 11539557 13194185 
1974.877 14793557 16088402 16935944 17333334 17382880 17245336 17068844 
1978.252 16959952 16959942 17080658 17309862 17640018 18043562 18471970 
1981.627 18831934 19009246 18895282 18445848 17706910 16837462 16053280 
1985.003 15571331 15509674 15847538 16403405 16900010 17051250 16668998 
1988.378 15724465 14369295 12873222 11544842 10626470 10231419 10319823 
1991.753 10744165 11309413 11856689 12296254 12631749 12913343 13207978 
1995.128 13538775 13878924 14144341 14248958 14128911 13791262 13313543 
1998.504 12836063 12508713 12460451 12742803 13326176 14094547 14888378 
2001.879 15531508 15884699 15854597 15416720 14588065 13426591 12005650 
2005.254 10422139 8798190 7293048 6083992 5343755 5186836 5636639 6583960 
2009.112 7816626 9057812 10053669 10624333 10726235 10434077 9918949 9371864 
2012.969 8952202 8736748 8723071 8842261 9009140 9137060 9166850 9052934 
2016.826 8760775 8252438 7509064 6543546 5436882 4335660 3451730 3002442 
2020.684 3164943 4012188 5489426 7404600 9479643 11401666 12894694 13766690 
2024.541 13954912 13513556 12615556 11502569 10461056 9753572 9594862 
2027.917 10093755 11243325 12902022 14830305 16723076 18284410 19270682 
2031.292 19544540 19078468 17968982 16392870 14578954 12744396 11074109 
2034.667 9675640 8599567 7834601 7351104 7107456 7071855 7207804 7471851 
2038.524 7789996 8071859 8219166 8170629 7930712 7608352 7392896 7516967 
2042.382 8174000 9442924 11227985 13266270 15175764 16574765 17181958 
2045.757 16924828 15943989 14566833 13193721 12188684 11762431 11927811 
2049.132 12509835 13238274 13845528 14162195 14140391 13847774 13409541 
2052.508 12957586 12581397 12311554 12114440 11923074 11667294 11313668 
2055.883 10877340 10427303 10053368 9843772 9846218 10062162 10441045 
2059.258 10904384 11370107 11780124 12110029 12372552 12592253 12790068 
2062.633 12959656 13073379 13085313 12961322 12691507 12307610 11867800 
2066.009 11446026 11102448 10872930 10755595 10731131 10772055 10863093 
2069.384 11001724 11197932 11451796 11745885 12035545 12264611 12374587 
2072.759 12335973 12151391 11864629 11538980 11241764 11018634 10884962 
2076.134 10821629 10792530 10752759 10669021 10524922 10326236 10092183 
2079.510 9852579 9636124 9469004 9363978 9326291 9345666 9405553 9483254 
2083.367 9562111 9631594 9696501 9771079 9877478 10031728 10243191 10501729 
2087.224 10784741 11054036 11268190 11381717 11357709 11166997 10802632 
2090.600 10277735 9636661 8947943 8299233 7775429 7442818 7327543 7412673 
2094.457 7640806 7938976 8238639 8503419 8724706 8919417 9101342 9267234 
2098.314 9386941 9419381 9332296 9129792 8861185 8612981 8477576 8522185 
2102.172 8755888 9128296 9540387 9885771 10082913 10104753 9980139 9780172 
2106.029 9585733 9466484 9457858 9569525 9787771 10093678 10466257 10886185 
2109.887 11323339 11740430 12086464 12314443 12389805 12308790 12093958 
2113.262 11790920 11446786 11098793 10760631 10428108 10086413 9726694 
2116.637 9350229 8974671 8617862 8297569 8016398 7771152 7553970 7368105 
2120.495 7227512 7155712 7167325 7253913 7369396 7435593 7355653 7046975 
2124.352 6465477 5633232 4632345 3593271 2659032 1954075 1551027 1460784 
2128.209 1629710 1963126 2342642 2659007 2828858 2811797 2604732 2244405 
2132.067 1786236 1293347 817473 393463 33231 -263960 -506403 -696222 -829031 
2136.406 -896400 -903393 -873316 -859785 -927786 -1143394 -1541351 -2110440 
2140.264 -2778707 -3438951 -3961847 -4247095 -4239855 -3956677 -3472890 
2143.639 -2917054 -2424620 -2123277 -2096667 -2372510 -2912325 -3619278 
2147.014 -4348034 -4946755 -5283426 -5299758 -5033017 -4635417 -4336379 
2150.390 -4405572 -5066097 -6439225 -8484358 -11014963 -13719697 -16248954 
2153.765 -18286182 -19623120 -20171662 -19966918 -19094098 -17653572 
2156.658 -15711971 -13319814 -10527002 -7454201 -4316296 -1415464 941222 
2160.033 2518809 3249179 3217142 2631588 1733343 738896 -217399 -1071772 
2163.891 -1834808 -2520472 -3134599 -3629686 -3920810 -3899454 -3485567 
2167.266 -2655315 -1475583 -97192 1262752 2382493 3065757 3201272 2773504 
2171.123 1876256 672326 -630141 -1833187 -2773248 -3357225 -3552961 -3400495 
2174.981 -2987431 -2440865 -1898633 -1501722 -1360613 -1538832 -2029714 
2178.356 -2754255 -3552282 -4228443 -4577238 -4453226 -3802943 -2705668 
2181.731 -1340167 45551 1219481 2024535 2428119 2516373 2465112 2469939 
2185.589 2694851 3213260 4010851 4979972 5969472 6810086 7364298 7541353 
2189.446 7316007 6722699 5854974 4846984 3860614 3055568 2565437 2464892 
2193.303 2758366 3363835 4142991 4919837 5532674 5861319 5860849 5555865 
2197.161 5034423 4415741 3829363 3379343 3139479 3138998 3373519 3802526 
2201.018 4363254 4971408 5542128 5990579 6257144 6310984 6168234 5876623 
2204.876 5519211 5182566 4947708 4863998 4951414 5189599 5537782 5943812 
2208.733 6361754 6757505 7119585 7449043 7756532 8048294 8325192 8571155 
2212.591 8762985 8869604 8875534 8776263 8598930 8389420 8212513 8129445 
2216.448 8184536 8386352 8707793 9080367 9417469 9626140 9641603 9433115 
2220.305 9022737 8476580 7895547 7392869 7077421 7026434 7280190 7829319 
2224.163 8620610 9561984 10539633 11428327 12116770 12515993 12583365 
2227.538 12323680 11798200 11110092 10389409 9762962 9327305 9120278 9115010 
2231.396 9219453 9307227 9246211 8948532 8389772 7625637 6779102 6008111 
2235.253 5464977 5263556 5450123 6005840 6846326 7853286 8890234 9827352 
2239.110 10554190 10994933 11109075 10905598 10436734 9799019 9114130 
2242.486 8510601 8087986 7901017 7940718 8145691 8419588 8667483 8822056 
2246.343 8868789 8838541 8796033 8806788 8915869 9123296 9392023 9653787 
2250.200 9842305 9907536 9841549 9675550 9477335 9328958 9306762 9460278 
2254.058 9797921 10279540 10830115 11350234 11747006 11954285 11957899 
2257.433 11794432 11549015 11326035 11224357 11303609 11571835 11980178 
2260.808 12441582 12856412 13143911 13259526 13205743 13019411 12759787 
2264.184 12482798 12232208 12029208 11880943 11785367 11743794 11760357 
2267.559 11845204 12004863 12239343 12535266 12869872 13214413 13539462 
2270.934 13818821 14034632 14173143 14229465 14202383 14100641 13938958 
2274.309 13743308 13543869 13376021 13267352 13236761 13288875 13415196 
2277.685 13597817 13816290 14051445 14291040 14526499 14754598 14971873 
2281.060 15177238 15369674 15552322 15731005 15916094 16116062 16334765 
2284.435 16563609 16784596 16968594 17086356 17114392 17044926 16887246 
2287.810 16667936 16422451 16186558 15987849 15840586 15744701 15689725 
2291.186 15658556 15634006 15599187 15542208 15452952 15326857 15163137 
2294.561 14970359 14763106 14564065 14396777 14281699 14228113 14233647 
2297.936 14283126 14356268 14432998 14501340 14557419 14605171 14649466 
2301.311 14690835 14723322 14737246 14722908 14680147 14619785 14563353 
2304.687 14536031 14556505 14629545 14744489 14877331 15001632 15096271 
2308.062 15155325 15186134 15204685 15227437 15265662 15320225 15386088 
2311.437 15457577 15533305 15618634 15722767 15851401 16002690 16162558 
2314.812 16310200 16424078 16491376 16513688 16507529 16497774 16511276 
2318.188 16568195 16681373 16857352 17101202 17419976 17820366 18299458 
2321.563 18835638 19378828 19852678 20165578 20232512 19996666 19446682 
2324.938 18619754 17596204 16481074 15383389 14395608 13581713 12968273 
2328.313 12549647 12296196 12167355 12122922 12130198 12166002 12214953 
2331.688 12266195 12313390 12351375 12380691 12404302 12429572 12463302 
2335.064 12509424 12565596 12622808 12667822 12686978 12670540 12616997 
2338.439 12532134 12427475 12315721 12208642 12112672 12030247 11961139 
2341.814 11904174 11860300 11831721 11822452 11834941 11869987 11923751 
2345.189 11989493 12057307 12117287 12159747 12178692 12171120 12137639 
2348.565 12084383 12019214 11953468 11898102 11862961 11853336 11870192 
2351.940 11908732 11959592 12010316 12048517 12062113 12043903 11988426 
2355.315 11895110 11766469 11610080 11436118 11258957 11093914 10957180 
2358.690 10860927 10810771 10804054 10829258 10867434 10895905 10893858 
2362.066 10845304 10742626 10589128 10395485 10180125 9961714 9759400 
2365.441 9586785 9453528 9363827 9317935 9313188 9346750 9414379 9511188 
2369.298 9631735 9767566 9909334 10046341 10169296 10273662 10359506 
2372.674 10434031 10507480 10591134 10691516 10807692 10928855 11038150 
2376.049 11116462 11148961 11132118 11075535 10999897 10933874 10904226 
2379.424 10930418 11017188 11155018 11322035 11490017 11631519 11724717 
2382.799 11758151 11730661 11648285 11523066 11368334 11197345 11022721 
2386.175 10858120 10716891 10615494 10568087 10586368 10673337 10822574 
2389.550 11014379 11221101 11409369 11551685 11630292 11645140 11614461 
2392.925 11568698 11544248 11571676 11666183 11822606 12015725 12206707 
2396.300 12353288 12421670 12393303 12271114 12075494 11839558 11599243 
2399.676 11385490 11218076 11105126 11044078 11026272 11041756 11082750 
2403.051 11144604 11226124 11325880 11444127 11580483 11734722 11907344 
2406.426 12099181 12308476 12528791 12745847 12938797 13081672 13150493 
2409.801 13129756 13019178 12832881 12599237 12350030 12113556 11906875 
2413.177 11734838 11591869 11470293 11366473 11284296 11233239 11224396 
2416.552 11261758 11339367 11440091 11543940 11632768 11700083 11748943 
2419.927 11791421 11838050 11891999 11945649 11983332 11990425 11961310 
2423.302 11904979 11842619 11799162 11792571 11823764 11875776 11918297 
2426.677 11921315 11865127 11748567 11587479 11407889 11233465 11080393 
2430.053 10951199 10841903 10748033 10672038 10625318 10623110 10674234 
2433.428 10777669 10913990 11053722 11163442 11220533 11218840 11171787 
2436.803 11105462 11049640 11025382 11040297 11087470 11150913 11211853 
2440.178 11258437 11285425 11296892 11300677 11304870 11314220 11332079 
2443.554 11357390 11389180 11424582 11462211 11498053 11527025 11542326 
2446.929 11537388 11506956 11451095 11373896 11287081 11205566 11145927 
2450.304 11122852 11145224 11212092 11313550 11430250 11539122 11617476 
2453.679 11651238 11637004 11584287 11512063 11443350 11397892 11386966 
2457.055 11411416 11461555 11520029 11568977 11589529 11567663 11491994 
2460.430 11360024 11174135 10948736 10708383 10486778 10320988 10243572 
2463.805 10270633 10398031 10597661 10824216 11025980 11157922 11192310 
2467.180 11125696 10975294 10775873 10565923 10383599 10255925 10199513 
2470.556 10218030 10304666 10442605 10608492 10774381 10914205 11005417 
2473.931 11038201 11015091 10951876 10872317 10802762 10764506 10769835 
2477.306 10819850 10907867 11021312 11146343 11267036 11369857 11440831 
2480.681 11469141 11447772 11379364 11274451 11154545 11046246 10974819 
2484.057 10957160 10997210 11084020 11196501 11307620 11393396 11436162 
2487.432 11429133 11372870 11276846 11152296 11014053 10875768 10752532 
2490.807 10656100 10595644 10574854 10591158 10637243 10702619 10777620 
2494.182 10855325 10933899 11015262 11100342 11189550 11277216 11354381 
2497.558 11409673 11435129 11427464 11391601 11337980 11281912 11237129 
2500.933 11214681 11219188 11250832 11304941 11375328 11455132 11538326 
2504.308 11617701 11686540 11735525 11756581 11744572 11700744 11634899 
2507.683 11567440 11524310 11532824 11612342 11765686 11975696 12207611 
2511.059 12413913 12549455 12582425 12505013 12336123 12116332 11896417 
2514.434 11722352 11624294 11610184 11666074 11764802 11877060 11978664 
2517.809 12057457 12112407 12149662 12175619 12195087 12208060 12211324 
2521.184 12201835 12178401 12143127 12100406 12054371 12007475 11961494 
2524.560 11916510 11874555 11838418 11814961 11809856 11828188 11868369 
2527.935 11925667 11988663 12043046 12073980 12069588 12023065 11935415 
2531.310 11814761 11677031 11544017 11439539 11385320 11395886 11474663 
2534.685 11612800 11789803 11978706 12153100 12292483 12388496 12445694 
2538.061 12477738 12503334 12538210 12590801 12659419 12731556 12790693 
2541.436 12821060 12811990 12765422 12691734 12611205 12545822 12515204 
2544.811 12530027 12591253 12689875 12811672 12941466 13066881 13181167 
2548.186 13281406 13365454 13427223 13455075 13433159 13345202 13182462 
2551.562 12948261 12662450 12357103 12071565 11841745 11691156 11626310 
2554.937 11635689 11696579 11781544 11867915 11943452 12009085 12074659 
2558.312 12154400 12262291 12403156 12574200 12762578 12949600 13112765 
2561.687 13233495 13300417 13311169 13274915 13210109 13139522 13085851 
2565.063 13065697 13085612 13141405 13221660 13310729 13395444 13469001 
2568.438 13532257 13590969 13654274 13727345 13811481 13901090 13986941 
2571.813 14057473 14104038 14120838 14107685 14067927 14011835 13951747 
2575.188 13905030 13889576 13923633 14019252 14179764 14395720 14644858 
2578.563 14894832 15110048 15259023 15320626 15287087 15166247 14974815 
2581.939 14736021 14473956 14210818 13965669 13756966 13600312 13508800 
2585.314 13489996 13542195 13653656 13801697 13959181 14099209 14203612 
2588.689 14266451 14291699 14293490 14286068 14279081 14274259 14266829 
2592.064 14249130 14219073 14182829 14154400 14153116 14194570 14282796 
2595.440 14408167 14546836 14669192 14747577 14767838 14732823 14661595 
2598.815 14582236 14522132 14497515 14510328 14546709 14585198 14604146 
2602.190 14592265 14549985 14492662 14442307 14422527 14449056 14527617 
2605.565 14652382 14808784 14978221 15142924 15286786 15399095 15472640 
2608.941 15504333 15494838 15450629 15382470 15306395 15239070 15196277 
2612.316 15185660 15205923 15246462 15290705 15321530 15327075 15306896 
2615.691 15269838 15231892 15210887 15219840 15262903 15334114 15421801 
2619.066 15511987 15594029 15662819 15719308 15768338 15815185 15862137 
2622.442 15910078 15957506 16003542 16049599 16098756 16154462 16218217 
2625.817 16287114 16354809 16412726 16453713 16475368 16482189 16483713 
2629.192 16492391 16516456 16559621 16617574 16680326 16735848 16774399 
2632.567 16793052 16794798 16789288 16788108 16800482 16831112 16877608 
2635.943 16933082 16986534 17027324 17046936 17041802 17012092 16963644 
2639.318 16904798 16846288 16796722 16764013 16752597 16762672 16791672 
2642.693 16834894 16886042 16939524 16990622 17034900 17068334 17088260 
2646.068 17090486 17073038 17035028 16978660 16908120 16830614 16752904 
2649.444 16681762 16620304 16569074 16526025 16488036 16452000 16415590 
2652.819 16377831 16338900 16297635 16253592 16203469 16146012 16080508 
2656.194 16009180 15937386 15872354 15821137 15788920 15775172 15773566 
2659.569 15772587 15757577 15715130 15635489 15517037 15366112 15195484 
2662.945 15023036 14866905 14739791 14648317 14591327 14560342 14543478 
2666.320 14527410 14501141 14458304 14396301 14318169 14229092 14136946 
2669.695 14050949 13980240 13932793 13914439 13926537 13964890 14019569 
2673.070 14076063 14118412 14132709 14111576 14055271 13972751 13878630 
2676.446 13790675 13724233 13689096 13688689 13718988 13769955 13829296 
2679.821 13883180 13920279 13931501 13914049 13869704 13806818 13738158 
2683.196 13677390 13637565 13626250 13644176 13685063 13737667 13790920 
2686.571 13835462 13869025 13893950 13917171 13944819 13978788 14016014 
2689.947 14048110 14063982 14055133 14017130 13952667 13869680 13778996 
2693.322 13690902 13612988 13548053 13495021 13450826 13411490 13374675 
2696.697 13338206 13302538 13268125 13236592 13209387 13188144 13174488 
2700.072 13169425 13173586 13184986 13200829 13216945 13229899 13236878 
2703.448 13237789 13234987 13231909 13232547 13239892 13255124 13277076 
2706.823 13302841 13329434 13353495 13373205 13387569 13397850 13404501 
2710.198 13409705 13413632 13417474 13421131 13424153 13426540 13428381 
2713.573 13431588 13437884 13448730 13465951 13488544 13513969 13537307 
2716.948 13552366 13553406 13537318 13503917 13457200 13402995 13350233 
2720.324 13305474 13276106 13265604 13276616 13309617 13364160 13438432 
2723.699 13528074 13625693 13721802 13804980 13865073 13894304 13891824 
2727.074 13862376 13815454 13763760 13718456 13687310 13672713 13672750 
2730.449 13683399 13700736 13722838 13750073 13785381 13829768 13883336 
2733.825 13941869 13999602 14049932 14087989 14112580 14125707 14131682 
2737.200 14134908 14137580 14139612 14138336 14130447 14114198 14090958 
2740.575 14063853 14038115 14017974 14005915 14001024 14000725 14000705 
2743.950 13998013 13990723 13979376 13965265 13950691 13937119 13926587 
2747.326 13921201 13923644 13936129 13960226 13994012 14032047 14064009 
2750.701 14079573 14068942 14028884 13963254 13883857 13807116 13749176 
2754.076 13721307 13727220 13761938 13814589 13872705 13925395 13966462 
2757.451 13994044 14009529 14015676 14014426 14007996 13998045 13988277 
2760.827 13983039 13987795 14006533 14039810 14083941 14131695 14174463 
2764.202 14205019 14219729 14219613 14208186 14190723 14170381 14149009 
2767.577 14126424 14102068 14076124 14052401 14035351 14031016 14043861 
2770.952 14076399 14128183 14196709 14277719 14366665 14458342 14546154 
2774.328 14622089 14678136 14707868 14708747 14683555 14642617 14598404 
2777.703 14565916 14554282 14565378 14593444 14624870 14645218 14641415 
2781.078 14608047 14547152 14467672 14382670 14304822 14244497 14207301 
2784.453 14196039 14209419 14245964 14303253 14378876 14469666 14571989 
2787.829 14680995 14791541 14898580 14998740 15088834 15167358 15233646 
2791.204 15288068 15330797 15364831 15391755 15415500 15439630 15467796 
2794.579 15501879 15542543 15587818 15634982 15680291 15719887 15750391 
2797.954 15769821 15777703 15775632 15767168 15758326 15755963 15767042 
2801.330 15797589 15850432 15924651 16014609 16111286 16204521 16283104 
2804.705 16339773 16370652 16376857 16363559 16339134 16313285 16295347 
2808.080 16292300 16308302 16343735 16396919 16463524 16539874 16622391 
2811.455 16709283 16800840 16896874 16997102 17100116 17201566 17295110 
2814.831 17374694 17436046 17478684 17507800 17533328 17568052 17622770 
2818.206 17704316 17811480 17934704 18057698 18163008 18236778 18274620 
2821.581 18283532 18280202 18287596 18328506 18416724 18555600 18734640 
2824.956 18934104 19130242 19301940 19435090 19526048 19578870 19602772 
2828.332 19608018 19603838 19597938 19595564 19602428 19624352 19667154 
2831.707 19733804 19822604 19925842 20032082 20128534 20205834 20260926 
2835.082 20299796 20333910 20377012 20440862 20530830 20644254 20774652 
2838.457 20912756 21052354 21193454 21340836 21504368 21694228 21918194 
2841.833 22179856 22478768 22812294 23178758 23578286 24015746 24498302 
2845.208 25034110 25626356 26272244 26959368 27665036 28358208 29004088 
2848.583 29570092 30030244 30371510 30594308 30711882 30746224 30722464 
2851.958 30663446 30586090 30500872 30413010 30324346 30238474 30159844 
2855.333 30095828 30051858 30031914 30036116 30060190 30097858 30143104 
2858.709 30192246 30244706 30304368 30376190 30465330 30576452 30711438 
2862.084 30870970 31053816 31259320 31484962 31729218 31989466 32264270 
2865.459 32552972 32856062 33175908 33516326 33880964 34272008 34689088 
2868.834 35129032 35586584 36056392 36533784 37017480 37508192 38009552 
2872.210 38523832 39051660 39590380 40132068 40665316 41176320 41652248 
2875.585 42082968 42463212 42793688 43081236 43334592 43563096 43772360 
2878.960 43961872 44124280 44246436 44313460 44311776 44235032 44084268 
2882.335 43869596 43608388 43320652 43026860 42744300 42486928 42263640 
2885.711 42080752 41940548 41842928 41786028 41762936 41766444 41788360 
2889.086 41820960 41860308 41906008 41960724 42029332 42116288 42223780 
2892.461 42351352 42497000 42658100 42832552 43020284 43221208 43434632 
2895.836 43656208 43878292 44089944 44278836 44434884 44552892 44633944 
2899.212 44684256 44714092 44733868 44751256 44770756 44792440 44813436 
2902.587 44831840 44845760 44857104 44870232 44891048 44926824 44982560 
2905.962 45063564 45173132 45313492 45486072 45691584 45931680 46207672 
2909.337 46521916 46876056 47273344 47716756 48208148 48748812 49336248 
2912.713 49966184 50630604 51318784 52017728 52714052 53394552 54046412 
2916.088 54658140 55219280 55721068 56155996 56519748 56813228 57041304 
2919.463 57214752 57348896 57461220 57569240 57688028 57827348 57991228 
2922.838 58178904 58386552 58608500 58840696 59080708 59329284 59588952 
2926.214 59863068 60154628 60466360 60799744 61155816 61536932 61947632 
2929.589 62394164 62885256 63429356 64033992 64702972 65437452 66235924 
2932.964 67097216 68020864 69012784 70082624 71244480 72512848 73899240 
2936.339 75408736 77039248 78781024 80620176 82540736 84527936 86566776 
2939.715 88642584 90735904 92821456 94866952 96833328 98679136 100365312 
2943.090 101858352 103134816 104180224 104989640 105564832 105912840 
2945.983 106045552 105979552 105734600 105333968 104803280 104166320 
2948.876 103444240 102653320 101806856 100915872 99991816 99049128 98103488 
2952.251 97171616 96267272 95398688 94566016 93763976 92983344 92215568 
2955.626 91456104 90707360 89975648 89271528 88604320 87979128 87395280 
2959.002 86846560 86320752 85805896 85290248 84764376 84222648 83662208 
2962.377 83083000 82485784 81871048 81239080 80589016 79919744 79228888 
2965.752 78514984 77777472 77018344 76241152 75452744 74661120 73875784 
2969.127 73104520 72354920 71632576 70940656 70280280 69652272 69056872 
2972.503 68493240 67961544 67461768 66994728 66563068 66169412 65818684 
2975.878 65516368 65267356 65076276 64945332 64874104 64861156 64902788 
2979.253 64994872 65133400 65315588 65539928 65808140 66123044 66492408 
2982.628 66925368 67435432 68036496 68741944 69562128 70500984 71556608 
2986.004 72720448 73979760 75318896 76724208 78182136 79679640 81203664 
2989.379 82736688 84256672 85733992 87136320 88429056 89579880 90561680 
2992.754 91353632 91941824 92319712 92485824 92445216 92208456 91791224 
2996.129 91213872 90499480 89669856 88744480 87735752 86650616 85490408 
2999.505 84255928 82948488 81574664 80145832 78676088 77179376 75666000 
3002.880 74139808 72598640 71035056 69441264 67814032 66157192 64484172 
3006.255 62816852 61181832 59605108 58105724 56691724 55356892 54082660 
3009.630 52843444 51611028 50363640 49090844 47794564 46490288 45198572 
3013.006 43943556 42742372 41607368 40541716 39543712 38609540 37734672 
3016.381 36915004 36146460 35422384 34732668 34064356 33404886 32742676 
3019.756 32074846 31403862 30738760 30090778 29471384 28886470 28337146 
3023.131 27820210 27330208 26862130 26413794 25985302 25578086 25193848 
3026.507 24832496 24492384 24171866 23868798 23583982 23319670 23080256 
3029.882 22869814 22692132 22546896 22432176 22340930 22263862 22188616 
3033.257 22102818 21994820 21856542 21684196 21480646 21253856 21017832 
3036.632 20786282 20572884 20386334 20228986 20096854 19979822 19867258 
3040.008 19748636 19618948 19480332 19342612 19221626 19135694 19100270 
3043.383 19124878 19208542 19339820 19500334 19668496 19825766 19960358 
3046.758 20068972 20156816 20230958 20296814 20356542 20404800 20435116 
3050.133 20440504 20419304 20376538 20323190 20271262 20230410 20203718 
3053.509 20186570 20168696 20138074 20085970 20010004 19914284 19809804 
3056.884 19710130 19627810 19572398 19546896 19548952 19569930 19598220 
3060.259 19620962 19628478 19616854 19590088 19558988 19539620 19546302 
3063.634 19587388 19662074 19757914 19855956 19936604 19986252 20003108 
3067.010 19996866 19985362 19987366 20013936 20065386 20130068 20188168 
3070.385 20218810 20208452 20152016 20057438 19940418 19821196 19717966 
3073.760 19643444 19602078 19590682 19599230 19614402 19622444 19612382 
3077.135 19578728 19523024 19452508 19377730 19309556 19254822 19215910 
3080.510 19188682 19166420 19142698 19114308 19082594 19051182 19022868 
3083.886 18998070 18974192 18945438 18908692 18866336 18826866 18803050 
3087.261 18807544 18845236 18910442 18985112 19045274 19066420 19033880 
3090.636 18945870 18815152 18665084 18521534 18405272 18328976 18292664 
3094.011 18288864 18303874 18323878 18336296 18333538 18309250 18262074 
3097.387 18193138 18107128 18011422 17916416 17831172 17763388 17716398 
3100.762 17689384 17678080 17676246 17679098 17684034 17691262 17702762 
3104.137 17719998 17743804 17772828 17804156 17832882 17854738 17865854 
3107.512 17863618 17846670 17816254 17775074 17727832 17679530 17634662 
3110.888 17595522 17559190 17518878 17465916 17391416 17291614 17168072 
3114.263 17032066 16899692 16789020 16714385 16684463 16697081 16742952 
3117.638 16806092 16869362 16917376 16939140 16930770 16893400 16834146 
3121.013 16763251 16694853 16643921 16625021 16649377 16721928 16837366 
3124.389 16980628 17127090 17246346 17310786 17300866 17211102 17053322 
3127.764 16853122 16644390 16460806 16327560 16256301 16243484 16275167 
3131.139 16332163 16398316 16462810 16523650 16583038 16643917 16704714 
3134.514 16757643 16789240 16785726 16736871 16642349 16512139 16365804 
3137.890 16227229 16118817 16055001 16041048 16070772 16129779 16200697 
3141.265 16267855 16320702 16356079 16376400 16389767 16405459 16431170 
3144.640 16470701 16523749 16588097 16657956 16728895 16796268 16856382 
3148.015 16904790 16937160 16948418 16935800 16899298 16845350 16784620 
3151.391 16732123 16701384 16700346 16729122 16779060 16836950 16889460 
3154.766 16928764 16955484 16976280 17000368 17035790 17083936 17137604 
3158.141 17187158 17222210 17237768 17235204 17219708 17195610 17163134 
3161.516 17115478 17042244 16933140 16787514 16614599 16436556 16279913 
3164.892 16169926 16121453 16135480 16199289 16291890 16391965 16482299 
3168.267 16555456 16611213 16653698 16688550 16718622 16743707 16761675 
3171.642 16770925 16772093 16769322 16769420 16779740 16806878 16854576 
3175.017 16920178 16995388 17066042 17115198 17125790 17087246 16997736 
3178.393 16867062 16715778 16569054 16451299 16380219 16362974 16396279 
3181.768 16470984 16574314 16694542 16821120 16943470 17047710 17118342 
3185.143 17139842 17103862 17013152 16885870 16753538 16650997 16607871 
3188.518 16635614 16725818 16850284 16973190 17060186 17089954 17059456 
3191.894 16980670 16874774 16764464 16668051 16596673 16557731 16554980 
3195.269 16591547 16668849 16782936 16922586 17069902 17203118 17303452 
3198.644 17359928 17374350 17359686 17333960 17315958 17317704 17342654 
3202.019 17386516 17441242 17498782 17553866 17604456 17649468 17689010 
3205.395 17721358 17744678 17757460 17761208 17760434 17761490 17771048 
3208.770 17794286 17833362 17888392 17955936 18031474 18108874 18180802 
3212.145 18239166 18278678 18296848 18297542 18289716 18284258 18290452 
3215.520 18310898 18337720 18355588 18345376 18292720 18194574 18062272 
3218.896 17918924 17792936 17707764 17674218 17690264 17739716 17801828 
3222.271 17855744 17888698 17895592 17878578 17843062 17797362 17748620 
3225.646 17707656 17684970 17692162 17737034 17818638 17923772 18028076 
3229.021 18101320 18117030 18063148 17947348 17798022 17655716 17561306 
3232.396 17543214 17608412 17739806 17904350 18061906 18179136 18236248 
3235.772 18232448 18182160 18109478 18038406 17988940 17971298 17987126 
3239.147 18031110 18093698 18165226 18237536 18304436 18362976 18412718 
3242.522 18455294 18494184 18533410 18576242 18624314 18675016 18721920 
3245.897 18755760 18764434 18735824 18662178 18541632 18381586 18197854 
3249.273 18013108 17851884 17736104 17679512 17685736 17747486 17849852 
3252.648 17974624 18105342 18231086 18346720 18451908 18547846 18634198 
3256.023 18707904 18762934 18792608 18793206 18765140 18714206 18648812 
3259.398 18580230 18516120 18461400 18416738 18381038 18350910 18324718 
3262.774 18302020 18283916 18271722 18267186 18271862 18286612 18313422 
3266.149 18353400 18408078 18477032 18556864 18639468 18714200 18768212 
3269.524 18790192 18774846 18724034 18647404 18560870 18482334 18427834 
3272.899 18406600 18420848 18466196 18532444 18608272 18684016 18752090 
3276.275 18809074 18852986 18884150 18902224 18908528 18905034 18897792 
3279.650 18892646 18898396 18920562 18961016 19015586 19074366 19123130 
3283.025 19148208 19141428 19102554 19040624 18974042 18924986 18914410 
3286.400 18956578 19054380 19199458 19371428 19543468 19686960 19778356 
3289.776 19802696 19758068 19654512 19512794 19360328 19224634 19128272 
3293.151 19083970 19093398 19146412 19224330 19305262 19368406 19400792 
3296.526 19398098 19367052 19321934 19281680 19264670 19282554 19339330 
3299.901 19429038 19537734 19646910 19737938 19796056 19813478 19791742 
3303.277 19740150 19673228 19608180 19559648 19537194 19543484 19572870 
3306.652 19614712 19654670 19680648 19684736 19665488 19628012 19580516 
3310.027 19531898 19486490 19443292 19395750 19333400 19248678 19139020 
3313.402 19010536 18877136 18757166 18669660 18626644 18633244 18685154 
3316.778 18771588 18879546 18996896 19113286 19222144 19317996 19395490 
3320.153 19449818 19477396 19477546 19455278 19420172 19385728 19364436 
3323.528 19363674 19381888 19409814 19432618 19435546 19409996 19356516 
3326.903 19286150 19216106 19164474 19144122 19158182 19199518 19252500 
3330.279 19299344 19325398 19323498 19295980 19253570 19210818 19181814 
3333.654 19176530 19198780 19246340 19312614 19388316 19465278 19535542 
3337.029 19594060 19635224 19655662 19652898 19627814 19584104 19530854 
3340.404 19479604 19443492 19434066 19458526 19517902 19606034 19712156 
3343.780 19822250 19922158 19998396 20039932 20038214 19988498 19890432 
3347.155 19746140 19565060 19359558 19145706 18940144 18756810 18605598 
3350.530 18490220 18408326 18355872 18325676 18313348 18315982 18334594 
3353.905 18370990 18427540 18504710 18600258 18708118 18818716 18918986 
3357.281 18996304 19040958 19048090 19020382 18968990 18910482 18862898 
3360.656 18841016 18852180 18894372 18957454 19024958 19080632 19109448 
3364.031 19101006 19050552 18957842 18827046 18668324 18497374 18336904 
3367.406 18213000 18150984 18166578 18261396 18418424 18604570 18779140 
3370.781 18905022 18958644 18935440 18851228 18730774 18602830 18486176 
3374.157 18387726 18302952 18222004 18136286 18043750 17951306 17869604 
3377.532 17809742 17776826 17770868 17785752 17814472 17852606 17900954 
3380.907 17963832 18047598 18156576 18290326 18443760 18606334 18765224 
3384.282 18905778 19014230 19078522 19090216 19046108 18949820 18811564 
3387.658 18647134 18473360 18306260 18156184 18027452 17922572 17843026 
3391.033 17794276 17784184 17822086 17912562 18051664 18223370 18404250 
3394.408 18566870 18689336 18759896 18779310 18758956 18713292 18655644 
3397.783 18592968 18528110 18462778 18400626 18351342 18327940 18342630 
3401.159 18400454 18495500 18611350 18725872 18818506 18877592 18903688 
3404.534 18909220 18912128 18929776 18971316 19036768 19117670 19202034 
3407.909 19278988 19343952 19397498 19444530 19489748 19533720 19572550 
3411.284 19597308 19600764 19577986 19530688 19469736 19408776 19362922 
3414.660 19342616 19352000 19386260 19436012 19491398 19546228 19600388 
3418.035 19660184 19733776 19825754 19934296 20047132 20145066 20208796 
3421.410 20223598 20187142 20111028 20016616 19930574 19876934 19868694 
3424.785 19906914 19980912 20073106 20163266 20235266 20277598 20287012 
3428.161 20265570 20221096 20164166 20107458 20062942 20040418 20044848 
3431.536 20074512 20121130 20171450 20211982 20231198 20224694 20193624 
3434.911 20145590 20090734 20038290 19996674 19970976 19965124 19981890 
3438.286 20024180 20091650 20180740 20282454 20381544 20460326 20502262 
3441.662 20494960 20434592 20328184 20189846 20040036 19900484 19789358 
3445.037 19718340 19689290 19695286 19720486 19744656 19747878 19716146 
3448.412 19645742 19544408 19430436 19326394 19252670 19221200 19229788 
3451.787 19266996 19312556 19347002 19357706 19341976 19308738 19275378 
3455.163 19260210 19279484 19343762 19453308 19601070 19772216 19946798 
3458.538 20102746 20219842 20282606 20283692 20226206 20121522 19987532 
3461.913 19843406 19705524 19584824 19486880 19413562 19365456 19344198 
3465.288 19350842 19384126 19438126 19502498 19563862 19611510 19641944 
3468.664 19661440 19684204 19727470 19803598 19914006 20049276 20192172 
3472.039 20324156 20433682 20519800 20590196 20656994 20728484 20805366 
3475.414 20878652 20935960 20964674 20961508 20931356 20886826 20842050 
3478.789 20808126 20789038 20784322 20790826 20808670 20843830 20906364 
3482.165 21007990 21155168 21348042 21577638 21829818 22089018 22341298 
3485.540 22576110 22786514 22966750 23111154 23214310 23273616 23291150 
3488.915 23274766 23240416 23205938 23190356 23208944 23270646 23377712 
3492.290 23527710 23712672 23922276 24143848 24361982 24560312 24724004 
3495.666 24842078 24910852 24937254 24936688 24930114 24940736 24984942 
3499.041 25069234 25186676 25319254 25441850 25527448 25558334 25527282 
3502.416 25442416 25324014 25199804 25093394 25021662 24985914 24975774 
3505.791 24972006 24956786 24920650 24865492 24805242 24757614 24735260 
3509.167 24739014 24755648 24759640 24724030 24629418 24471886 24265852 
3512.542 24039104 23825090 23654794 23546778 23508620 23532778 23605440 
3515.917 23707110 23818162 23918240 23991718 24025434 24012858 23956346 
3519.292 23864994 23752662 23634500 23521406 23415404 23311624 23202376 
3522.667 23079952 22943168 22798774 22656958 22526378 22409874 22301050 
3526.043 22187112 22054298 21896094 21715340 21526494 21348174 21197802 
3529.418 21084272 21005222 20949868 20904466 20857742 20806976 20756912 
3532.793 20717030 20696724 20702038 20733702 20787340 20857730 20939902 
3536.168 21027914 21115004 21192382 21247794 21266858 21239680 21162326 
3539.544 21041564 20892478 20735520 20590308 20471226 20383160 20323022 
3542.919 20282490 20251470 20221508 20188090 20150496 20110154 20068138 
3546.294 20026824 19987406 19953810 19929728 19920054 19929072 19959538 
3549.669 20010856 20080066 20163006 20254192 20348272 20440118 20523758 
3553.045 20591562 20636236 20648940 20626562 20569796 20485084 20384714 
3556.420 20282532 20191914 20120734 20070800 20038046 20013050 19986014 
3559.795 19949414 19898948 19834482 19759486 19678140 19595578 19515868 
3563.170 19444270 19384730 19343472 19326594 19339612 19384336 19459220 
3566.546 19557104 19667704 19777860 19874650 19949426 19997642 20021068 
3569.921 20024966 20018208 20007968 20000004 19994910 19986578 19966496 
3573.296 19922178 19843912 19726294 19572902 19397420 19221908 19071438 
3576.671 18965686 18915814 18915366 18946356 18980472 18990234 18958336 
3580.047 18881048 18769878 18645722 18528986 18431320 18350930 18274124 
3583.422 18183488 18065686 17919506 17758282 17606166 17488382 17422964 
3586.797 17412688 17445678 17498032 17542822 17556604 17526372 17449224 
3590.172 17331046 17185176 17028700 16881338 16763661 16695291 16689949 
3593.548 16753202 16874372 17030978 17190292 17318102 17388008 17388294 
3596.923 17324468 17216402 17089028 16967418 16867120 16796810 16756507 
3600.298 16743921 16755808 16787238 16830496 16872202 16893642 16873940 
3603.673 16797632 16662046 16481658 16286278 16114164 16002735 15976505 
3607.049 16041784 16184974 16378103 16587013 16782592 16943550 17062488 
3610.424 17141800 17192472 17227790 17261548 17305360 17366124 17446400 
3613.799 17541834 17643956 17739936 17817896 17868978 17891842 17890594 
3617.174 17874918 17856448 17844276 17844108 17857524 17884526 17926092 
3620.550 17985504 18066416 18171384 18298486 18439226 18579774 18705550 
3623.925 18805852 18878114 18929606 18977106 19037870 19127476 19251166 
3627.300 19404342 19571204 19731432 19861644 19943310 19963256 19916818 
3630.675 19805202 19638624 19431456 19205622 18987434 18806006 18687044 
3634.051 18651022 18704552 18841340 19041080 19274796 19511290 19724210 
3637.426 19896700 20025666 20117936 20189714 20260294 20348362 20467980 
3640.801 20627358 20826884 21061214 21316798 21576036 21816294 22013560 
3644.176 22146252 22198290 22163502 22049218 21873300 21664288 21453778 
3647.552 21273734 21145844 21083836 21086744 21145408 21243060 21362810 
3650.927 21487624 21606102 21709904 21795578 21860298 21903804 21924736 
3654.302 21921982 21894552 21844030 21772250 21683508 21584926 21484598 
3657.677 21389166 21304400 21231778 21168602 21107374 21038880 20953418 
3661.052 20846794 20720490 20586044 20461040 20366866 20322584 20338784 
3664.428 20413524 20530718 20661118 20770884 20827520 20809334 20708422 
3667.803 20536338 20316956 20083394 19865806 19687330 19556106 19466458 
3671.178 19400066 19334152 19245440 19115828 18935450 18702954 18425240 
3674.553 18119052 17807184 17520286 17289628 17142788 17095288 17145684 
3677.929 17273078 17441786 17608344 17734648 17796274 17791824 17739526 
3681.304 17669950 17614172 17591686 17602872 17631582 17649808 17629286 
3684.679 17551240 17410352 17215002 16982354 16730297 16476238 16230673 
3688.054 16000876 15790924 15602662 15437086 15292221 15162386 15042157 
3691.430 14926597 14817433 14723560 14660778 14645527 14688198 14785231 
3694.805 14919858 15059347 15169590 15219908 15194073 15094412 14940936 
3698.180 14764312 14597927 14471086 14401858 14395199 14444949 14534684 
3701.555 14642264 14745795 14825960 14872590 14884930 14873615 14854988 
3704.931 14848497 14868023 14919157 14996703 15088406 15178403 15253294 
3708.306 15304148 15327846 15323758 15290015 15225859 15126944 14995983 
3711.681 14841171 14680749 14537677 14435172 14386396 14390002 14431606 
3715.056 14485392 14524037 14527787 14489912 14418607 14333241 14259912 
3718.432 14223357 14240862 14320910 14461662 14649479 14861627 15065519 
3721.807 15226795 15311681 15296605 15174062 14957604 14677619 14379429 
3725.182 14109479 13907109 13796596 13785430 13864931 14017202 14220867 
3728.557 14455143 14700610 14940066 15157787 15338412 15468430 15540452 
3731.933 15554070 15517252 15445711 15358672 15274985 15209765 15171385 
3735.308 15160728 15170680 15190005 15203838 15199176 15167511 15108838 
3738.683 15032646 14956065 14898722 14879132 14903313 14967532 15054039 
3742.058 15138944 15196339 15207186 15163074 15067119 14932204 14777359 
3745.434 14621361 14481366 14371149 14303367 14288799 14335985 14449463 
3748.809 14627518 14861797 15136547 15431608 15725665 15997512 16228545 
3752.184 16400270 16497705 16509745 16432596 16272891 16050473 15793985 
3755.559 15537970 15315345 15149852 15050537 15012514 15020346 15053566 
3758.935 15094966 15133736 15167110 15198229 15231243 15270934 15316671 
3762.310 15367202 15415232 15455093 15479733 15481717 15455744 15397783 
3765.685 15307063 15186098 15039922 14877472 14707819 14540533 14386193 
3769.060 14256142 14163481 14121323 14140643 14227139 14374294 14566890 
3772.436 14778729 14981940 15150907 15272861 15346381 15382049 15396640 
3775.811 15406056 15420275 15440559 15461858 15477858 15480716 15467779 
3779.186 15437271 15389938 15327305 15250240 15163550 15076716 15002383 
3782.561 14955607 14946509 14976877 15035593 15104574 15161555 15191079 
3785.937 15188457 15162789 15132684 15117515 15129190 15168361 15223376 
3789.312 15277137 15312920 15321333 15302490 15263743 15215726 15166432 
3792.687 15119916 15076305 15033701 14992354 14954167 14924093 14906827 
3796.062 14905423 14921151 14954148 15004674 15073500 15159113 15256818 
3799.438 15352774 15426140 15451226 15405396 15277559 15075334 14825799 
3802.813 14569626 14351054 14208720 14162974 14216772 14355023 14551454 
3806.188 14774547 14994798 15188020 15337382 15432162 15469015 15448807 
3809.563 15378020 15269632 15138799 15004376 14883690 14791527 14738214 
3812.938 14729498 14766928 14848223 14968695 15120069 15291524 15468403 
3816.314 15635382 15777659 15883716 15948169 15970621 15956925 15916398 
3819.689 15861548 15805027 15760377 15739104 15748378 15789354 15856938 
3823.064 15936052 16006747 16049189 16045328 15986443 15876364 15729405 
3826.439 15568089 15416350 15292483 15205201 15152073 15121080 15096485 
3829.815 15062275 15009494 14936078 14849201 14762308 14692815 14656873 
3833.190 14668581 14732830 14847470 14998935 15168402 15331646 15465695 
3836.565 15554245 15591485 15583306 15544963 15495953 15450275 15414723 
3839.940 15384173 15345397 15284007 15189856 15065242 14924422 14790902 
3843.316 14688701 14636715 14638550 14684462 14751983 14814891 14850690 
3846.691 14844838 14795515 14711203 14606165 14498791 14406578 14347660 
3850.066 14339553 14396807 14529624 14738954 15011326 15317305 15615037 
3853.441 15859278 16011698 16053412 15990820 15851483 15675889 15505044 
3856.817 15368602 15279210 15232495 15212855 15203276 15191628 15175201 
3860.192 15161868 15162342 15186827 15238429 15311868 15394887 15471599 
3863.567 15526760 15549500 15535027 15484883 15406029 15310618 15211823 
3866.942 15124648 15059561 15024587 15021157 15044888 15088025 15139715 
3870.318 15192710 15242356 15288779 15334696 15382828 15433042 15481975 
3873.693 15523668 15551640 15562646 15557714 15543450 15528275 15522300 
3877.068 15532786 15561946 15607454 15662313 15715629 15756892 15774939 
3880.443 15761847 15713060 15629344 15516017 15383459 15244387 15113081 
3883.819 15001355 14919471 14872110 14858892 14876452 14916617 14970435 
3887.194 15029855 15087601 15139384 15184941 15226219 15267899 15315830 
3890.569 15372880 15439964 15513313 15586163 15650181 15698463 15727619 
3893.944 15738942 15737766 15731119 15726289 15726803 15732922 15740862 
3897.320 15744895 15739672 15722588 15695589 15664933 15641963 15639592 
3900.695 15668789 15734255 15832752 15948899 16060511 16140565 16165931 
3904.070 16123528 16015559 15858334 15680842 15513772 15383769 15305861 
3907.445 15282145 15303367 15355039 15421230 15489926 15556023 15616517 
3910.821 15672060 15722645 15768666 15809990 15845172 15873300 15889391 
3914.196 15888076 15860708 15801517 15710104 15595497 15476940 15379314 
3917.571 15325543 15327170 15378837 15458033 15533058 15573110 15559952 
3920.946 15495791 15398973 15298860 15221934 15183548 15183184 15209053 
3924.322 15246343 15288102 15338007 15410108 15519901 15674241 15864877 
3927.697 16067402 16246613 16369242 16412130 16370764 16259585 16104084 
3931.072 15937645 15789064 15682133 15630800 15641661 15713943 15839789 
3934.447 16003039 16180161 16342871 16461786 16514368 16491368 16397633 
3937.823 16251987 16083399 15921239 15789088 15700122 15656987 15651390 
3941.198 15671888 15704513 15739255 15771242 15801121 15833249 15875546 
3944.573 15935393 16014257 16109109 16207682 16292956 16345508 16351072 
3947.948 16304208 16212039 16091984 15966626 15856437 15772775 15716044 
3951.323 15676348 15640074 15594150 15536318 15470675 15410308 15370150 
3954.699 15360787 15385535 15439907 15514137 15597644 15684484 15772671 
3958.074 15866840 15972290 16090479 16219564 16348030 16460370 16539356 
3961.449 16573438 16559416 16506957 16436588 16372833 16340751 16354673 
3964.824 16415279 16509591 16612554 16698429 16745979 16746555 16704919 
3968.200 16633935 16550992 16466834 16387707 16310422 16231528 16150625 
3971.575 16075552 16020920 16003203 16034903 16114851 16229374 16354440 
3974.950 16463848 16537784 16569849 16567068 16545931 16526384 16521333 
3978.325 16535714 16563937 16596295 16624797 16644254 16657457 16669860 
3981.701 16689062 16719593 16762251 16814254 16872930 16933488 16992866 
3985.076 17046252 17087792 17108662 17099928 17055572 16975984 16869296 
3988.451 16751779 16643584 16564727 16527757 16535629 16580213 16646031 
3991.826 16714679 16771186 16807408 16824800 16833778 16849176 16887692 
3995.202 16960572 17070640 17210956 17364830 17510322 17623618 17686096 
3998.577 17688094 17631200 17526106 17390606 17243570 
##END=
