##TITLE=Bambu-Lab_PLA_White_Filament_r5_ATR-Corrected
##JCAMP-DX=5.01  $$ Nicolet v. 1
##DATATYPE=INFRARED SPECTRUM
##ORIGIN=Curtin University
##OWNER=Nicolet
##LONGDATE=2024/07/03
##TIME=09:47:04
##SPECTROMETER/DATA SYSTEM=Nicolet iS50
##DATA PROCESSING=
Ratio against background
%Transmittance->Absorbance
ATR Correction
Truncated
ElementMultiply or ElementDivide
##COMMENTS=
Number of sample scans: 32
Collection length: 47.27 sec
Sample gain: 1.0
Background collected on: Wed Jul 03 09:45:10 2024 (GMT+08:00);
Number of background scans: 32
Background gain: 1.0
Sample spacing:  1.000
Number of scan points: 16672
Resolution points: 8192
Number of FFT points: 65536
Apodization: N-B strong;
Phase correction: Mertz;
Laser frequency: 15798.3 cm-1
Number of rejected sample scans: 0
Number of rejected background scans: 0
Bench serial number: AUP1200105;
##RESOLUTION=4.000
##XUNITS=1/CM
##YUNITS=ABSORBANCE
##FIRSTX=400.163452
##LASTX=4000.187744
##FIRSTY=0.066231
##MAXX=4000.187744
##MINX=400.163452
##MAXY=1.061889
##MINY=-0.032993
##XFACTOR=1.000000
##YFACTOR=1.000000E-008
##NPOINTS=7468
##DELTAX=0.482125
##ZPD=8192
##XYDATA=(X++(Y..Y))
400.163 6623132 6447644 6279269 6133984 6018177 5929593 5858135 5789673 
404.020 5710593 5611397 5488876 5346006 5190433 5032179 4881222 4745830 
407.877 4631361 4539767 4469595 4416465 4374070 4335696 4295825 4251624 
411.734 4203501 4154455 4108552 4068653 4034941 4004438 3972207 3933550 
415.591 3886136 3831314 3773728 3719593 3674356 3640477 3616545 3597873 
419.448 3578216 3551735 3514540 3464840 3402457 3327871 3241835 3145601 
423.305 3041933 2935939 2835171 2748559 2684348 2647745 2639148 2653899 
427.162 2683584 2718359 2749572 2771545 2782216 2782436 2774782 2762182 
431.019 2747208 2731817 2717678 2706491 2700155 2700324 2707910 2722681 
434.876 2743059 2766434 2789699 2809798 2824085 2830532 2827709 2814929 
438.733 2792386 2761485 2724961 2686704 2651271 2623030 2605258 2599479 
442.590 2605263 2620460 2641783 2665417 2687592 2704851 2714285 2713761 
446.447 2702190 2679934 2649067 2613207 2577001 2545114 2521075 2506421 
450.304 2500342 2500047 2501682 2501504 2496962 2487244 2473311 2457365 
454.161 2442107 2429965 2422492 2420121 2422142 2426924 2432217 2435650 
458.017 2435085 2429053 2416936 2399000 2376224 2349921 2321408 2291800 
461.874 2261928 2232603 2204774 2179364 2158040 2141893 2131245 2125257 
465.731 2121969 2118712 2112983 2103271 2089668 2073902 2058750 2046994 
469.588 2040433 2039173 2041641 2045275 2047564 2047127 2044287 2040884 
473.445 2039509 2042299 2049877 2060811 2071848 2078868 2078074 2067269 
477.302 2046479 2017957 1985460 1953074 1924070 1900062 1880754 1864326 
481.159 1848258 1830317 1809372 1785797 1761397 1738835 1720744 1708872 
485.016 1703481 1703263 1705749 1708138 1708349 1705767 1701434 1697695 
488.873 1697209 1701835 1711753 1725183 1738968 1749637 1754744 1753791 
492.730 1748364 1741402 1735930 1733504 1734034 1735365 1734417 1728589 
496.587 1716943 1700700 1682807 1666823 1655577 1650228 1650078 1653153 
500.444 1657265 1661001 1664244 1667924 1673347 1681348 1691703 1703107 
504.301 1713620 1721331 1724999 1724270 1719645 1712136 1702959 1693343 
508.158 1684517 1677691 1673993 1674123 1678053 1684786 1692409 1698643 
512.015 1701474 1699892 1694132 1685485 1675618 1665819 1656428 1646811 
515.871 1635848 1622686 1607410 1591296 1576495 1565318 1559434 1559259 
519.728 1563867 1571258 1578948 1584521 1586072 1582421 1573159 1558787 
523.585 1540593 1520678 1501533 1485449 1474127 1467682 1464558 1461914 
527.442 1456568 1446149 1430044 1409719 1388261 1369344 1355988 1349661 
531.299 1350007 1355283 1363152 1371548 1379119 1385254 1389679 1392083 
535.156 1391920 1388604 1381863 1372164 1360707 1349213 1339298 1332000 
539.013 1327480 1325194 1324325 1324247 1324783 1326176 1328678 1332220 
542.870 1336231 1339851 1342336 1343538 1344063 1345098 1347822 1352801 
546.727 1359614 1366972 1373188 1376923 1377732 1376226 1373720 1371621 
550.584 1370802 1371238 1372219 1372782 1372372 1371214 1370347 1371215 
554.441 1375115 1382612 1393310 1405821 1418441 1429357 1437163 1441103 
558.298 1441127 1437843 1432323 1426022 1420500 1417328 1417650 1422025 
562.155 1430202 1441101 1453095 1464331 1473258 1478940 1481269 1480919 
566.012 1479042 1477015 1476046 1476961 1480119 1485407 1492349 1500268 
569.869 1508521 1516648 1524551 1532466 1540909 1550354 1561000 1572493 
573.725 1583936 1594013 1601450 1605448 1606063 1604335 1602033 1601180 
577.582 1603454 1609687 1619596 1631933 1644871 1656561 1665660 1671651 
581.439 1674887 1676358 1677342 1678975 1682001 1686644 1692701 1699769 
585.296 1707425 1715386 1723538 1731805 1739993 1747714 1754359 1759328 
589.153 1762254 1763326 1763327 1763531 1765328 1769828 1777406 1787583 
593.010 1799198 1810739 1820834 1828628 1833920 1837078 1838671 1839266 
596.867 1839196 1838634 1837744 1836903 1836750 1838080 1841602 1847625 
600.724 1855938 1865842 1876395 1886754 1896463 1905551 1914420 1923616 
604.581 1933587 1944538 1956452 1969137 1982448 1996272 2010516 2025013 
608.438 2039428 2053308 2066169 2077728 2088052 2097641 2107377 2118275 
612.295 2131372 2147457 2167091 2190504 2217661 2248205 2281348 2315857 
616.152 2350060 2382081 2410218 2433343 2451297 2464963 2476097 2486843 
620.009 2499190 2514444 2532956 2554155 2576777 2599333 2620456 2639226 
623.866 2655277 2668842 2680669 2691878 2703800 2717814 2735048 2756124 
627.723 2780960 2808659 2837691 2866125 2892111 2914322 2932267 2946423 
631.579 2958099 2969095 2981271 2996116 3014425 3036185 3060622 3086358 
635.436 3111749 3135192 3155400 3171632 3183788 3192384 3198419 3203212 
639.293 3208209 3214755 3224004 3236702 3253089 3272833 3294982 3318076 
643.150 3340396 3360308 3376682 3389229 3398602 3406298 3414228 3424130 
647.007 3437128 3453394 3472214 3492321 3512449 3531872 3550637 3569528 
650.864 3589664 3611949 3636582 3662789 3688957 3713082 3733348 3748721 
654.721 3759253 3766098 3771191 3776764 3784828 3796843 3813473 3834653 
658.578 3859694 3887443 3916473 3945196 3972025 3995617 4015144 4030552 
662.435 4042704 4053299 4064465 4078237 4095888 4117551 4142107 4167585 
666.292 4191824 4213266 4231526 4247538 4263155 4280452 4300818 4324416 
670.149 4350076 4375739 4399259 4419251 4435647 4449752 4463821 4480238 
674.006 4500751 4525876 4554793 4585656 4616139 4644131 4668167 4687691 
677.863 4703036 4715179 4725477 4735344 4745976 4758234 4772491 4788619 
681.720 4806008 4823744 4840873 4856612 4870569 4882803 4893753 4904027 
685.577 4914224 4924776 4935882 4947612 4960007 4973188 4987390 5002909 
689.433 5020030 5038958 5059771 5082462 5106984 5133310 5161410 5191270 
693.290 5222840 5256063 5290894 5327330 5365410 5405111 5446184 5488010 
697.147 5529497 5569164 5605330 5636452 5661354 5679443 5690591 5695034 
701.004 5693095 5685108 5671421 5652582 5629531 5603721 5576958 5551128 
704.861 5527797 5507821 5491207 5477206 5464619 5452093 5438452 5422836 
708.718 5404630 5383470 5359131 5331624 5301218 5268593 5234807 5201052 
712.575 5168405 5137463 5108169 5079817 5051239 5021081 4988114 4951329 
716.432 4909868 4862941 4809677 4749118 4680375 4602923 4516855 4423050 
720.289 4323196 4219623 4115032 4012206 3913755 3821889 3738274 3663898 
724.146 3598996 3543137 3495391 3454717 3420325 3392028 3370353 3356371 
728.003 3351317 3356116 3371043 3395625 3428996 3470389 3519655 3577564 
731.860 3645644 3725651 3818827 3925153 4043052 4169547 4300794 4432988 
735.717 4563080 4689200 4810689 4927654 5040460 5149322 5254077 5354362 
739.574 5449905 5540841 5627871 5712089 5794726 5876707 5958318 6039202 
743.431 6118532 6195438 6269438 6340836 6410759 6481012 6553643 6630427 
747.287 6712458 6799858 6891817 6986823 7083010 7178636 7272247 7362841 
751.144 7449722 7532271 7609698 7680920 7744510 7798914 7842598 7874284 
755.001 7893119 7898643 7890762 7869577 7835284 7788049 7727969 7655038 
758.858 7569248 7470615 7359398 7236267 7102430 6959738 6810577 6657614 
762.715 6503481 6350411 6199994 6053143 5910193 5771198 5636127 5505060 
766.572 5378122 5255430 5136904 5022263 4911116 4803122 4698189 4596562 
770.429 4498633 4404702 4314694 4227953 4143501 4060309 3977796 3896167 
774.286 3816523 3740476 3669558 3604540 3545016 3489369 3435229 3380153 
778.143 3322341 3261079 3196757 3130500 3063584 2997040 2931328 2866437 
782.000 2802142 2738310 2675072 2612796 2551923 2492770 2435374 2379556 
785.857 2325035 2271568 2219089 2167627 2117243 2067958 2019725 1972596 
789.714 1926822 1882970 1841829 1804173 1770397 1740255 1712825 1686723 
793.571 1660554 1633404 1605171 1576698 1549395 1524894 1504447 1488640 
797.428 1477262 1469438 1463986 1459663 1455479 1450763 1445193 1438762 
801.285 1431685 1424348 1417244 1410777 1405365 1401155 1398021 1395565 
805.141 1393269 1390584 1387095 1382597 1377165 1371095 1364862 1359065 
808.998 1354273 1350915 1349107 1348501 1348248 1347178 1344035 1337999 
812.855 1329020 1318013 1306760 1297437 1292002 1291601 1296223 1304780 
816.712 1315531 1326703 1337038 1346078 1354087 1361728 1369584 1377831 
820.569 1386149 1393888 1400340 1405076 1408075 1409720 1410605 1411400 
824.426 1412672 1414817 1418105 1422658 1428454 1435312 1442851 1450585 
828.283 1458037 1464923 1471327 1477699 1484792 1493488 1504506 1518338 
832.140 1535216 1555123 1577984 1603599 1631732 1661969 1693681 1726109 
835.997 1758597 1790813 1823009 1856022 1891125 1929708 1972901 2021378 
839.854 2075297 2134445 2198427 2266756 2338805 2413651 2489853 2565503 
843.711 2638421 2706585 2768646 2824189 2873753 2918434 2959387 2997305 
847.568 3032251 3063780 3091434 3115289 3136289 3156352 3178114 3204489 
851.425 3238275 3281952 3337646 3407277 3492637 3595354 3716668 3857160 
855.282 4016529 4193595 4386478 4592920 4810598 5037223 5270450 5507671 
859.139 5745833 5981423 6210813 6430715 6638707 6833537 7015110 7184018 
862.995 7341046 7486521 7620071 7740608 7846646 7936814 8010231 8066772 
866.852 8107030 8132138 8143439 8142175 8129224 8104951 8069090 8020816 
870.709 7958881 7881877 7788596 7678374 7551285 7408254 7250877 7081167 
874.566 6901249 6713095 6518510 6319174 6116755 5913004 5709658 5508309 
878.423 5310248 5116354 4927203 4743281 4565276 4394259 4231695 4079204 
882.280 3938284 3809993 3694844 3592887 3503993 3428157 3365708 3317225 
886.137 3283280 3263979 3258655 3265643 3282415 3306037 3333591 3362681 
889.994 3391660 3419641 3446260 3471344 3494672 3515853 3534413 3549998 
893.851 3562531 3572389 3580280 3587076 3593548 3600140 3606904 3613533 
897.708 3619688 3625198 3630347 3635983 3643315 3653820 3668829 3689332 
901.565 3715891 3748655 3787604 3832738 3884208 3942347 4007429 4079405 
905.422 4157571 4240343 4325289 4409314 4489118 4561689 4624756 4677113 
909.279 4718575 4749810 4771896 4785814 4792025 4790246 4779530 4758559 
913.136 4726226 4682109 4626928 4562625 4492099 4418763 4345805 4275632 
916.993 4209564 4147812 4089765 4034448 3980951 3928697 3877437 3827165 
920.849 3777876 3729508 3681932 3635137 3589393 3545284 3503684 3465433 
924.706 3431072 3400599 3373441 3348659 3325306 3302747 3280937 3260396 
928.563 3242086 3227083 3216305 3210325 3209249 3212751 3220150 3230398 
932.420 3242126 3253746 3263602 3270231 3272735 3271046 3266066 3259515 
936.277 3253581 3250462 3251841 3258677 3271111 3288669 3310518 3335747 
940.134 3363439 3392747 3422799 3452766 3481936 3509958 3537093 3564284 
943.991 3593079 3625292 3662596 3706084 3756149 3812483 3874439 3941320 
947.848 4012747 4088674 4169280 4254722 4344873 4439335 4537564 4639116 
951.705 4743940 4852390 4965074 5082362 5204043 5328865 5454598 5578343 
955.562 5697093 5808397 5910916 6004601 6090627 6171019 6248231 6324683 
959.419 6402587 6483725 6569499 6660829 6758067 6860729 6967289 7074998 
963.276 7179969 7277459 7362421 7430142 7476868 7500162 7499090 7474009 
967.133 7426130 7357160 7268947 7163283 7041965 6906911 6760340 6604752 
970.990 6442878 6277432 6110895 5945351 5782385 5623239 5468924 5320400 
974.847 5178626 5044535 4918903 4802266 4694809 4596504 4507221 4426922 
978.703 4355754 4294050 4242109 4199963 4167181 4142796 4125425 4113509 
982.560 4105692 4101008 4099055 4099898 4103975 4111833 4124128 4141487 
986.417 4164605 4194143 4230663 4274402 4324930 4381118 4441121 4502659 
990.274 4563412 4621505 4675800 4725979 4772385 4815601 4856159 4894233 
994.131 4929634 4961955 4990850 5016219 5038333 5057778 5075358 5091955 
997.988 5108417 5125634 5144552 5166212 5191721 5222072 5257987 5299777 
1001.845 5347346 5400335 5458418 5521512 5590067 5664925 5747274 5838288 
1005.702 5938905 6049604 6170485 6301363 6442096 6592773 6753950 6926515 
1009.559 7111738 7310901 7525120 7755173 8001332 8263432 8540902 8832952 
1013.416 9138723 9457488 9788770 10132387 10488460 10857255 11238995 
1016.791 11633578 12040412 12458243 12885152 13318799 13756514 14195733 
1020.166 14634249 15070291 15502544 15930048 16352049 16767879 17177010 
1023.540 17579048 17974004 18362368 18745282 19124522 19502554 19882424 
1026.916 20267720 20662416 21070730 21496806 21944408 22416616 22915510 
1030.291 23442248 23997072 24579706 25189608 25826240 26489020 27177066 
1033.666 27888748 28621322 29370588 30130994 30895988 31658504 32411618 
1037.041 33148702 33863704 34550824 35204328 35818412 36387172 36904992 
1040.417 37366988 37769572 38110808 38390376 38609396 38769872 38874116 
1043.792 38924212 38921912 38868656 38766088 38616524 38423416 38191540 
1047.167 37926828 37635920 37325636 37002400 36671896 36338992 36007652 
1050.542 35681084 35361692 35051052 34749860 34458008 34174852 33899568 
1053.917 33631752 33371728 33120728 32880860 32654876 32445916 32257450 
1057.293 32093402 31958408 31858196 31799542 31790286 31838810 31953410 
1060.668 32141748 32410484 32764992 33209444 33746944 34379628 35108676 
1064.043 35934192 36855216 37869584 38974040 40164476 41436152 42783884 
1067.418 44202112 45684948 47226076 48818876 50456608 52132940 53842120 
1070.794 55579324 57340308 59121048 60917080 62722940 64532004 66336668 
1074.169 68128712 69899800 71641664 73346096 75004928 76610032 78153440 
1077.544 79627520 81025192 82339480 83562536 84684632 85693320 86573832 
1080.919 87310128 87887360 88294088 88523944 88575992 88454168 88165816 
1084.295 87720608 87130280 86408400 85570560 84633992 83616320 82534424 
1087.670 81402752 80232864 79033432 77811224 76572072 75321712 74065952 
1091.045 72810392 71559920 70318248 69087848 67870168 66666068 65476120 
1094.420 64300700 63140012 61993928 60862028 59743684 58638388 57545876 
1097.796 56466252 55399720 54346432 53306092 52278076 51261580 50256048 
1101.171 49261512 48278932 47310116 46357544 45423968 44512068 43624280 
1104.546 42762596 41928808 41124432 40350936 39609732 38902344 38230412 
1107.921 37595768 37000464 36446724 35936840 35472876 35056508 34688756 
1111.297 34369896 34099532 33876540 33699260 33565480 33472536 33417358 
1114.672 33396662 33407116 33445862 33510810 33601040 33716772 33859324 
1118.047 34030512 34232208 34465756 34731572 35029048 35356612 35711832 
1121.422 36091516 36491780 36907860 37333988 37763116 38186944 38596008 
1124.798 38980004 39328320 39630616 39877632 40061828 40177976 40223540 
1128.173 40198596 40105392 39947736 39730048 39456688 39131488 38757536 
1131.548 38337348 37872888 37365760 36817156 36227824 35597996 34927788 
1134.923 34217328 33467376 32679630 31856858 31002774 30121716 29218296 
1138.299 28297132 27362866 26420266 25474432 24530960 23595798 22675052 
1141.674 21774602 20899740 20055010 19244142 18470148 17735452 17042058 
1145.049 16391578 15785173 15223408 14706233 14232872 13801953 13411607 
1148.424 13059685 12743868 12461868 12211452 11990520 11797047 11629204 
1151.800 11485294 11363811 11263489 11183307 11122480 11080480 11056983 
1155.175 11051833 11064924 11096159 11145334 11212109 11296058 11396772 
1158.550 11513998 11647838 11798855 11968068 12157047 12367740 12602457 
1161.925 12863797 13154623 13478063 13837461 14236322 14678267 15167065 
1165.301 15706661 16301417 16956348 17677352 18471374 19346250 20310560 
1168.676 21373096 22542560 23827160 25234338 26770682 28441676 30251458 
1172.051 32202336 34294088 36523168 38881976 41357932 43932852 46582156 
1175.426 49274356 51970536 54624532 57183856 59591924 61791588 63729556 
1178.802 65360940 66653024 67587280 68159840 68380192 68269072 67856232 
1182.177 67178048 66275268 65190440 63965548 62639636 61246956 59816032 
1185.552 58369692 56925612 55497660 54097032 52733012 51413472 50144748 
1188.927 48931444 47776344 46680392 45643188 44663436 43739612 42870208 
1192.302 42053872 41289236 40574668 39908160 39287364 38709708 38172844 
1195.678 37674872 37214376 36790408 36402076 36048284 35727440 35437412 
1199.053 35175668 34939628 34726912 34535588 34364128 34211180 34075300 
1202.428 33954608 33846592 33748276 33656348 33567728 33479828 33390704 
1205.803 33299076 33204026 33104568 32999418 32886582 32763648 32627812 
1209.179 32476398 32307098 32118186 31908574 31677702 31425426 31151912 
1212.554 30857498 30542856 30208850 29856590 29487302 29102332 28703016 
1215.929 28290818 27867308 27434382 26994214 26549252 26101968 25654674 
1219.304 25209296 24767240 24329432 23896494 23468832 23046890 22631078 
1222.680 22221850 21819578 21424584 21037152 20657644 20286604 19924820 
1226.055 19573144 19232376 18902924 18584738 18277214 17979422 17690496 
1229.430 17409930 17137756 16874642 16621487 16379192 16148281 15928704 
1232.805 15719895 15521075 15331396 15150326 14977553 14813021 14656597 
1236.181 14507940 14366429 14231256 14101605 13976844 13856614 13740823 
1239.556 13629507 13522698 13420323 13322225 13228226 13138269 13052434 
1242.931 12970969 12894115 12822072 12754871 12692440 12634687 12581629 
1246.306 12533447 12490480 12453027 12421221 12394857 12373432 12356237 
1249.682 12342592 12332089 12324755 12321094 12321936 12328240 12340861 
1253.057 12360322 12386813 12420183 12460084 12506084 12557755 12614745 
1256.432 12676676 12743123 12813544 12887187 12963241 13040765 13118942 
1259.807 13197014 13274460 13350829 13425772 13498898 13569713 13637637 
1263.183 13702050 13762298 13817796 13867921 13912018 13949195 13978326 
1266.558 13998084 14007056 14003935 13987842 13958368 13915636 13860103 
1269.933 13792393 13713002 13622171 13519859 13405874 13280009 13142246 
1273.308 12992787 12832017 12660436 12478495 12286557 12084930 11873964 
1276.684 11654233 11426550 11192035 10952009 10707778 10460623 10211623 
1280.059 9961766 9711998 9463307 9216793 8973689 8735291 8502930 8277970 
1283.916 8061830 7856095 7662458 7482721 7318622 7171646 7042810 6932497 
1287.774 6840511 6766186 6708589 6666742 6639822 6627204 6628456 6643150 
1291.631 6670747 6710364 6760708 6819986 6885980 6956238 7028305 7099941 
1295.489 7169375 7235439 7297531 7355515 7409510 7459742 7506291 7549106 
1299.346 7588020 7622828 7653411 7679817 7702276 7721157 7736867 7749795 
1303.203 7760220 7768289 7774067 7777516 7778590 7777200 7773296 7766848 
1307.061 7757890 7746579 7733160 7718074 7701873 7685193 7668634 7652694 
1310.918 7637550 7623125 7609010 7594660 7579495 7563221 7545946 7528275 
1314.776 7511203 7495928 7483490 7474482 7468818 7465848 7464476 7463557 
1318.633 7462240 7460234 7457775 7455454 7453961 7453667 7454531 7456085 
1322.490 7457696 7458868 7459604 7460503 7462695 7467641 7476730 7490986 
1326.348 7510796 7535943 7565675 7599017 7634962 7672874 7712560 7754330 
1330.205 7799002 7847713 7901654 7961857 8028903 8102937 8183485 8269717 
1334.063 8360619 8455202 8552758 8652893 8755545 8860914 8969247 9080742 
1337.920 9195492 9313420 9434409 9558284 9685057 9814913 9948263 10085732 
1341.778 10228020 10375792 10529578 10689589 10855767 11027808 11205287 
1345.153 11387914 11575657 11768775 11967792 12173266 12385518 12604389 
1348.528 12828976 13057736 13288580 13519242 13747500 13971557 14190122 
1351.903 14402354 14607640 14805385 14994732 15174523 15343313 15499569 
1355.279 15641974 15769562 15881829 15978710 16060382 16127115 16179222 
1358.654 16217068 16241279 16252851 16253310 16244668 16229223 16209260 
1362.029 16186701 16162883 16138326 16112801 16085356 16054529 16018340 
1365.404 15974553 15920614 15853807 15771352 15670545 15549047 15405136 
1368.780 15238057 15048401 14838460 14612478 14376891 14140239 13912982 
1372.155 13706875 13534246 13406973 13335425 13327491 13387768 13517083 
1375.530 13712429 13967216 14271811 14614345 14981432 15359004 15733008 
1378.905 16090065 16418037 16706412 16946416 17131172 17255584 17316238 
1382.281 17311346 17240722 17105662 16908854 16654268 16346905 15992671 
1385.656 15598193 15170574 14717191 14245127 13760841 13269588 12775226 
1389.031 12280073 11785275 11291206 10798026 10306287 9817208 9332892 
1392.406 8856303 8391012 7940903 7509730 7100775 6716539 6358520 6027317 
1396.264 5722771 5444238 5190867 4961728 4755867 4572158 4409158 4265032 
1400.121 4137579 4024399 3923119 3831658 3748313 3671833 3601312 3536039 
1403.979 3475403 3418896 3366108 3316807 3271037 3229078 3191353 3158217 
1407.836 3129819 3105956 3086044 3069290 3054843 3042082 3030788 3021135 
1411.693 3013736 3009251 3008258 3010981 3017209 3026280 3037292 3049211 
1415.551 3061094 3072182 3081982 3090243 3096983 3102474 3107300 3112277 
1419.408 3118465 3126938 3138684 3154390 3174430 3198871 3227647 3260722 
1423.266 3298262 3340593 3388258 3441735 3501456 3567627 3640325 3719513 
1427.123 3805182 3897324 3995953 4101031 4212383 4329737 4452767 4581184 
1430.980 4714791 4853536 4997536 5147026 5302535 5464947 5635747 5817133 
1434.838 6012036 6223919 6456464 6713141 6996890 7310024 7654389 8031562 
1438.695 8443176 8890848 9375937 9899078 10459575 11055105 11681540 12333109 
1442.553 13002832 13682954 14365330 15041798 15704446 16345863 16959378 
1445.928 17539110 18080214 18578770 19031854 19437496 19794636 20103122 
1449.303 20363654 20577426 20746074 20871260 20954638 20997660 21001536 
1452.678 20967076 20894610 20783748 20633440 20442090 20208138 19930554 
1456.054 19609542 19246780 18845368 18409330 17942996 17450438 16935324 
1459.429 16400890 15850304 15286720 14713334 14133225 13549155 12963714 
1462.804 12379435 11799349 11227111 10667041 10123700 9601092 9102103 
1466.179 8628096 8179066 7754168 7352437 6973353 6616995 6283907 5974602 
1470.037 5688986 5426087 5184022 4960133 4751497 4555383 4369623 4192888 
1473.894 4024742 3865597 3716474 3578698 3453515 3341658 3243158 3157178 
1477.752 3082174 3016246 2957485 2904385 2855883 2811373 2770424 2732609 
1481.609 2697363 2664001 2631946 2600899 2570957 2542589 2516391 2492763 
1485.467 2471706 2452708 2434859 2417153 2398759 2379325 2359051 2338672 
1489.324 2319136 2301425 2286223 2273788 2263808 2255557 2247989 2239929 
1493.181 2230323 2218481 2204045 2187211 2168507 2148725 2128706 2109217 
1497.039 2090850 2073940 2058658 2045005 2032882 2022050 2012161 2002841 
1500.896 1993742 1984740 1975929 1967749 1960776 1955533 1952305 1950892 
1504.754 1950593 1950396 1949232 1946339 1941506 1935090 1927910 1920941 
1508.611 1914977 1910518 1907632 1906042 1905295 1904893 1904336 1903128 
1512.469 1900785 1896844 1890941 1882902 1872855 1861363 1849271 1837645 
1516.326 1827515 1819757 1814775 1812565 1812717 1814467 1816901 1819097 
1520.183 1820182 1819547 1816819 1812010 1805437 1797631 1789323 1781167 
1524.041 1773654 1767118 1761616 1757071 1753254 1749986 1747074 1744410 
1527.898 1741905 1739480 1737055 1734560 1731865 1728846 1725336 1721204 
1531.756 1716314 1710707 1704534 1698144 1691996 1686537 1682077 1678583 
1535.613 1675725 1672827 1669202 1664337 1658117 1650947 1643570 1636968 
1539.470 1631867 1628608 1626927 1626139 1625366 1623864 1621314 1617856 
1543.328 1614009 1610489 1607905 1606557 1606392 1607035 1607935 1608489 
1547.185 1608208 1606745 1603909 1599680 1594165 1587564 1580244 1572705 
1551.043 1565472 1559082 1554020 1550592 1548946 1549043 1550651 1553461 
1554.900 1556975 1560622 1563759 1565684 1565784 1563644 1559227 1552884 
1558.758 1545390 1537771 1531095 1526212 1523574 1523129 1524467 1526907 
1562.615 1529735 1532389 1534537 1536080 1537121 1537812 1538276 1538532 
1566.472 1538511 1537992 1536750 1534608 1531487 1527439 1522665 1517538 
1570.330 1512503 1507998 1504432 1501976 1500589 1499957 1499564 1498840 
1574.187 1497284 1494767 1491518 1488186 1485674 1484885 1486338 1490077 
1578.045 1495465 1501455 1506790 1510364 1511612 1510638 1508122 1505192 
1581.902 1502993 1502433 1503872 1507151 1511670 1516616 1521195 1524875 
1585.760 1527391 1528806 1529357 1529418 1529404 1529675 1530580 1532391 
1589.617 1535279 1539284 1544315 1550153 1556496 1563102 1569760 1576299 
1593.474 1582680 1588806 1594590 1599906 1604604 1608666 1612184 1615454 
1597.332 1618862 1622781 1627466 1632995 1639135 1645556 1651823 1657546 
1601.189 1662528 1666763 1670369 1673651 1676962 1680732 1685403 1691416 
1605.047 1699079 1708524 1719524 1731607 1743923 1755625 1765921 1774436 
1608.904 1781180 1786615 1791441 1796345 1801735 1807638 1813697 1819404 
1612.761 1824248 1828019 1830838 1833218 1835847 1839467 1844615 1851598 
1616.619 1860395 1870809 1882426 1894712 1907161 1919085 1929809 1938632 
1620.476 1944992 1948558 1949436 1948209 1945882 1943707 1942958 1944574 
1624.334 1948964 1955951 1964870 1974720 1984477 1993364 2000937 2007245 
1628.191 2012596 2017534 2022596 2028257 2034843 2042602 2051689 2062312 
1632.049 2074636 2088874 2105067 2123153 2142799 2163505 2184519 2205064 
1635.906 2224251 2241390 2255910 2267501 2276029 2281548 2284187 2284107 
1639.763 2281402 2276097 2268128 2257495 2244253 2228709 2211408 2193140 
1643.621 2174783 2157160 2140890 2126305 2113381 2101952 2091809 2082915 
1647.478 2075450 2069773 2066236 2065086 2066196 2069123 2073172 2077562 
1651.336 2081604 2084905 2087368 2089229 2090825 2092546 2094624 2097204 
1655.193 2100249 2103792 2107812 2112348 2117419 2122973 2128824 2134679 
1659.051 2140209 2145170 2149510 2153445 2157399 2161910 2167463 2174296 
1662.908 2182354 2191332 2200787 2210334 2219841 2229474 2239620 2250730 
1666.765 2263067 2276558 2290680 2304556 2317260 2328072 2336776 2343761 
1670.623 2349903 2356375 2364195 2373978 2385754 2398960 2412621 2425754 
1674.480 2437679 2448206 2457816 2467456 2478296 2491352 2507143 2525651 
1678.338 2546287 2568133 2590250 2612040 2633328 2654450 2676010 2698543 
1682.195 2722297 2747062 2772266 2797213 2821400 2844748 2867635 2890761 
1686.052 2914680 2939574 2965083 2990504 3015014 3038251 3060540 3082963 
1689.910 3107117 3134664 3166833 3204132 3246209 3292214 3341056 3391806 
1693.767 3443776 3496654 3550222 3604294 3658688 3713216 3767902 3823050 
1697.625 3879233 3937252 3997896 4061845 4129666 4201913 4279283 4362635 
1701.482 4452872 4550751 4656477 4769697 4889414 5014391 5143542 5276523 
1705.340 5413837 5556764 5707034 5866199 6035294 6214639 6403994 6602854 
1709.197 6810957 7028354 7255492 7493029 7741590 8001599 8273346 8557156 
1713.054 8853393 9162764 9485956 9823599 10175948 10542751 10923303 11316634 
1716.912 11721804 12137983 12564723 13001855 13449435 13907816 14377643 
1720.287 14859910 15355989 15867557 16396298 16943864 17511610 18100854 
1723.662 18712964 19349722 20013306 20706300 21431198 22190122 22984486 
1727.038 23815150 24682650 25587716 26531578 27516144 28543768 29617086 
1730.413 30738964 31912618 33142068 34432520 35790088 37221432 38732300 
1733.788 40326728 42006296 43770664 45619000 47551872 49572516 51687140 
1737.163 53903472 56228560 58666020 61214256 63865684 66607744 69424352 
1740.539 72297480 75207576 78133136 81049552 83928632 86739032 89448272 
1743.914 92025080 94441432 96673360 98700512 100505304 102072752 103391096 
1747.289 104453352 105258144 105809880 106116808 106188856 106035640 
1750.182 105666056 105089080 104315344 103358128 102232944 100955656 
1753.075 99540536 97998584 96337752 94564240 92684976 90709008 88648560 
1756.450 86518160 84333280 82108704 79857552 77591200 75319816 73053016 
1759.826 70800632 68572696 66379364 64230340 62134676 60100276 58133696 
1763.201 56239724 54421304 52679332 51012820 49419396 47896060 46439700 
1766.576 45047836 43718684 42450936 41243224 40093508 38998684 37954500 
1769.951 36955912 35997532 35073976 34180196 33311552 32463732 31632566 
1773.327 30814138 30004892 29201800 28402572 27605804 26810792 26017352 
1776.702 25225586 24435664 23647712 22861960 22078704 21298546 20522328 
1780.077 19751128 18986124 18228518 17479574 16740786 16014004 15301675 
1783.452 14606848 13932914 13283214 12660593 12066927 11503156 10969310 
1786.828 10464984 9989728 9543287 9125532 8736376 8375098 8040330 7729769 
1790.685 7440699 7170271 6916054 6676403 6450571 6238506 6040480 5856640 
1794.542 5686820 5530162 5385358 5250704 5124540 5005372 4892336 4785081 
1798.400 4683846 4589200 4501669 4421460 4348235 4281027 4218517 4159348 
1802.257 4102477 4047273 3993531 3941307 3890553 3841000 3792182 3743580 
1806.115 3694946 3646411 3598483 3551894 3507168 3464456 3423440 3383552 
1809.972 3344282 3305499 3267422 3230438 3194614 3159351 3123323 3084825 
1813.830 3042496 2996115 2947234 2899069 2855961 2822154 2800479 2791422 
1817.687 2792774 2800168 2808365 2812738 2810466 2800945 2785640 2767054 
1821.544 2747745 2729212 2711610 2693734 2673672 2649643 2620652 2586985 
1825.402 2550104 2512215 2475461 2441383 2410247 2381192 2352531 2322518 
1829.259 2289918 2254583 2217468 2180232 2144678 2112000 2082409 2055144 
1833.117 2028871 2002281 1974826 1946925 1920090 1896295 1877434 1864609 
1836.974 1857610 1854857 1853755 1851068 1843996 1830517 1810061 1783570 
1840.832 1753214 1721945 1692684 1667651 1648053 1633811 1623908 1616744 
1844.689 1610800 1604784 1597929 1589673 1579642 1567366 1552458 1534842 
1848.546 1515043 1494284 1474417 1457310 1444418 1436222 1432075 1430567 
1852.404 1429947 1428781 1426359 1422679 1418303 1413868 1409944 1406800 
1856.261 1404556 1403206 1402681 1402626 1402275 1400321 1395281 1385890 
1860.119 1371911 1354505 1336085 1319659 1307741 1301250 1299222 1299057 
1863.976 1297730 1292950 1284212 1273035 1262086 1253933 1249816 1248951 
1867.833 1248909 1246711 1240078 1228476 1213184 1196679 1181452 1168950 
1871.691 1159255 1151261 1143585 1135320 1126516 1117891 1110346 1104120 
1875.548 1098659 1092787 1085412 1076332 1066682 1058565 1054430 1055956 
1879.406 1063311 1074943 1087915 1098924 1105151 1104985 1098328 1086275 
1883.263 1070835 1054202 1038575 1025560 1016127 1010157 1006499 1002940 
1887.121 996804 985626 968253 945374 919933 896499 880409 876138 886171 
1891.460 910137 944984 985396 1025188 1058454 1080827 1090165 1086874 
1895.318 1073687 1055024 1036037 1021652 1015426 1019090 1032225 1052575 
1899.175 1076586 1100303 1119936 1132375 1135427 1128031 1110156 1083219 
1903.032 1050018 1014676 982018 956735 942203 939613 947675 963027 981419 
1907.372 999095 1013757 1024940 1033242 1039479 1043618 1044548 1040452 
1911.229 1029949 1013146 992419 971752 955760 948029 949749 959331 973015 
1915.569 985911 993470 992255 980730 958403 926239 885623 838936 789441 
1919.909 741375 699550 668527 651614 649840 661936 684567 713469 744633 
1924.248 775123 803147 827825 848462 863993 872995 874400 868108 855403 
1928.588 839247 823242 810794 804004 802959 806053 810299 812712 810697 
1932.927 802655 788176 767555 741827 712331 681008 650230 622848 601931 
1937.267 590109 589318 600104 621553 651202 685178 719068 748077 768290 
1941.607 776947 772964 757094 731750 700318 666707 634851 608191 589555 
1945.946 580871 582905 594833 613773 635127 653250 663512 663474 654979 
1950.286 643537 637184 643302 665741 702760 747110 788546 817780 830234 
1954.625 828241 820348 818084 831276 864395 914183 971287 1023492 1059952 
1958.965 1075093 1069881 1050400 1025002 1000711 981792 968982 961408 958133 
1963.305 958723 962525 967494 969094 960113 932735 881944 808118 719071 
1967.644 628614 553894 510253 507058 544680 614552 700739 784636 849258 
1971.984 883720 885580 861224 824405 793101 785260 815661 892560 1016745 
1976.323 1181816 1375353 1580711 1779640 1954026 2088194 2170121 2193975 
1980.181 2159525 2073777 1949168 1802807 1653344 1518155 1410271 1336292 
1984.038 1296521 1286037 1297112 1321592 1352192 1383239 1410063 1429263 
1987.896 1438087 1434705 1419658 1395509 1366686 1339098 1318397 1309265 
1991.753 1314741 1335174 1368572 1409538 1449514 1477348 1480898 1450451 
1995.611 1381866 1279212 1155108 1028057 916974 835546 788119 768889 765245 
1999.950 763818 755959 740694 723533 711602 707353 705181 692157 653471 
2004.290 580809 479022 367744 276812 235738 262119 354728 494336 651936 
2008.629 800312 923100 1016886 1086208 1136773 1167900 1172104 1139637 
2012.487 1066611 961346 845723 749585 699809 710691 778084 881581 993480 
2016.826 1089686 1158020 1200363 1228191 1253633 1281449 1305987 1313208 
2020.684 1288427 1224234 1124946 1007098 893808 808416 768113 780596 845003 
2025.023 953163 1091773 1244003 1390476 1510163 1583754 1597903 1549159 
2028.881 1446474 1310092 1166157 1040050 950309 904809 901379 930358 978972 
2033.220 1033653 1082315 1113669 1118439 1090833 1031535 949484 861637 
2037.078 789280 751583 758994 808481 883384 958749 1009195 1017837 981223 
2041.417 910700 826930 752508 704288 688992 702348 733364 769468 802370 
2045.757 831735 865060 914888 993421 1106379 1248467 1402088 1541027 1636667 
2050.097 1667214 1624380 1516089 1364255 1199432 1052567 947673 895430 
2053.954 890740 915545 945501 959503 947314 912246 868711 835153 826293 
2058.294 847434 893389 951056 1005460 1045563 1067459 1074593 1074402 
2062.151 1074128 1077699 1084696 1091933 1095809 1094977 1090780 1086192 
2066.009 1084139 1085743 1089968 1094556 1097780 1099722 1102247 1107870 
2069.866 1118022 1131244 1143278 1148152 1140404 1117392 1080438 1034650 
2073.723 987490 946999 920027 911052 922080 952481 999163 1056661 1117499 
2078.063 1172929 1214548 1236322 1236273 1217516 1187391 1155355 1130208 
2081.920 1117186 1116935 1125620 1137042 1145032 1145744 1138531 1125404 
2085.778 1109643 1093939 1079351 1064947 1048670 1028323 1002318 969969 
2089.635 931363 886713 836353 781065 722774 665255 614146 576015 556891 
2093.975 559826 583781 623128 669063 712095 744739 763544 769396 766124 
2098.314 758442 749753 741090 731413 719159 704004 688389 677434 677722 
2102.654 694738 730917 783758 846532 909652 963709 1002199 1023305 1029828 
2106.994 1027967 1024608 1025012 1031054 1041395 1052527 1060886 1064708 
2110.851 1064866 1064373 1066676 1074100 1085975 1098091 1103835 1095841 
2114.708 1068492 1019826 952550 873541 792442 719374 662455 626027 609676 
2119.048 608585 614902 619638 614842 595218 558927 507590 445311 377509 
2123.388 309606 245999 189719 142551 105199 77670 59167 47871 40464 32398 
2128.209 17911 -8618 -51560 -112510 -189754 -278420 -371514 -461626 -542282 
2132.549 -609224 -660383 -695366 -714370 -717234 -703293 -672067 -624291 
2136.406 -563341 -495295 -428741 -372712 -334846 -319181 -325618 -349623 
2140.264 -383768 -419950 -451191 -472920 -483774 -484716 -478128 -466774 
2144.121 -452960 -438784 -426340 -418461 -419192 -433566 -466801 -523724 
2147.979 -607453 -718647 -855486 -1013512 -1185840 -1362997 -1534221 
2151.354 -1687690 -1812668 -1902618 -1957481 -1987376 -2011828 -2056990 
2154.729 -2149438 -2306805 -2529469 -2794123 -3053885 -3244138 -3299303 
2158.104 -3172692 -2855808 -2388707 -1850978 -1337598 -928430 -667285 
2161.480 -556975 -568078 -654420 -767118 -865861 -924456 -933410 -896028 
2165.337 -825793 -740203 -655859 -585000 -532715 -496139 -465852 -429384 
2169.195 -375277 -297770 -199655 -92154 8078 84068 124735 128727 104382 
2173.534 66881 32455 12162 8056 14423 20202 16060 -1579 -28953 -57124 -76812 
2178.838 -82282 -74508 -60401 -48971 -47949 -59278 -78671 -96610 -101609 
2183.178 -84910 -41649 26916 114859 213095 310545 395876 459224 493787 
2187.517 497298 473515 431436 382498 338076 304975 283391 267533 248292 
2191.857 218229 175049 124034 76064 43926 37404 59537 106103 168387 236896 
2196.679 306367 376797 452832 540130 641428 754098 869936 977938 1067837 
2201.018 1133489 1173774 1192202 1194044 1184070 1165653 1140396 1109925 
2204.876 1077242 1046764 1023773 1012788 1015884 1031954 1057434 1087615 
2208.733 1117951 1144710 1165011 1175984 1174535 1158099 1126088 1081672 
2212.591 1032374 989221 963750 964145 991751 1039967 1095334 1141729 1164452 
2216.930 1154469 1110236 1037292 945888 848538 756929 680965 627979 602693 
2221.270 606609 637857 690083 753411 816065 867025 899088 911053 907611 
2225.609 897603 890086 891269 901985 918242 933332 941549 941417 936750 
2229.949 935632 947281 978572 1030552 1097845 1169443 1232245 1274420 
2233.806 1289056 1275968 1241371 1196050 1152536 1121907 1110927 1121199 
2237.664 1148834 1186240 1224561 1256203 1277124 1287657 1292042 1296887 
2241.521 1308351 1330287 1362153 1399214 1433566 1456323 1460463 1442492 
2245.379 1403918 1350727 1291765 1236674 1193326 1166008 1154717 1155628 
2249.236 1162460 1168698 1169764 1163947 1153154 1141799 1135461 1138989 
2253.094 1155403 1185204 1226686 1276657 1331316 1386423 1437868 1481239 
2256.951 1511988 1526303 1521796 1498839 1461131 1415409 1370130 1333187 
2260.808 1310012 1301932 1306477 1318773 1333591 1347664 1360506 1374298 
2264.666 1392138 1416278 1446444 1479413 1510196 1533334 1545321 1545466 
2268.523 1536274 1522590 1509963 1503250 1505425 1517076 1536544 1560551 
2272.381 1584842 1605153 1618263 1622673 1619256 1611486 1604580 1604138 
2276.238 1614381 1636279 1666792 1699276 1725517 1738336 1734424 1716076 
2280.095 1690908 1670138 1665142 1683991 1728970 1795762 1874651 1953466 
2283.953 2020722 2068828 2095280 2102690 2097030 2085411 2073781 2065621 
2287.810 2061305 2058945 2055353 2047424 2033065 2011508 1983342 1949970 
2291.668 1913244 1874992 1836993 1800881 1768287 1740639 1718990 1703663 
2295.525 1693987 1688423 1684622 1680208 1673548 1664105 1652941 1642493 
2299.383 1635635 1635026 1641992 1655915 1674372 1693524 1709256 1718369 
2303.240 1719475 1713545 1703536 1693532 1687431 1687761 1694960 1707262 
2307.097 1721514 1734117 1742268 1744780 1742288 1736750 1730766 1726704 
2310.955 1726067 1729559 1737098 1748280 1762752 1780157 1800061 1821821 
2314.812 1844335 1866419 1887054 1905621 1922158 1937208 1951555 1966144 
2318.670 1981986 2000832 2025153 2058348 2103948 2163901 2236787 2316312 
2322.527 2391157 2446633 2467981 2444264 2371506 2254019 2103686 1937354 
2326.385 1773190 1627008 1509276 1423972 1368844 1337387 1321391 1313446 
2330.242 1308454 1303804 1298762 1293357 1287653 1281447 1274619 1267554 
2334.099 1261184 1257011 1256190 1259004 1264412 1270191 1273723 1272865 
2337.957 1266766 1256272 1243398 1230787 1220722 1214539 1212505 1213956 
2341.814 1217842 1223127 1229020 1234938 1240302 1244354 1246049 1244339 
2345.672 1238364 1227863 1213362 1196174 1178210 1161580 1148282 1139750 
2349.529 1136599 1138604 1144460 1152194 1159310 1163433 1162623 1156017 
2353.386 1143858 1127587 1109333 1091579 1076454 1065380 1058830 1056356 
2357.244 1056935 1059211 1061883 1063719 1063897 1061768 1056850 1048737 
2361.101 1037184 1021968 1003192 981101 956508 930575 904947 881558 862314 
2365.441 848770 841759 841132 845676 853417 862047 869479 874405 876531 
2369.781 876543 875700 875331 876262 878509 881295 883314 883263 880405 
2374.120 874919 867972 861387 857332 857546 863008 873706 888549 905848 
2378.460 923618 939982 953603 963824 970523 974232 975815 976275 976704 
2382.799 978041 981029 986139 993421 1002565 1012998 1023979 1034829 1045030 
2387.139 1054358 1062890 1070867 1078696 1086688 1095124 1104189 1113922 
2390.996 1124100 1134323 1143838 1151715 1156877 1158434 1155972 1149571 
2394.854 1139927 1128154 1115358 1102639 1090679 1079935 1070713 1063277 
2398.711 1058088 1055362 1055019 1056316 1057910 1058179 1055658 1049833 
2402.569 1041416 1032386 1025435 1023373 1028107 1040288 1059230 1083425 
2406.426 1111206 1141109 1172372 1204471 1236641 1267420 1294389 1314536 
2410.283 1324972 1323798 1310843 1288121 1259206 1228791 1201301 1180171 
2414.141 1166899 1161211 1161168 1164046 1167006 1168040 1166241 1161881 
2417.998 1156103 1150192 1145139 1141080 1137312 1132658 1126090 1117127 
2421.856 1106288 1094854 1084431 1076356 1071119 1068354 1067162 1066652 
2425.713 1066556 1067336 1070009 1075364 1083338 1092722 1101167 1106111 
2429.571 1105745 1099683 1089389 1077757 1068050 1063142 1064623 1072667 
2433.428 1086433 1104680 1126231 1150347 1176387 1203365 1229847 1253732 
2437.285 1272882 1285593 1291309 1290820 1285930 1278804 1271120 1263539 
2441.143 1255465 1245424 1231728 1213339 1190165 1163639 1136184 1111050 
2445.000 1091600 1080797 1080519 1091451 1112670 1142015 1176128 1211257 
2448.858 1243719 1270644 1290224 1302016 1306555 1305135 1299314 1290663 
2452.715 1280471 1269873 1259732 1250691 1243079 1236780 1231360 1226029 
2456.573 1219988 1212784 1204408 1195461 1187072 1180426 1176521 1175944 
2460.430 1178689 1184213 1191644 1199919 1207910 1214666 1219287 1221177 
2464.287 1220029 1215981 1209544 1201601 1193135 1185162 1178485 1173639 
2468.145 1170934 1170377 1171639 1174342 1177624 1180643 1182322 1181998 
2472.002 1179330 1174723 1169071 1163757 1160015 1158732 1160119 1163876 
2475.860 1169377 1175818 1182593 1188956 1194168 1197040 1196243 1190247 
2479.717 1178268 1160387 1138142 1114381 1092393 1075435 1065700 1063821 
2483.574 1068997 1079413 1093018 1108177 1124010 1140384 1157424 1175123 
2487.432 1192832 1209200 1222300 1230268 1231532 1225563 1213042 1195952 
2491.289 1177290 1160502 1148817 1144373 1147433 1156431 1167965 1177749 
2495.147 1181863 1177895 1165825 1148150 1129243 1113926 1106231 1108059 
2499.004 1118796 1135588 1154374 1171109 1183070 1189272 1190683 1189555 
2502.862 1188652 1190542 1196692 1207519 1222194 1239068 1256085 1271095 
2506.719 1282550 1289445 1291644 1289798 1285117 1279073 1273085 1268222 
2510.576 1264982 1263238 1262075 1260313 1256353 1248880 1237167 1221543 
2514.434 1203556 1186121 1172718 1166961 1171280 1186298 1210211 1239269 
2518.291 1268345 1292635 1308686 1315366 1314089 1308178 1301666 1297933 
2522.149 1298722 1303614 1310326 1315628 1316404 1310993 1299543 1284339 
2526.006 1269056 1257714 1253457 1257517 1268643 1283318 1296839 1304592 
2529.864 1303729 1294120 1278595 1262252 1250767 1248697 1257651 1275967 
2533.721 1298938 1320402 1334618 1338307 1331351 1317104 1300931 1288599 
2537.578 1284498 1290195 1304219 1322548 1339840 1351007 1352635 1343850 
2541.436 1326437 1304316 1282464 1265764 1257532 1259151 1269596 1286111 
2545.293 1304981 1322650 1336476 1345184 1348814 1348240 1344641 1338981 
2549.151 1332002 1324363 1316696 1310069 1305442 1303738 1304977 1308501 
2553.008 1312874 1316461 1318285 1318525 1318568 1320728 1327199 1339150 
2556.865 1355969 1375345 1393779 1407776 1414729 1413845 1406227 1394319 
2560.723 1381206 1369730 1361808 1358421 1359682 1365294 1374752 1387603 
2564.580 1403291 1421061 1439831 1458206 1474661 1488065 1497733 1503886 
2568.438 1507464 1509843 1512353 1515951 1520655 1525707 1529586 1530806 
2572.295 1528345 1522263 1513612 1504475 1497132 1493211 1493205 1495967 
2576.153 1499214 1500291 1497179 1489419 1478471 1467382 1459891 1459281 
2580.010 1467183 1483267 1504958 1528586 1550180 1566581 1576072 1578702 
2583.867 1575836 1569644 1562398 1556115 1551940 1550631 1552145 1556250 
2587.725 1562504 1570473 1579603 1589511 1599571 1609235 1617885 1624962 
2591.582 1630073 1633148 1634384 1634313 1633510 1632627 1631910 1631490 
2595.440 1631235 1631057 1631064 1631794 1633974 1638382 1645377 1654647 
2599.297 1665179 1675410 1683661 1688687 1689971 1687765 1683019 1676863 
2603.155 1670250 1663801 1657770 1652411 1648128 1645560 1645566 1648850 
2607.012 1655510 1664881 1675536 1685679 1693580 1698342 1700016 1699655 
2610.869 1698871 1699518 1702731 1708923 1717394 1726827 1735604 1742372 
2614.727 1746555 1748294 1748704 1749159 1751074 1755236 1761673 1769547 
2618.584 1777505 1784160 1788589 1790823 1791619 1792346 1794352 1798353 
2622.442 1804246 1811137 1817617 1822518 1825282 1826360 1826819 1828101 
2626.299 1831222 1836519 1843492 1851014 1857850 1863220 1866926 1869607 
2630.156 1872243 1875935 1881410 1888944 1898121 1908198 1918048 1926421 
2634.014 1932276 1934760 1933463 1928577 1920830 1911642 1902646 1895318 
2637.871 1890680 1888937 1889442 1891299 1893280 1894746 1895502 1895964 
2641.729 1896657 1897991 1899859 1901746 1902806 1902467 1900622 1897752 
2645.586 1894846 1892900 1892603 1893840 1895986 1897865 1898372 1896799 
2649.444 1893030 1887636 1881454 1875476 1870326 1866148 1862611 1859055 
2653.301 1854694 1848857 1841204 1831824 1821163 1809963 1799028 1788940 
2657.158 1779885 1771588 1763244 1753887 1742550 1728733 1712417 1694201 
2661.016 1674943 1655610 1636810 1618811 1601462 1584529 1567834 1551458 
2664.873 1535731 1521118 1507917 1496171 1485522 1475623 1466176 1457265 
2668.731 1449390 1443249 1439462 1438243 1439193 1441388 1443647 1444912 
2672.588 1444509 1442304 1438626 1433899 1428613 1422850 1416790 1410502 
2676.446 1404339 1398990 1395319 1394026 1395417 1399172 1404401 1409929 
2680.303 1414659 1417962 1419754 1420522 1420850 1421231 1421793 1422192 
2684.160 1421880 1420452 1417745 1414099 1410137 1406643 1404120 1402668 
2688.018 1402001 1401495 1400475 1398454 1395214 1390818 1385519 1379694 
2691.875 1373733 1368094 1363257 1359773 1358156 1358787 1361686 1366384 
2695.733 1372114 1377818 1382558 1385825 1387448 1387777 1387265 1386201 
2699.590 1384457 1381564 1376867 1369960 1361058 1351213 1342107 1335616 
2703.448 1333281 1335685 1342258 1351427 1361098 1369340 1374927 1377713 
2707.305 1378376 1378285 1378739 1380601 1384035 1388605 1393332 1397188 
2711.162 1399218 1398848 1395687 1389697 1381021 1370088 1357668 1344791 
2715.020 1332720 1322766 1315976 1312969 1313694 1317623 1323749 1330961 
2718.877 1338194 1344664 1349852 1353537 1355564 1356033 1355133 1353247 
2722.735 1350859 1348652 1347257 1347121 1348437 1351069 1354568 1358271 
2726.592 1361389 1363230 1363197 1360877 1356098 1349021 1340314 1331001 
2730.449 1322499 1316328 1313806 1315612 1321594 1330763 1341421 1351578 
2734.307 1359422 1363823 1364504 1362030 1357621 1352844 1349184 1347706 
2738.164 1349008 1353081 1359479 1367366 1375780 1383720 1390432 1395345 
2742.022 1398192 1399091 1398343 1396437 1393803 1390829 1387770 1384636 
2745.879 1381373 1377906 1374198 1370287 1366355 1362681 1359576 1357318 
2749.737 1356155 1356199 1357414 1359671 1362704 1366198 1369869 1373440 
2753.594 1376652 1379155 1380633 1380810 1379417 1376435 1372140 1367049 
2757.451 1361799 1357074 1353216 1350328 1348068 1346047 1343980 1341957 
2761.309 1340415 1340159 1341744 1345413 1350693 1356513 1361455 1364287 
2765.166 1364339 1361871 1357743 1353363 1349964 1348326 1348524 1350141 
2769.024 1352492 1355001 1357520 1360290 1363730 1368203 1373763 1380106 
2772.881 1386508 1392475 1397468 1401505 1404725 1407490 1410024 1412335 
2776.739 1414144 1415078 1414700 1412813 1409342 1404565 1398911 1393004 
2780.596 1387532 1383281 1380910 1381066 1384009 1389649 1397456 1406517 
2784.453 1415776 1424191 1430974 1435845 1438952 1440734 1441899 1443158 
2788.311 1445212 1448547 1453409 1459909 1467834 1476688 1485819 1494484 
2792.168 1502047 1508003 1512283 1514990 1516498 1517210 1517472 1517649 
2796.026 1517967 1518885 1520940 1524684 1530607 1538843 1549091 1560528 
2799.883 1572186 1583181 1592996 1601744 1609968 1618430 1627696 1637812 
2803.740 1648254 1658030 1666125 1671839 1675085 1676429 1676915 1677787 
2807.598 1680103 1684495 1691106 1699691 1709677 1720376 1731135 1741521 
2811.455 1751165 1760104 1768583 1777113 1786346 1796813 1808760 1822123 
2815.313 1836335 1850761 1864805 1878268 1891462 1905183 1920343 1937767 
2819.170 1957867 1980540 2005162 2031061 2057564 2084309 2111250 2138567 
2823.028 2166528 2195295 2224926 2255441 2286947 2319606 2353735 2389566 
2826.885 2427273 2466753 2507615 2549482 2591950 2634792 2678085 2722021 
2830.742 2766861 2812825 2860079 2908780 2959083 3011261 3065672 3122485 
2834.600 3181810 3243594 3307611 3373757 3442203 3513399 3588066 3666823 
2838.457 3750037 3837420 3928147 4021197 4115641 4211065 4307852 4407089 
2842.315 4510119 4618391 4732845 4854152 4982704 5118916 5263594 5417670 
2846.172 5581823 5755852 5937871 6123965 6308096 6482891 6640331 6773118 
2850.030 6875310 6943173 6975223 6972074 6936063 6870646 6780162 6669239 
2853.887 6542550 6404488 6258902 6109058 5957699 5807139 5659409 5516576 
2857.744 5380506 5252780 5134292 5025084 4924295 4830372 4741560 4656532 
2861.602 4574810 4496890 4424104 4358116 4300360 4251636 4211877 4180364 
2865.459 4155916 4137374 4123717 4114249 4108666 4106785 4108702 4114610 
2869.317 4124960 4140406 4161523 4188728 4221941 4260341 4302627 4347040 
2873.174 4391976 4436330 4479807 4522858 4566343 4611251 4658127 4706897 
2877.031 4756869 4807076 4856337 4903779 4948683 4990550 5028938 5063314 
2880.889 5093028 5117637 5136787 5150712 5159963 5165534 5168559 5169971 
2884.746 5170616 5171092 5171836 5173478 5176734 5182464 5191426 5204241 
2888.604 5221113 5241953 5266388 5294161 5325066 5359268 5396979 5438455 
2892.461 5483593 5532015 5582867 5635269 5688382 5741835 5795749 5850829 
2896.319 5908023 5968389 6032591 6100886 6172890 6247593 6323635 6399546 
2900.176 6473936 6545833 6614877 6681394 6746334 6811104 6877115 6945613 
2904.033 7017432 7092685 7170938 7251519 7333749 7417413 7502918 7591259 
2907.891 7683978 7782822 7889383 8004960 8130395 8266152 8412406 8569090 
2911.748 8736137 8913304 9100165 9296110 9500188 9711123 9927394 10147344 
2915.606 10369045 10590558 10809664 11023947 11230732 11427062 11609990 
2918.981 11776487 11923913 12049964 12152994 12232018 12286691 12317318 
2922.356 12324823 12310699 12277061 12226512 12162169 12087467 12005959 
2925.731 11921147 11835916 11752559 11672290 11595480 11521605 11449669 
2929.107 11378528 11307310 11235758 11164333 11094248 11027221 10965121 
2932.482 10909741 10862286 10823508 10793670 10772695 10760445 10757166 
2935.857 10763303 10779754 10807416 10846946 10898483 10961200 11033479 
2939.232 11112790 11196020 11279777 11360645 11435392 11501067 11555184 
2942.608 11595684 11620981 11629881 11621841 11596652 11554509 11495946 
2945.983 11421554 11332217 11228906 11112951 10985861 10849436 10705371 
2949.358 10555410 10400796 10242331 10080564 9915857 9748854 9580604 9412660 
2953.216 9246862 9085155 8929059 8779552 8636990 8501250 8371787 8248090 
2957.073 8129492 8015381 7904846 7796757 7689893 7583136 7475935 7368551 
2960.930 7262116 7158465 7059768 6967830 6883646 6807355 6738143 6674656 
2964.788 6615326 6558725 6503743 6449605 6395585 6341260 6286323 6230711 
2968.645 6174888 6119866 6066964 6017872 5974050 5936548 5905661 5881141 
2972.503 5862162 5847704 5836839 5829065 5824308 5823005 5825950 5833969 
2976.360 5847821 5868088 5894734 5927662 5966374 6010528 6059902 6114537 
2980.218 6174639 6240474 6312142 6389557 6472607 6561395 6656541 6759484 
2984.075 6872402 6997818 7137878 7293700 7464890 7649214 7843201 8042793 
2987.932 8244166 8444370 8641546 8834702 9023086 9205470 9379870 9543439 
2991.790 9692898 9825209 9938059 10030439 10102490 10155194 10189995 
2995.165 10208079 10210258 10196871 10168063 10124066 10065517 9993666 
2998.540 9910041 9816489 9714531 9605192 9488706 9364823 9232916 9092689 
3002.398 8944473 8789643 8630349 8469297 8309043 8151269 7996274 7843149 
3006.255 7689883 7534375 7374874 7211052 7043799 6875374 6708405 6545479 
3010.113 6388390 6237731 6093113 5953258 5816567 5681654 5547662 5414296 
3013.970 5281960 5151536 5024159 4901087 4783411 4671705 4566147 4466288 
3017.827 4371259 4279846 4190822 4103152 4016111 3929369 3843101 3757790 
3021.685 3674165 3593356 3516387 3444304 3377787 3316987 3261403 3209944 
3025.542 3161333 3114378 3068318 3023111 2979188 2937236 2897664 2860429 
3029.400 2824813 2789770 2754203 2717577 2680018 2642335 2605757 2571473 
3033.257 2540261 2512437 2487746 2465642 2445431 2426323 2407467 2387871 
3037.115 2366437 2342224 2314689 2284128 2251641 2219150 2188756 2162354 
3040.972 2141007 2124726 2112496 2102712 2093775 2084221 2073252 2060619 
3044.829 2046581 2031628 2016610 2002511 1990192 1980433 1973449 1968810 
3048.687 1965338 1961301 1954936 1945133 1931718 1915674 1898735 1882920 
3052.544 1869647 1859386 1851524 1844849 1838009 1830284 1821664 1813011 
3056.402 1805485 1800113 1797533 1797775 1800523 1805266 1811479 1818619 
3060.259 1825947 1832311 1836219 1836231 1831202 1821028 1806788 1790734 
3064.116 1775613 1764173 1758225 1758316 1763781 1772902 1783572 1793885 
3067.974 1802429 1808566 1812169 1813567 1813326 1812054 1810327 1808631 
3071.831 1807203 1806073 1804994 1803657 1801689 1799050 1795915 1792768 
3075.689 1790199 1788600 1787971 1787941 1787735 1786579 1783799 1779147 
3079.546 1772695 1764596 1755038 1743977 1731187 1716667 1700644 1684059 
3083.404 1668351 1655391 1646866 1643936 1646750 1654439 1665009 1676059 
3087.261 1684855 1689128 1687216 1678484 1663315 1642972 1619600 1595686 
3091.118 1573893 1556500 1545063 1540215 1541460 1547372 1555774 1564304 
3094.976 1570555 1572750 1569726 1561263 1548012 1531426 1513602 1496751 
3098.833 1483115 1474220 1470867 1472830 1478969 1487791 1497384 1506243 
3102.691 1513318 1518024 1520205 1519910 1517234 1512267 1505281 1496857 
3106.548 1488045 1480273 1475017 1473361 1475756 1481462 1488952 1496111 
3110.406 1500803 1501588 1498058 1490909 1481705 1472467 1464979 1460523 
3114.263 1459446 1461267 1464916 1469108 1472602 1474563 1474635 1472993 
3118.120 1470172 1466963 1464045 1461816 1460349 1459227 1457727 1455277 
3121.978 1451508 1446587 1441352 1437035 1434924 1436035 1440589 1447917 
3125.835 1456546 1464581 1470179 1472197 1470277 1465233 1458596 1452261 
3129.693 1447905 1446545 1448225 1452013 1456138 1458512 1457373 1451680 
3133.550 1441746 1428861 1415554 1404595 1398471 1398634 1405054 1416296 
3137.407 1429759 1442639 1452445 1457829 1458810 1456563 1453001 1450038 
3141.265 1448903 1449957 1452263 1454348 1454329 1450721 1442605 1430297 
3145.122 1414985 1398733 1383932 1372907 1367241 1367661 1373602 1383548 
3148.980 1395280 1406521 1415288 1420440 1421776 1419915 1415912 1411084 
3152.837 1406508 1403029 1401069 1400829 1402321 1405514 1410207 1416234 
3156.695 1423182 1430840 1438755 1446747 1454572 1461945 1468485 1473598 
3160.552 1476596 1476864 1474050 1468335 1460394 1451328 1442250 1434143 
3164.409 1427603 1422788 1419677 1418198 1418403 1420400 1424232 1429741 
3168.267 1436301 1443108 1449217 1454022 1457396 1459698 1461513 1463328 
3172.124 1465155 1466493 1466631 1464983 1461603 1457499 1454371 1454092 
3175.982 1458078 1466446 1477935 1490099 1499862 1504582 1502745 1494475 
3179.839 1481315 1465927 1451228 1439679 1432813 1430996 1433663 1439784 
3183.697 1448028 1457384 1467149 1476906 1486358 1495108 1502549 1507890 
3187.554 1510232 1509030 1504035 1495718 1484996 1473085 1461097 1449950 
3191.411 1439976 1431389 1424114 1418376 1414582 1413470 1415619 1421340 
3195.269 1430186 1441111 1452660 1463208 1471596 1477301 1480415 1481677 
3199.126 1481868 1481749 1481661 1481585 1481111 1479747 1477022 1472601 
3202.984 1466452 1459068 1451285 1444456 1440049 1439472 1443412 1451594 
3206.841 1462742 1474818 1485620 1493611 1498381 1500874 1502809 1506142 
3210.698 1511981 1520210 1529389 1537312 1541880 1541874 1537347 1529622 
3214.556 1520387 1511268 1503008 1495609 1488412 1480943 1473301 1466411 
3218.413 1461824 1461063 1465032 1473564 1485473 1498757 1511291 1521466 
3222.271 1528439 1532230 1533636 1533768 1533631 1533990 1535126 1536815 
3226.128 1538525 1539533 1539330 1537798 1535346 1532948 1531792 1532995 
3229.986 1537075 1543678 1551626 1559273 1565039 1567969 1568008 1566010 
3233.843 1563307 1561102 1560045 1560050 1560500 1560548 1559674 1557781 
3237.700 1555301 1552723 1550503 1548737 1547426 1546702 1546899 1548823 
3241.558 1553245 1560579 1570262 1580677 1589367 1593690 1591665 1582823 
3245.415 1568260 1550551 1532883 1518386 1509052 1505666 1507542 1513195 
3249.273 1520711 1528424 1534998 1539820 1542869 1544601 1545615 1546465 
3253.130 1547435 1548394 1548853 1548221 1546074 1542617 1538821 1536235 
3256.988 1536517 1540716 1548692 1558897 1568637 1574984 1575676 1570075 
3260.845 1559308 1545905 1532881 1522652 1516190 1512939 1511250 1509221 
3264.702 1505563 1500177 1494001 1488590 1485441 1485431 1488538 1494240 
3268.560 1501651 1510071 1518976 1527928 1536357 1543267 1547461 1547842 
3272.417 1543916 1536273 1526589 1517254 1510778 1508993 1512418 1520166 
3276.275 1530045 1539345 1545280 1545891 1540245 1528656 1512673 1494623 
3280.132 1477348 1463641 1455695 1454745 1460726 1472303 1487334 1503416 
3283.990 1518548 1531618 1542635 1552347 1561776 1571571 1581536 1590655 
3287.847 1597333 1600101 1598121 1591567 1581694 1570440 1560033 1552325 
3291.704 1548583 1549273 1553989 1561838 1571345 1580878 1588824 1594112 
3295.562 1596400 1596434 1595884 1596978 1601841 1611534 1625618 1641919 
3299.419 1657033 1667273 1669907 1664110 1651196 1634452 1617937 1605414 
3303.277 1599140 1599396 1604689 1612319 1619410 1623711 1624213 1620905 
3307.134 1614626 1606427 1597208 1587620 1577919 1568460 1559686 1552296 
3310.991 1547111 1544686 1545299 1548486 1553316 1558336 1561948 1562797 
3314.849 1559960 1553080 1542468 1529022 1513952 1498734 1484802 1473333 
3318.706 1465238 1460852 1460075 1462432 1466990 1472617 1478178 1482663 
3322.564 1485470 1486408 1485845 1484514 1483327 1483030 1483947 1486032 
3326.421 1488686 1491096 1492604 1492988 1492569 1492250 1493068 1495893 
3330.279 1501048 1508045 1515636 1522247 1526149 1526191 1521792 1513250 
3334.136 1501526 1488124 1474664 1462720 1453464 1447588 1445050 1445147 
3337.993 1446540 1447621 1446746 1442965 1436155 1427242 1418204 1411354 
3341.851 1408987 1412500 1421986 1436297 1453132 1469716 1483529 1492813 
3345.708 1496881 1496156 1491767 1485204 1477742 1470391 1463621 1457734 
3349.566 1453001 1449870 1449058 1451341 1457270 1466745 1479085 1492675 
3353.423 1505665 1516199 1523054 1525958 1525481 1522914 1519683 1516799 
3357.281 1514623 1512784 1510550 1507360 1502977 1497783 1492453 1487617 
3361.138 1483297 1478863 1473167 1465096 1454187 1441092 1427691 1416572 
3364.995 1410234 1410245 1416708 1428049 1441659 1454576 1464443 1470142 
3368.853 1471807 1470732 1468732 1467510 1468250 1471393 1476704 1483574 
3372.710 1490966 1497920 1503475 1506886 1507858 1506582 1503962 1501453 
3376.568 1500661 1502990 1509083 1518470 1529601 1540238 1548016 1551146 
3380.425 1548820 1541593 1530775 1518426 1506528 1496529 1489348 1485234 
3384.282 1483962 1484955 1487466 1490704 1493681 1495435 1495127 1492301 
3388.140 1486957 1479786 1471864 1464531 1458931 1455599 1454262 1454061 
3391.997 1453768 1452136 1448403 1442591 1435416 1428159 1422069 1418353 
3395.855 1417532 1419653 1424298 1430853 1438718 1447518 1456991 1467002 
3399.712 1477381 1487684 1497296 1505465 1511372 1514513 1514579 1511730 
3403.570 1506384 1499238 1490995 1482318 1473799 1465664 1458098 1451078 
3407.427 1444477 1438228 1432491 1427767 1424741 1424361 1427483 1434519 
3411.284 1445222 1458417 1472324 1484763 1493745 1497989 1497184 1492116 
3415.142 1484395 1475917 1468399 1463084 1460512 1460581 1462891 1466884 
3418.999 1471919 1477470 1482965 1487696 1490859 1491791 1489962 1485351 
3422.857 1478447 1470029 1461186 1452971 1446175 1441268 1438514 1438029 
3426.714 1439698 1443421 1448910 1455709 1463038 1470116 1476072 1480423 
3430.572 1482893 1483618 1482977 1481313 1478799 1475457 1471092 1465634 
3434.429 1459290 1452692 1446689 1442340 1440508 1441572 1445466 1451626 
3438.286 1459353 1467922 1476942 1486346 1496271 1506775 1517708 1528346 
3442.144 1537548 1543986 1546415 1544234 1537590 1527648 1516504 1506511 
3446.001 1499941 1498201 1501491 1508727 1517685 1525677 1530207 1529763 
3449.859 1524204 1514739 1503575 1493333 1486195 1483515 1485328 1490666 
3453.716 1498040 1505820 1512933 1519146 1524909 1531114 1538686 1547974 
3457.573 1558618 1569463 1578899 1585339 1587830 1586186 1581413 1575376 
3461.431 1570103 1567528 1568825 1574225 1583037 1594125 1606121 1618064 
3465.288 1629256 1639327 1648019 1654740 1658733 1659196 1655674 1648444 
3469.146 1638681 1628485 1620169 1615803 1616504 1622228 1631918 1644008 
3473.003 1657092 1670481 1684354 1699605 1717284 1737997 1761458 1786618 
3476.861 1811627 1834523 1853685 1868363 1878541 1885139 1889580 1893601 
3480.718 1898721 1906097 1916268 1929094 1943784 1959168 1974055 1987673 
3484.575 1999950 2011482 2023253 2036082 2050097 2064516 2077616 2087581 
3488.433 2093142 2094381 2092924 2091666 2093807 2101672 2115897 2135078 
3492.290 2156109 2175212 2189179 2196269 2196596 2192024 2185325 2179493 
3496.148 2176844 2178848 2185872 2197624 2213320 2231750 2251565 2271198 
3500.005 2289086 2303919 2314882 2321962 2325828 2327798 2329262 2331374 
3503.863 2334607 2338842 2343350 2347258 2349775 2350440 2349159 2346189 
3507.720 2342015 2337226 2332377 2328117 2324942 2323195 2322971 2324070 
3511.577 2325889 2327768 2328915 2328667 2326457 2321918 2314635 2304371 
3515.435 2291042 2274744 2256053 2236036 2215874 2196975 2180047 2165304 
3519.292 2152131 2139429 2126014 2111095 2094411 2076435 2058019 2040120 
3523.150 2023472 2008454 1995018 1983189 1972860 1964173 1957484 1953065 
3527.007 1951178 1951788 1954636 1959343 1965260 1971628 1977537 1981954 
3530.865 1983742 1981950 1976104 1966262 1953158 1937965 1922010 1906586 
3534.722 1892606 1880627 1871184 1864596 1861280 1861368 1864540 1869576 
3538.579 1874685 1877326 1875350 1867485 1853919 1836551 1818397 1802912 
3542.437 1792850 1789733 1793243 1801743 1812694 1823398 1831943 1837066 
3546.294 1838600 1836817 1832452 1826111 1818342 1809405 1799419 1788645 
3550.152 1777418 1766378 1756538 1749100 1745303 1746004 1751420 1760815 
3554.009 1772547 1784499 1794571 1801429 1804844 1805911 1806394 1808141 
3557.866 1812036 1817805 1823611 1826841 1824916 1815997 1799760 1777396 
3561.724 1751270 1724270 1699225 1678355 1663018 1653957 1651137 1654154 
3565.581 1662115 1673889 1688055 1703243 1718316 1732498 1745502 1757266 
3569.439 1767659 1776140 1781526 1782352 1777123 1765082 1746562 1723396 
3573.296 1698539 1675439 1657375 1646574 1643839 1648383 1658293 1670986 
3577.154 1683766 1694335 1701155 1703530 1701422 1695524 1686915 1676949 
3581.011 1666897 1657814 1650469 1645126 1641784 1640109 1639886 1640994 
3584.868 1643520 1647498 1652967 1659542 1666347 1672097 1675266 1674578 
3588.726 1669407 1659847 1646932 1632176 1617260 1603545 1591822 1582333 
3592.583 1575127 1569999 1567276 1567666 1571991 1580816 1594097 1610609 
3596.441 1628343 1644686 1657097 1663873 1664433 1659402 1650260 1638862 
3600.298 1626895 1615589 1605716 1597986 1592822 1590913 1592766 1598323 
3604.156 1606812 1616475 1624946 1629678 1628882 1622133 1610649 1597063 
3608.013 1584947 1577526 1577073 1584096 1597260 1613812 1630214 1643151 
3611.870 1650154 1650302 1644232 1633806 1621696 1610516 1602164 1597550 
3615.728 1596020 1596148 1595998 1593911 1588965 1581597 1573209 1565946 
3619.585 1562073 1563250 1570110 1582110 1597847 1615408 1632867 1648743 
3623.443 1662344 1673632 1683164 1691873 1700634 1710150 1720702 1732423 
3627.300 1745023 1758248 1771841 1785525 1799079 1812066 1823829 1833442 
3631.157 1840051 1842876 1841903 1838056 1833064 1829324 1829287 1834805 
3635.015 1846367 1863273 1883524 1904612 1924160 1940409 1952698 1961232 
3638.872 1966679 1969602 1970216 1968340 1963520 1955706 1945436 1934393 
3642.730 1925169 1920647 1923467 1935234 1955905 1983641 2015144 2046502 
3646.587 2073860 2094348 2106712 2111326 2109706 2103945 2095977 2087162 
3650.445 2078149 2069109 2060251 2052164 2045840 2042396 2042604 2046233 
3654.302 2052207 2058586 2063275 2064749 2062555 2057402 2050824 2044552 
3658.159 2039898 2037208 2036322 2036603 2037522 2038896 2040958 2043906 
3662.017 2047715 2051733 2055028 2056589 2055790 2052518 2047229 2040143 
3665.874 2031332 2019948 2004736 1984465 1958607 1928095 1895256 1863547 
3669.732 1836817 1817981 1808711 1808838 1816470 1829040 1843386 1856592 
3673.589 1866120 1870060 1867275 1857382 1841031 1819886 1796361 1773362 
3677.447 1753440 1738579 1729702 1726947 1729515 1736224 1745574 1755912 
3681.304 1765416 1772123 1774242 1770403 1760209 1744263 1724304 1702701 
3685.161 1681885 1663757 1649303 1638770 1631937 1628275 1627525 1629392 
3689.019 1633371 1638524 1643444 1646414 1646197 1642334 1635715 1628217 
3692.876 1622188 1619618 1621449 1627225 1635463 1644112 1651328 1655887 
3696.734 1657427 1656084 1652203 1646191 1638421 1629485 1620361 1612585 
3700.591 1607879 1607705 1612584 1621888 1633723 1645301 1653809 1656987 
3704.448 1653706 1644124 1629629 1612453 1595286 1581094 1572282 1570911 
3708.306 1577765 1592415 1612978 1636343 1658661 1676106 1685680 1685861 
3712.163 1676884 1660534 1639907 1618507 1599887 1586820 1581296 1583950 
3716.021 1594153 1609904 1628200 1645593 1658675 1665263 1664620 1657901 
3719.878 1647644 1637012 1628993 1625343 1626438 1631308 1638409 1646136 
3723.736 1653665 1660923 1668569 1677252 1687173 1697846 1707972 1715868 
3727.593 1720122 1720020 1715835 1708927 1701194 1694808 1691467 1692123 
3731.450 1696552 1703643 1711299 1717320 1719504 1716438 1707595 1693610 
3735.308 1675984 1656743 1638161 1621978 1609469 1601172 1597051 1596944 
3739.165 1600541 1607792 1618662 1633216 1651144 1671745 1693807 1715540 
3743.023 1735026 1750368 1760086 1763460 1760727 1752963 1741861 1729376 
3746.880 1717341 1707311 1700090 1695917 1694366 1694471 1695002 1694806 
3750.738 1693052 1689515 1684897 1680516 1678044 1679139 1684683 1694702 
3754.595 1708017 1722695 1736485 1747424 1754467 1757473 1757220 1754602 
3758.452 1750421 1744768 1737173 1727135 1714439 1699914 1685174 1672281 
3762.310 1662912 1657571 1655227 1653524 1649604 1641147 1627346 1609359 
3766.167 1590022 1572937 1561356 1557297 1560975 1571171 1585531 1601725 
3770.025 1617660 1631972 1643816 1652596 1657756 1658713 1655150 1647216 
3773.882 1635959 1623184 1611292 1602655 1599323 1602130 1611028 1624883 
3777.740 1641929 1660132 1677582 1692837 1704960 1713606 1718963 1721360 
3781.597 1721414 1719583 1716383 1712029 1706864 1701128 1695124 1689158 
3785.454 1683531 1678563 1674353 1671132 1669075 1668438 1669615 1672871 
3789.312 1678106 1684713 1691385 1696193 1697221 1692880 1682662 1667211 
3793.169 1648597 1629549 1612897 1600775 1594275 1593119 1596090 1601424 
3797.027 1607471 1612998 1617485 1620843 1623374 1625360 1627130 1628850 
3800.884 1630786 1633143 1636021 1639651 1643969 1648772 1653704 1658280 
3804.741 1662285 1665297 1667215 1667643 1666300 1662727 1656579 1647894 
3808.599 1637282 1626044 1616015 1609030 1606557 1609170 1616132 1625813 
3812.456 1636044 1644659 1650354 1652848 1652853 1651568 1650295 1649687 
3816.314 1649704 1649644 1648690 1646279 1642552 1638338 1634801 1633052 
3820.171 1633526 1636021 1639782 1643927 1647920 1651991 1656741 1662848 
3824.029 1670455 1678538 1685047 1687206 1682502 1669587 1648859 1622865 
3827.886 1595410 1570858 1552898 1543579 1543005 1549514 1560124 1571686 
3831.743 1581599 1588181 1591125 1591184 1589678 1588237 1588206 1590432 
3835.601 1595315 1602624 1611848 1622179 1632885 1643184 1652419 1660194 
3839.458 1666145 1669875 1671216 1670230 1667239 1663103 1658863 1655805 
3843.316 1654765 1656169 1659541 1663519 1666378 1666420 1662407 1654198 
3847.173 1642665 1629573 1617199 1607810 1603106 1604067 1610681 1622128 
3851.031 1637058 1653732 1670554 1685951 1698850 1708517 1714665 1717369 
3854.888 1717029 1714147 1709457 1703656 1697582 1692256 1688478 1687024 
3858.745 1688255 1692056 1697770 1704339 1710470 1714897 1716546 1714847 
3862.603 1709295 1700044 1687468 1672381 1656193 1640842 1628567 1621657 
3866.460 1621691 1629241 1643419 1662026 1682117 1700285 1713888 1721161 
3870.318 1721816 1716459 1706618 1694015 1680360 1667118 1655519 1646523 
3874.175 1640727 1638066 1637790 1638577 1638911 1637494 1633936 1629132 
3878.032 1624884 1623361 1626210 1633797 1644825 1656766 1666543 1671867 
3881.890 1671854 1667515 1661213 1655689 1653023 1653579 1656124 1658227 
3885.747 1657328 1651604 1641133 1627488 1613527 1602218 1595861 1595279 
3889.605 1599835 1607619 1616342 1623805 1628615 1630418 1629656 1627540 
3893.462 1625514 1624830 1626464 1630731 1637344 1645262 1653000 1658890 
3897.320 1661351 1659313 1652658 1642023 1628961 1615387 1603141 1593633 
3901.177 1587489 1584723 1584828 1587164 1591067 1596186 1602245 1609012 
3905.034 1616082 1623035 1629429 1635000 1639895 1644437 1648967 1653603 
3908.892 1657757 1660355 1659905 1655348 1646315 1633826 1620013 1607860 
3912.749 1599932 1597982 1601936 1610067 1619601 1627697 1632246 1632853 
3916.607 1630631 1627674 1626341 1628035 1632889 1639592 1646035 1650040 
3920.464 1650283 1646642 1640312 1633219 1627385 1624199 1624163 1626764 
3924.322 1630915 1635540 1639851 1643900 1648252 1653959 1661861 1672591 
3928.179 1685874 1700857 1716148 1729878 1740522 1746734 1747817 1743820 
3932.036 1735440 1724110 1711659 1699864 1690345 1683983 1680819 1679984 
3935.894 1680019 1679408 1676742 1671705 1664756 1657173 1650511 1646246 
3939.751 1645221 1647413 1652163 1658667 1666360 1675110 1685473 1697949 
3943.609 1712963 1730028 1747785 1764083 1776556 1783233 1782988 1775938 
3947.466 1763311 1747114 1729817 1713642 1700542 1691737 1687766 1688593 
3951.323 1693454 1701197 1710504 1720170 1729323 1737685 1745335 1752642 
3955.181 1759635 1765927 1770565 1772463 1770811 1765595 1757914 1749569 
3959.038 1742706 1738943 1738784 1741381 1744947 1747493 1747745 1745492 
3962.896 1741897 1738674 1737559 1739402 1743847 1749195 1753283 1753908 
3966.753 1749594 1739941 1725732 1708546 1690641 1674327 1661795 1654772 
3970.611 1654229 1659903 1670494 1683654 1696378 1705903 1710378 1709522 
3974.468 1704543 1697807 1691987 1689426 1691200 1697273 1706542 1717477 
3978.325 1728522 1738558 1746812 1752699 1755788 1755948 1753389 1749003 
3982.183 1744324 1741296 1741494 1745478 1752503 1760516 1766945 1769694 
3986.040 1768000 1762783 1756418 1751625 1750342 1752863 1757547 1761499 
3989.898 1761725 1756288 1745067 1729890 1713870 1700385 1691961 1689921 
3993.755 1694066 1703332 1716061 1730667 1745651 1759597 1770845 1777548 
3997.613 1777949 1770871 1756122 1734827 1709314 1682661 1657972 
##END=
