##TITLE=Bambu-Lab_ABS_White_Filament_r6_ATR-Corrected
##JCAMP-DX=5.01  $$ Nicolet v. 1
##DATATYPE=INFRARED SPECTRUM
##ORIGIN=Curtin University
##OWNER=Nicolet
##LONGDATE=2024/07/03
##TIME=14:11:33
##SPECTROMETER/DATA SYSTEM=Nicolet iS50
##DATA PROCESSING=
Ratio against background
%Transmittance->Absorbance
ATR Correction
Truncated
ElementMultiply or ElementDivide
##COMMENTS=
Number of sample scans: 32
Collection length: 47.29 sec
Sample gain: 1.0
Background collected on: Wed Jul 03 14:09:00 2024 (GMT+08:00);
Number of background scans: 32
Background gain: 1.0
Sample spacing:  1.000
Number of scan points: 16672
Resolution points: 8192
Number of FFT points: 65536
Apodization: N-B strong;
Phase correction: Mertz;
Laser frequency: 15798.3 cm-1
Number of rejected sample scans: 0
Number of rejected background scans: 0
Bench serial number: AUP1200105;
##RESOLUTION=4.000
##XUNITS=1/CM
##YUNITS=ABSORBANCE
##FIRSTX=400.163452
##LASTX=4000.187744
##FIRSTY=0.012860
##MAXX=4000.187744
##MINX=400.163452
##MAXY=0.432752
##MINY=-0.028730
##XFACTOR=1.000000
##YFACTOR=1.000000E-009
##NPOINTS=7468
##DELTAX=0.482125
##ZPD=8192
##XYDATA=(X++(Y..Y))
400.163 12859964 12729245 12707888 12785025 12936262 13130936 13348762 
403.538 13589946 13876338 14242573 14718742 15310952 15988456 16682984 
406.913 17302196 17754086 17976188 17955870 17736598 17404166 17058212 
410.288 16779630 16605733 16522299 16476570 16404320 16260693 16041266 
413.663 15784131 15553620 15412598 15395839 15495163 15663752 15836939 
417.038 15957858 15999999 15973931 15919087 15883991 15905282 15996277 
420.412 16146066 16331546 16532555 16741790 16965686 17214966 17492414 
423.787 17784716 18063234 18294844 18456348 18545550 18583856 18607084 
427.162 18648972 18728050 18841024 18967806 19085028 19178600 19252976 
430.537 19326408 19421232 19547378 19694548 19828518 19905238 19883824 
433.912 19741416 19482214 19136076 18749804 18375160 18058164 17832230 
437.286 17715584 17711492 17808874 17982242 18194424 18400850 18559084 
440.661 18639594 18635196 18563746 18461938 18371124 18320174 18312552 
444.036 18322896 18306418 18216870 18026886 17741110 17397554 17055642 
447.411 16776443 16602090 16543001 16577112 16659444 16740022 16780610 
450.786 16765837 16705832 16629731 16575227 16576495 16655931 16819552 
454.161 17057018 17345492 17654756 17953806 18215906 18422134 18562990 
457.535 18637130 18647844 18600828 18501692 18356520 18175636 17977454 
460.910 17791338 17655828 17612582 17695806 17922202 18283090 18744356 
464.285 19252950 19748368 20176708 20500058 20701974 20785912 20768774 
467.660 20674012 20526084 20348464 20163370 19992408 19854996 19764494 
471.035 19723278 19719536 19728490 19718962 19663708 19549154 19382084 
474.409 19188028 19003710 18865172 18796098 18800848 18864202 18958424 
477.784 19053152 19126044 19167676 19182628 19184272 19188334 19206990 
481.159 19245100 19300468 19365974 19432302 19490100 19530970 19547806 
484.534 19535280 19490702 19416750 19321992 19221532 19134546 19079198 
487.909 19067854 19102458 19173220 19261086 19342956 19398666 19416336 
491.284 19395206 19345014 19281786 19223278 19184010 19173086 19193474 
494.658 19243318 19317940 19409824 19509256 19603310 19676572 19713808 
498.033 19704384 19647536 19555924 19456358 19384774 19377528 19461040 
501.408 19642730 19908042 20223056 20544164 20830658 21056754 21218410 
504.783 21333322 21433862 21555390 21724088 21949312 22221008 22514802 
508.158 22801008 23054874 23264904 23435914 23586866 23744972 23936844 
511.532 24181540 24485764 24843680 25240244 25657362 26080546 26504368 
514.907 26934714 27387200 27882424 28438472 29064222 29754656 30490276 
518.282 31241118 31975166 32667048 33305190 33895600 34459148 35025052 
521.657 35622732 36273264 36985156 37753460 38563764 39396828 40233576 
525.032 41057936 41857128 42620944 43340792 44009928 44624740 45187628 
528.406 45707936 46201840 46688972 47188160 47712760 48266984 48845672 
531.781 49436376 50022624 50587928 51118768 51606144 52045976 52439684 
535.156 52793628 53119204 53432248 53749568 54086340 54451676 54845644 
538.531 55258944 55676048 56079624 56457360 56805148 57127860 57436028 
541.906 57739904 58043376 58340572 58616132 58848972 59018684 59110192 
545.281 59118272 59046628 58906640 58713520 58483768 58233216 57976052 
548.655 57724120 57485468 57263488 57055512 56853324 56645984 56423504 
552.030 56181220 55922444 55657140 55399360 55160524 54945168 54748332 
555.405 54557912 54358300 54137088 53889968 53621864 53344964 53073532 
558.780 52818792 52585668 52372476 52173568 51983184 51799024 51622908 
562.155 51459656 51313612 51185260 51069524 50955672 50829588 50677276 
565.529 50487868 50256204 49983060 49674684 49341448 48995916 48650736 
568.904 48316844 48001248 47705640 47425376 47150760 46868656 46566536 
572.279 46236388 45877332 45496744 45108996 44731072 44378464 44061048 
575.654 43780184 43529232 43295332 43063388 42819452 42553128 42259264 
579.029 41937240 41589600 41220828 40836468 40442912 40047296 39657996 
582.404 39284024 38933836 38613308 38324116 38062876 37820932 37586640 
585.778 37348036 37095852 36826352 36541768 36249444 35959936 35684204 
589.153 35430644 35204572 35007360 34837796 34692888 34568956 34462128 
592.528 34367764 34280912 34196444 34110288 34020368 33927584 33835824 
595.903 33750904 33678116 33620084 33575640 33539340 33503480 33460516 
599.278 33406064 33340138 33267408 33195182 33130490 33078030 33037792 
602.652 33006020 32976144 32941572 32897808 32843300 32779336 32709442 
606.027 32637790 32568454 32505792 32454912 32422312 32416072 32444176 
609.402 32512124 32620222 32761436 32921008 33079394 33216204 33315796 
612.777 33372272 33392276 33393868 33403582 33449754 33556796 33739036 
616.152 33998172 34322212 34688528 35066320 35422668 35726144 35951504 
619.527 36082888 36115816 36058200 35928604 35753472 35562084 35380808 
622.901 35228140 35112216 35030436 34972364 34923776 34871940 34808204 
626.276 34729064 34634860 34527040 34406276 34271576 34121832 33957472 
629.651 33783524 33609580 33448908 33314806 33216980 33158266 33133462 
633.026 33131200 33136948 33137806 33125598 33099290 33064496 33031564 
636.401 33012838 33019346 33058532 33132650 33238348 33367388 33507980 
639.775 33646956 33772348 33875296 33951500 34001844 34031344 34047704 
643.150 34060032 34077784 34110400 34167872 34260480 34397976 34587332 
646.525 34829844 35117928 35434388 35754080 36048484 36292072 36469088 
649.900 36577908 36631832 36655404 36678348 36727920 36822620 36969652 
653.275 37165388 37398988 37657612 37930588 38212120 38500792 38797960 
656.650 39104956 39420812 39741820 40062592 40378188 40686456 40989524 
660.024 41293864 41608432 41942468 42302540 42691164 43105860 43541020 
663.399 43989832 44446636 44908652 45376592 45853156 46341272 46841848 
666.774 47352352 47866652 48376044 48871500 49345552 49794540 50218920 
670.149 50622908 51013572 51398564 51785532 52180448 52587204 53008348 
673.524 53445476 53900220 54375276 54874972 55404876 55970584 56576016 
676.898 57221840 57903808 58614376 59344496 60088156 60845388 61625764 
680.273 62447524 63334240 64309260 65390484 66585848 67893688 69305912 
683.648 70814584 72418344 74127696 75966968 77972880 80191216 82673512 
687.023 85475760 88659680 92296680 96473992 101300824 106913224 113477376 
690.398 121190680 130278976 140990576 153584960 168313824 185393856 
693.290 204969392 227065904 251534496 277993024 305771264 333878176 
696.183 361013280 385653472 406234976 421410528 430318112 432752320 
699.076 429162336 420486528 407900576 392587904 375583360 357704480 
701.969 339546080 321509408 303845568 286696288 270130560 254170352 
704.861 238809728 224028176 209799744 196101040 182916080 170240400 
707.754 158082192 146460096 135399840 124927888 115067752 105835200 97239840 
711.129 89285472 81972912 75303168 69277864 63897392 59157136 55041840 
714.504 51521860 48551364 46070496 44010820 42302796 40883024 39698944 
717.878 38710008 37885860 37202308 36637664 36170364 35779056 35445136 
721.253 35154816 34901276 34684840 34510888 34387588 34322348 34320888 
724.628 34386208 34519360 34720252 34988012 35320408 35712804 36157528 
728.003 36643748 37158760 37690724 38231368 38778212 39335948 39915960 
731.378 40534276 41209836 41961524 42806504 43758516 44826096 46011120 
734.752 47307800 48700992 50167144 51675336 53191344 54682048 56120124 
738.127 57488092 58780292 60002232 61168704 62300016 63419156 64548760 
741.502 65710984 66926612 68214760 69592880 71075328 72671760 74385744 
744.877 76214912 78152656 80191360 82326200 84559232 86900896 89369096 
748.252 91985984 94772968 97745144 100907712 104253632 107765704 111418712 
751.627 115184656 119036320 122949384 126902448 130874888 134842128 
754.519 138771616 142619424 146329120 149833040 153057152 155926432 
757.412 158371872 160335536 161774096 162659696 162978560 162728688 
760.305 161918320 160564176 158691648 156335360 153540368 150361104 
763.197 146860176 143105152 139163424 135097888 130962464 126799200 
766.090 122637928 118498144 114393032 110334544 106337056 102419304 98603280 
769.465 94910496 91356816 87949176 84683960 81549472 78530184 75613200 
772.840 72791864 70066592 67443288 64928412 62524492 60227660 58028456 
776.214 55914888 53877420 51913068 50025652 48224108 46516956 44908008 
779.589 43392660 41958600 40589360 39269492 37989656 36749200 35555376 
782.964 34419792 33354082 32365266 31454674 30618010 29848122 29137796 
786.339 28481560 27876178 27319058 26806826 26334016 25892634 25473296 
789.714 25066788 24665406 24264554 23862798 23461764 23066290 22683424 
793.089 22322350 21992558 21702330 21455626 21250652 21078636 20925240 
796.463 20773630 20609176 20423316 20215562 19992908 19766516 19547680 
799.838 19343454 19155636 18981136 18815232 18654644 18499678 18353762 
803.213 18221860 18107458 18009808 17924890 17846594 17770576 17695960 
806.588 17626548 17568386 17526248 17500294 17484212 17466380 17433862 
809.963 17376708 17292828 17188634 17077374 16974816 16894156 16842284 
813.337 16817960 16813304 16817154 16817826 16806928 16779798 16735468 
816.712 16676001 16605137 16527217 16447227 16369797 16299075 16237255 
820.087 16184071 16136516 16089356 16036330 15972361 15894160 15801225 
823.462 15695456 15580069 15459216 15337888 15222275 15120346 15041730 
826.837 14996030 14990684 15027874 15102479 15202495 15311236 15412091 
830.212 15493548 15552631 15596221 15638476 15696434 15785258 15913397 
833.586 16081730 16285034 16515117 16764592 17030184 17312798 17616682 
836.961 17946110 18302740 18683306 19079538 19479568 19870286 20240368 
840.336 20581548 20890096 21165908 21411358 21629308 21822148 21990244 
843.711 22132034 22244738 22325166 22370670 22380306 22355346 22298690 
847.086 22214150 22105430 21974986 21823458 21649744 21451928 21228428 
850.460 20978680 20704190 20408456 20096566 19774346 19448358 19124644 
853.835 18809548 18509098 18229168 17974570 17748566 17551532 17380942 
857.210 17231352 17095672 16966990 16840350 16713966 16589474 16470717 
860.585 16362313 16267439 16186867 16118597 16058609 16003270 15950078 
863.960 15899215 15853351 15816484 15793152 15786720 15798893 15829794 
867.335 15878428 15943108 16021093 16108209 16198317 16282696 16351756 
870.709 16396331 16410956 16396241 16360076 16316140 16280942 16268872 
874.084 16287521 16334802 16398869 16461551 16503626 16510647 16478335 
877.459 16413903 16333764 16259715 16212242 16204961 16241921 16317450 
880.834 16419295 16532974 16646400 16752424 16849716 16940822 17029492 
884.209 17118574 17208710 17298922 17387978 17476338 17566738 17663366 
887.583 17770394 17889514 18019178 18154444 18289236 18418676 18541520 
890.958 18661496 18786018 18924012 19083372 19268566 19480082 19715506 
894.333 19971924 20247754 20544628 20868046 21226602 21630448 22090042 
897.708 22615214 23214448 23894044 24658418 25510050 26450930 27483452 
901.083 28613088 29849290 31205640 32697104 34335388 36122620 38046852 
904.458 40080068 42179780 44295348 46376348 48378568 50268764 52023672 
907.832 53626304 55059800 56303816 57333176 58121236 58644892 58890404 
911.207 58856516 58554688 58005900 57236052 56272224 55140568 53866112 
914.582 52474352 50991584 49444588 47858836 46256336 44654100 43065512 
917.957 41502248 39977136 38505576 37104168 35787480 34563848 33431984 
921.332 32381154 31394410 30454608 29549916 28677852 27846058 27068166 
924.706 26359876 25733302 25194230 24741460 24368094 24063732 23816054 
928.081 23612026 23438088 23281456 23130886 22979492 22825746 22674730 
931.456 22536634 22423864 22348122 22316660 22331526 22390372 22487722 
934.831 22617632 22774776 22954068 23150286 23357916 23570318 23781808 
938.206 23988788 24191542 24393950 24602330 24823452 25062286 25320624 
941.581 25598228 25892834 26202070 26523262 26853274 27187458 27519586 
944.955 27842366 28149956 28440456 28718176 28993232 29280242 29594104 
948.330 29947382 30347674 30798640 31301674 31859100 32475960 33160798 
951.705 33923864 34774924 35722040 36771192 37928128 39200604 40599844 
955.080 42140808 43839944 45712568 47769740 50017016 52455212 55081652 
958.455 57891344 60876988 64027168 67322408 70731992 74212016 77705752 
961.829 81147704 84467608 87595896 90467016 93021800 95208664 96984864 
965.204 98318008 99189208 99593960 99543816 99063504 98187344 96954312 
968.579 95404112 93575240 91505576 89234216 86802944 84256880 81642552 
971.954 79004648 76383224 73810256 71309784 68898040 66585756 64380260 
975.329 62286828 60309152 58449652 56709376 55087316 53582152 52191980 
978.703 50915564 49752644 48703632 47769064 46948340 46238664 45634392 
982.078 45126004 44700540 44342468 44035004 43762472 43512464 43277480 
985.453 43056088 42851972 42672992 42528496 42427140 42374836 42374104 
988.828 42423532 42518324 42651264 42812840 42992340 43177816 43357224 
992.203 43518300 43649536 43739308 43776504 43749908 43649376 43467176 
995.578 43201352 42858552 42457204 42026916 41606804 41239308 40962928 
998.952 40804744 40774600 40862660 41042196 41273208 41511392 41715008 
1002.327 41851992 41903880 41867228 41751720 41576508 41365308 41140468 
1005.702 40919472 40712400 40522356 40347472 40184044 40030372 39887944 
1009.077 39762012 39659460 39586452 39546308 39538860 39561160 39609340 
1012.452 39680380 39772896 39886376 40019972 40171380 40336672 40512324 
1015.826 40697116 40894616 41113088 41364052 41659380 42007144 42410372 
1019.201 42867276 43375136 43933332 44546992 45227116 45988136 46844048 
1022.576 47803344 48867472 50029952 51278552 52597532 53968196 55368008 
1025.951 56766800 58124112 59388048 60497676 61389116 62003224 62293384 
1029.326 62230836 61806172 61028768 59923724 58529100 56893888 55075808 
1032.702 53139604 51152784 49180476 47279596 45493960 43852324 42368744 
1036.077 41046468 39883104 38874736 38017312 37307080 36737084 36296092 
1039.452 35966596 35727196 35554996 35429964 35337348 35268800 35220596 
1042.827 35192188 35182304 35188508 35206408 35231084 35258036 35284976 
1046.203 35311284 35338464 35368884 35405172 35450328 35506716 35576552 
1049.578 35660440 35757232 35863860 35975308 36086744 36195524 36303060 
1052.953 36416324 36546632 36707752 36912152 37168164 37478136 37838016 
1056.328 38239864 38674424 39133396 39611632 40106544 40617116 41142216 
1059.704 41679560 42225712 42776860 43330820 43887668 44450632 45024580 
1063.079 45613816 46220272 46841160 47468716 48090576 48691604 49256124 
1066.454 49769712 50220644 50600300 50903364 51126292 51267972 51327656 
1069.829 51305000 51200172 51013820 50747672 50405696 49994696 49525516 
1073.205 49011968 48470764 47918208 47368572 46832004 46313228 45812160 
1076.580 45325796 44850660 44384376 43927340 43481864 43050932 42636400 
1079.955 42237588 41851652 41474456 41102532 40734884 40373304 40022308 
1083.330 39687336 39373676 39084308 38820300 38580928 38364956 38170864 
1086.706 37997236 37842416 37703660 37577196 37458536 37344096 37232296 
1090.081 37124176 37023200 36933612 36858448 36797888 36748852 36705672 
1093.456 36662876 36616512 36566380 36515620 36468836 36430128 36400584 
1096.831 36377676 36355168 36325292 36281120 36218256 36135844 36036312 
1100.207 35924084 35804360 35681368 35558096 35435724 35313596 35189484 
1103.582 35059872 34919556 34763528 34587060 34387568 34165284 33923432 
1106.957 33667760 33404690 33139180 32872882 32603432 32324512 32027672 
1110.332 31704284 31348274 30957282 30533232 30081786 29610274 29126568 
1113.708 28637104 28146592 27658204 27174510 26698154 26233036 25783702 
1117.083 25354760 24949424 24568404 24209088 23866254 23532796 23202668 
1120.458 22872170 22541118 22213590 21896270 21596220 21319228 21068120 
1123.833 20841874 20637150 20449976 20277520 20119708 19979576 19862064 
1127.208 19771968 19712308 19682294 19677780 19691480 19715550 19743924 
1130.584 19773840 19806416 19846444 19899774 19971986 20066860 20185184 
1133.959 20326172 20488944 20673582 20882642 21120400 21391876 21700594 
1137.334 22047458 22429986 22843490 23283178 23746218 24233888 24750706 
1140.709 25304264 25902144 26550024 27250714 28004738 28812130 29674550 
1144.085 30597086 31588324 32658722 33818792 35076548 36436792 37901408 
1147.460 39470364 41143740 42921824 44804852 46790328 48870372 51029436 
1150.835 53243000 55478348 57696184 59853788 61907508 63815712 65541120 
1154.210 67053572 68332360 69368824 70167528 70746736 71135336 71369384 
1157.586 71486560 71520936 71499608 71440216 71351912 71237920 71097704 
1160.961 70930912 70738456 70523896 70292928 70052128 69807616 69563928 
1164.336 69322672 69082232 68838736 68586280 68318656 68030360 67717608 
1167.711 67378320 67012728 66622296 66210172 65781100 65341660 64900368 
1171.087 64467400 64053556 63667976 63316644 63000984 62718256 62462912 
1174.462 62229856 62017160 61827908 61670604 61557188 61499292 61505040 
1177.837 61575780 61704520 61877008 62073664 62271908 62449420 62586388 
1181.212 62665680 62674000 62601320 62441452 62191268 61851568 61426888 
1184.588 60925876 60360592 59746408 59101344 58444256 57794692 57170248 
1187.963 56586288 56054388 55581708 55171648 54823708 54534680 54299536 
1191.338 54112164 53965508 53853056 53767672 53703352 53655028 53619356 
1194.713 53594128 53578468 53571840 53573008 53579132 53585852 53587072 
1198.089 53575900 53545520 53489780 53404500 53287344 53138924 52962780 
1201.464 52765444 52555816 52344264 52140860 51953148 51785168 51635984 
1204.839 51501356 51374624 51248960 51119520 50984096 50842732 50696840 
1208.214 50547520 50394628 50236324 50069700 49892184 49702552 49501104 
1211.590 49289516 49070408 48846320 48618848 48389568 48159820 47931400 
1214.965 47707788 47492472 47290072 47103888 46935868 46785516 46650168 
1218.340 46525404 46406524 46289108 46171400 46054404 45942468 45842228 
1221.715 45761740 45708564 45687816 45701648 45748736 45826036 45929412 
1225.091 46055668 46203496 46372836 46564720 46779480 47016372 47272688 
1228.466 47545404 47831304 48127764 48433280 48746388 49065140 49385908 
1231.841 49704040 50014012 50310224 50588576 50845856 51079668 51287316 
1235.216 51464492 51606264 51706900 51762396 51770800 51733716 51655192 
1238.592 51540244 51393112 51215984 51008928 50770768 50501184 50202188 
1241.967 49879564 49542440 49203352 48876040 48574152 48309764 48091868 
1245.342 47925300 47809512 47737976 47698512 47674676 47648004 47600576 
1248.717 47518688 47393920 47224036 47012392 46766920 46498792 46221296 
1252.093 45948800 45696224 45476472 45299024 45167412 45077352 45017620 
1255.468 44972164 44923772 44859248 44771756 44663004 44541280 44418140 
1258.843 44304564 44208072 44130772 44070760 44023604 43984380 43948952 
1262.218 43914228 43877792 43837332 43790480 43735700 43673152 43605072 
1265.594 43535808 43470216 43412604 43364488 43324188 43287448 43248528 
1268.969 43202028 43144704 43076736 43001568 42925352 42855760 42800244 
1272.344 42764492 42750632 42756284 42774528 42795016 42805640 42795852 
1275.719 42758608 42692780 42602380 42495688 42382400 42270920 42166372 
1279.094 42069892 41979568 41891744 41802584 41708836 41609036 41502392 
1282.470 41389140 41270100 41146824 41021416 40896212 40773276 40653756 
1285.845 40537412 40423848 40313328 40208796 40116208 40044288 40003220 
1289.220 40000992 40040872 40119808 40228976 40355708 40486908 40612572 
1292.595 40727324 40831200 40927920 41023472 41123288 41231872 41351012 
1295.971 41481072 41619992 41764392 41910344 42053884 42193184 42329496 
1299.346 42467968 42617056 42786024 42981888 43206292 43453880 43713064 
1302.721 43968760 44206748 44416964 44596112 44746140 44873316 44984720 
1306.096 45086316 45182228 45276148 45372380 45476580 45594288 45729332 
1309.472 45881008 46042316 46201272 46344104 46459068 46540484 46590196 
1312.847 46616932 46632256 46646596 46665696 46689528 46712948 46728872 
1316.222 46731328 46716636 46684632 46637620 46578604 46511140 46438324 
1319.597 46363980 46292856 46230508 46182440 46152124 46139432 46139788 
1322.973 46145300 46146388 46134632 46105120 46058272 45999256 45937092 
1326.348 45882028 45843152 45827480 45837268 45871344 45924416 45988440 
1329.723 46054408 46112928 46156432 46179788 46181220 46162616 46128060 
1333.098 46084104 46037808 45996304 45966496 45954032 45964016 46000304 
1336.474 46065712 46161460 46287896 46443912 46627888 46837952 47071984 
1339.849 47327816 47603608 47897092 48205592 48527148 48859284 49199712 
1343.224 49545932 49894408 50240444 50577336 50897900 51195428 51464992 
1346.599 51705736 51920148 52114864 52297528 52475088 52651632 52827840 
1349.975 53001068 53167244 53323168 53467948 53603964 53734968 53865348 
1353.350 53997436 54130176 54259280 54378048 54479508 54557532 54609672 
1356.725 54635696 54638772 54623344 54595004 54559032 54520104 54481932 
1360.100 54446948 54415776 54386904 54356464 54318864 54267436 54195968 
1363.476 54099696 53976480 53826768 53652420 53457016 53243912 53015816 
1366.851 52775096 52523616 52263548 51997084 51726492 51453416 51178564 
1370.226 50901104 50619140 50330100 50031708 49722928 49403720 49074692 
1373.601 48736036 48386036 48020560 47632856 47215188 46760268 46263804 
1376.977 45726236 45152716 44553200 43939876 43324856 42718452 42127416 
1380.352 41555584 41004396 40474696 39968152 39487472 39035852 38616432 
1383.727 38230480 37877200 37553476 37255344 36979020 36721920 36483792 
1387.102 36265656 36068920 35893252 35735424 35588512 35441968 35282568 
1390.478 35097068 34874624 34607596 34294028 33937220 33544432 33126124 
1393.853 32693252 32256306 31823854 31402190 30995916 30608322 30241734 
1397.228 29897680 29577120 29279316 29002410 28742880 28496852 28260226 
1400.603 28030728 27807184 27590652 27383488 27187958 27006790 26841780 
1403.979 26694048 26565350 26457694 26374286 26318790 26295664 26308326 
1407.354 26359892 26452158 26586310 26764310 26988832 27263732 27594014 
1410.729 27984366 28438058 28955036 29531360 30158094 30822298 31507824 
1414.104 32196864 32871592 33515212 34112808 34651696 35120884 35511928 
1417.479 35818284 36036312 36166372 36213368 36187024 36102384 35978180 
1420.855 35836016 35698608 35588140 35525680 35530284 35618504 35804188 
1424.230 36098692 36510484 37046416 37711560 38509964 39444484 40516732 
1427.605 41726680 43072320 44549716 46152580 47873700 49704340 51634388 
1430.980 53651800 55742792 57891644 60082292 62300420 64534872 66779196 
1434.356 69031456 71292952 73565936 75852520 78154472 80473744 82814936 
1437.731 85186944 87603120 90081320 92642440 95308008 98100552 101043488 
1441.106 104161752 107482072 111031696 114835264 118911216 123267080 
1443.999 127896888 132781328 137890272 143188112 148640768 154222928 
1446.892 159924976 165756992 171748912 177942496 184372736 191038736 
1449.785 197866992 204673760 211140528 216813824 221140592 223539136 
1452.678 223495888 220660832 214918656 206411744 195519648 182800240 
1455.572 168915104 154550976 140347904 126842368 114429560 103348824 
1458.465 93694144 85440232 78478440 72652184 67786016 63706344 60254308 
1461.840 57293076 54710744 52420708 50360508 48488472 46778876 45216840 
1465.215 43791608 42492960 41308832 40225752 39230892 38315028 37474560 
1468.590 36710684 36027176 35425176 34899760 34435524 34007984 33586316 
1471.966 33140048 32646426 32095444 31492378 30855370 30209780 29582038 
1475.341 28993592 28458882 27984670 27574200 27228230 26949156 26740390 
1478.716 26606266 26551546 26581152 26700844 26920878 27255696 27725772 
1482.091 28354574 29166712 30183800 31423934 32901994 34632712 36635844 
1485.467 38940868 41591080 44648740 48198544 52351448 57245792 63042736 
1488.842 69908384 77984120 87338136 97911168 109461304 121529240 133436488 
1492.217 144333664 153296496 159461280 162171952 161102032 156317808 
1495.110 148263760 137674320 125439752 112463448 99543296 87298312 76142824 
1498.485 66298216 57829732 50690492 44763796 39897792 35930356 32705982 
1501.861 30084976 27948188 26197656 24754908 23556776 22552192 21699106 
1505.236 20962104 20312230 19727088 19190990 18695122 18236200 17814944 
1508.611 17433936 17095560 16800706 16548179 16333664 16150484 15991250 
1511.986 15848069 15715608 15590834 15474939 15370697 15281910 15210339 
1515.362 15154704 15110035 15069449 15025959 14975396 14917139 14854526 
1518.737 14792955 14738355 14694219 14661388 14637860 14620652 14606885 
1522.112 14595116 14584733 14576247 14570026 14565706 14562930 14561542 
1525.487 14563202 14570234 14586264 14614455 14656425 14711462 14776734 
1528.863 14848216 14922391 14997445 15073589 15153211 15239947 15337079 
1532.238 15446493 15568363 15700158 15838353 15978063 16114656 16243957 
1535.613 16364232 16474742 16577974 16677577 16778764 16886980 17006932 
1538.988 17141576 17291872 17456114 17631080 17812066 17993840 18171776 
1542.364 18342410 18504306 18658294 18806982 18955268 19107626 19267162 
1545.739 19433950 19604832 19773324 19932288 20075220 20199076 20304516 
1549.114 20396012 20479104 20558280 20634860 20706668 20768716 20815318 
1552.489 20842422 20848790 20836048 20807624 20766330 20714812 20653696 
1555.865 20584578 20510792 20440002 20382778 20351748 20358900 20411984 
1559.240 20513078 20658784 20842402 21056574 21296136 21558036 21840552 
1562.615 22139930 22448558 22752956 23034396 23271538 23443200 23532304 
1565.990 23528324 23428494 23237664 22967580 22634818 22260028 21864980 
1569.365 21471046 21096150 20753740 20451612 20192718 19976980 19804026 
1572.741 19674928 19593520 19565772 19598444 19696802 19864534 20103526 
1576.116 20416172 20807816 21289550 21878368 22595392 23461274 24490366 
1579.491 25683812 27023840 28469768 29957730 31404044 32712248 33784324 
1582.866 34532912 34894196 34838076 34374616 33553452 32456718 31186302 
1586.242 29848812 28540864 27339238 26296648 25442206 24786788 24327878 
1589.617 24055592 23955048 24008852 24198948 24508950 24926390 25446302 
1592.992 26073002 26819988 27707276 28757980 29994180 31435676 33098544 
1596.367 34997312 37143368 39543064 42190056 45056036 48081404 51169800 
1599.743 54188908 56981108 59380264 61232576 62416896 62858140 62534756 
1603.118 61477000 59759780 57491692 54802300 51829416 48707952 45561268 
1606.493 42492920 39584348 36892256 34451004 32274720 30362628 28702076 
1609.868 27273518 26052424 25012288 24126196 23369628 22722080 22169062 
1613.244 21701272 21312942 20999436 20753000 20561610 20408898 20277128 
1616.619 20151258 20022408 19890526 19762452 19648606 19558480 19497276 
1619.994 19464230 19454292 19460134 19475258 19495688 19520276 19549734 
1623.369 19585240 19627678 19677942 19737762 19810464 19900996 20015092 
1626.745 20158384 20334410 20545946 20796218 21090694 21439146 21855740 
1630.120 22356814 22957014 23666240 24486026 25408892 26418476 27491774 
1633.495 28599080 29705072 30768002 31740614 32572470 33215746 33632216 
1636.870 33800048 33718072 33405386 32896154 32233010 31458832 30610980 
1640.246 29717704 28798772 27866758 26930806 25998816 25080026 24184534 
1643.621 23323866 22508996 21750760 21058404 20439306 19897714 19434362 
1646.996 19045800 18724346 18458150 18234308 18040046 17864714 17701928 
1650.371 17549396 17408182 17281934 17174806 17091006 17033070 17002142 
1653.747 16997674 17017112 17056932 17111494 17174568 17238582 17295944 
1657.122 17339728 17364298 17366306 17344788 17301462 17240820 17169618 
1660.497 17096574 17031832 16985428 16966004 16978876 17025432 17101528 
1663.872 17199802 17310058 17422652 17529558 17626642 17712532 17788796 
1667.248 17857922 17922498 17984168 18043950 18101896 18158286 18213236 
1670.623 18266120 18315964 18360270 18396646 18423380 18439892 18449188 
1673.998 18456210 18467898 18490802 18528642 18581084 18643752 18708684 
1677.373 18767496 18812874 18840822 18850288 18844054 18825650 18799974 
1680.749 18770972 18742462 18717826 18700434 18693440 18700170 18721778 
1684.124 18758342 18807806 18866638 18931122 18998626 19067776 19138402 
1687.499 19210736 19284892 19359728 19433402 19503560 19568068 19625646 
1690.874 19676302 19720826 19760822 19798194 19835410 19875586 19922296 
1694.250 19979820 20051688 20140224 20246082 20367724 20503266 20650876 
1697.625 20811206 20986418 21180586 21396642 21635610 21895318 22170702 
1701.000 22456622 22750364 23053632 23373544 23720742 24107062 24541880 
1704.375 25030868 25574936 26171676 26818206 27512534 28254756 29048132 
1707.750 29896564 30805302 31779520 32826088 33953504 35172456 36494672 
1711.126 37930380 39486240 41163040 42956796 44860668 46870200 48986476 
1714.501 51218392 53581332 56092540 58765984 61605340 64603216 67740408 
1717.876 70991488 74330760 77737416 81197736 84705136 88255064 91841112 
1721.251 95449704 99058552 102637352 106151040 109563264 112840944 115956616 
1724.627 118888664 121619968 124135984 126422032 128462616 130240216 
1727.520 131737424 132937368 133825440 134390928 134628160 134535632 
1730.413 134115648 133372856 132312776 130939976 129258736 127274248 
1733.306 124995520 122438608 119628832 116599816 113389144 110033960 
1736.199 106563896 102998176 99347248 95615152 91807656 87937664 84029168 
1739.574 80117592 76245016 72454240 68782696 65256864 61892300 58694564 
1742.949 55663228 52794276 50085232 47534084 45141360 42906548 40828220 
1746.325 38901984 37121092 35477736 33964460 32575224 31306364 30155684 
1749.700 29119672 28190966 27357482 26601658 25904610 25247672 24619558 
1753.075 24016200 23441514 22904442 22414214 21975684 21587610 21241518 
1756.450 20925598 20628416 20342078 20064176 19797348 19545772 19312134 
1759.826 19095360 18889708 18686512 18476918 18255552 18021812 17779950 
1763.201 17537310 17302210 17080916 16877262 16692495 16525723 16377250 
1766.576 16247191 16136639 16046192 15975324 15920155 15875010 15832953 
1769.951 15787819 15735241 15675208 15609576 15542535 15477199 15415007 
1773.327 15355062 15295088 15232987 15168396 15103954 15043740 14991237 
1776.702 14947888 14911483 14876317 14835249 14783103 14719098 14646888 
1780.077 14574523 14509398 14456027 14413153 14373323 14326614 14262373 
1783.452 14175287 14064752 13936655 13800079 13664476 13537856 13425821 
1786.828 13332651 13262273 13217889 13202229 13214528 13248601 13293672 
1790.203 13334966 13358898 13357664 13332454 13292853 13255407 13236010 
1793.578 13245795 13285936 13349202 13422128 13491160 13547338 13589011 
1796.953 13622162 13657511 13706706 13778908 13878817 14005983 14155521 
1800.329 14319924 14490099 14656876 14812576 14951160 15069565 15168006 
1803.704 15248230 15312588 15361862 15393478 15402896 15384428 15336102 
1807.079 15260644 15167504 15071700 14988560 14930000 14899702 14891511 
1810.454 14891380 14881221 14843899 14766733 14644139 14476714 14270629 
1813.830 14035796 13786041 13538436 13314267 13136715 13027380 13001651 
1817.205 13062027 13197024 13381192 13581003 13762201 13897881 13972824 
1820.580 13983892 13937913 13846830 13724011 13582103 13433323 13288735 
1823.955 13157920 13048438 12962886 12897152 12841101 12781210 12704808 
1827.331 12604259 12479489 12337200 12188277 12041334 11900309 11762988 
1830.706 11622541 11471457 11308010 11136446 10967845 10815504 10689897 
1834.081 10595219 10525815 10468885 10409526 10334731 10239934 10128823 
1837.456 10013048 9907461 9823600 9764743 9725045 9688718 9637441 9553979 
1841.314 9430847 9272173 9094184 8920155 8774595 8676227 8633467 8643015 
1845.171 8694035 8770986 8860107 8950271 9033062 9101604 9148137 9164461 
1849.029 9144483 9088049 9003881 8909262 8825580 8771877 8757288 8777625 
1852.886 8819009 8862156 8893713 8911992 8927234 8957151 9016122 9105667 
1856.743 9211568 9305150 9354701 9338070 9251161 9110761 8950252 8805891 
1860.601 8706409 8664349 8676070 8726398 8798525 8881430 8971876 9073307 
1864.458 9191233 9327799 9480590 9644560 9816283 9996143 10190357 10405964 
1868.316 10646574 10908461 11179294 11441872 11678830 11878614 12038089 
1871.691 12159462 12247097 12303540 12328321 12320339 12281965 12224282 
1875.066 12168145 12137844 12155223 12229472 12351560 12495897 12626683 
1878.441 12709128 12720358 12655064 12527122 12362828 12191459 12037055 
1881.817 11913094 11821040 11753630 11699101 11647017 11591234 11531563 
1885.192 11471358 11416827 11372854 11341409 11319457 11299774 11272280 
1888.567 11227962 11161541 11074849 10978221 10888026 10821413 10792931 
1891.942 10808322 10862602 10940427 11019632 11073952 11078616 11010298 
1895.318 10853818 10601333 10255848 9833186 9363665 8886931 8447465 8082018 
1899.175 7812083 7637380 7536261 7475514 7421924 7357121 7285168 7231054 
1903.032 7230659 7314951 7494201 7749052 8030432 8270215 8401158 8372145 
1906.890 8164187 7793932 7309560 6777608 6268415 5839992 5529854 5347452 
1910.747 5281837 5304775 5382484 5482369 5578805 5652836 5690521 5680270 
1914.605 5613873 5487278 5306599 5092909 4882807 4721389 4650956 4690788 
1918.462 4828389 5015267 5178603 5242954 5159052 4920751 4574599 4203458 
1922.320 3902491 3746286 3764380 3933220 4187971 4449016 4651515 4765030 
1926.177 4802038 4802213 4810286 4853244 4927069 4997978 5019161 4948578 
1930.034 4769979 4493578 4153666 3794115 3450288 3140811 2865288 2610409 
1933.892 2362356 2117786 1891220 1710542 1614377 1636248 1800304 2107698 
1937.749 2539311 3055852 3608188 4148569 4638641 5058748 5405303 5685994 
1941.607 5909193 6074228 6166499 6162388 6042107 5807502 5493470 5169673 
1945.464 4930964 4869218 5048751 5478660 6102774 6808392 7448382 7874203 
1949.322 7971334 7679897 7005679 6008999 4792632 3470527 2151972 919917 
1953.179 -169662 -1089282 -1830906 -2393901 -2778874 -2985098 -3015864 
1956.554 -2888957 -2638513 -2316014 -1982035 -1682344 -1431386 -1199808 
1959.929 -922648 -528425 29951 739527 1521280 2255958 2820205 3135206 
1963.787 3199454 3073321 2855960 2618431 2374385 2059303 1570518 821232 
1967.644 -189755 -1349540 -2437756 -3192140 -3395155 -2949417 -1915711 
1971.020 -493952 1039818 2404233 3391186 3886664 3866662 3370824 2481238 
1974.877 1315809 39008 -1130742 -1924602 -2085033 -1438952 19724 2090324 
1978.734 4413625 6573851 8219572 9167186 9418579 9141596 8587725 8017173 
1982.592 7622061 7492607 7598517 7834236 8053670 8131110 7988330 7619634 
1986.449 7080362 6469728 5891321 5433773 5137607 4982623 4894140 4765915 
1990.307 4481526 3959908 3175293 2177426 1076924 24891 -826222 -1356246 
1994.164 -1499845 -1255082 -680928 126231 1045437 1960958 2766299 3382797 
1998.021 3762706 3898626 3808759 3539706 3141913 2654689 2094931 1454490 
2001.879 713441 -139906 -1091120 -2076386 -3001401 -3750146 -4225719 
2005.254 -4371586 -4192766 -3746739 -3123400 -2399242 -1623409 -805630 60097 
2009.112 961620 1845224 2605762 3106298 3223601 2891778 2137080 1084131 
2012.969 -69226 -1104628 -1843243 -2207189 -2238348 -2097006 -2030275 
2016.344 -2298059 -3105601 -4532723 -6494764 -8757498 -10970642 -12756864 
2019.719 -13799681 -13919656 -13115775 -11564070 -9563401 -7460875 -5559010 
2023.095 -4055792 -3019318 -2392863 -2047381 -1830160 -1603269 -1279896 
2026.470 -809022 -179024 604569 1509702 2479075 3417582 4203622 4702656 
2030.327 4818412 4516990 3866388 3022815 2202532 1621108 1429641 1662853 
2034.185 2246851 3022587 3806549 4451995 4887224 5122702 5218145 5243963 
2038.042 5243506 5210505 5095335 4826904 4344313 3623119 2693852 1632637 
2041.900 555537 -414037 -1158213 -1588398 -1656569 -1362079 -744789 113987 
2045.757 1119902 2182412 3239003 4264225 5267975 6270732 7273721 8230479 
2049.615 9046490 9599864 9777474 9519410 8843193 7841792 6665631 5482125 
2053.472 4438428 3618939 3037405 2644292 2359522 2110077 1862837 1621968 
2057.329 1419760 1283595 1216765 1190958 1158581 1078291 946106 797614 
2061.187 709766 768999 1040699 1544172 2244060 3061788 3898366 4661091 
2065.044 5285030 5737763 6014846 6131300 6111561 5980096 5763147 5482229 
2068.902 5160591 4814311 4458560 4103128 3757663 3437176 3162325 2957483 
2072.759 2846283 2841294 2940454 3126765 3377365 3673163 4010500 4395676 
2076.616 4840336 5347999 5897617 6444839 6930948 7303512 7535073 7632448 
2080.474 7637136 7604628 7577598 7569893 7558775 7494695 7327732 7030041 
2084.331 6615431 6138715 5677396 5308059 5080288 4998659 5027489 5098974 
2088.189 5139115 5082957 4891198 4552700 4080115 3502625 2859974 2194974 
2092.046 1553900 983497 528919 229548 115522 202584 487876 950732 1556279 
2096.386 2259218 3008609 3755053 4454185 5067763 5566166 5927212 6136288 
2100.243 6183795 6067916 5798270 5399754 4918455 4421369 3990392 3710918 
2104.101 3652482 3855808 4320758 5005190 5837277 6729977 7593898 8356917 
2107.958 8963342 9377821 9579554 9563311 9338350 8932359 8389640 7775172 
2111.815 7159428 6608456 6168975 5859647 5667955 5557961 5480424 5390098 
2115.673 5252926 5055152 4800436 4505144 4192403 3885827 3600073 3341194 
2119.530 3101014 2861984 2599165 2286281 1905179 1455544 951931 428309 
2123.388 -75766 -524871 -900273 -1204473 -1460833 -1704303 -1971300 -2288037 
2127.245 -2664968 -3101780 -3594637 -4141309 -4749670 -5432407 -6201462 
2130.620 -7048977 -7940694 -8808035 -9553106 -10067019 -10251949 -10051152 
2133.996 -9470560 -8588514 -7545407 -6518704 -5682714 -5170498 -5046544 
2137.371 -5294936 -5841584 -6574811 -7383157 -8183229 -8930595 -9614184 
2140.746 -10239149 -10807738 -11313290 -11736656 -12060449 -12289396 
2143.639 -12454689 -12609168 -12809661 -13094095 -13464407 -13881953 
2146.532 -14285914 -14619089 -14847536 -14981422 -15062536 -15145920 
2149.425 -15285803 -15513373 -15844459 -16285179 -16849460 -17568156 
2152.318 -18481010 -19616230 -20978936 -22527130 -24173222 -25788764 
2155.211 -27214936 -28264350 -28730388 -28390062 -27039332 -24535736 
2158.104 -20897324 -16372051 -11456707 -6807693 -3065417 -664268 279563 
2161.480 -35018 -1193253 -2698203 -4087831 -5029964 -5361557 -5085272 
2164.855 -4331829 -3290804 -2161679 -1107044 -238816 382734 736827 831896 
2168.712 688616 342164 -170283 -808984 -1532410 -2296076 -3049351 -3743941 
2172.570 -4336518 -4794467 -5101352 -5268105 -5316558 -5276964 -5173838 
2175.945 -5016586 -4809089 -4551208 -4263339 -3980499 -3747628 -3596440 
2179.320 -3519905 -3462112 -3324317 -2995809 -2403169 -1541177 -486682 
2182.696 624089 1642526 2466709 3062601 3466016 3746355 3960070 4129189 
2186.553 4230079 4226135 4093850 3853212 3567111 3309426 3127387 3012336 
2190.410 2899578 2696951 2333630 1801037 1170904 574932 157559 28783 225181 
2194.750 706271 1375863 2118691 2830896 3434154 3869491 4089326 4050654 
2198.607 3725768 3124566 2308169 1397281 550838 -78536 -381622 -323580 53636 
2202.947 650037 1344593 2028979 2631246 3109628 3446035 3633037 3667218 
2206.804 3559399 3340796 3067769 2811431 2631803 2565662 2603147 2702039 
2210.662 2808991 2879921 2905979 2906539 2917099 2965689 3056164 3166116 
2214.519 3266558 3338553 3393200 3468799 3611586 3856443 4205357 4631337 
2218.377 5088352 5532842 5944510 6322622 6675564 7001216 7279361 7478177 
2222.234 7575375 7587261 7579405 7657758 7933915 8486766 9328280 10400510 
2226.092 11603741 12835900 14043656 15240838 16502867 17934264 19621884 
2229.467 21604836 23865268 26336576 28941730 31610380 34303148 37001536 
2232.842 39698648 42382596 45026492 47588280 50020284 52271968 54289596 
2236.217 56015032 57381204 58315904 58753216 58650548 58003112 56843692 
2239.593 55238716 53268708 51011980 48541688 45925224 43233372 40550636 
2242.968 37964404 35554080 33366032 31396602 29594458 27882390 26188344 
2246.343 24483254 22795512 21202272 19799348 18658318 17797022 17164302 
2249.718 16659096 16166750 15597910 14916539 14146036 13357506 12639819 
2253.094 12074247 11713296 11574324 11642487 11875910 12215035 12586675 
2256.469 12914521 13126580 13169862 13022940 12704118 12267644 11790415 
2259.844 11350560 11007724 10789132 10685619 10662972 10676158 10684571 
2263.219 10665774 10618842 10563018 10531744 10559930 10677287 10897722 
2266.594 11210277 11580671 11952500 12259034 12442248 12468113 12339869 
2269.970 12097983 11808392 11543887 11362088 11291175 11327843 11444515 
2273.345 11606593 11787214 11976181 12181059 12418047 12701244 13034462 
2276.720 13406697 13795906 14171802 14506634 14779646 14982004 15121520 
2280.095 15221528 15317826 15453092 15664300 15970148 16360631 16793506 
2283.471 17204660 17520178 17681276 17659268 17464994 17142374 16755313 
2286.846 16369397 16036300 15787119 15632238 15568437 15583735 15661232 
2290.221 15779933 15911110 16020758 16075518 16047876 15929600 15731940 
2293.596 15484682 15226113 14990579 14799069 14654595 14547208 14461711 
2296.972 14388541 14323913 14271774 14236609 14216339 14202475 14182033 
2300.347 14145426 14092417 14034975 13993909 13990729 14037837 14135585 
2303.722 14270389 14423620 14575776 14714217 14834361 14935024 15016031 
2307.097 15076047 15111640 15123572 15118112 15108610 15111687 15140714 
2310.473 15200452 15285019 15380741 15475661 15564477 15653413 15756799 
2313.848 15889594 16057992 16255168 16462209 16656585 16820638 16950672 
2317.223 17057036 17160560 17285626 17454136 17683112 17988668 18386658 
2320.598 18892210 19509862 20220110 20966344 21653672 22158976 22358196 
2323.974 22160852 21534044 20516672 19213486 17770894 16347473 15080012 
2327.349 14060438 13323164 12848915 12581230 12448505 12385909 12349084 
2330.724 12317010 12286956 12266117 12261457 12276117 12308311 12352332 
2334.099 12402954 12455786 12507075 12552982 12589816 12614520 12625668 
2337.475 12625608 12620918 12619597 12629185 12654938 12696089 12747309 
2340.850 12799256 12842035 12866602 12867758 12843603 12795062 12724093 
2344.225 12635958 12535601 12430183 12327716 12235918 12161006 12105347 
2347.600 12067143 12039705 12013597 11979917 11931651 11866987 11788666 
2350.976 11703229 11617527 11537786 11466688 11403763 11347359 11294880 
2354.351 11245138 11197746 11154202 11114505 11076297 11034991 10984276 
2357.726 10916332 10826645 10712611 10576898 10425118 10265951 10106821 
2361.101 9954369 9811511 9678095 9549858 9420159 9281181 9124857 8947788 
2364.959 8751159 8545001 8347654 8182903 8077703 8054290 8124800 8286230 
2368.816 8519682 8792074 9064175 9297940 9464549 9550047 9557621 9504195 
2372.674 9416317 9322141 9245316 9199969 9187550 9198626 9216218 9220948 
2376.531 9197872 9139430 9049418 8940780 8833144 8747412 8699019 8697521 
2380.388 8741674 8823321 8928163 9039903 9141984 9218865 9256664 9245944 
2384.246 9183575 9074157 8932899 8783552 8653300 8566225 8534621 8555008 
2388.103 8607317 8663159 8695160 8689410 8650598 8602588 8578604 8608935 
2391.961 8706808 8861168 9038485 9191740 9274894 9260034 9142461 8944804 
2395.818 8706600 8473318 8284017 8162317 8113919 8130845 8197199 8293551 
2399.676 8403816 8513093 8609112 8680549 8717596 8714451 8671892 8598973 
2403.533 8511496 8428328 8367617 8341183 8352897 8399409 8474477 8571527 
2407.390 8688330 8824580 8981827 9157435 9343210 9525382 9686865 9811509 
2411.248 9889921 9919891 9906867 9858170 9780563 9677023 9548347 9396872 
2415.105 9232119 9072573 8946815 8883840 8906288 9019789 9209071 9439616 
2418.963 9665365 9841003 9935069 9935024 9849802 9704147 9530600 9360492 
2422.820 9219093 9122523 9081002 9098687 9175700 9309168 9489253 9699537 
2426.677 9918305 10119422 10280046 10382744 10420805 10398004 10326579 
2430.053 10223995 10109265 9999298 9908166 9845226 9813664 9812681 9834317 
2433.910 9867197 9897646 9911822 9900508 9860841 9797208 9720106 9645263 
2437.768 9590686 9572285 9604184 9695142 9846514 10051182 10293037 10548357 
2441.625 10790192 10992683 11139191 11223599 11252653 11240798 11205444 
2445.000 11159599 11109644 11055411 10994854 10930507 10872366 10837145 
2448.375 10844441 10908959 11033192 11203754 11393934 11571007 11705809 
2451.751 11780797 11795602 11764397 11711318 11661430 11631660 11626055 
2455.126 11633765 11633088 11598188 11507326 11352092 11141694 10902292 
2458.501 10672478 10492067 10390358 10377089 10438638 10540891 10641462 
2461.876 10702781 10704962 10650353 10559707 10463426 10387808 10344739 
2465.252 10328122 10318926 10295285 10242590 10159344 10056511 9952906 
2468.627 9864954 9801575 9761874 9739167 9726695 9720912 9723798 9740162 
2472.484 9771819 9815894 9863214 9903602 9929860 9941726 9945316 9949490 
2476.342 9960867 9980203 9999624 10010850 10006832 9988056 9959652 9930661 
2480.199 9904975 9879695 9843369 9786619 9706863 9615378 9538146 9507288 
2484.057 9548407 9669362 9854101 10068036 10269786 10426898 10528847 
2487.432 10589642 10641061 10718226 10844734 11022967 11230885 11432583 
2490.807 11589439 11672361 11668948 11586820 11446323 11276492 11106370 
2494.182 10960669 10858675 10811841 10824456 10890616 10996165 11119898 
2497.558 11238006 11329578 11380366 11385325 11346515 11269944 11159118 
2500.933 11016532 10843272 10645280 10436699 10241891 10092915 10019671 
2504.308 10038769 10148671 10325242 10528062 10712714 10842105 10898222 
2507.683 10885718 10827797 10759029 10712825 10713371 10769519 10875759 
2511.059 11013733 11158166 11282236 11364561 11392908 11365642 11295949 
2514.434 11208219 11131323 11093298 11112180 11190201 11314002 11456576 
2517.809 11589020 11686615 11736933 11741035 11708516 11652607 11581995 
2521.184 11498442 11398823 11282035 11150777 11017879 10902848 10825287 
2524.560 10797872 10821057 10883208 10964827 11046991 11117096 11172090 
2527.935 11217120 11259798 11304949 11351049 11392849 11426194 11450401 
2531.310 11473261 11506300 11560211 11637717 11730105 11817528 11877319 
2534.685 11890783 11848556 11756807 11627835 11479720 11325879 11173700 
2538.061 11027172 10891144 10776827 10701471 10683620 10735199 10851921 
2541.436 11011644 11176387 11304706 11365157 11346454 11263539 11149007 
2544.811 11043302 10979723 10972858 11017540 11092494 11173109 11240711 
2548.186 11290684 11333429 11386601 11466595 11580347 11721225 11869180 
2551.562 12000117 12090771 12130759 12122360 12083082 12039000 12016291 
2554.937 12034388 12101281 12209899 12342545 12476970 12593552 12679412 
2558.312 12731530 12754768 12756827 12744048 12718132 12677191 12618040 
2561.687 12541614 12454262 12370232 12303523 12266417 12262796 12288214 
2565.063 12331512 12380846 12428649 12474323 12522166 12575618 12634512 
2568.438 12690852 12733178 12750897 12740112 12708304 12670715 12644140 
2571.813 12639186 12656037 12683236 12705017 12707742 12689852 12660650 
2575.188 12636702 12633717 12658699 12705449 12760679 12808244 12840278 
2578.563 12861171 12885096 12928661 13003111 13105706 13222106 13331030 
2581.939 13415504 13467885 13495085 13513197 13540586 13588525 13659717 
2585.314 13745594 13834539 13914763 13979750 14028009 14061270 14081170 
2588.689 14088221 14083810 14072965 14065678 14074382 14110816 14178830 
2592.064 14270267 14367049 14446559 14491284 14497288 14475862 14451381 
2595.440 14451194 14495869 14591978 14731188 14895055 15063022 15220163 
2598.815 15360104 15483957 15596514 15701352 15798192 15884588 15958609 
2602.190 16021201 16077001 16131945 16189972 16249513 16304525 16346425 
2605.565 16369330 16372446 16361194 16344240 16330525 16323987 16322533 
2608.941 16322043 16316989 16306495 16293714 16284876 16285077 16294666 
2612.316 16308296 16317632 16315196 16298881 16275527 16258314 16262369 
2615.691 16300268 16375117 16481835 16607078 16733969 16847002 16935346 
2619.066 16995714 17029678 17044182 17048284 17051158 17060908 17082296 
2622.442 17116930 17160920 17208018 17250280 17282494 17304478 17322846 
2625.817 17348284 17393880 17469358 17576254 17707774 17849172 17982326 
2629.192 18091998 18168082 18210722 18227522 18231838 18238188 18260228 
2632.567 18308066 18386236 18496458 18635904 18799466 18979618 19166342 
2635.943 19348106 19513874 19651462 19751422 19806874 19816278 19783158 
2639.318 19716668 19631474 19544114 19469994 19420410 19398584 19399900 
2642.693 19413234 19425058 19424594 19406750 19374290 19335130 19300236 
2646.068 19278078 19273118 19285550 19312968 19352440 19403262 19465528 
2649.444 19539696 19622728 19706784 19780686 19831022 19848754 19830816 
2652.819 19782022 19714344 19640560 19572924 19516810 19472486 19435398 
2656.194 19398562 19357416 19309724 19256370 19199510 19141822 19086086 
2659.569 19033826 18987464 18948968 18918076 18891566 18861282 18814396 
2662.945 18735846 18612246 18437502 18215012 17959212 17692884 17440512 
2666.320 17223340 17053566 16932982 16853082 16800336 16759504 16718032 
2669.695 16668376 16607935 16538769 16464643 16389959 16319737 16259013 
2673.070 16212642 16185474 16180757 16200567 16244471 16307808 16384117 
2676.446 16463157 16534582 16588129 16615327 16611658 16576383 16513636 
2679.821 16432859 16346384 16268618 16213890 16192570 16210532 16267525 
2683.196 16356992 16467873 16588096 16705751 16811912 16902136 16974336 
2686.571 17028142 17063628 17077350 17064420 17019578 16939014 16824616 
2689.947 16685143 16535604 16394347 16279370 16203064 16169697 16175037 
2693.322 16208876 16258746 16313884 16367868 16418252 16465390 16510190 
2696.697 16552562 16590506 16622480 16648846 16672224 16697429 16729170 
2700.072 16770273 16818378 16866772 16906288 16927470 16923860 16894714 
2703.448 16844208 16779962 16712243 16650956 16605105 16581967 16586380 
2706.823 16620805 16682720 16766135 16859958 16951182 17026874 17078632 
2710.198 17101992 17099384 17076178 17039108 16992814 16940218 16883226 
2713.573 16825852 16774844 16741605 16736371 16766535 16830852 16918564 
2716.948 17011426 17089166 17135230 17142840 17115538 17065278 17006868 
2720.324 16952736 16908644 16873504 16840270 16802542 16755834 16700782 
2723.699 16642148 16586877 16542209 16513914 16504655 16516553 16549885 
2727.074 16602751 16670939 16746853 16819592 16878140 16913320 16921262 
2730.449 16905346 16875108 16843206 16822032 16819404 16836238 16867778 
2733.825 16905570 16940898 16967508 16982724 16986916 16980898 16967148 
2737.200 16946498 16920776 16892930 16868110 16852484 16851956 16869744 
2740.575 16903660 16946888 16988748 17018186 17026616 17011446 16977282 
2743.950 16934618 16896278 16874246 16875180 16900108 16942482 16991890 
2747.326 17035406 17063606 17069926 17053428 17017982 16969218 16912950 
2750.701 16852972 16790194 16725093 16655898 16584739 16515415 16456332 
2754.076 16416378 16407598 16437305 16509976 16623871 16770974 16938250 
2757.451 17108476 17263864 17388254 17470778 17506856 17499522 17458780 
2760.827 17399738 17338820 17290142 17264192 17265722 17293252 17342626 
2764.202 17407722 17481950 17559924 17636352 17706670 17765574 17809142 
2767.577 17834208 17841134 17834092 17820906 17812272 17818726 17846704 
2770.952 17898914 17971186 18054670 18136974 18206352 18253828 18275666 
2774.328 18274920 18259706 18243092 18238510 18258674 18311350 18398052 
2777.703 18514228 18649520 18791792 18927492 19046594 19142826 19214098 
2781.078 19262180 19290338 19303138 19305082 19301116 19296024 19295248 
2784.453 19304680 19329586 19373350 19435700 19513462 19599882 19686060 
2787.829 19763258 19825084 19869654 19898734 19918898 19939444 19970806 
2791.204 20020140 20092056 20185352 20295246 20414218 20535036 20653072 
2794.579 20766736 20878568 20991100 21106322 21222252 21334270 21435204 
2797.954 21519852 21586512 21639602 21687516 21741778 21810410 21898536 
2801.330 22003898 22119510 22235556 22342656 22435046 22509590 22567598 
2804.705 22611712 22646276 22676874 22709568 22752122 22811652 22894998 
2808.080 23004068 23137084 23286848 23444272 23600918 23752030 23897988 
2811.455 24043538 24195896 24360588 24539236 24730340 24930380 25136038 
2814.831 25345610 25560906 25784410 26019654 26267516 26529148 26806188 
2818.206 27101614 27422522 27777440 28174546 28615520 29095080 29600748 
2821.581 30114550 30620684 31109830 31583402 32052516 32536178 33054900 
2824.956 33626628 34264840 34976812 35764052 36626360 37560832 38562832 
2828.332 39625120 40739440 41895964 43086880 44309860 45568244 46870704 
2831.707 48229116 49652016 51142472 52694204 54293132 55919816 57555192 
2835.082 59185664 60804724 62415860 64031096 65667124 67344280 69079648 
2838.457 70887336 72773384 74736200 76764936 78842696 80949568 83066432 
2841.833 85179248 87281872 89375888 91470592 93578536 95713856 97886688 
2845.208 100100928 102351504 104619168 106868064 109044776 111078904 
2848.101 112888320 114389600 115511744 116208408 116468624 116319016 
2850.994 115820480 115057488 114122752 113104528 112074416 111082464 
2853.887 110156512 109304840 108520856 107789576 107090560 106404392 
2856.780 105714704 105010208 104286552 103544648 102788744 102021672 
2859.673 101244536 100453672 99643848 98810384 97953232 97078520 96199752 
2863.048 95333320 94494240 93693016 92931408 92206000 91508712 90834536 
2866.424 90181464 89553936 88960808 88411232 87912088 87464904 87066448 
2869.799 86709368 86386232 86091088 85821616 85578584 85365776 85188016 
2873.174 85049328 84953112 84901736 84896192 84937360 85026248 85163328 
2876.549 85349952 85587680 85880576 86232472 86649880 87137936 87701816 
2879.925 88344496 89066152 89864152 90731992 91663544 92649784 93682264 
2883.300 94754144 95858536 96990552 98146984 99325360 100525880 101750136 
2886.675 103001072 104282840 105599216 106953096 108343088 109763976 
2889.568 111206240 112656904 114102432 115531168 116937968 118323064 
2892.461 119694864 121064624 122444984 123844392 125266640 126709712 
2895.354 128169192 129641872 131129088 132638616 134183120 135777744 
2898.247 137435168 139163280 140962480 142828720 144753216 146728528 
2901.140 148748624 150810896 152913872 155057792 157242688 159468752 
2904.033 161736864 164051056 166417696 168845136 171342144 173914640 
2906.927 176564800 179290240 182086640 184949184 187875392 190866704 
2909.820 193928592 197065776 200281504 203573488 206932688 210342688 
2912.713 213780768 217220144 220630608 223979632 227232624 230352432 
2915.606 233299200 236032000 238511296 240700064 242570256 244102336 
2918.499 245289904 246139872 246670688 246910624 246894032 246657120 
2921.392 246235264 245659712 244957328 244149856 243255184 242287488 
2924.285 241258768 240178560 239054896 237892320 236694304 235462656 
2927.178 234198064 232900848 231571328 230208864 228812144 227379216 
2930.071 225908512 224400272 222858272 221288096 219698128 218094336 
2932.964 216480032 214850848 213196288 211502336 209754896 207945056 
2935.857 206072368 204145648 202180032 200192176 198196192 196199648 
2938.750 194204656 192207488 190205120 188194432 186175280 184148032 
2941.643 182112656 180065680 178001296 175914064 173802160 171670352 
2944.536 169529232 167394848 165282080 163200672 161151616 159127680 
2947.429 157117280 155109472 153099456 151091696 149096064 147125600 
2950.323 145188384 143284880 141406576 139536944 137658544 135756144 
2953.216 133820400 131846936 129837824 127794160 125719248 123615672 
2956.109 121488104 119345912 117201384 115069864 112965848 110898312 
2959.002 108868256 106869144 104890504 102923680 100964664 99017688 97094232 
2962.377 95206768 93365848 91574616 89829480 88123808 86451280 84813160 
2965.752 83218432 81683528 80227168 78863744 77600056 76431832 75346384 
2969.127 74327152 73359240 72432048 71541832 70688656 69875808 69103624 
2972.503 68370592 67671288 67000352 66352496 65726420 65122852 64544552 
2975.878 63994088 63471348 62974444 62497968 62033728 61573644 61108616 
2979.253 60631916 60137976 59625040 59094884 58553628 58010248 57475692 
2982.628 56960420 56472116 56012652 55579312 55166508 54768064 54379804 
2986.004 54001972 53638664 53296888 52981808 52697828 52445276 52223412 
2989.379 52030988 51870708 51748532 51673564 51656216 51704244 51821740 
2992.754 52006340 52252764 52554056 52904776 53303364 53753068 54260904 
2996.129 54835572 55485880 56218928 57038320 57943524 58929680 59984712 
2999.505 61089880 62218204 63337408 64410612 65401456 66274384 67001432 
3002.880 67560184 67935256 68117696 68105024 67900856 67518256 66976636 
3006.255 66306784 65545724 64734736 63913108 63115804 62367248 61683788 
3009.630 61073836 60541260 60090840 59727400 59460112 59298272 59251256 
3013.006 59325816 59525264 59852928 60311624 60908828 61658016 62579536 
3016.381 63697516 65039264 66628584 68484392 70616816 73025944 75702728 
3019.756 78629024 81778608 85116344 88598176 92170232 95769664 99326056 
3023.131 102765456 106014712 109007472 111686000 114003016 115921192 
3026.024 117410472 118446304 119008544 119084256 118670024 117776136 
3028.917 116426488 114660248 112526400 110079456 107376320 104472424 
3031.811 101421760 98278384 95094504 91921536 88803008 85773960 82852880 
3035.186 80046384 77347488 74747520 72238400 69821872 67509232 65319464 
3038.561 63271740 61381420 59652508 58079524 56648732 55342588 54144960 
3041.936 53042144 52025356 51090780 50236796 49466344 48785776 48205056 
3045.312 47735508 47386868 47162376 47056656 47053324 47130776 47267164 
3048.687 47446536 47667464 47940436 48287664 48734692 49304012 50007620 
3052.062 50845460 51805648 52868920 54012188 55213008 56451704 57710552 
3055.437 58976036 60234956 61474664 62682868 63845464 64946004 65966532 
3058.813 66887328 67690416 68360072 68885144 69260128 69482192 69550320 
3062.188 69460136 69206288 68783208 68188000 67427536 66517524 65483688 
3065.563 64356624 63165544 61934056 60678456 59409956 58139196 56882748 
3068.938 55661648 54502840 53430352 52460496 51596908 50830232 50143020 
3072.313 49516164 48936396 48399260 47909784 47478272 47118220 46841076 
3075.689 46658992 46582404 46624540 46796336 47105616 47550104 48114988 
3079.064 48770092 49477928 50196720 50890984 51535324 52116676 52627940 
3082.439 53062832 53409016 53644376 53741252 53671044 53411480 52951196 
3085.814 52294252 51454224 50453476 49317760 48071416 46739728 45346592 
3089.190 43917368 42478032 41054268 39668280 38339148 37079792 35897308 
3092.565 34796780 33778996 32845594 31996634 31232218 30554224 29963714 
3095.940 29463768 29056414 28744440 28524998 28392634 28334046 28332372 
3099.315 28368452 28425206 28491102 28563532 28644592 28740164 28853942 
3102.691 28984036 29120490 29245542 29337952 29376574 29342966 29227230 
3106.066 29026400 28745096 28393330 27986044 27539242 27068594 26587358 
3109.441 26107092 25633988 25173086 24725846 24292466 23873790 23469694 
3112.816 23079444 22702092 22334478 21972204 21612010 21250752 20889696 
3116.192 20533858 20190692 19869092 19577654 19322448 19105876 18928048 
3119.567 18786448 18677410 18596966 18539666 18500698 18474406 18455340 
3122.942 18440152 18425374 18411326 18399058 18390248 18386892 18389940 
3126.317 18397920 18408740 18417668 18420406 18408642 18376068 18314694 
3129.693 18220196 18093098 17939694 17775012 17618504 17489816 17404832 
3133.068 17369764 17378642 17415604 17459936 17491238 17497614 17475676 
3136.443 17433316 17382414 17336126 17303310 17285326 17279874 17282316 
3139.818 17289816 17304382 17331066 17374732 17437808 17515140 17596194 
3143.194 17665988 17708898 17715414 17682454 17615286 17523608 17418816 
3146.569 17310202 17204304 17104194 17012502 16932830 16872472 16839242 
3149.944 16839392 16874938 16940406 17021652 17100174 17154614 17170034 
3153.319 17138594 17065252 16966066 16866860 16796626 16783208 16844952 
3156.695 16988774 17205742 17472186 17753916 18012782 18212268 18327604 
3160.070 18348016 18278864 18139016 17955200 17755224 17563282 17394972 
3163.445 17259642 17160796 17100352 17079390 17097600 17152778 17237716 
3166.820 17339892 17442434 17527998 17583930 17605324 17596088 17567178 
3170.196 17532296 17503044 17484744 17476012 17471540 17463656 17445972 
3173.571 17415296 17371508 17315568 17247788 17168270 17077444 16977428 
3176.946 16873558 16773388 16686730 16619878 16576348 16553808 16546724 
3180.321 16549446 16557928 16572598 16597407 16637912 16699238 16782474 
3183.697 16885276 17002320 17126248 17249150 17363446 17460676 17532924 
3187.072 17571616 17572136 17534360 17465866 17381090 17299830 17239624 
3190.447 17213120 17221824 17257934 17307338 17354932 17392044 17418564 
3193.822 17440266 17467766 17507168 17558054 17610030 17647542 17654500 
3197.198 17620254 17544156 17436280 17313034 17193626 17094364 17025884 
3200.573 16992062 16993544 17028102 17092960 17186088 17303750 17440370 
3203.948 17584674 17723984 17844632 17934130 17987182 18003984 17992484 
3207.323 17963864 17930932 17903802 17888290 17883764 17885806 17889032 
3210.698 17888700 17883842 17878014 17877140 17887908 17914210 17956046 
3214.074 18008468 18063602 18113468 18152988 18180862 18200432 18216332 
3217.449 18231374 18244152 18250234 18242274 18215720 18171652 18118816 
3220.824 18071152 18043154 18044666 18074400 18120370 18161596 18174914 
3224.199 18144630 18066278 17950568 17819462 17700232 17617138 17584258 
3227.575 17604322 17667384 17756358 17853058 17942314 18015668 18071480 
3230.950 18114080 18150842 18190864 18239690 18301548 18376236 18459090 
3234.325 18543170 18619892 18682302 18726914 18753610 18767598 18775174 
3237.700 18781670 18789140 18793788 18789190 18769144 18729292 18673868 
3241.076 18612012 18556886 18521768 18513422 18529128 18558236 18582338 
3244.451 18583250 18544944 18460648 18331446 18167682 17984706 17800398 
3247.826 17632070 17496516 17405610 17368630 17389738 17468092 17596848 
3251.201 17764710 17955112 18149198 18327866 18472754 18568984 18608660 
3254.577 18590766 18524680 18428524 18328962 18254402 18231304 18274348 
3257.952 18383120 18542028 18721570 18887176 19008080 19063660 19049178 
3261.327 18973474 18856572 18722012 18592570 18485670 18413798 18382878 
3264.702 18395350 18448150 18533962 18642504 18759416 18872534 18974830 
3268.078 19066624 19156700 19257562 19381196 19530902 19699234 19868080 
3271.453 20013354 20112398 20152970 20134380 20070252 19981348 19891440 
3274.828 19819880 19779554 19775424 19806730 19868430 19953830 20054120 
3278.203 20160952 20265834 20363368 20452894 20539690 20633468 20745364 
3281.579 20881240 21040348 21213202 21385684 21543662 21679712 21796594 
3284.954 21905004 22018762 22148920 22296714 22454856 22610290 22751174 
3288.329 22874406 22987708 23108590 23258538 23453198 23697940 23986146 
3291.704 24302338 24627562 24946850 25252868 25547144 25835124 26125020 
3295.080 26421394 26725818 27035840 27347692 27656130 27955700 28237924 
3298.455 28492746 28706424 28864092 28952422 28962012 28889688 28739456 
3301.830 28519894 28243164 27922450 27570582 27199068 26816832 26430574 
3305.205 26044088 25658816 25274872 24892044 24514324 24147636 23800764 
3308.581 23482624 23197220 22942652 22708442 22479216 22240266 21984022 
3311.956 21713264 21441812 21191608 20983588 20830350 20731996 20674514 
3315.331 20636070 20592598 20527496 20434844 20321214 20202656 20095666 
3318.706 20014298 19961674 19932122 19911484 19883476 19834934 19761054 
3322.082 19666846 19567376 19482608 19432758 19430778 19478808 19566386 
3325.457 19674206 19776480 19851190 19883348 19869018 19814328 19731900 
3328.832 19634250 19530314 19422224 19309070 19186390 19055746 18923620 
3332.207 18802092 18705932 18646886 18630342 18653064 18703886 18768604 
3335.583 18834124 18892278 18940588 18981076 19017430 19051666 19082884 
3338.958 19107384 19121692 19125464 19121606 19118986 19125780 19150640 
3342.333 19194698 19252796 19311360 19354564 19365774 19335328 19260390 
3345.708 19147810 19010944 18866862 18731628 18617260 18529830 18470812 
3349.083 18437510 18424432 18425622 18435130 18448128 18459778 18467608 
3352.459 18471164 18471234 18471640 18475198 18484604 18498970 18515140 
3355.834 18527936 18533976 18533934 18531640 18534864 18549698 18578618 
3359.209 18617584 18656448 18683594 18691914 18681400 18661630 18647608 
3362.584 18652652 18682526 18729114 18775260 18796472 18774998 18702806 
3365.960 18590276 18458066 18332724 18236612 18179680 18158780 18160814 
3369.335 18168614 18169518 18158548 18137970 18115344 18097124 18088174 
3372.710 18091100 18107490 18141426 18198124 18282800 18394904 18526646 
3376.085 18660018 18772366 18843614 18860358 18824506 18749870 18658546 
3379.461 18571174 18501130 18449896 18408744 18363948 18305642 18231892 
3382.836 18151540 18080930 18038106 18038066 18085138 18175376 18296084 
3386.211 18431486 18564214 18679942 18766378 18814986 18820276 18778716 
3389.586 18691760 18565652 18411428 18245116 18083440 17942668 17833264 
3392.962 17760250 17721012 17709990 17718992 17743592 17781524 17835634 
3396.337 17909010 18004058 18116226 18234932 18343990 18424352 18459582 
3399.712 18441100 18369914 18256274 18116262 17967552 17824518 17697888 
3403.087 17592566 17511754 17458086 17434650 17443628 17485028 17553162 
3406.463 17637082 17721142 17791062 17836090 17854042 17850856 17838858 
3409.838 17832232 17842532 17877536 17939094 18025610 18133442 18256882 
3413.213 18389524 18520156 18635822 18720712 18760830 18747204 18680050 
3416.588 18569318 18433000 18291734 18164650 18063798 17995828 17959376 
3419.964 17949410 17959740 17985328 18019762 18059138 18098644 18136204 
3423.339 18172398 18211132 18260096 18325962 18411496 18513490 18620352 
3426.714 18716092 18784616 18816240 18810258 18776324 18729258 18684256 
3430.089 18650404 18628854 18612252 18591266 18555078 18501842 18435114 
3433.465 18366300 18308754 18276764 18280370 18324300 18407892 18525974 
3436.840 18667160 18818892 18965258 19091142 19184406 19237304 19248662 
3440.215 19223534 19170340 19099004 19019564 18939418 18864446 18798816 
3443.590 18746800 18711872 18695540 18697810 18715108 18741774 18771220 
3446.966 18798020 18818574 18831618 18836450 18832604 18817880 18790414 
3450.341 18751252 18703978 18658308 18625366 18614534 18628138 18658890 
3453.716 18690924 18704076 18680960 18614022 18509746 18385740 18266578 
3457.091 18174870 18125112 18119638 18150694 18203684 18265624 18327466 
3460.467 18386890 18446794 18511710 18583384 18659604 18733298 18795394 
3463.842 18836244 18849674 18833350 18790398 18726742 18651674 18574960 
3467.217 18506602 18452766 18418924 18404266 18407290 18423346 18447438 
3470.592 18475496 18504488 18530348 18548294 18550984 18528632 18474232 
3473.968 18384986 18265892 18133604 18010850 17923608 17893344 17929630 
3477.343 18029120 18174826 18341928 18506644 18649716 18762256 18844130 
3480.718 18902204 18943130 18971336 18988800 18995520 18991136 18979856 
3484.093 18968574 18967108 18981892 19013638 19056384 19097974 19124598 
3487.469 19125956 19098874 19048146 18983824 18917730 18855364 18796970 
3490.844 18735398 18661162 18567468 18457240 18341248 18238822 18171402 
3494.219 18156100 18198680 18294014 18425134 18570490 18708158 18820652 
3497.594 18896812 18932862 18929016 18888428 18817778 18727156 18630758 
3500.969 18546552 18493796 18488708 18537770 18636424 18768362 18909638 
3504.345 19034622 19124136 19169812 19177034 19158852 19133484 19117522 
3507.720 19121094 19147966 19196982 19264610 19349220 19448700 19561994 
3511.095 19683930 19803550 19903288 19960378 19954980 19874570 19720080 
3514.470 19510010 19275264 19056292 18890838 18806970 18814030 18903208 
3517.846 19049770 19221054 19386030 19521542 19616822 19672436 19693916 
3521.221 19687160 19652744 19587352 19485534 19345390 19172480 18981806 
3524.596 18793708 18628630 18501240 18415920 18368536 18350116 18353214 
3527.971 18376070 18421768 18497888 18605280 18737576 18875356 18992464 
3531.347 19061038 19062100 18990294 18858978 18692448 18524822 18388332 
3534.722 18308948 18303146 18376064 18522518 18729278 18975400 19234674 
3538.097 19477802 19677568 19810658 19864914 19837440 19736766 19577376 
3541.472 19379694 19163686 18951330 18764968 18626826 18555202 18562126 
3544.848 18645722 18788320 18957256 19112930 19219284 19254976 19219744 
3548.223 19134394 19029858 18938520 18878582 18852688 18846678 18840778 
3551.598 18818082 18774656 18720016 18672038 18647044 18653980 18688816 
3554.973 18736298 18778904 18803272 18804984 18789764 18767970 18749278 
3558.349 18736304 18723446 18698652 18648420 18560452 18429366 18254792 
3561.724 18042946 17802654 17547770 17293936 17058934 16860434 16711805 
3565.099 16617952 16574111 16563810 16566172 16559094 16530151 16476111 
3568.474 16407838 16343972 16305545 16309539 16368169 16483489 16654348 
3571.850 16872402 17127162 17402268 17678090 17928758 18127178 18248138 
3575.225 18276010 18207032 18051968 17833588 17582096 17327582 17096052 
3578.600 16903690 16759604 16662961 16607899 16582318 16573880 16568797 
3581.975 16556032 16529111 16488384 16440567 16397541 16369503 16364863 
3585.351 16382311 16415130 16451681 16481753 16501866 16516458 16536340 
3588.726 16574977 16640782 16732937 16837506 16934408 16998028 17009330 
3592.101 16959278 16853142 16709201 16554525 16417995 16325725 16293252 
3595.476 16326252 16418619 16555812 16717022 16881666 17029014 17145198 
3598.852 17219224 17246610 17226132 17158848 17048858 16903746 16734485 
3602.227 16558565 16396606 16272137 16205069 16208924 16285788 16425442 
3605.602 16606554 16803918 16991332 17150060 17270054 17353466 17407526 
3608.977 17445638 17478806 17519118 17572142 17642240 17729544 17833698 
3612.353 17949508 18069596 18182212 18272700 18325900 18328828 18274440 
3615.728 18163924 18008788 17828176 17647294 17493532 17391618 17358298 
3619.103 17399284 17509164 17668804 17851920 18027462 18169078 18257328 
3622.478 18287440 18265830 18210938 18144494 18085684 18045814 18026586 
3625.854 18018900 18010602 17991846 17962392 17933536 17928624 17973810 
3629.229 18093082 18295484 18572080 18893228 19215258 19488098 19668696 
3632.604 19729558 19666850 19500400 19270054 19025182 18813308 18668442 
3635.979 18605338 18616338 18678674 18761636 18838524 18893726 18928682 
3639.354 18957308 19000704 19076098 19192294 19339916 19498704 19639220 
3642.730 19735670 19771158 19745660 19673704 19582776 19504302 19466040 
3646.105 19485002 19566352 19700210 19865440 20034526 20178452 20272220 
3649.480 20301356 20264960 20176748 20063152 19956396 19886870 19876138 
3652.855 19929376 20036686 20173086 20309412 20416468 20473262 20467866 
3656.231 20397676 20263298 20069744 19822050 19531752 19217628 18911582 
3659.606 18652130 18481718 18430780 18510148 18704062 18971226 19255452 
3662.981 19500980 19663536 19723028 19679898 19551810 19361624 19130476 
3666.356 18871274 18592748 18303134 18017310 17756654 17548328 17415434 
3669.732 17371996 17415586 17526566 17678290 17842372 17997282 18133172 
3673.107 18247196 18342050 18414402 18458074 18459390 18406006 18292366 
3676.482 18124990 17922720 17711186 17516500 17357514 17239904 17158864 
3679.857 17101224 17053180 17006726 16962850 16931416 16926728 16962364 
3683.233 17045244 17171702 17327194 17488170 17628468 17721522 17746812 
3686.608 17693432 17561364 17359864 17107572 16828954 16550060 16294727 
3689.983 16083334 15926741 15832366 15798490 15818834 15883666 15981261 
3693.358 16098293 16221792 16338032 16436260 16504332 16535310 16524229 
3696.734 16473174 16388450 16282788 16171288 16071158 15995141 15950928 
3700.109 15937775 15948767 15970662 15991941 16001707 15996726 15979478 
3703.484 15957519 15939394 15933039 15942676 15969051 16009325 16062260 
3706.859 16125875 16200678 16286546 16384235 16488902 16593106 16686417 
3710.235 16756898 16794360 16792814 16751379 16676011 16577259 16471408 
3713.610 16375847 16310476 16292701 16335100 16441185 16602779 16797774 
3716.985 16992844 17148524 17228810 17207510 17080356 16864520 16597847 
3720.360 16330779 16114861 15990680 15980799 16084878 16282305 16539501 
3723.736 16818992 17087882 17323954 17516202 17665966 17779210 17864774 
3727.111 17928644 17973918 17998228 17998430 17969402 17909006 17818232 
3730.486 17701826 17567774 17427578 17293482 17176858 17085334 17024038 
3733.861 16991360 16982928 16990996 17008074 17027654 17050364 17079218 
3737.237 17122088 17186246 17277212 17393246 17525596 17658490 17773764 
3740.612 17854370 17891008 17882158 17838584 17776822 17717178 17675952 
3743.987 17663056 17678372 17713890 17755062 17788464 17803676 17796682 
3747.362 17768974 17726696 17678256 17631434 17591888 17565016 17555342 
3750.738 17568278 17607720 17677964 17779144 17908006 18052756 18198436 
3754.113 18324794 18414204 18452428 18433278 18361516 18251980 18126312 
3757.488 18011824 17934198 17913838 17960710 18072830 18236130 18426954 
3760.863 18615204 18771126 18869476 18896736 18849972 18739506 18585632 
3764.239 18414072 18250434 18115784 18021094 17969280 17953662 17963660 
3767.614 17986782 18014076 18038976 18059214 18075290 18085938 18090650 
3770.989 18087908 18076198 18058292 18037476 18021076 18014150 18019234 
3774.364 18032282 18043946 18041318 18014782 17960920 17887312 17809256 
3777.740 17749660 17727376 17753178 17825944 17932408 18050810 18159748 
3781.115 18242754 18293856 18314052 18311196 18290968 18255652 18200300 
3784.490 18115900 17994088 17832310 17635260 17419166 17206216 17023922 
3787.865 16896502 16843998 16876198 16994660 17187134 17434500 17708624 
3791.240 17978930 18217208 18400692 18518162 18571988 18574222 18545944 
3794.616 18507872 18478180 18464120 18465832 18473520 18475484 18460652 
3797.991 18424822 18369130 18304644 18246254 18212290 18217146 18270900 
3801.366 18373060 18513846 18674558 18833156 18967212 19062168 19109466 
3804.741 19111888 19076942 19015330 18933422 18836314 18723754 18596880 
3808.117 18460292 18327378 18216514 18148250 18139444 18197136 18313826 
3811.492 18470012 18638770 18791740 18907068 18971186 18980486 18939042 
3814.867 18854248 18737728 18600606 18458216 18326032 18221700 18158396 
3818.242 18145344 18180892 18256112 18354382 18457544 18549864 18621468 
3821.618 18670938 18702236 18721884 18736418 18749286 18761004 18770418 
3824.993 18775602 18774766 18768414 18755906 18738652 18718056 18697200 
3828.368 18678902 18666886 18663978 18670432 18684978 18705426 18729732 
3831.743 18757896 18793770 18840058 18899330 18967738 19034754 19084310 
3835.119 19097892 19061860 18971054 18832148 18659668 18476232 18302028 
3838.494 18153380 18039556 17963768 17926928 17925836 17958186 18020394 
3841.869 18103718 18198262 18292454 18378558 18452716 18519808 18586534 
3845.244 18661524 18745166 18832186 18907630 18956538 18966910 18937048 
3848.620 18875972 18800308 18726950 18667382 18623532 18589224 18554650 
3851.995 18513740 18466892 18423770 18396900 18397140 18427586 18482062 
3855.370 18545982 18602942 18639374 18650232 18635376 18602294 18559250 
3858.745 18514774 18473132 18438720 18411154 18390046 18372426 18353506 
3862.121 18326434 18285510 18227882 18157308 18083736 18024646 17996220 
3865.496 18012962 18078134 18183980 18311620 18437230 18535536 18589166 
3868.871 18589148 18538710 18451316 18348732 18255338 18193432 18179748 
3872.246 18220920 18312170 18438474 18578966 18712364 18821660 18901382 
3875.622 18956456 18999466 19044826 19102540 19171832 19244394 19305666 
3878.997 19341086 19343100 19314168 19261948 19200616 19141870 19094164 
3882.372 19060632 19041270 19034788 19041966 19061900 19093298 19129126 
3885.747 19158452 19166298 19139762 19069716 18958102 18813770 18653910 
3889.123 18496244 18360046 18259526 18206280 18206712 18264228 18375728 
3892.498 18530940 18712808 18897870 19062384 19186628 19261440 19291758 
3895.873 19291798 19280738 19274244 19279894 19293118 19301516 19291360 
3899.248 19256636 19198644 19130704 19068896 19027858 19013212 19020400 
3902.624 19037004 19048772 19044324 19019990 18977468 18924602 18866882 
3905.999 18808362 18748780 18686704 18623172 18563684 18519240 18503456 
3909.374 18530746 18609254 18739784 18914382 19114986 19319202 19500416 
3912.749 19635528 19704710 19698086 19615764 19470320 19284442 19089226 
3916.125 18916942 18794622 18739594 18752660 18819808 18916380 19011798 
3919.500 19081108 19109592 19098808 19063190 19029536 19025174 19071406 
3922.875 19176928 19334414 19522456 19713988 19880984 20004086 20074846 
3926.250 20096528 20079120 20034978 19973054 19898476 19811634 19714504 
3929.625 19609322 19504254 19408384 19329750 19272840 19234886 19209574 
3933.001 19188212 19166706 19147706 19139244 19152528 19195226 19267736 
3936.376 19362162 19463080 19552020 19615912 19647616 19649098 19628928 
3939.751 19597792 19566256 19542898 19532082 19538698 19563676 19605712 
3943.126 19659776 19715178 19758966 19776850 19760624 19710940 19639816 
3946.502 19566436 19511420 19489596 19506662 19554426 19619278 19685602 
3949.877 19743606 19793412 19842306 19903666 19985436 20089754 20208148 
3953.252 20324326 20418932 20473524 20474958 20416986 20300514 20132968 
3956.627 19926534 19700050 19474338 19273532 19117660 19022636 18993912 
3960.003 19026476 19107336 19219674 19344918 19469404 19582912 19679716 
3963.378 19756230 19810840 19843010 19856588 19857274 19854504 19854926 
3966.753 19860928 19866802 19860438 19828672 19763648 19668546 19559462 
3970.128 19462326 19402558 19395870 19442802 19526752 19625498 19716152 
3973.504 19790456 19854120 19926464 20027602 20168616 20342598 20528500 
3976.879 20693802 20811138 20864348 20856476 20802430 20723022 20632126 
3980.254 20533600 20419180 20276842 20100584 19898008 19691670 19513602 
3983.629 19396100 19362676 19417886 19549620 19731352 19932510 20125192 
3987.005 20289472 20415840 20505478 20564120 20600710 20623264 20640070 
3990.380 20652064 20659510 20657722 20641484 20605424 20550082 20480272 
3993.755 20407898 20346362 20308242 20300650 20322254 20364224 20413976 
3997.130 20457710 20487516 20499638 20495408 20479242 20453958 20421560 
4000.506 20381642 
##END=
