##TITLE=Bambu-Lab_PLA-CF_Blue_Filament_r6_ATR-Corrected
##JCAMP-DX=5.01  $$ Nicolet v. 1
##DATATYPE=INFRARED SPECTRUM
##ORIGIN=Curtin University
##OWNER=Nicolet
##LONGDATE=2024/07/10
##TIME=14:46:45
##SPECTROMETER/DATA SYSTEM=Nicolet iS50
##DATA PROCESSING=
Ratio against background
%Transmittance->Absorbance
ATR Correction
Truncated
ElementMultiply or ElementDivide
##COMMENTS=
Number of sample scans: 32
Collection length: 47.28 sec
Sample gain: 1.0
Background collected on: Wed Jul 10 14:44:56 2024 (GMT+08:00);
Number of background scans: 32
Background gain: 1.0
Sample spacing:  1.000
Number of scan points: 16672
Resolution points: 8192
Number of FFT points: 65536
Apodization: N-B strong;
Phase correction: Mertz;
Laser frequency: 15798.3 cm-1
Number of rejected sample scans: 0
Number of rejected background scans: 0
Bench serial number: AUP1200105;
##RESOLUTION=4.000
##XUNITS=1/CM
##YUNITS=ABSORBANCE
##FIRSTX=400.163452
##LASTX=4000.187744
##FIRSTY=0.090654
##MAXX=4000.187744
##MINX=400.163452
##MAXY=1.139069
##MINY=-0.002836
##XFACTOR=1.000000
##YFACTOR=1.000000E-008
##NPOINTS=7468
##DELTAX=0.482125
##ZPD=8192
##XYDATA=(X++(Y..Y))
400.163 9065359 8966872 8897830 8851623 8817353 8786261 8752960 8715189 
404.020 8671893 8621477 8561268 8488728 8403166 8307471 8207847 8112294 
407.877 8027453 7956416 7897642 7846052 7795150 7739533 7676336 7605428 
411.734 7528233 7446382 7360795 7271898 7180635 7089618 7003639 6929114 
415.591 6872549 6838780 6829419 6842399 6872258 6911474 6951884 6986266 
419.448 7009477 7019248 7016337 7004282 6988433 6974707 6967654 6968953 
423.305 6976303 6983686 6983070 6967171 6932123 6879343 6815158 6748847 
427.162 6689331 6642330 6608756 6585052 6565267 6543722 6517213 6485984 
431.019 6452962 6422269 6397276 6379474 6368697 6363548 6362249 6363258 
434.876 6364986 6365477 6361957 6351184 6330215 6297735 6255013 6206006 
438.733 6156440 6112191 6077445 6053573 6039087 6030596 6024422 6018112 
442.590 6011103 6004582 6000469 6000235 6003901 6009755 6014732 6015276 
446.447 6008243 5991810 5965824 5931959 5893352 5854167 5818773 5791021 
450.304 5773469 5766996 5770724 5782494 5799389 5818737 5838507 5857558 
454.161 5875227 5890850 5903240 5910635 5911112 5903318 5887246 5864531 
458.017 5838185 5811850 5788697 5770687 5758193 5750317 5745429 5741969 
461.874 5738805 5735423 5731626 5727235 5722368 5716923 5710900 5704548 
465.731 5698339 5692799 5688260 5684787 5682119 5679987 5678288 5677220 
469.588 5677037 5677712 5678524 5677954 5673965 5664738 5649420 5628771 
473.445 5605159 5581968 5562533 5549055 5541867 5539393 5538653 5536300 
477.302 5529524 5516787 5498003 5474421 5448140 5421680 5397634 5378341 
481.159 5365611 5360468 5362924 5371836 5385016 5399755 5413298 5423563 
485.016 5429447 5430856 5428355 5422733 5414603 5404411 5392626 5380175 
488.873 5368682 5360437 5357865 5362789 5375708 5395461 5419420 5444225 
492.730 5466741 5484976 5498458 5508006 5515475 5522546 5530036 5537621 
496.587 5543902 5546937 5544908 5536753 5522434 5503073 5480652 5457747 
500.444 5437096 5421355 5412795 5413041 5422897 5442136 5469375 5502178 
504.301 5537279 5571099 5600291 5622381 5636203 5642088 5641626 5637204 
508.158 5631285 5625815 5621768 5619098 5617006 5614556 5611216 5607317 
512.015 5604081 5603273 5606550 5614807 5627599 5643176 5658775 5671390 
515.871 5678583 5679158 5673438 5663051 5650380 5637831 5627194 5619344 
519.728 5614205 5611061 5608940 5606965 5604556 5601460 5597656 5593285 
523.585 5588556 5583751 5579152 5574812 5570786 5566621 5561400 5553975 
527.442 5543348 5529204 5512380 5494994 5480079 5470888 5469800 5477454 
531.299 5492285 5510718 5528028 5539607 5542217 5534829 5518803 5497316 
535.156 5474338 5453525 5437392 5426991 5422160 5422056 5425735 5432539 
539.013 5442128 5454259 5468404 5483495 5497900 5509682 5517006 5518643 
542.870 5514261 5504563 5491113 5476013 5461455 5449410 5441248 5437689 
546.727 5438728 5443835 5452118 5462556 5474224 5486408 5498628 5510583 
550.584 5521944 5532250 5540782 5546548 5548529 5545864 5538197 5525944 
554.441 5510361 5493479 5477768 5465606 5458962 5458767 5464731 5475373 
558.298 5488387 5501252 5511855 5519060 5522949 5524712 5526127 5528934 
562.155 5534171 5541813 5550816 5559438 5565886 5568875 5568035 5563959 
566.012 5557958 5551581 5546161 5542570 5541099 5541640 5543998 5548130 
569.869 5554257 5562872 5574475 5589349 5607234 5627240 5647877 5667311 
573.725 5683760 5695902 5703312 5706562 5707149 5707082 5708345 5712335 
577.582 5719461 5729171 5740163 5750976 5760438 5768108 5774308 5779866 
581.439 5785766 5792695 5800905 5810180 5820154 5830553 5841427 5853075 
585.296 5865910 5880119 5895415 5911019 5925767 5938419 5947999 5954019 
589.153 5956674 5956753 5955565 5954738 5956003 5960926 5970654 5985694 
593.010 6005699 6029484 6055183 6080561 6103441 6122078 6135446 6143367 
596.867 6146440 6145939 6143571 6141308 6141043 6144343 6152118 6164354 
600.724 6180098 6197658 6215136 6231030 6244743 6256747 6268310 6280846 
604.581 6295200 6311195 6327679 6343074 6356261 6367332 6377803 6390249 
608.438 6407261 6430418 6459502 6492439 6526018 6557062 6583589 6605482 
612.295 6624406 6643058 6664096 6689207 6718671 6751527 6786143 6820935 
616.152 6854832 6887433 6918835 6949305 6979117 7008442 7037446 7066363 
620.009 7095439 7124807 7154302 7183417 7211435 7237900 7262964 7287626 
623.866 7313595 7342729 7376370 7414687 7456503 7499514 7540945 7578358 
627.723 7610284 7636456 7657667 7675320 7690955 7705890 7721119 7737295 
631.579 7754763 7773631 7793617 7814046 7833908 7852110 7867872 7881097 
635.436 7892503 7903529 7915859 7930920 7949412 7971194 7995414 8020975 
639.293 8046969 8072938 8098943 8125270 8152130 8179353 8206378 8232380 
643.150 8256585 8278534 8298248 8316172 8333014 8349462 8366022 8382854 
647.007 8399807 8416503 8432489 8447414 8461146 8473952 8486512 8499862 
650.864 8515235 8533692 8555806 8581349 8609205 8637504 8664068 8686931 
654.721 8704872 8717769 8726608 8733238 8739918 8748703 8761041 8777434 
658.578 8797424 8819738 8842656 8864392 8883475 8899038 8910947 8919770 
662.435 8926540 8932546 8939042 8947051 8957284 8970174 8985908 9004454 
666.292 9025516 9048460 9072222 9095285 9115955 9132633 9144256 9150636 
670.149 9152567 9151679 9149991 9149432 9151366 9156352 9164113 9173816 
674.006 9184390 9194860 9204568 9213210 9220788 9227509 9233696 9239748 
677.863 9246122 9253338 9261972 9272592 9285604 9301209 9319318 9339503 
681.720 9360978 9382714 9403561 9422448 9438599 9451727 9462120 9470539 
685.577 9477987 9485334 9492979 9500641 9507400 9512021 9513415 9511080 
689.433 9505429 9497721 9489798 9483634 9480833 9482387 9488599 9499237 
693.290 9513713 9531333 9551346 9572878 9594882 9616098 9635179 9650902 
697.147 9662457 9669639 9672874 9673101 9671447 9669025 9666648 9664802 
701.004 9663668 9663192 9663118 9662937 9661850 9658740 9652311 9641334 
704.861 9625081 9603646 9578211 9550876 9524311 9501103 9483070 9470744 
708.718 9463149 9458028 9452377 9443194 9428223 9406516 9378611 9346408 
712.575 9312706 9280498 9252288 9229556 9212329 9199173 9187379 9173372 
716.432 9153310 9123585 9081391 9025005 8954012 8869223 8772553 8666676 
720.289 8554725 8439903 8325211 8213135 8105551 8003677 7908138 7819189 
724.146 7736940 7661640 7593786 7534190 7483805 7443450 7413570 7393983 
728.003 7383910 7382163 7387510 7399057 7416600 7440709 7472633 7513939 
731.860 7566125 7630162 7706279 7793832 7891404 7997001 8108279 8222787 
735.717 8338210 8452540 8564294 8672519 8776894 8877584 8975004 9069597 
739.574 9161567 9250757 9336775 9419112 9497558 9572260 9643836 9713149 
743.431 9781077 9848239 9914882 9980982 10046473 10111502 10176536 10242302 
747.287 10309535 10378617 10449452 10521354 10593350 10664456 10733940 
750.662 10801452 10866814 10929742 10989570 11045047 11094523 11136147 
754.037 11168225 11189456 11198978 11196198 11180629 11151711 11108870 
757.412 11051706 10980255 10895155 10797680 10689553 10572636 10448664 
760.787 10319004 10184691 10046484 9905007 9760939 9614991 9468002 9320806 
764.644 9174268 9029239 8886547 8746985 8611293 8480086 8353859 8232970 
768.501 8117637 8007901 7903556 7804055 7708393 7615162 7522709 7429507 
772.358 7334666 7238248 7141404 7046132 6954784 6869349 6790884 6719288 
776.214 6653389 6591394 6531479 6472178 6412586 6352243 6290837 6227983 
780.071 6163194 6095988 6026209 5954218 5880932 5807564 5735304 5664954 
783.928 5596800 5530705 5466379 5403676 5342720 5283837 5227295 5173069 
787.785 5120745 5069650 5019212 4969284 4920361 4873409 4829562 4789582 
791.642 4753572 4720898 4690457 4661199 4632570 4604750 4578636 4555372 
795.499 4535949 4520817 4509762 4502067 4496813 4493240 4490890 4489580 
799.356 4489263 4489793 4490777 4491606 4491610 4490196 4487006 4481913 
803.213 4475085 4466726 4457023 4446095 4434034 4421012 4407359 4393616 
807.070 4380554 4369096 4360192 4354665 4353029 4355341 4361125 4369344 
810.927 4378518 4387013 4393312 4396360 4395837 4392181 4386580 4380605 
814.784 4375867 4373641 4374592 4378627 4385005 4392600 4400248 4407124 
818.641 4412979 4418156 4423498 4429935 4438116 4448138 4459438 4470911 
822.498 4481324 4489645 4495428 4498856 4500624 4501629 4502679 4504276 
826.355 4506594 4509584 4513164 4517266 4521835 4526744 4531766 4536593 
830.212 4541139 4545646 4550953 4558222 4568661 4582923 4600793 4621019 
834.068 4641895 4661792 4680003 4697192 4715297 4736951 4764536 4799406 
837.925 4841526 4889653 4942085 4997382 5055008 5115313 5179179 5247308 
841.782 5319718 5395518 5473199 5551069 5627805 5702552 5774829 5844024 
845.639 5909153 5968687 6020946 6064673 6099589 6126712 6148248 6167048 
849.496 6186085 6207914 6234648 6268047 6309943 6362468 6428065 6509205 
853.353 6607987 6725637 6862394 7017452 7189263 7375829 7574946 7784362 
857.210 8001829 8225071 8451817 8679779 8906585 9129730 9346478 9553812 
861.067 9748706 9928355 10090771 10235086 10361682 10471898 10567437 
864.442 10649620 10718936 10774913 10816643 10843313 10854954 10852649 
867.817 10838332 10814057 10781274 10740212 10689799 10628009 10552632 
871.191 10461926 10355173 10232746 10095955 9946705 9787185 9619614 9446170 
875.048 9268828 9089258 8908588 8727340 8545490 8362725 8178954 7994659 
878.905 7811177 7630591 7455285 7287485 7128829 6980295 6842372 6715501 
882.762 6600424 6498349 6410689 6338712 6282967 6243120 6217862 6205239 
886.619 6203021 6209058 6221397 6238290 6258016 6278918 6299402 6318215 
890.476 6334594 6348400 6359963 6369846 6378477 6385974 6392065 6396189 
894.333 6397773 6396331 6391595 6383495 6372053 6357521 6340402 6321633 
898.190 6302638 6285251 6271339 6262415 6259216 6261560 6268388 6278141 
902.047 6289149 6300016 6309712 6317588 6323169 6326151 6326392 6324086 
905.904 6319887 6314954 6310648 6308209 6308282 6310698 6314513 6318370 
909.761 6321027 6321797 6320730 6318509 6316000 6313899 6312272 6310671 
913.618 6308275 6304319 6298364 6290539 6281388 6271692 6262174 6253338 
917.475 6245405 6238443 6232423 6227348 6223218 6219944 6217245 6214585 
921.332 6211167 6206051 6198255 6187039 6171959 6153128 6131179 6107329 
925.189 6083161 6060412 6040529 6024422 6012146 6002934 5995429 5988138 
929.045 5979932 5970446 5960134 5950115 5941687 5935881 5933003 5932611 
932.902 5933631 5934807 5935082 5933956 5931583 5928636 5926009 5924583 
936.759 5924891 5927188 5931406 5937365 5944968 5954258 5965508 5979120 
940.616 5995509 6014969 6037527 6062931 6090644 6120013 6150355 6181142 
944.473 6212080 6243104 6274333 6306029 6338466 6371972 6406902 6443714 
948.330 6482927 6525123 6570684 6619768 6672065 6726838 6782968 6839138 
952.187 6894013 6946382 6995124 7039219 7077494 7108646 7131178 7143555 
956.044 7144345 7132429 7107081 7067982 7015183 6949132 6870650 6781137 
959.901 6682708 6578284 6471545 6366656 6267735 6178299 6100639 6035585 
963.758 5982339 5938869 5902340 5869921 5839331 5809392 5780142 5752766 
967.615 5729085 5711028 5700000 5696484 5699832 5708470 5720320 5733281 
971.472 5745825 5757156 5767315 5776859 5786538 5796916 5808143 5820008 
975.329 5832096 5844060 5855849 5867805 5880650 5895285 5912588 5933249 
979.186 5957542 5985376 6016233 6049203 6083164 6116872 6149228 6179449 
983.043 6207309 6233206 6258043 6283076 6309528 6338308 6369780 6403795 
986.899 6439791 6477123 6515313 6554135 6593729 6634435 6676520 6720098 
990.756 6764970 6810760 6856996 6903354 6949749 6996427 7043889 7092787 
994.613 7143795 7197520 7254427 7314809 7378772 7446243 7516864 7590110 
998.470 7665265 7741623 7818630 7896130 7974455 8054472 8137420 8224728 
1002.327 8317668 8417164 8523656 8637153 8757429 8884264 9017597 9157678 
1006.184 9304922 9459877 9622876 9794094 9973433 10160722 10355921 10559278 
1010.041 10771451 10993449 11226453 11471638 11729939 12001925 12287831 
1013.416 12587585 12900881 13227278 13566245 13917214 14279570 14652717 
1016.791 15036091 15429160 15831286 16241613 16658890 17081342 17506730 
1020.166 17932614 18356616 18776818 19191920 19601416 20005378 20404238 
1023.540 20798488 21188616 21575026 21958358 22339668 22720770 23104214 
1026.916 23493254 23891542 24302730 24730138 25176614 25644386 26135326 
1030.291 26650960 27192674 27761596 28358418 28982996 29634058 30308834 
1033.666 31003136 31711444 32427422 33144280 33855340 34554144 35234676 
1037.041 35891108 36517828 37109300 37660328 38166188 38622848 39027100 
1040.417 39376388 39668688 39902380 40076168 40189348 40242176 40236096 
1043.792 40173840 40059192 39896508 39690364 39445188 39165344 38855220 
1047.167 38519700 38164160 37794460 37416536 37035984 36657648 36285416 
1050.542 35922268 35570584 35232200 34908536 34600488 34308272 34031136 
1053.917 33767584 33515548 33272996 33038474 32811764 32594210 32388956 
1057.293 32200744 32035782 31901390 31805492 31756296 31761760 31829060 
1060.668 31964370 32172612 32457432 32821464 33266530 33793940 34404464 
1064.043 35098104 35873796 36728968 37659396 38659324 39722048 40840584 
1067.418 42008424 43219972 44470664 45756572 47074072 48419336 49788164 
1070.794 51176060 52578516 53991312 55410808 56833892 58258004 59680812 
1074.169 61100136 62513660 63918804 65312372 66690476 68048176 69379432 
1077.544 70676760 71931552 73133912 74272896 75336776 76313632 77192160 
1080.919 77962616 78617736 79153224 79567528 79861176 80035440 80091544 
1084.295 80030008 79851360 79556832 79149680 78635832 78024048 77325248 
1087.670 76551800 75716304 74831112 73907832 72957176 71988640 71010104 
1091.045 70027400 69044072 68061264 67078404 66093808 65105812 64113492 
1094.420 63117124 62118160 61119016 60122484 59131396 58148284 57175184 
1097.796 56213592 55264400 54327868 53403628 52490688 51587700 50693172 
1101.171 49805916 48925340 48051928 47187160 46333564 45494404 44673288 
1104.546 43873684 43098600 42350432 41630996 40941752 40284248 39660384 
1107.921 39072652 38523884 38017064 37554760 37138612 36768996 36444932 
1111.297 36164192 35923700 35719912 35549244 35408428 35294728 35206004 
1114.672 35140908 35098692 35079260 35082960 35110276 35161640 35237204 
1118.047 35336740 35459800 35605952 35775028 35967232 36183140 36423276 
1121.422 36687500 36974404 37280896 37601980 37931020 38260152 38581060 
1124.798 38885436 39165488 39414068 39624856 39792236 39911536 39979148 
1128.173 39992704 39951096 39854468 39703800 39500536 39246044 38941416 
1131.548 38587224 38183632 37730472 37227596 36675020 36073236 35423344 
1134.923 34727192 33987276 33206854 32389664 31539888 30662044 29760980 
1138.299 28841842 27910190 26971822 26032730 25098900 24176014 23269334 
1141.674 22383660 21523274 20692142 19893936 19132060 18409582 17729080 
1145.049 17092456 16500811 15954281 15452150 14992917 14574578 14194840 
1148.424 13851479 13542388 13265796 13020167 12804022 12615834 12453873 
1151.800 12316179 12200732 12105574 12029155 11970425 11928950 11904732 
1155.175 11897978 11908799 11936966 11981838 12042537 12118196 12208343 
1158.550 12313194 12433729 12571584 12728767 12907302 13109019 13335380 
1161.925 13587692 13867392 14176339 14517140 14893138 15308404 15767452 
1165.301 16275083 16836166 17455694 18138808 18890954 19717924 20625832 
1168.676 21621024 22709770 23898202 25191944 26595976 28114280 29749540 
1172.051 31502522 33371622 35352124 37435900 39610960 41861304 44166876 
1175.426 46503432 48842584 51151984 53395652 55535160 57531168 59345652 
1178.802 60944252 62298520 63387568 64199228 64730292 64986396 64981240 
1182.177 64735524 64275456 63630712 62832616 61912120 60898216 59816916 
1185.552 58690672 57538236 56374956 55213296 54063332 52933328 51830204 
1188.927 50759876 49727476 48737232 47792392 46895112 46046172 45245164 
1192.302 44490556 43780128 43111516 42482696 41892308 41339720 40824904 
1195.678 40348116 39909348 39508032 39142840 38811716 38512132 38241368 
1199.053 37996816 37776160 37577288 37398340 37237416 37092516 36961500 
1202.428 36842184 36732312 36629756 36532404 36438200 36344964 36250292 
1205.803 36151492 36045788 35930280 35802328 35659616 35500288 35322924 
1209.179 35126452 34909936 34672520 34413408 34131992 33828060 33502042 
1212.554 33154970 32788584 32404924 32006130 31594058 31170202 30735674 
1215.929 30291546 29839000 29379648 28915530 28449004 27982386 27517670 
1219.304 27056160 26598552 26144958 25695348 25249844 24809144 24374632 
1222.680 23948232 23532044 23127914 22736934 22359244 21994024 21639846 
1226.055 21295138 20958760 20630278 20310106 19999226 19698806 19409794 
1229.430 19132538 18866772 18611790 18366654 18130694 17903598 17685404 
1232.805 17476430 17276994 17087160 16906690 16734970 16571333 16415125 
1236.181 16265927 16123584 15988250 15860108 15739377 15625948 15519458 
1239.556 15419175 15324232 15233697 15146855 15063298 14983036 14906411 
1242.931 14834030 14766566 14704624 14648624 14598766 14555001 14517049 
1246.306 14484434 14456490 14432393 14411309 14392488 14375558 14360538 
1249.682 14348079 14339253 14335367 14337616 14346845 14363259 14386500 
1253.057 14415786 14450301 14489359 14532621 14580087 14631911 14688173 
1256.432 14748700 14812924 14880069 14949228 15019691 15090975 15162902 
1259.807 15235490 15308765 15382534 15456329 15529320 15600473 15668620 
1263.183 15732624 15791446 15844212 15890099 15928340 15958141 15978727 
1266.558 15989339 15989392 15978529 15956736 15924302 15881744 15829635 
1269.933 15768351 15697876 15617709 15526928 15424334 15308796 15179595 
1273.308 15036595 14880367 14712004 14532864 14344238 14147127 13942119 
1276.684 13729568 13509689 13282980 13050228 12812683 12571906 12329587 
1280.059 12087403 11846849 11609214 11375571 11146770 10923649 10706917 
1283.434 10497367 10295877 10103444 9921295 9750812 9593472 9450798 9324097 
1287.292 9214427 9122499 9048578 8992588 8954113 8932457 8926707 8935738 
1291.149 8958312 8993092 9038671 9093603 9156422 9225566 9299394 9376156 
1295.006 9454098 9531549 9607031 9679373 9747781 9811689 9870820 9924986 
1298.864 9974095 10018143 10057342 10092121 10123168 10151307 10177336 
1302.239 10201755 10224649 10245641 10264053 10279097 10290148 10296927 
1305.614 10299559 10298514 10294406 10287831 10279351 10269406 10258455 
1308.990 10246982 10235582 10224830 10215224 10207026 10200246 10194609 
1312.365 10189702 10185065 10180337 10175301 10169959 10164425 10158922 
1315.740 10153665 10148938 10144918 10141759 10139539 10138257 10137869 
1319.115 10138338 10139672 10142004 10145494 10150322 10156570 10164134 
1322.490 10172738 10181978 10191522 10201236 10211276 10222187 10234731 
1325.866 10249753 10268006 10290104 10316425 10347356 10383195 10424348 
1329.241 10471164 10523847 10582335 10646225 10714838 10787444 10863481 
1332.616 10942750 11025480 11112239 11203621 11300031 11401390 11507140 
1335.991 11616419 11728264 11841938 11957108 12073893 12192785 12314464 
1339.367 12439641 12568878 12702648 12841232 12984833 13133542 13287400 
1342.742 13446291 13610047 13778481 13951491 14129080 14311451 14498843 
1346.117 14691442 14889151 15091528 15297697 15506418 15716252 15925752 
1349.492 16133618 16338818 16540544 16738340 16931718 17120222 17303066 
1352.868 17479106 17646644 17803640 17947816 18077080 18189866 18285372 
1356.243 18363740 18425804 18472908 18506526 18528032 18538666 18539588 
1359.618 18532060 18517468 18497320 18473022 18445710 18416050 18384130 
1362.993 18349652 18312082 18270764 18224996 18173866 18116090 18049858 
1366.369 17972888 17882588 17776466 17652576 17509886 17348562 17170156 
1369.744 16977566 16775255 16569291 16367523 16179498 16016233 15889597 
1373.119 15811293 15791747 15838774 15956539 16144863 16399129 16710633 
1376.494 17067412 17455254 17858802 18262600 18651952 19013604 19336172 
1379.870 19610370 19828788 19985868 20077588 20101544 20056924 19944770 
1383.245 19767878 19530634 19238510 18897588 18514064 18094020 17643422 
1386.620 17168212 16674294 16167517 15653349 15136486 14620623 14108352 
1389.995 13601233 13100207 12605996 12119533 11642199 11176121 10723938 
1393.371 10288771 9873804 9481964 9115586 8776172 8464319 8179838 7921903 
1397.228 7689302 7480535 7293991 7127845 6980142 6848769 6731541 6626269 
1401.085 6531004 6444049 6364113 6290269 6221903 6158674 6100425 6047092 
1404.943 5998630 5954991 5916065 5881649 5851416 5824962 5801748 5781175 
1408.800 5762609 5745411 5729043 5713108 5697452 5682207 5667692 5654403 
1412.658 5642820 5633264 5625869 5620538 5617117 5615461 5615581 5617736 
1416.515 5622297 5629623 5639834 5652762 5667807 5684137 5700908 5717423 
1420.373 5733406 5749009 5764762 5781465 5799932 5820905 5844820 5871859 
1424.230 5901969 5934848 5970244 6007991 6048175 6091140 6137517 6187996 
1428.087 6243308 6303920 6370166 6442190 6520166 6604391 6695485 6794331 
1431.945 6902023 7019709 7148603 7289926 7445033 7615670 7803933 8012356 
1435.802 8243756 8500929 8786571 9103103 9452773 9837698 10259893 10721114 
1439.660 11222542 11764271 12344947 12961471 13609067 14281429 14971101 
1443.035 15669788 16368841 17059552 17733712 18383912 19003892 19588604 
1446.410 20134094 20637200 21095396 21506808 21870294 22185724 22453904 
1449.785 22676442 22855240 22992040 23088158 23144394 23161302 23139262 
1453.161 23078590 22979300 22840808 22661758 22440356 22174888 21864722 
1456.536 21510962 21116756 20686846 20226760 19741898 19236970 18715950 
1459.911 18182390 17639750 17091650 16541737 15993418 15449622 14912939 
1463.286 14385648 13870192 13369294 12885833 12422291 11980402 11560684 
1466.662 11162692 10785377 10427832 10089773 9771612 9474101 9197517 8940908 
1470.519 8701458 8474585 8254571 8035639 7813320 7585510 7353069 7119561 
1474.376 6890517 6672200 6470445 6289608 6132005 5997804 5885344 5791718 
1478.234 5713530 5647420 5590560 5540791 5496585 5456931 5421207 5389056 
1482.091 5360291 5334818 5312561 5293281 5276497 5261516 5247456 5233566 
1485.949 5219361 5204763 5190236 5176513 5164417 5154570 5147286 5142429 
1489.806 5139577 5138097 5137310 5136629 5135502 5133518 5130316 5125718 
1493.664 5119683 5112384 5104122 5095260 5086104 5076766 5067207 5057258 
1497.521 5046736 5035633 5024118 5012548 5001397 4991097 4982011 4974347 
1501.378 4968188 4963527 4960233 4958064 4956629 4955407 4953813 4951356 
1505.236 4947768 4943121 4937825 4932483 4927708 4923845 4921035 4919181 
1509.093 4918085 4917715 4918148 4919632 4922401 4926459 4931589 4937225 
1512.951 4942722 4947455 4950978 4953112 4953818 4953169 4951155 4947763 
1516.808 4942987 4936934 4929919 4922394 4914831 4907548 4900595 4893720 
1520.666 4886483 4878448 4869383 4859337 4848617 4837669 4826944 4816734 
1524.523 4807253 4798548 4790692 4783744 4777721 4772581 4768139 4764117 
1528.380 4760223 4756223 4752035 4747724 4743393 4739054 4734521 4729433 
1532.238 4723390 4716148 4707779 4698751 4689799 4681667 4674811 4669239 
1536.095 4664537 4660013 4655097 4649472 4643320 4637191 4631764 4627601 
1539.953 4624900 4623422 4622598 4621796 4620450 4618270 4615218 4611434 
1543.810 4607203 4602822 4598696 4595278 4593054 4592496 4593834 4596978 
1547.667 4601365 4606023 4609815 4611635 4610860 4607422 4601950 4595546 
1551.525 4589496 4584928 4582581 4582671 4584932 4588767 4593405 4598123 
1555.382 4602268 4605400 4607186 4607454 4606240 4603738 4600421 4596930 
1559.240 4593990 4592258 4592162 4593741 4596682 4600411 4604203 4607435 
1563.097 4609688 4610861 4611145 4610986 4610820 4610991 4611661 4612648 
1566.955 4613563 4613882 4613166 4611187 4608039 4604107 4599974 4596283 
1570.812 4593479 4591732 4590830 4590343 4589822 4588860 4587456 4585939 
1574.669 4584906 4585065 4586971 4590882 4596615 4603654 4611351 4619097 
1578.527 4626479 4633360 4639814 4645991 4652032 4657936 4663613 4668883 
1582.384 4673600 4677628 4680991 4683782 4686157 4688307 4690494 4692849 
1586.242 4695479 4698324 4701137 4703472 4704815 4704756 4703135 4700254 
1590.099 4696914 4694193 4693285 4695051 4699822 4707283 4716528 4726394 
1593.957 4735781 4743900 4750501 4755674 4759807 4763251 4766236 4768872 
1597.814 4771077 4772834 4774188 4775311 4776461 4777895 4779834 4782405 
1601.671 4785766 4790016 4795224 4801372 4808229 4815383 4822316 4828523 
1605.529 4833811 4838336 4842733 4847879 4854592 4863336 4873988 4885847 
1609.386 4897851 4908868 4918162 4925482 4931195 4936046 4940904 4946517 
1613.244 4953399 4961782 4971728 4983160 4995952 5009883 5024515 5039157 
1617.101 5052980 5065102 5074817 5081788 5086093 5088127 5088471 5087693 
1620.958 5086199 5084235 5081970 5079621 5077496 5076086 5075916 5077423 
1624.816 5080758 5085744 5091867 5098399 5104608 5109859 5113715 5115985 
1628.673 5116699 5115979 5114098 5111362 5108216 5105167 5102835 5101833 
1632.531 5102648 5105540 5110467 5117049 5124624 5132424 5139687 5145770 
1636.388 5150284 5153043 5154007 5153255 5150832 5146850 5141457 5134975 
1640.246 5127818 5120603 5113905 5108220 5103793 5100614 5098427 5096899 
1644.103 5095762 5094945 5094572 5094841 5095935 5097773 5099999 5102037 
1647.960 5103307 5103469 5102651 5101407 5100715 5101601 5104865 5110803 
1651.818 5119108 5128934 5139183 5148856 5157416 5164944 5172046 5179648 
1655.675 5188650 5199646 5212795 5227702 5243612 5259508 5274394 5287485 
1659.533 5298365 5307092 5314206 5320571 5327313 5335476 5345896 5358952 
1663.390 5374545 5392086 5410698 5429453 5447545 5464513 5480237 5494918 
1667.248 5508899 5522549 5536142 5549768 5563403 5576976 5590415 5603724 
1671.105 5617006 5630476 5644362 5658832 5673990 5689739 5705883 5722014 
1674.962 5737706 5752532 5766226 5778774 5790458 5801806 5813515 5826244 
1678.820 5840596 5856911 5875307 5895695 5917905 5941697 5966894 5993272 
1682.677 6020570 6048400 6076210 6103478 6129801 6155061 6179515 6203794 
1686.535 6228648 6254841 6282923 6313014 6344940 6378267 6412483 6447152 
1690.392 6482129 6517527 6553749 6591369 6631033 6673324 6718678 6767267 
1694.250 6819014 6873570 6930428 6989096 7049248 7110902 7174450 7240392 
1698.107 7309296 7381384 7456393 7533705 7612565 7692462 7773556 7856798 
1701.964 7943816 8036425 8136213 8244025 8359767 8482572 8611157 8744384 
1705.822 8881699 9023304 9170105 9323394 9484452 9654177 9833104 10021318 
1709.679 10218847 10425582 10641614 10867100 11102051 11346284 11599234 
1713.054 11860043 12127627 12400823 12678640 12960406 13245827 13535103 
1716.430 13828720 14127378 14431639 14741722 15057346 15377747 15701962 
1719.805 16029231 16359432 16693273 17032452 17379298 17736548 18107086 
1723.180 18493740 18899498 19327772 19782568 20268696 20791542 21356742 
1726.555 21969984 22636624 23361718 24150200 25006894 25936770 26944932 
1729.931 28036746 29218032 30495596 31877574 33373898 34995728 36754356 
1733.306 38659416 40717008 42928544 45291080 47799012 50446624 53230100 
1736.681 56148212 59200568 62384768 65692760 69108376 72606824 76156608 
1740.056 79722552 83269040 86761200 90164920 93445496 96567224 99494520 
1743.432 102194976 104642192 106817664 108710064 110312840 111621664 
1746.325 112633552 113347760 113768616 113906888 113780008 113409248 
1749.218 112816248 112020232 111036920 109879400 108560336 107093072 
1752.111 105491888 103770384 101940240 100010024 97986224 95874688 93683032 
1755.486 91421784 89104720 86747296 84365472 81973944 79585584 77211448 
1758.861 74861264 72543632 70266352 68036216 65858884 63739216 61681760 
1762.237 59691084 57772100 55929404 54166776 52485992 50886332 49364584 
1765.612 47915744 46533992 45214044 43951792 42744588 41590868 40489604 
1768.987 39439388 38438068 37482532 36568836 35692468 34848880 34033520 
1772.362 33242288 32471356 31717322 30976868 30246758 29523686 28804276 
1775.738 28085336 27364104 26638644 25908240 25173118 24434562 23694288 
1779.113 22954286 22216444 21482648 20754906 20035450 19326876 18631970 
1782.488 17953484 17293914 16655216 16038959 15446256 14878100 14335313 
1785.863 13818644 13328587 12865230 12428190 12016491 11628858 11263831 
1789.239 10920188 10596979 10293780 10010602 9747563 9504640 9281320 9076338 
1793.096 8887817 8713329 8550464 8397116 8252021 8114775 7985832 7866005 
1796.953 7755948 7655761 7564546 7480525 7401283 7324414 7248144 7171786 
1800.811 7095857 7021903 6951942 6887712 6830244 6779367 6733916 6692036 
1804.668 6651641 6611099 6569357 6526102 6481522 6436119 6390395 6344849 
1808.526 6299937 6256247 6214539 6175543 6139782 6107203 6077001 6047657 
1812.383 6017283 5984152 5947266 5906731 5863723 5820230 5778468 5740232 
1816.240 5706731 5678291 5654769 5635749 5620909 5610043 5602846 5598688 
1820.098 5596307 5593977 5589726 5582015 5570091 5554197 5535427 5515203 
1823.955 5494713 5474515 5454390 5433644 5411513 5387633 5362305 5336331 
1827.813 5310661 5286108 5262844 5240533 5218396 5195582 5171552 5146300 
1831.670 5120182 5093885 5068035 5043137 5019251 4996116 4973157 4949585 
1835.528 4924597 4897482 4867943 4836169 4803002 4769805 4738279 4709994 
1839.385 4685982 4666462 4650737 4637445 4624974 4611923 4597438 4581358 
1843.242 4564024 4546161 4528494 4511629 4495930 4481556 4468491 4456489 
1847.100 4444979 4433219 4420173 4405084 4387545 4367916 4347370 4327550 
1850.957 4310195 4296589 4287132 4281348 4278150 4276394 4275395 4275224 
1854.815 4276582 4280546 4287799 4298248 4310694 4323038 4332648 4337138 
1858.672 4334676 4324700 4307772 4285535 4260187 4234073 4209267 4187073 
1862.530 4168091 4152216 4138857 4127429 4117531 4109124 4102507 4097897 
1866.387 4095170 4093782 4092718 4090924 4087891 4084101 4081241 4081838 
1870.244 4088384 4102676 4124545 4151827 4180573 4205828 4222971 4228720 
1874.102 4221933 4203777 4177190 4146232 4114831 4086251 4062523 4044326 
1877.959 4031419 4022920 4017818 4015396 4015078 4016507 4019212 4022247 
1881.817 4024037 4022586 4015904 4002462 3982051 3956011 3927170 3899195 
1885.674 3875532 3858592 3848781 3844745 3843806 3843208 3841272 3838120 
1889.531 3835748 3837370 3846074 3863813 3890131 3922361 3956040 3986062 
1893.389 4008053 4019536 4020454 4013178 4001600 3990090 3982235 3979864 
1897.246 3982624 3988130 3992734 3992692 3985411 3970333 3949438 3926629 
1901.104 3906892 3894798 3892991 3901485 3917407 3935814 3951181 3958847 
1904.961 3956546 3944913 3927229 3908375 3893137 3884902 3884480 3890034 
1908.819 3897811 3903603 3904316 3899139 3889832 3880216 3874671 3876485 
1912.676 3886566 3902958 3921513 3936990 3944839 3942573 3930203 3909658 
1916.533 3883785 3855252 3825518 3794928 3763264 3730439 3697405 3666009 
1920.391 3638492 3616957 3602351 3594698 3592987 3596269 3603910 3615662 
1924.248 3631262 3649665 3668299 3683472 3690963 3687644 3672707 3648125 
1928.106 3618195 3588020 3561583 3540449 3523505 3507896 3490882 3471448 
1931.963 3451175 3433852 3423927 3424728 3437069 3458747 3485759 3513488 
1935.821 3538589 3559506 3576066 3588638 3596533 3597501 3588240 3565549 
1939.678 3528529 3480112 3427440 3381181 3352763 3351641 3382334 3442540 
1943.535 3523306 3610835 3689814 3746670 3773363 3768878 3739048 3694766 
1947.393 3648356 3610240 3586157 3576165 3575427 3576479 3572046 3557188 
1951.250 3530098 3492195 3446387 3396313 3345107 3296060 3252850 3219819 
1955.108 3201413 3200863 3217711 3247279 3279808 3303147 3306666 3284856 
1958.965 3240727 3186031 3137724 3113376 3124291 3172363 3248565 3336012 
1962.823 3414784 3467665 3484301 3463586 3412766 3344966 3275645 3218536 
1966.680 3182551 3170587 3178631 3197597 3215723 3222384 3211180 3182105 
1970.537 3141247 3098046 3060993 3033712 3011645 2984625 2941489 2876477 
1974.395 2795492 2718361 2674874 2696264 2802924 2994727 3246873 3515007 
1978.252 3748804 3908790 3977869 3964254 3895287 3805075 3724087 3670684 
1982.110 3648415 3648809 3655955 3654464 3633553 3591012 3532369 3467725 
1985.967 3408726 3364505 3340177 3336423 3350226 3377047 3411840 3450298 
1989.824 3488881 3525183 3557619 3585792 3610367 3633707 3659626 3692270 
1993.682 3734864 3788163 3847936 3905657 3948775 3963719 3939841 3873182 
1997.539 3768656 3640172 3506841 3388541 3299070 3242914 3214055 3199181 
2001.397 3184087 3159746 3127015 3096819 3085109 3105726 3162904 3247319 
2005.254 3337289 3405559 3429668 3400477 3327121 3233510 3149576 3099137 
2009.112 3092316 3123671 3176240 3229749 3267654 3280988 3268127 3230508 
2012.969 3169109 3082933 2971394 2839542 2701823 2584062 2518651 2535048 
2016.826 2649265 2855427 3123864 3408516 3657579 3829367 3902138 3878594 
2020.684 3782523 3649409 3513862 3399450 3312200 3241937 3168791 3072148 
2024.541 2940373 2776751 2599214 2436423 2318563 2267878 2292173 2380861 
2028.399 2508684 2644183 2758646 2836152 2876654 2894725 2911480 2945170 
2032.256 3002808 3076987 3148477 3195069 3199894 3159261 3083701 2993491 
2036.114 2911711 2857186 2840026 2861426 2915857 2995202 3090301 3191500 
2039.971 3288316 3369836 3425487 3448522 3438991 3405052 3361339 3324057 
2043.828 3304773 3306980 3324652 3347726 3367971 3386209 3414795 3473276 
2047.686 3580487 3743758 3951848 4175326 4374854 4514539 4573622 4551643 
2051.543 4466768 4348305 4227543 4129821 4069106 4046495 4053122 4074695 
2055.401 4097152 4110808 4111223 4098673 4075565 4043978 4004756 3957119 
2059.258 3899465 3830880 3751752 3665311 3577484 3497020 3434332 3399487 
2063.115 3400153 3439142 3512958 3612272 3723160 3830784 3922336 3989482 
2066.973 4029377 4043593 4036395 4012215 3975011 3928078 3875606 3823598 
2070.830 3780334 3755437 3756978 3789069 3849480 3929422 4015319 4091518 
2074.688 4144268 4164593 4149435 4102103 4030129 3943699 3853771 3770217 
2078.545 3701317 3653080 3628877 3629855 3653920 3696632 3751537 3810687 
2082.403 3866107 3910667 3939267 3949634 3942635 3922027 3893942 3865383 
2086.260 3843046 3831866 3833754 3847535 3869006 3891980 3909910 3916993 
2090.117 3909314 3885639 3847185 3797687 3742597 3688511 3642373 3610202 
2093.975 3596193 3601504 3623826 3657972 3697057 3734655 3766810 3792667 
2097.832 3814627 3836602 3862045 3892130 3924975 3956081 3980114 3992540 
2101.690 3991317 3977711 3955311 3929451 3905733 3889087 3883619 3892194 
2105.547 3916186 3955204 4006051 4062955 4117670 4161293 4186637 4190141 
2109.405 4173439 4142711 4106626 4073472 4048320 4031739 4020309 4008596 
2113.262 3991732 3967695 3937819 3905886 3876185 3851510 3832123 3815903 
2117.119 3799701 3781191 3759621 3736306 3713607 3693573 3676939 3662839 
2120.977 3649406 3635106 3619267 3602574 3586119 3570068 3552908 3530888 
2124.834 3499378 3454655 3395969 3326776 3254210 3187454 3135018 3101611 
2128.692 3086772 3084707 3085930 3079741 3057488 3014322 2950586 2871278 
2132.549 2784562 2700253 2627444 2573013 2540669 2530280 2538530 2559187 
2136.406 2584624 2607108 2619787 2618215 2600334 2566703 2520492 2465998 
2140.264 2408266 2351940 2300620 2256372 2219088 2186695 2155547 2120792 
2144.121 2077536 2022000 1952435 1869886 1778618 1685437 1598900 1527143 
2147.979 1476752 1450871 1448275 1463624 1488058 1510858 1522032 1512810 
2151.836 1477716 1414213 1321864 1201369 1052964 877289 676269 455369 226284 
2156.176 8830 -169252 -276299 -283645 -174954 46455 353992 704077 1049124 
2160.515 1352225 1594608 1778129 1918038 2035693 2148964 2268465 2394465 
2164.373 2518058 2625073 2700375 2731814 2714705 2651975 2554938 2440318 
2168.230 2327164 2233498 2171908 2147441 2156717 2188290 2225698 2250896 
2172.088 2248876 2211071 2137502 2037022 1926769 1828135 1763542 1751008 
2175.945 1799433 1905299 2052243 2212795 2354557 2447422 2471080 2421219 
2179.802 2311790 2172418 2041689 1956047 1941183 2004125 2133399 2303570 
2183.660 2484614 2651063 2788875 2895847 2979885 3051325 3118805 3184392 
2187.517 3243895 3289102 3311312 3304945 3270147 3212205 3140905 3067912 
2191.375 3004542 2959187 2936433 2935512 2951365 2974704 2994606 3000915 
2195.232 2986998 2951653 2900251 2843036 2793320 2763744 2763886 2798264 
2199.090 2866253 2963017 3080891 3211136 3345035 3473959 3590030 3686122 
2202.947 3756377 3797185 3806670 3785054 3734909 3659758 3565266 3458966 
2206.804 3350732 3252644 3177506 3136303 3135665 3174497 3244442 3331100 
2210.662 3417971 3491243 3543866 3576621 3597201 3616081 3642330 3680188 
2214.519 3728260 3780809 3831071 3874074 3908599 3936220 3960000 3981284 
2218.377 3999440 4011536 4014118 4005820 3988671 3967806 3950011 3941084 
2222.234 3943811 3957287 3977855 4001168 4024268 4046574 4069663 4095776 
2226.092 4125922 4158917 4191522 4219438 4239524 4250702 4254454 4253761 
2229.949 4251360 4248281 4242997 4232136 4212250 4181539 4141607 4097505 
2233.806 4057125 4028936 4019972 4034241 4071774 4128955 4199549 4275729 
2237.664 4349318 4412578 4458796 4482540 4480754 4452882 4401726 4333734 
2241.521 4257927 4184658 4123614 4081490 4060743 4059159 4070970 4088923 
2245.379 4106499 4119876 4128610 4134840 4141771 4151394 4163617 4175824 
2249.236 4184155 4185339 4178393 4165544 4151634 4142615 4143735 4157604 
2253.094 4183928 4219844 4261495 4305187 4348635 4390675 4430590 4467180 
2256.951 4498077 4520112 4530337 4527167 4511535 4486721 4457728 4429522 
2260.808 4405676 4387302 4373013 4359871 4345167 4327504 4307964 4289688 
2264.666 4277121 4274379 4283725 4304644 4334224 4367358 4398889 4424619 
2268.523 4442502 4453010 4458457 4461985 4466466 4473422 4482972 4494306 
2272.381 4506450 4519128 4533271 4550459 4572399 4599557 4630793 4663149 
2276.238 4692745 4716230 4731957 4740606 4745252 4750162 4759597 4776542 
2280.095 4802029 4835235 4874039 4915796 4957993 4998491 5035495 5067391 
2283.953 5092866 5110850 5120992 5123571 5119724 5110755 5098009 5082484 
2287.810 5064777 5045430 5025042 5004626 4985291 4967976 4952771 4938879 
2291.668 4924695 4908504 4889214 4867071 4843895 4822445 4805730 4795928 
2295.525 4793760 4798598 4808627 4821649 4835644 4848959 4860338 4868570 
2299.383 4872583 4871613 4865648 4855768 4844259 4834132 4828195 4828253 
2303.240 4834358 4845040 4857849 4870466 4881515 4891016 4900054 4910019 
2307.097 4921763 4935151 4949133 4962221 4973290 4981952 4988807 4994869 
2310.955 5001110 5008038 5015476 5022892 5029837 5036277 5042654 5049712 
2314.812 5058079 5068063 5079521 5092024 5105318 5119289 5134203 5150702 
2318.670 5169596 5192068 5219571 5253879 5296712 5348661 5408147 5470405 
2322.527 5527246 5568118 5582266 5561487 5502651 5408719 5288570 5155337 
2326.385 5023668 4906831 4814259 4750033 4712910 4697485 4696234 4701742 
2330.242 4708184 4712135 4712308 4709026 4703305 4696368 4689356 4683312 
2334.099 4679000 4677098 4677700 4680327 4683976 4687180 4688610 4687298 
2337.957 4683073 4676461 4668565 4660617 4653761 4648698 4645766 4644888 
2341.814 4645901 4648499 4652381 4657174 4662384 4667344 4671288 4673445 
2345.672 4673128 4669882 4663565 4654437 4643036 4630213 4616964 4604248 
2349.529 4592798 4583057 4575078 4568742 4563789 4559949 4557176 4555583 
2353.386 4555212 4556105 4558139 4560802 4563555 4565697 4566739 4566162 
2357.244 4563634 4558874 4551670 4541744 4529052 4513792 4496575 4478364 
2361.101 4460216 4443164 4427850 4414420 4402473 4391299 4379925 4367567 
2364.959 4353709 4338302 4321820 4305309 4290257 4278522 4271951 4272167 
2368.816 4279884 4294865 4315724 4340051 4364942 4387447 4405330 4417211 
2372.674 4422868 4423118 4419486 4414118 4409365 4407362 4409916 4417959 
2376.531 4431307 4448526 4467293 4484728 4498412 4506849 4510018 4509252 
2380.388 4506705 4504405 4503587 4504292 4505501 4505712 4503803 4499467 
2384.246 4493464 4487343 4482588 4480333 4480777 4483416 4487171 4491076 
2388.103 4494330 4496526 4497442 4496911 4494701 4490836 4485761 4480428 
2391.961 4476441 4475473 4478900 4487171 4499545 4514237 4528960 4541569 
2395.818 4550784 4556229 4558672 4559423 4559951 4561548 4564939 4570392 
2399.676 4577657 4586122 4594915 4602955 4609060 4612239 4611809 4607675 
2403.533 4600352 4591062 4581327 4572939 4567619 4566802 4571449 4581796 
2407.390 4597316 4616436 4636735 4655143 4668620 4674721 4672375 4662027 
2411.248 4645595 4625911 4605864 4587732 4572779 4561104 4552192 4545256 
2415.105 4539637 4535136 4531779 4529866 4529683 4531431 4535355 4541522 
2418.963 4549950 4560233 4571409 4582052 4590330 4594723 4594363 4589585 
2422.820 4581577 4572166 4563020 4555230 4549139 4544751 4542188 4542218 
2426.677 4546185 4555334 4570105 4588984 4608648 4624488 4631865 4628089 
2430.535 4612989 4589556 4562704 4537850 4519098 4508233 4504684 4506393 
2434.392 4510914 4516698 4523403 4531517 4541599 4553488 4566183 4578008 
2438.250 4587517 4594096 4598354 4601610 4605078 4609045 4612304 4612658 
2442.107 4607770 4596443 4579431 4559712 4541636 4529717 4527162 4534887 
2445.965 4551394 4573386 4596778 4618227 4635791 4649186 4659478 4668186 
2449.822 4676587 4685032 4692776 4698292 4699953 4696598 4688019 4675190 
2453.679 4659869 4644289 4630456 4619642 4612274 4608065 4606369 4606771 
2457.537 4609104 4613605 4620473 4629342 4638972 4647203 4651417 4649323 
2461.394 4639791 4623510 4602917 4581867 4564494 4554057 4552230 4558499 
2465.252 4570564 4584836 4597443 4605158 4605940 4599397 4586784 4570736 
2469.109 4554795 4542641 4537568 4541544 4554800 4575639 4600706 4625898 
2472.967 4647015 4661041 4666606 4664091 4655186 4642219 4627143 4611300 
2476.824 4594939 4577958 4560218 4542304 4525542 4512047 4504093 4503374 
2480.681 4510558 4524936 4544622 4566918 4588968 4608551 4624243 4635836 
2484.539 4643878 4649696 4654794 4660504 4667867 4677334 4688697 4701238 
2488.396 4713646 4724275 4731429 4733621 4730072 4720901 4707382 4691645 
2492.254 4676445 4664587 4658185 4658404 4665078 4676929 4691860 4707568 
2496.111 4721840 4732957 4739765 4741682 4738639 4731044 4719781 4706238 
2499.969 4692079 4678998 4668360 4660712 4655762 4652263 4648589 4643382 
2503.826 4635861 4626503 4616613 4607907 4602090 4599917 4601253 4605110 
2507.683 4610018 4614753 4618614 4621602 4624467 4628063 4633239 4640432 
2511.541 4649754 4660922 4673502 4687062 4701115 4715200 4728788 4741424 
2515.398 4752587 4761934 4769153 4773925 4775885 4774630 4769644 4760786 
2519.256 4748228 4732930 4716591 4701311 4689402 4682886 4682988 4690156 
2523.113 4703870 4722837 4745177 4768489 4790207 4807722 4818669 4821558 
2526.970 4816021 4803135 4785195 4765354 4746769 4731635 4720768 4713450 
2530.828 4707950 4702422 4695684 4687980 4680948 4677004 4678552 4687204 
2534.685 4703073 4724842 4750167 4776226 4800596 4821319 4837221 4847683 
2538.543 4852551 4852013 4846849 4838537 4829448 4822546 4820813 4826575 
2542.400 4840692 4862192 4888294 4914806 4937464 4952623 4958306 4954208 
2546.258 4941746 4923324 4901600 4878910 4856929 4836790 4819240 4804853 
2550.115 4794115 4787388 4784569 4784997 4787269 4789781 4790977 4790044 
2553.972 4787168 4783609 4781330 4782268 4787759 4798106 4812581 4829780 
2557.830 4848182 4866656 4884784 4902637 4920342 4937832 4954276 4968429 
2561.687 4978843 4984442 4985158 4981895 4976561 4971252 4967727 4966875 
2565.545 4968324 4970679 4972129 4970938 4966242 4958207 4948045 4937879 
2569.402 4929908 4926108 4927486 4933993 4944454 4956818 4968716 4977891 
2573.260 4982791 4982939 4978657 4971169 4961869 4952166 4943146 4935496 
2577.117 4929674 4926134 4925396 4928031 4934193 4943503 4954701 4965940 
2580.974 4975038 4980545 4981986 4980527 4978434 4978611 4983460 4994067 
2584.832 5009746 5028471 5047391 5063991 5076799 5085762 5091779 5096030 
2588.689 5099097 5100559 5099066 5093155 5082106 5066787 5049723 5034639 
2592.547 5025147 5023621 5030044 5042160 5056097 5067674 5074014 5074425 
2596.404 5070626 5066087 5064606 5069156 5080740 5098312 5119153 5140059 
2600.261 5158227 5172055 5181277 5186733 5189806 5191843 5193807 5196322 
2604.119 5199570 5203568 5208066 5212564 5216177 5217857 5216561 5211737 
2607.976 5203816 5194182 5185188 5179513 5179230 5185392 5197560 5214038 
2611.834 5232316 5250015 5265320 5277429 5286459 5293033 5297931 5301759 
2615.691 5304834 5307329 5309342 5311019 5312471 5313577 5314029 5313197 
2619.549 5310601 5306240 5300858 5296147 5294392 5297713 5307482 5323535 
2623.406 5344160 5366356 5386711 5402418 5412075 5416179 5416836 5417155 
2627.263 5420104 5427718 5440247 5456200 5472762 5486537 5494683 5495590 
2631.121 5489445 5478183 5464870 5452990 5445424 5443750 5447922 5456435 
2634.978 5466865 5476667 5483745 5487221 5487180 5484755 5481357 5478416 
2638.836 5476776 5476813 5478392 5481126 5484716 5488820 5493311 5498024 
2642.693 5502674 5506939 5510287 5512413 5513153 5512696 5511419 5509821 
2646.551 5508267 5506898 5505536 5503814 5501438 5498333 5494749 5491273 
2650.408 5488791 5487975 5489175 5492165 5496112 5499720 5501596 5500521 
2654.265 5495902 5487860 5477242 5465403 5453864 5443892 5436233 5430915 
2658.123 5427415 5424770 5421876 5417753 5411733 5403477 5392918 5380258 
2661.980 5365646 5349442 5331987 5313880 5295825 5278784 5263762 5251711 
2665.838 5243290 5238822 5238078 5240394 5244679 5249743 5254337 5257471 
2669.695 5258485 5257120 5253579 5248296 5241992 5235297 5228775 5222706 
2673.552 5217078 5211709 5206337 5200639 5194634 5188523 5182763 5178031 
2677.410 5175106 5174517 5176654 5181492 5188598 5197163 5206131 5214293 
2681.267 5220536 5223910 5223752 5219840 5212465 5202235 5190199 5177684 
2685.125 5166004 5156440 5149934 5146979 5147578 5151162 5156880 5163661 
2688.982 5170473 5176504 5181103 5183989 5185010 5184178 5181592 5177512 
2692.840 5172378 5166785 5161497 5157262 5154602 5153724 5154300 5155736 
2696.697 5157274 5158223 5158231 5157312 5155767 5154035 5152506 5151305 
2700.554 5150439 5149787 5149257 5148951 5149046 5149759 5151126 5152981 
2704.412 5154931 5156421 5157125 5156853 5155918 5154747 5153903 5153846 
2708.269 5154801 5156619 5159038 5161597 5163857 5165414 5165995 5165459 
2712.127 5163907 5161727 5159452 5157917 5157819 5159515 5162894 5167119 
2715.984 5171017 5173308 5173173 5170498 5166081 5161126 5157101 5154852 
2719.842 5154486 5155287 5156087 5155863 5154100 5151075 5147719 5145181 
2723.699 5144359 5145542 5148339 5151947 5155575 5158742 5161485 5164220 
2727.556 5167483 5171521 5176204 5181009 5185185 5188208 5189814 5190192 
2731.414 5189812 5189310 5189177 5189865 5191566 5194526 5198839 5204585 
2735.271 5211599 5219414 5227201 5233930 5238454 5240135 5238698 5234661 
2739.129 5229038 5223074 5217969 5214448 5212756 5212629 5213441 5214557 
2742.986 5215454 5216011 5216386 5216999 5218162 5220048 5222381 5224467 
2746.844 5225271 5223791 5219325 5211832 5202053 5191520 5181983 5175193 
2750.701 5172209 5173353 5178021 5185070 5193226 5201472 5209282 5216569 
2754.558 5223518 5230153 5236305 5241381 5244731 5245801 5244513 5241250 
2758.416 5236895 5232549 5229128 5227328 5227401 5229347 5232868 5237568 
2762.273 5242899 5248213 5252696 5255507 5255879 5253407 5248236 5241102 
2766.131 5233228 5225983 5220669 5217968 5218102 5220706 5224941 5229952 
2769.988 5235022 5239558 5243432 5246782 5250044 5253845 5258810 5265512 
2773.845 5274148 5284389 5295364 5305663 5313764 5318416 5318956 5315658 
2777.703 5309473 5302036 5294857 5289215 5285744 5284516 5285191 5287446 
2781.560 5291020 5296010 5302497 5310689 5320320 5331094 5342382 5353597 
2785.418 5364373 5374507 5383999 5392817 5400789 5407548 5412559 5415593 
2789.275 5416596 5416121 5415066 5414551 5415545 5418637 5423868 5430862 
2793.133 5438923 5447268 5455373 5463074 5470401 5477779 5485691 5494683 
2796.990 5505017 5516809 5529954 5543997 5558406 5572472 5585708 5597812 
2800.847 5608775 5618771 5628088 5636808 5644936 5652153 5657952 5661933 
2804.705 5663870 5663918 5662438 5660119 5657663 5655877 5655407 5656973 
2808.562 5661132 5668508 5679369 5693707 5710920 5729976 5749567 5768445 
2812.420 5785623 5800823 5814340 5826776 5838807 5850803 5862745 5874154 
2816.277 5884578 5893733 5901775 5909330 5917337 5926789 5938411 5952568 
2820.135 5969153 5987788 6007943 6028873 6049941 6070351 6089433 6106588 
2823.992 6121635 6134889 6147144 6159689 6173854 6190773 6210971 6234538 
2827.849 6260926 6289608 6320051 6352149 6386104 6422341 6461071 6502486 
2831.707 6546183 6591732 6638698 6686847 6736190 6787166 6840384 6896740 
2835.564 6957295 7023380 7096568 7178722 7271855 7377846 7498362 7634634 
2839.422 7787623 7958171 8147275 8356388 8587448 8842833 9125155 9437207 
2843.279 9781440 10160196 10575106 11026853 11514527 12034911 12581567 
2846.654 13144311 13709165 14258845 14773668 15233192 15617928 15911037 
2850.030 16099802 16176809 16140541 15995485 15751745 15423967 15029883 
2853.405 14588445 14118007 13634723 13151540 12678072 12220847 11784204 
2856.780 11371056 10983628 10623548 10292018 9989371 9715023 9467561 9244961 
2860.637 9045196 8866321 8706979 8566064 8442601 8335612 8243643 8165282 
2864.495 8098995 8043597 7998302 7962826 7937106 7921009 7914180 7915847 
2868.352 7924884 7940043 7960174 7984348 8011953 8042584 8076167 8112488 
2872.210 8151573 8193449 8238127 8285764 8336621 8390814 8448330 8508795 
2876.067 8571473 8635233 8698624 8760147 8818381 8872318 8921524 8966088 
2879.925 9006611 9043845 9078525 9111203 9141958 9170634 9197009 9220961 
2883.782 9242798 9263264 9283420 9304533 9327632 9353403 9382204 9414022 
2887.639 9448736 9486295 9526905 9570958 9618904 9671157 9727874 9788735 
2891.497 9853073 9919838 9987646 10055166 10121050 10184398 10244749 
2894.872 10302254 10357758 10412721 10468695 10527276 10589579 10656162 
2898.247 10726721 10800438 10876230 10953183 11030737 11109256 11189654 
2901.623 11273522 11362724 11458984 11563622 11677393 11800320 11932027 
2904.998 12071915 12219742 12375699 12541071 12718053 12909688 13119604 
2908.373 13351685 13609630 13896960 14216669 14571297 14962915 15392688 
2911.748 15860815 16365880 16904556 17471434 18059012 18657950 19257656 
2915.124 19846780 20413718 20946988 21435628 21869426 22239512 22538602 
2918.499 22761746 22906666 22973940 22966912 22890988 22753138 22561108 
2921.874 22322658 22045142 21735472 21399714 21043156 20670480 20285584 
2925.249 19891876 19492482 19090428 18688994 18291674 17902126 17523856 
2928.625 17159792 16811956 16481312 16167784 15870668 15588893 15321596 
2932.000 15068318 14829230 14605005 14396904 14206547 14035955 13887072 
2935.375 13761838 13661532 13586654 13536268 13508236 13499224 13505183 
2938.750 13521926 13545865 13574091 13604599 13635837 13666299 13694033 
2942.125 13716602 13731061 13734430 13724072 13698383 13656633 13599221 
2945.501 13527295 13442408 13346273 13240552 13126729 13006099 12879817 
2948.876 12748800 12613758 12475350 12334154 12191166 12047599 11905149 
2952.251 11765704 11631011 11502133 11379375 11262020 11148645 11037844 
2955.626 10928576 10820719 10715020 10612833 10515642 10424276 10338844 
2959.002 10258677 10182749 10109982 10039972 9972776 9908880 9848471 9791184 
2962.859 9735845 9680478 9622981 9561653 9495881 9426393 9355230 9285163 
2966.717 9219185 9159681 9107953 9063953 9026357 8992904 8960958 8928042 
2970.574 8892611 8854438 8814643 8775909 8741456 8714524 8697388 8690789 
2974.431 8693821 8704245 8719218 8736231 8753886 8772043 8791719 8814434 
2978.289 8841638 8873995 8911527 8953685 9000081 9051028 9107693 9172083 
2982.146 9246585 9333356 9433793 9548438 9676863 9818242 9971675 10136306 
2986.004 10311447 10496360 10689908 10890263 11094888 11300644 11504092 
2989.379 11701901 11891062 12069265 12234613 12385686 12521312 12640545 
2992.754 12742385 12826087 12891029 12936974 12963894 12972178 12962312 
2996.129 12935023 12891011 12831220 12756528 12668104 12567243 12455353 
2999.505 12333978 12204513 12068214 11926232 11779277 11628227 11473647 
3002.880 11316184 11156485 10995100 10832602 10669406 10506093 10343357 
3006.255 10182132 10023607 9868903 9719014 9574262 9434339 9298228 9164552 
3010.113 9032028 8899825 8768065 8637431 8509234 8384783 8264879 8149723 
3013.970 8038795 7931208 7826252 7723669 7623870 7527987 7437448 7353424 
3017.827 7276477 7206253 7141270 7079468 7018468 6956316 6892023 6825895 
3021.685 6759393 6694682 6634146 6579379 6530702 6487040 6446230 6405715 
3025.542 6363591 6319067 6272927 6227198 6184340 6146551 6114835 6089034 
3029.400 6067731 6049081 6031439 6013802 5995973 5978342 5961285 5944887 
3033.257 5928790 5912238 5894495 5875088 5854195 5832542 5811116 5791076 
3037.115 5773323 5758532 5747134 5739318 5735077 5733998 5735149 5737269 
3040.972 5738652 5737648 5732999 5724434 5712592 5698989 5685658 5674544 
3044.829 5666861 5662967 5662262 5663454 5664877 5665130 5663139 5658501 
3048.687 5651500 5642780 5633360 5624340 5616623 5610718 5606818 5604581 
3052.544 5603388 5602500 5601169 5599035 5596002 5592367 5588582 5585198 
3056.402 5582647 5581034 5580151 5579509 5578317 5575952 5571884 5566187 
3060.259 5559462 5552842 5547774 5545516 5546527 5550490 5555925 5560853 
3064.116 5563209 5561745 5556310 5548066 5538963 5531223 5526447 5525367 
3067.974 5527527 5531852 5536992 5541900 5545836 5548468 5549381 5548141 
3071.831 5544078 5536736 5526177 5513311 5499987 5488506 5480812 5478104 
3075.689 5480184 5485631 5492226 5497782 5500524 5499845 5495924 5489716 
3079.546 5482497 5475456 5469678 5465995 5464956 5466928 5471688 5478609 
3083.404 5486395 5493565 5498597 5500415 5498687 5493762 5486407 5477515 
3087.261 5467717 5457499 5447323 5437920 5430413 5426358 5426938 5432668 
3091.118 5442645 5454641 5465479 5472051 5472199 5465569 5453674 5439448 
3094.976 5426149 5416422 5411425 5410719 5412641 5415182 5416805 5417008 
3098.833 5416396 5416406 5418424 5423522 5431650 5441770 5452107 5460768 
3102.691 5466102 5467156 5463968 5457309 5448389 5438684 5429255 5420842 
3106.548 5413508 5407095 5401397 5396243 5392053 5389427 5389051 5391442 
3110.406 5396440 5403294 5410569 5416494 5419684 5419364 5415781 5410155 
3114.263 5404345 5400209 5399121 5401548 5406682 5413097 5418825 5422243 
3118.120 5422490 5419715 5415025 5410096 5406478 5405323 5406761 5410180 
3121.978 5414331 5417923 5420074 5420490 5419517 5417898 5416255 5414903 
3125.835 5413734 5412262 5410036 5406966 5403444 5400469 5399177 5400581 
3129.693 5405178 5412746 5422473 5433068 5443225 5451818 5458135 5461849 
3133.550 5463046 5462104 5459581 5456085 5452135 5448107 5444046 5439701 
3137.407 5434468 5427849 5419615 5410126 5400416 5391991 5386466 5385052 
3141.265 5388055 5394816 5403789 5413209 5421548 5427994 5432696 5436500 
3145.122 5440360 5444837 5449707 5453906 5455892 5454167 5447979 5437708 
3148.980 5424744 5411406 5400032 5392552 5389837 5391683 5396744 5403318 
3152.837 5409490 5413893 5415830 5415277 5412702 5408885 5404588 5400455 
3156.695 5396917 5394336 5392973 5393023 5394500 5397294 5401057 5405214 
3160.552 5409143 5412442 5414825 5416380 5417425 5418338 5419437 5420851 
3164.409 5422451 5424140 5425860 5427757 5430144 5433415 5437879 5443575 
3168.267 5450235 5457346 5464250 5470372 5475335 5479031 5481548 5483136 
3172.124 5484178 5485011 5485997 5487444 5489503 5492133 5495079 5497939 
3175.982 5500198 5501493 5501748 5501136 5500206 5499508 5499563 5500627 
3179.839 5502689 5505443 5508482 5511226 5513081 5513445 5511657 5507257 
3183.697 5500089 5490494 5479623 5469000 5460420 5455514 5455131 5459274 
3187.554 5467131 5477496 5489172 5501248 5513241 5524875 5535588 5544568 
3191.411 5550655 5552716 5550340 5544131 5535621 5526931 5520012 5515800 
3195.269 5513934 5512838 5510595 5505752 5498173 5489324 5481687 5478059 
3199.126 5480418 5489184 5503015 5519335 5534943 5547058 5553955 5555233 
3202.984 5551686 5545009 5537283 5530483 5526232 5525374 5527928 5533137 
3206.841 5539508 5545316 5549048 5549849 5547851 5543983 5539725 5536396 
3210.698 5534693 5534494 5535005 5535093 5534119 5531981 5529233 5526906 
3214.556 5525696 5525926 5527176 5528681 5529665 5529884 5529693 5530000 
3218.413 5531694 5535241 5540287 5545690 5549862 5551436 5549692 5545014 
3222.271 5538734 5532809 5529282 5529609 5534226 5542500 5552646 5562371 
3226.128 5569275 5571598 5568582 5560713 5549581 5537390 5526176 5517618 
3229.986 5512187 5509581 5508878 5509288 5510511 5512893 5517191 5524086 
3233.843 5533547 5544560 5555265 5563721 5568309 5568760 5566130 5562496 
3237.700 5560323 5561541 5566880 5575815 5586673 5597323 5605697 5610376 
3241.558 5610685 5606724 5599152 5589184 5578220 5567990 5559995 5555520 
3245.415 5555026 5557842 5562383 5566375 5567527 5564290 5556350 5544714 
3249.273 5531474 5519050 5509600 5504403 5503720 5507033 5513396 5521968 
3253.130 5531966 5542853 5554081 5564998 5574650 5582096 5586559 5587768 
3256.988 5585934 5581867 5576652 5571481 5567454 5565390 5565933 5569317 
3260.845 5575502 5584014 5593765 5603374 5611175 5615885 5616838 5614405 
3264.702 5610024 5605788 5603678 5605069 5609938 5616938 5623612 5627055 
3268.560 5624855 5615915 5600651 5581215 5560592 5542221 5528872 5522114 
3272.417 5522025 5527325 5535820 5545138 5553299 5559261 5563001 5565435 
3276.275 5567766 5571114 5575898 5581721 5587411 5591486 5592624 5590294 
3280.132 5584899 5577741 5570749 5565778 5564121 5566250 5571671 5579322 
3283.990 5587869 5596204 5603546 5609599 5614159 5617043 5617913 5616380 
3287.847 5612185 5605700 5598067 5591227 5587467 5588989 5597019 5611674 
3291.704 5631339 5653268 5673844 5689696 5698159 5697994 5689412 5674227 
3295.562 5655236 5635649 5618651 5606692 5601240 5602594 5609879 5621418 
3299.419 5635030 5648488 5659927 5668159 5672606 5673480 5671201 5666623 
3303.277 5660572 5653781 5646806 5640034 5633489 5627066 5620322 5612837 
3307.134 5604256 5594659 5584603 5575161 5567665 5563472 5563314 5567294 
3310.991 5574707 5584359 5594936 5605336 5614780 5622845 5629099 5632943 
3314.849 5633557 5630037 5621864 5609419 5594159 5578440 5565015 5556316 
3318.706 5553776 5557462 5566295 5578366 5591847 5605333 5618023 5629723 
3322.564 5640132 5648666 5654284 5655655 5651789 5642448 5628545 5612107 
3326.421 5595748 5582019 5572711 5568522 5568893 5572509 5577694 5583055 
3330.279 5587659 5591450 5594681 5598037 5602129 5607428 5613968 5621440 
3334.136 5629120 5636033 5641133 5643477 5642363 5637649 5629877 5620173 
3337.993 5610167 5601769 5596598 5596026 5600423 5609306 5621254 5634149 
3341.851 5645529 5653194 5655633 5652579 5644929 5634742 5624553 5616631 
3345.708 5612429 5611982 5613886 5616031 5616022 5612265 5604459 5593816 
3349.566 5582605 5573432 5568351 5568357 5572850 5580311 5588522 5595571 
3353.423 5600244 5602297 5602409 5601689 5601097 5601428 5602626 5604274 
3357.281 5605657 5606034 5604989 5602532 5599220 5595975 5594060 5594678 
3361.138 5598906 5607173 5619067 5633281 5647789 5660067 5667725 5669175 
3364.995 5663915 5652869 5638089 5622425 5608868 5599992 5597453 5601827 
3368.853 5612556 5628104 5646117 5663904 5678634 5688004 5690525 5686101 
3372.710 5675843 5662168 5647979 5636041 5628086 5624532 5624407 5625919 
3376.568 5627187 5626980 5625039 5622144 5619411 5617874 5617944 5619244 
3380.425 5621082 5622839 5624629 5627166 5631672 5639148 5650004 5663567 
3384.282 5678417 5692829 5705451 5715885 5724467 5732142 5739585 5746774 
3388.140 5752659 5755555 5753689 5745924 5732318 5714414 5694671 5676094 
3391.997 5661403 5652478 5650022 5653594 5661537 5671550 5680971 5687449 
3395.855 5689157 5685578 5677426 5666628 5655747 5647378 5643289 5644101 
3399.712 5649290 5657430 5667013 5677114 5687418 5698368 5710448 5723785 
3403.570 5737655 5750593 5760671 5766168 5766151 5760572 5750382 5737079 
3407.427 5722378 5707990 5695300 5685473 5679152 5676703 5677635 5681033 
3411.284 5685337 5688994 5690855 5690602 5688856 5686874 5685703 5685976 
3415.142 5687121 5687758 5686186 5681308 5673204 5663442 5654464 5648815 
3418.999 5648281 5653173 5662399 5673817 5685143 5694708 5701660 5706211 
3422.857 5708782 5710057 5710249 5709260 5706870 5703168 5698534 5693687 
3426.714 5689652 5687102 5686404 5687486 5689856 5692922 5696119 5699200 
3430.572 5701937 5704451 5706800 5709126 5711429 5713602 5715374 5716436 
3434.429 5716423 5715169 5712884 5710055 5707402 5705624 5704898 5704775 
3438.286 5704131 5701475 5695455 5685599 5672472 5657733 5643524 5631988 
3442.144 5624595 5621877 5623540 5628925 5637189 5647803 5660222 5673735 
3446.001 5687148 5698796 5706938 5710251 5708700 5703493 5696919 5691793 
3449.859 5690284 5693252 5700117 5709062 5717712 5723989 5726820 5726302 
3453.716 5723404 5719756 5716928 5716191 5718286 5723318 5730887 5739993 
3457.573 5749350 5757486 5763230 5766081 5766457 5765688 5765478 5767533 
3461.431 5772603 5780225 5788886 5796381 5800694 5800691 5796703 5790244 
3465.288 5783545 5779159 5779032 5784217 5794822 5810171 5828978 5849679 
3469.146 5870556 5890114 5907240 5921503 5933103 5942984 5952317 5962084 
3473.003 5972765 5984058 5995093 6004873 6012786 6018798 6023551 6027767 
3476.861 6031972 6036082 6039390 6041223 6041376 6040654 6040711 6043685 
3480.718 6051195 6063654 6079865 6097402 6113288 6125274 6132323 6135180 
3484.575 6135824 6136793 6140336 6147837 6159527 6174710 6192137 6210330 
3488.433 6227927 6243965 6257756 6269224 6278768 6287388 6296238 6306369 
3492.290 6318445 6332192 6346883 6361411 6375074 6388041 6401255 6416224 
3496.148 6434353 6456139 6480861 6506814 6531688 6553585 6571338 6584968 
3500.005 6595043 6602323 6607254 6609654 6609085 6605305 6598724 6590456 
3503.863 6582175 6575466 6571353 6570037 6571098 6573894 6578050 6583637 
3507.720 6591023 6600364 6611081 6621655 6629802 6633130 6629911 6619657 
3511.577 6603252 6582568 6559937 6537595 6516976 6498965 6483758 6471415 
3515.435 6461865 6454902 6450184 6447118 6444707 6442030 6438182 6432657 
3519.292 6425316 6416236 6405585 6393472 6379776 6364494 6347716 6329947 
3523.150 6311690 6293625 6276189 6259420 6243158 6227125 6211260 6195940 
3527.007 6181748 6169464 6159720 6152871 6148795 6147346 6148393 6152033 
3530.865 6158403 6167465 6178625 6190642 6201419 6208727 6210475 6205531 
3534.722 6193794 6176384 6155350 6133216 6112541 6095693 6084232 6079110 
3538.579 6080255 6086597 6095968 6105401 6111651 6112033 6105027 6090927 
3542.437 6071804 6051140 6032880 6020404 6015594 6018500 6027319 6039159 
3546.294 6050697 6059184 6062843 6061295 6055296 6046214 6035737 6025244 
3550.152 6015690 6007212 5999563 5992180 5984553 5976567 5968458 5960971 
3554.009 5955109 5951769 5951633 5954731 5960668 5968554 5977327 5985818 
3557.866 5992904 5997846 5999933 5998859 5994582 5987548 5978462 5968528 
3561.724 5958924 5950654 5944308 5939813 5936396 5932931 5928186 5921182 
3565.581 5911527 5899474 5886083 5872884 5861660 5854301 5852280 5856681 
3569.439 5867801 5885117 5907231 5932045 5956908 5979246 5996771 6008052 
3573.296 6012714 6011298 6005191 5996214 5985906 5975472 5965098 5954401 
3577.154 5942446 5928346 5911818 5893525 5875070 5858743 5846821 5840920 
3581.011 5841152 5846239 5853704 5860754 5865155 5866178 5864699 5863107 
3584.868 5863982 5869496 5879994 5894137 5908839 5920534 5925984 5923607 
3588.726 5913671 5898236 5880242 5862741 5847865 5836559 5828410 5822324 
3592.583 5817077 5811876 5806774 5802647 5800718 5801954 5806639 5813897 
3596.441 5821763 5827628 5828954 5824055 5812598 5795842 5776236 5756939 
3600.298 5740941 5730238 5725572 5726388 5731079 5737604 5743808 5748119 
3604.156 5749508 5747774 5743909 5739559 5737217 5739594 5748841 5765779 
3608.013 5789235 5815963 5841300 5860315 5869293 5867134 5855586 5838831 
3611.870 5822160 5810269 5805840 5809012 5817578 5828370 5838321 5845651 
3615.728 5850186 5852856 5855042 5857751 5861021 5864265 5866490 5867085 
3619.585 5865875 5863482 5860825 5858880 5858377 5859979 5864047 5871008 
3623.443 5881049 5893959 5908931 5924505 5938814 5950233 5957874 5962061 
3627.300 5964127 5965930 5969021 5973910 5979936 5985790 5990183 5992853 
3631.157 5994861 5998331 6005466 6017603 6034222 6053060 6070691 6083873 
3635.015 6090689 6091334 6088098 6084410 6083563 6087664 6097089 6110752 
3638.872 6126952 6144160 6161900 6180587 6200962 6223453 6247309 6270483 
3642.730 6290149 6303568 6309075 6306807 6298668 6287802 6277487 6270236 
3646.587 6267143 6267909 6271352 6276193 6281701 6287978 6295728 6305771 
3650.445 6318258 6332437 6346720 6359321 6368714 6374329 6376620 6376692 
3654.302 6375631 6374203 6372321 6369480 6364961 6358777 6351619 6345130 
3658.159 6340983 6340494 6343765 6349610 6355785 6359577 6358785 6352325 
3662.017 6340345 6324032 6305166 6285602 6266781 6249838 6235431 6224115 
3665.874 6216257 6211897 6210604 6211458 6212768 6212662 6209422 6202073 
3669.732 6190828 6177016 6163138 6152013 6146121 6147042 6154881 6168198 
3673.589 6184366 6199858 6211253 6215866 6212440 6201618 6185375 6166647 
3677.447 6148221 6131970 6118439 6106856 6095751 6083758 6070027 6054912 
3681.304 6039555 6025412 6013697 6004832 5998294 5993049 5988016 5982653 
3685.161 5977201 5972760 5970664 5972155 5977754 5987160 5998852 6010942 
3689.019 6021092 6027362 6028492 6024215 6015277 6003466 5991018 5980322 
3692.876 5973102 5969969 5970305 5972214 5973223 5971232 5965008 5954920 
3696.734 5942758 5931166 5922914 5919783 5922093 5928639 5936877 5943769 
3700.591 5946604 5943550 5934144 5919417 5901493 5883145 5867317 5856192 
3704.448 5850973 5851314 5855576 5861025 5864704 5864180 5858230 5847335 
3708.306 5833279 5818710 5806216 5797759 5793976 5794589 5798580 5804878 
3712.163 5812798 5822148 5833083 5845807 5860066 5875210 5890257 5904148 
3716.021 5916051 5925798 5933670 5940343 5946558 5952954 5959835 5967220 
3719.878 5974886 5982529 5989662 5995710 5999917 6001552 5999833 5994324 
3723.736 5985050 5972663 5958391 5944169 5932094 5924026 5921308 5924330 
3727.593 5932487 5944223 5957385 5969769 5979656 5986045 5988898 5989081 
3731.450 5987700 5986011 5984846 5984580 5985173 5986305 5987644 5988892 
3735.308 5989729 5989680 5988218 5984907 5979499 5972574 5965442 5959800 
3739.165 5957484 5959448 5965448 5973841 5981980 5987278 5987921 5983816 
3743.023 5976727 5969429 5965167 5966178 5972919 5984052 5996861 6008387 
3746.880 6016271 6019416 6018194 6014161 6009663 6007008 6008103 6014058 
3750.738 6024863 6039580 6056326 6072859 6086959 6096931 6102117 6103017 
3754.595 6101101 6098244 6096262 6096231 6098421 6102163 6106539 6110593 
3758.452 6113743 6115872 6117226 6117945 6118031 6117237 6115409 6112440 
3762.310 6108514 6104055 6099259 6093944 6087333 6078377 6066119 6050427 
3766.167 6032169 6013234 5996162 5983244 5975774 5973676 5975244 5977977 
3770.025 5978975 5975995 5968000 5955610 5940730 5926248 5915393 5910938 
3773.882 5914520 5926283 5944546 5966435 5988242 6006669 6019637 6026976 
3777.740 6030290 6032461 6036518 6044536 6056845 6072095 6087908 6101699 
3781.597 6111957 6118498 6122374 6125392 6128840 6133395 6138550 6143081 
3785.454 6145869 6146339 6144621 6141509 6137812 6133994 6129863 6124910 
3789.312 6118614 6111066 6103124 6096328 6092437 6092703 6097612 6106680 
3793.169 6118646 6131923 6144979 6156644 6166002 6172503 6175938 6176174 
3797.027 6173498 6168378 6161610 6153876 6145577 6136676 6126896 6115743 
3800.884 6103243 6090021 6077606 6067883 6062665 6062951 6068752 6078936 
3804.741 6091778 6105383 6118234 6129151 6137544 6142878 6144808 6143203 
3808.599 6138232 6130927 6123046 6116879 6114588 6117379 6124979 6135585 
3812.456 6146323 6154180 6157253 6155107 6149117 6141723 6135546 6132465 
3816.314 6133095 6136640 6141719 6146957 6151515 6155259 6158506 6161555 
3820.171 6164355 6166120 6165952 6162932 6156718 6147637 6136663 6125028 
3824.029 6113929 6104263 6096710 6091839 6090266 6092664 6099456 6110419 
3827.886 6124479 6139280 6151925 6159204 6158768 6149799 6133255 6111968 
3831.743 6089824 6070875 6058299 6053779 6057109 6066368 6078713 6091049 
3835.601 6100910 6106885 6108998 6108380 6106905 6106499 6108730 6114288 
3839.458 6123039 6134156 6146517 6159158 6171342 6182670 6192971 6202007 
3843.316 6209406 6214653 6217178 6216542 6212629 6205750 6196583 6186025 
3847.173 6175240 6165301 6157435 6152703 6152072 6156163 6164836 6176926 
3851.031 6190422 6202479 6210288 6211676 6206001 6194218 6178908 6163370 
3854.888 6150653 6142663 6139893 6141377 6145392 6150070 6154009 6156475 
3858.745 6157404 6156873 6155202 6152428 6148685 6144304 6139922 6136587 
3862.603 6135522 6137562 6143162 6151816 6162532 6173942 6184611 6193503 
3866.460 6200018 6203715 6204342 6201818 6196075 6187471 6176924 6165949 
3870.318 6156395 6149978 6147685 6149475 6154220 6159977 6164511 6166104 
3874.175 6163928 6158278 6150427 6142403 6136214 6133635 6135583 6142222 
3878.032 6152740 6165595 6178839 6190567 6199286 6204337 6206163 6206066 
3881.890 6205836 6207021 6210595 6216198 6222377 6227008 6227835 6223426 
3885.747 6213579 6199402 6183099 6167128 6153452 6143154 6136112 6131194 
3889.605 6126984 6121849 6115056 6106592 6097469 6089229 6083726 6082487 
3893.462 6086504 6095804 6109641 6126534 6144716 6162450 6178395 6191976 
3897.320 6203269 6212838 6221673 6230858 6241253 6253339 6267118 6281988 
3901.177 6296823 6309890 6319339 6323421 6320995 6312070 6297786 6280320 
3905.034 6262542 6246882 6235059 6227329 6222848 6220030 6217320 6213909 
3908.892 6210040 6206844 6205822 6207984 6213642 6221761 6230595 6238019 
3912.749 6242365 6242731 6239276 6233036 6225583 6218599 6213796 6212595 
3916.607 6215891 6224073 6236915 6253332 6271329 6288563 6302529 6311269 
3920.464 6313731 6310004 6301261 6289430 6276449 6264195 6253975 6246746 
3924.322 6243077 6243223 6247283 6254729 6264578 6275403 6285258 6292431 
3928.179 6295795 6295001 6290750 6284430 6277663 6271989 6268299 6266852 
3932.036 6267337 6268956 6270753 6271900 6271574 6269286 6264888 6258677 
3935.894 6251490 6244519 6239155 6236537 6237138 6240581 6245501 6250029 
3939.751 6252187 6250164 6243142 6230973 6214590 6195496 6175763 6157666 
3943.609 6143453 6135008 6133577 6139381 6151498 6167835 6185614 6201921 
3947.466 6214559 6222316 6225300 6224786 6222492 6220050 6218624 6218704 
3951.323 6220428 6223562 6227961 6233419 6239707 6246269 6252248 6256596 
3955.181 6258610 6258110 6255746 6252783 6250717 6250664 6253083 6257695 
3959.038 6263844 6270946 6279114 6288982 6301523 6317158 6335384 6354367 
3962.896 6371326 6383344 6388277 6385591 6376567 6363778 6350142 6338221 
3966.753 6329174 6322744 6317730 6312497 6305695 6296789 6286055 6274282 
3970.611 6262657 6252217 6243834 6238221 6235894 6237032 6241557 6248634 
3974.468 6257012 6265036 6271204 6274657 6275663 6275399 6275955 6279449 
3978.325 6287442 6300165 6316750 6335187 6353054 6368192 6379295 6385912 
3982.183 6388657 6388335 6385974 6382145 6377014 6370432 6362284 6352643 
3986.040 6342260 6332218 6323968 6318800 6317590 6320506 6326876 6335429 
3989.898 6344859 6353868 6361920 6369094 6376163 6384027 6393417 6404458 
3993.755 6416297 6427373 6435551 6438787 6435580 6425418 6408979 6388192 
3997.613 6365948 6345474 6330135 6322544 6324240 6335105 6353672 
##END=
