##TITLE=Bambu-Lab_PLA_Beige_Filament_r4_ATR-Corrected
##JCAMP-DX=5.01  $$ Nicolet v. 1
##DATATYPE=INFRARED SPECTRUM
##ORIGIN=Curtin University
##OWNER=Nicolet
##LONGDATE=2024/07/03
##TIME=10:57:21
##SPECTROMETER/DATA SYSTEM=Nicolet iS50
##DATA PROCESSING=
Ratio against background
%Transmittance->Absorbance
ATR Correction
Truncated
ElementMultiply or ElementDivide
##COMMENTS=
Number of sample scans: 32
Collection length: 47.28 sec
Sample gain: 1.0
Background collected on: Wed Jul 03 10:55:43 2024 (GMT+08:00);
Number of background scans: 32
Background gain: 1.0
Sample spacing:  1.000
Number of scan points: 16672
Resolution points: 8192
Number of FFT points: 65536
Apodization: N-B strong;
Phase correction: Mertz;
Laser frequency: 15798.3 cm-1
Number of rejected sample scans: 0
Number of rejected background scans: 0
Bench serial number: AUP1200105;
##RESOLUTION=4.000
##XUNITS=1/CM
##YUNITS=ABSORBANCE
##FIRSTX=400.163452
##LASTX=4000.187744
##FIRSTY=0.065076
##MAXX=4000.187744
##MINX=400.163452
##MAXY=1.098025
##MINY=-0.035431
##XFACTOR=1.000000
##YFACTOR=1.000000E-008
##NPOINTS=7468
##DELTAX=0.482125
##ZPD=8192
##XYDATA=(X++(Y..Y))
400.163 6507561 6404415 6284357 6143071 5980065 5801658 5619932 5450288 
404.020 5307479 5201717 5135911 5105122 5097840 5099524 5096397 5078969 
407.877 5043726 4992565 4930613 4863523 4795538 4728815 4664006 4601664 
411.734 4543269 4491381 4448620 4415849 4390679 4367030 4336273 4289782 
415.591 4222173 4133837 4031898 3928924 3839758 3777600 3750320 3758672 
419.448 3796425 3852557 3914448 3971040 4014767 4042242 4053345 4049966 
423.305 4034686 4009902 3977656 3939718 3897573 3852380 3804663 3754242 
427.162 3700513 3643142 3582929 3522340 3465373 3416632 3379942 3356957 
431.019 3346658 3345662 3349601 3354562 3358726 3362308 3367090 3375215 
434.876 3387846 3404596 3423735 3443241 3461997 3480604 3501274 3526872 
438.733 3559457 3598988 3642745 3685681 3721824 3745842 3754596 3748013 
442.590 3729105 3703279 3677385 3658437 3652628 3664507 3696441 3748442 
446.447 3818230 3901677 3993345 4087138 4176917 4256976 4322339 4368968 
450.304 4394066 4396412 4376739 4338004 4285127 4224257 4161439 4101184 
454.161 4045492 3993689 3943290 3891676 3837734 3783046 3731877 3690090 
458.017 3663179 3654478 3664047 3688691 3723204 3762110 3801315 3838942 
461.874 3875221 3911433 3948631 3986136 4021993 4052329 4072516 4078271 
465.731 4066527 4035972 3987138 3922174 3844463 3758237 3668036 3578163 
469.588 3492121 3412069 3338612 3270962 3207419 3146125 3085817 3026263 
473.445 2968198 2913028 2862107 2816228 2775322 2738615 2705051 2673824 
477.302 2644749 2618285 2595209 2576045 2560525 2547360 2534358 2518945 
481.159 2498967 2473340 2442447 2408100 2372997 2339948 2311034 2287092 
485.016 2267632 2251212 2236130 2221154 2206046 2191560 2179113 2170072 
488.873 2165096 2163718 2164375 2164862 2163046 2157579 2148390 2136694 
492.730 2124673 2114779 2109091 2108520 2113113 2121532 2131599 2140814 
496.587 2146964 2148608 2145499 2138617 2129930 2121965 2117097 2116949 
500.444 2121934 2131190 2142839 2154571 2164257 2170408 2172327 2169963 
504.301 2163541 2153284 2139364 2122107 2102359 2081794 2062838 2048243 
508.158 2040291 2039991 2046626 2057744 2069903 2079613 2084334 2083115 
512.015 2076583 2066453 2054704 2042832 2031500 2020619 2009736 1998547 
515.871 1987230 1976422 1966950 1959435 1954117 1950787 1949123 1948967 
519.728 1950531 1954313 1960774 1969828 1980615 1991496 2000427 2005592 
523.585 2005981 2001681 1993795 1983820 1973599 1964425 1957091 1952131 
527.442 1950200 1952301 1959789 1973977 1995523 2023956 2057510 2093418 
531.299 2128673 2160848 2188687 2212252 2232491 2250450 2266495 2279846 
535.156 2288624 2290410 2283094 2265632 2238537 2203839 2164694 2124695 
539.013 2087293 2055223 2030263 2013045 2002975 1998274 1996085 1992860 
542.870 1984986 1969493 1944852 1911413 1871430 1828593 1787168 1751000 
546.727 1722810 1703758 1693571 1690904 1693890 1700531 1708981 1717575 
550.584 1724870 1729632 1730951 1728338 1721837 1711945 1699597 1685913 
554.441 1672158 1659632 1649702 1643628 1642614 1647275 1657314 1671375 
558.298 1687120 1701788 1712885 1718986 1720100 1717625 1713717 1710420 
562.155 1708868 1708907 1709335 1708482 1705170 1699226 1691746 1684717 
566.012 1680316 1680160 1684931 1694201 1706825 1721358 1736515 1751356 
569.869 1765307 1777996 1789126 1798382 1805502 1810285 1812659 1812641 
573.725 1810334 1805952 1799978 1793337 1787511 1784516 1786545 1795371 
577.582 1811838 1835388 1864048 1894884 1924657 1950680 1971365 1986461 
581.439 1996809 2003865 2009154 2013772 2018249 2022519 2026131 2028503 
585.296 2029186 2028010 2025297 2021869 2019030 2018256 2020826 2027363 
589.153 2037523 2049921 2062470 2073029 2080051 2083222 2083469 2082673 
593.010 2082906 2085709 2091576 2099887 2109375 2118734 2127223 2134975 
596.867 2142797 2151789 2162746 2175796 2190339 2205273 2219474 2232163 
600.724 2243134 2252709 2261602 2270581 2280405 2291711 2305053 2320954 
604.581 2339917 2362277 2388166 2417354 2449250 2482968 2517414 2551436 
608.438 2583959 2614057 2641113 2664898 2685686 2704264 2721747 2739315 
612.295 2757809 2777415 2797494 2816707 2833428 2846244 2854486 2858462 
616.152 2859385 2859037 2859250 2861477 2866550 2874687 2885672 2899178 
620.009 2914958 2932946 2953195 2975708 3000308 3026542 3053732 3081079 
623.866 3107820 3133387 3157511 3180206 3201758 3222578 3243093 3263627 
627.723 3284340 3305259 3326404 3347853 3369926 3393063 3417749 3444204 
631.579 3472226 3501009 3529312 3555791 3579420 3599907 3617885 3634757 
635.436 3652288 3672076 3695047 3721207 3749673 3778937 3807247 3832915 
639.293 3854653 3871593 3883469 3890624 3894072 3895460 3896913 3900588 
643.150 3908166 3920338 3936542 3954993 3973274 3989038 4000827 4008574 
647.007 4013604 4018201 4024892 4035636 4051269 4071427 4094748 4119422 
650.864 4143728 4166425 4186997 4205592 4222849 4239665 4256949 4275389 
654.721 4295275 4316381 4337993 4359049 4378533 4395834 4411155 4425692 
658.578 4441439 4460789 4485912 4518162 4557740 4603735 4654508 4708295 
662.435 4763745 4820316 4878294 4938439 5001576 5068065 5137411 5208221 
666.292 5278267 5344805 5404982 5456233 5496637 5525139 5541644 5546945 
670.149 5542530 5530274 5512140 5489887 5464938 5438298 5410710 5382770 
674.006 5355172 5328788 5304705 5284119 5268190 5257789 5253298 5254504 
677.863 5260548 5270006 5281142 5292204 5301704 5308789 5313369 5316115 
681.720 5318174 5320853 5325258 5331979 5341043 5352036 5364373 5377609 
685.577 5391640 5406707 5423264 5441671 5461970 5483760 5506227 5528407 
689.433 5549448 5568855 5586609 5603057 5618705 5633980 5648978 5663398 
693.290 5676589 5687707 5695989 5700943 5702537 5701281 5698204 5694713 
697.147 5692409 5692739 5696805 5705027 5717052 5731777 5747558 5762589 
701.004 5775314 5784769 5790742 5793676 5794400 5793690 5791969 5789111 
704.861 5784546 5777503 5767401 5754063 5737872 5719529 5699843 5679329 
708.718 5658069 5635676 5611524 5585047 5555908 5524162 5490138 5454199 
712.575 5416552 5377046 5335247 5290555 5242391 5190330 5134096 5073489 
716.432 5008260 4938049 4862443 4781170 4694292 4602314 4506252 4407440 
720.289 4307328 4207311 4108582 4012149 3918901 3829638 3745108 3665911 
724.146 3592424 3524805 3463063 3407299 3357902 3315776 3282274 3259065 
728.003 3247780 3249653 3265324 3294792 3337535 3392825 3459928 3538249 
731.860 3627340 3726717 3835672 3953120 4077565 4207138 4339800 4473503 
735.717 4606445 4737157 4864680 4988500 5108572 5225106 5338403 5448645 
739.574 5555733 5659253 5758682 5853578 5943930 6030246 6113539 6195046 
743.431 6275892 6356776 6437868 6518940 6599716 6680265 6761234 6843838 
747.287 6929527 7019575 7114614 7214407 7317925 7423591 7529713 7634805 
751.144 7737757 7837753 7934103 8025917 8111892 8190159 8258281 8313387 
755.001 8352444 8372621 8371732 8348644 8303597 8238169 8155019 8057283 
758.858 7947919 7829136 7702172 7567452 7425065 7275352 7119290 6958579 
762.715 6795417 6632002 6470166 6311156 6155769 6004626 5858538 5718541 
766.572 5585793 5461133 5344739 5235833 5132849 5033778 4936724 4840325 
770.429 4743994 4647807 4552218 4457696 4364592 4273056 4183156 4095025 
774.286 4008979 3925422 3844697 3766989 3692242 3620236 3550676 3483296 
778.143 3417812 3353813 3290666 3227459 3163233 3097286 3029543 2960713 
782.000 2892147 2825419 2761744 2701436 2643780 2587241 2530090 2471070 
785.857 2409899 2347339 2284908 2224218 2166416 2111826 2059996 2010033 
789.714 1961100 1912806 1865277 1819038 1774667 1732562 1692787 1655260 
793.571 1619992 1587286 1557794 1532359 1511618 1495650 1483789 1474666 
797.428 1466549 1457786 1447254 1434665 1420615 1406381 1393563 1383704 
801.285 1377884 1376486 1379092 1384476 1391004 1396872 1400539 1401101 
805.141 1398506 1393495 1387337 1381363 1376503 1372987 1370282 1367359 
808.998 1363164 1357090 1349330 1340867 1333214 1327912 1326005 1327684 
812.855 1332296 1338493 1344756 1349785 1352871 1353915 1353360 1351844 
816.712 1350026 1348342 1347105 1346571 1347128 1349350 1353935 1361495 
820.569 1372275 1385917 1401424 1417269 1431677 1443088 1450445 1453416 
824.426 1452445 1448513 1442910 1436925 1431665 1427927 1426236 1426861 
828.283 1429908 1435353 1443057 1452777 1464196 1477025 1491037 1506175 
832.140 1522557 1540409 1559966 1581314 1604414 1629019 1654802 1681507 
835.997 1709159 1738098 1769015 1802875 1840710 1883494 1931976 1986635 
839.854 2047677 2115058 2188531 2267660 2351819 2440193 2531803 2625481 
843.711 2719940 2813797 2905538 2993525 3075968 3150980 3216718 3271655 
847.568 3314856 3346361 3367326 3380137 3388144 3395405 3406190 3424617 
851.425 3454339 3498452 3559419 3639137 3738971 3859672 4001333 4163342 
855.282 4344459 4542932 4756789 4984033 5222707 5470827 5726161 5985882 
859.139 6246480 6503834 6753601 6991826 7215515 7423050 7614175 7789667 
862.995 7950724 8098373 8233045 8354475 8461939 8554567 8631653 8692838 
866.852 8737949 8766794 8779101 8774374 8752170 8712236 8654755 8580376 
870.709 8490065 8384862 8265676 8133251 7988228 7831321 7663446 7485764 
874.566 7299479 7105670 6905202 6698718 6486907 6270754 6051763 5831925 
878.423 5613556 5398855 5189716 4987532 4793319 4608012 4432657 4268624 
882.280 4117427 3980520 3858991 3753401 3663775 3589836 3531181 3487439 
886.137 3458182 3442696 3439747 3447486 3463500 3485235 3510370 3537216 
889.994 3564770 3592581 3620409 3647824 3674059 3698045 3718667 3735118 
893.851 3747068 3754769 3758873 3760134 3759288 3756849 3753200 3748618 
897.708 3743403 3737801 3731988 3725957 3719537 3712543 3704981 3697207 
901.565 3690069 3684713 3682322 3683789 3689459 3699010 3711614 3726247 
905.422 3741877 3757750 3773438 3788726 3803565 3817853 3831466 3844231 
909.279 3855938 3866399 3875367 3882539 3887586 3890175 3890125 3887508 
913.136 3882720 3876405 3869331 3862163 3855281 3848665 3841879 3834213 
916.993 3824857 3813009 3798101 3779881 3758508 3734564 3709038 3683221 
920.849 3658464 3635910 3616213 3599401 3584865 3571587 3558468 3544661 
924.706 3529812 3514080 3497936 3481899 3466389 3451562 3437391 3423934 
928.563 3411400 3400370 3391587 3385776 3383364 3384348 3388195 3394076 
932.420 3401090 3408498 3415827 3422914 3429717 3436216 3442293 3447793 
936.277 3452565 3456651 3460322 3464156 3468879 3475301 3484142 3495966 
940.134 3511154 3529879 3552194 3578003 3607150 3639409 3674583 3712524 
943.991 3753190 3796700 3843221 3892922 3945849 4001874 4060641 4121689 
947.848 4184605 4249139 4315274 4383310 4453704 4526946 4603319 4682764 
951.705 4764824 4848548 4932553 5015122 5094219 5167598 5232903 5287794 
955.562 5330121 5358122 5370596 5367083 5347844 5313856 5266595 5207898 
959.419 5139795 5064422 4984024 4901021 4818015 4737714 4662688 4595025 
963.276 4536060 4486095 4444462 4409720 4380179 4354338 4331246 4310565 
967.133 4292362 4276736 4263454 4251752 4240414 4228160 4214132 4198254 
970.990 4181390 4165136 4151334 4141518 4136463 4136034 4139346 4145194 
974.847 4152525 4160860 4170401 4182000 4196823 4216007 4240370 4270268 
978.703 4305513 4345558 4389611 4436828 4486404 4537736 4590409 4644231 
982.560 4699231 4755573 4813502 4873272 4935072 4999040 5065221 5133580 
986.417 5203988 5276256 5350118 5425354 5501728 5579313 5658489 5740035 
990.274 5824966 5914342 6008881 6108774 6213416 6321631 6431868 6542679 
994.131 6653113 6762969 6872758 6983585 7096743 7213435 7334529 7460555 
997.988 7591753 7728258 7870153 8017599 8170753 8329779 8494872 8666376 
1001.845 8844849 9031194 9226598 9432413 9649812 9879623 10122085 10376942 
1005.702 10643643 10921711 11211045 11512074 11825708 12153061 12495041 
1009.077 12852030 13223739 13609293 14007469 14417094 14837192 15267079 
1012.452 15706113 16153418 16607550 17066302 17526858 17985970 18440432 
1015.826 18887294 19324066 19748672 20159348 20554570 20933152 21294524 
1019.201 21639028 21968178 22284510 22591196 22891272 23186982 23479312 
1022.576 23768080 24052430 24331636 24605938 24877002 25147932 25422826 
1025.951 25706178 26002130 26314310 26645768 26999298 27377612 27783590 
1029.326 28220022 28689268 29192850 29731094 30303160 30907172 31540594 
1032.702 32200440 32883448 33585988 34303956 35032540 35766228 36498836 
1036.077 37223676 37933740 38621700 39280044 39901188 40477720 41002716 
1039.452 41470228 41875592 42215668 42488800 42694576 42833580 42907168 
1042.827 42917420 42866980 42759044 42597192 42385148 42126556 41825016 
1046.203 41484120 41107872 40701092 40269680 39820556 39361364 38899660 
1049.578 38442260 37994392 37559448 37138980 36733152 36341368 35963144 
1052.953 35598584 35248740 34915468 34601192 34308228 34038440 33792996 
1056.328 33572556 33377758 33209916 33071724 32967836 32904804 32890892 
1059.704 32935310 33047438 33236002 33508548 33871020 34327720 34881224 
1063.079 35532556 36281176 37125088 38060960 39084364 40190052 41372196 
1066.454 42624696 43941132 45314688 46738000 48203056 49701352 51224368 
1069.829 52764080 54313452 55866604 57418548 58964752 60500400 62020160 
1073.205 63518272 64989168 66427840 67830368 69193640 70514672 71789880 
1076.580 73014512 74182640 75287560 76322568 77281352 78157776 78945600 
1079.955 79637712 80226296 80703112 81061024 81295088 81403384 81387008 
1083.330 81249200 80994392 80627408 80153544 79579136 78912064 78162128 
1086.706 77340528 76459016 75528624 74559112 73558696 72534656 71493648 
1090.081 70442280 69386736 68332576 67283912 66243328 65211876 64189584 
1093.456 63176124 62171216 61174668 60186232 59205436 58231400 57263172 
1096.831 56300212 55342692 54391716 53449036 52516396 51594800 50684148 
1100.207 49783268 48890380 48003848 47122932 46248116 45381128 44524528 
1103.582 43681232 42854144 42046036 41259660 40497928 39764084 39061592 
1106.957 38393964 37764476 37175816 36630036 36128488 35672008 35260912 
1110.332 34895164 34574252 34297204 34062700 33869052 33714384 33596880 
1113.708 33514768 33466432 33450204 33464364 33507082 33576660 33671628 
1117.083 33791108 33934900 34103516 34297900 34519152 34768144 35045184 
1120.458 35349888 35680956 36036132 36411976 36803844 37205724 37610296 
1123.833 38009124 38392996 38752356 39077748 39360160 39591360 39764284 
1127.208 39873316 39914708 39886832 39790312 39627700 39403020 39120908 
1130.584 38785772 38401280 37970012 37493540 36972764 36408336 35801060 
1133.959 35152028 34462776 33735140 32971216 32173296 31343820 30485460 
1137.334 29601138 28694228 27768580 26828740 25879846 24927702 23978600 
1140.709 23038950 22114984 21212378 20335952 19489692 18676694 17899370 
1144.085 17159698 16459346 15799709 15181851 14606354 14073205 13581796 
1147.460 13131084 12719719 12346377 12009736 11708640 11441945 11208370 
1150.835 11006402 10834254 10689874 10571053 10475560 10401246 10346168 
1154.210 10308665 10287456 10281822 10291558 10317034 10359064 10418659 
1157.586 10496785 10594144 10711115 10847811 11004327 11181031 11378819 
1160.961 11599165 11844238 12116721 12419730 12756674 13131250 13547492 
1164.336 14009683 14522506 15091035 15720662 16417176 17186784 18036140 
1167.711 18972400 20003068 21135872 22378442 23737994 25220948 26832572 
1171.087 28576642 30454994 32467120 34609456 36874840 39251824 41724028 
1174.462 44269556 46860736 49463768 52038932 54541248 56921892 59130568 
1177.837 61118816 62843584 64270824 65378028 66155432 66605808 66742872 
1181.212 66589172 66173504 65528732 64689620 63691072 62566792 61348188 
1184.588 60063688 58738448 57394196 56049256 54718696 53414376 52145220 
1187.963 50917404 49734808 48599584 47512808 46475016 45486676 44548456 
1191.338 43660980 42824808 42039908 41305588 40620300 39981924 39387972 
1194.713 38835900 38323384 37848412 37409220 37004252 36632032 36291192 
1198.089 35980448 35698668 35444828 35217824 35016272 34838312 34681448 
1201.464 34542628 34418484 34305732 34201404 34103152 34009108 33917928 
1204.839 33828316 33738832 33647632 33552482 33450698 33339434 33215806 
1208.214 33077112 32921054 32745904 32550552 32334500 32097716 31840470 
1211.590 31563062 31265720 30948480 30611372 30254624 29878944 29485666 
1214.965 29076788 28654764 28222262 27781778 27335424 26884892 26431588 
1218.340 25976812 25521946 25068534 24618162 24172254 23731930 23297812 
1221.715 22870200 22449230 22035158 21628550 21230172 20840914 20461506 
1225.091 20092248 19733014 19383300 19042524 18710284 18386556 18071734 
1228.466 17766496 17471612 17187766 16915414 16654833 16406076 16169141 
1231.841 15943813 15729688 15526107 15332155 15146741 14968811 14797530 
1235.216 14632502 14473705 14321382 14175853 14037281 13905492 13780031 
1238.592 13660325 13545798 13436155 13331415 13231853 13137873 13049757 
1241.967 12967512 12890749 12818858 12751049 12686674 12625356 12567100 
1245.342 12512287 12461528 12415422 12374435 12338740 12308222 12282575 
1248.717 12261518 12244927 12232967 12226106 12224909 12229952 12241564 
1252.093 12259753 12284169 12314239 12349343 12388902 12432498 12479863 
1255.468 12530829 12585181 12642686 12703070 12766109 12831721 12900041 
1258.843 12971345 13045906 13123836 13204828 13288078 13372245 13455608 
1262.218 13536301 13612550 13682802 13745864 13800806 13846911 13883552 
1265.594 13910143 13926232 13931531 13925992 13909826 13883418 13847107 
1268.969 13801095 13745199 13678873 13601235 13511238 13407892 13290481 
1272.344 13158639 13012466 12852465 12679513 12494758 12299506 12095168 
1275.719 11883090 11664453 11440147 11210696 10976397 10737347 10493807 
1279.094 10246389 9996255 9745111 9495129 9248494 9007094 8772304 8544811 
1282.952 8324840 8112481 7908005 7712266 7526690 7353091 7193450 7049450 
1286.809 6922202 6812221 6719461 6643602 6584280 6541180 6514101 6502852 
1290.667 6507082 6526150 6559028 6604308 6660280 6724976 6796261 6871954 
1294.524 6949879 7028040 7104677 7178380 7248109 7313229 7373348 7428314 
1298.382 7478088 7522692 7562308 7597241 7627934 7654926 7678791 7699965 
1302.239 7718694 7735026 7748746 7759584 7767281 7771719 7772985 7771346 
1306.096 7767237 7761189 7753710 7745249 7736016 7726071 7715149 7702832 
1309.954 7688653 7672297 7653730 7633434 7612289 7591470 7572241 7555565 
1313.811 7541986 7531594 7524024 7518705 7515140 7512920 7511791 7511586 
1317.669 7512049 7512758 7513139 7512638 7510911 7507996 7504394 7501003 
1321.526 7498904 7499204 7502729 7509940 7520918 7535464 7553143 7573486 
1325.384 7596053 7620520 7646738 7674795 7705024 7738019 7774568 7815514 
1329.241 7861586 7913333 7970931 8034290 8103031 8176592 8254491 8336197 
1333.098 8421327 8509570 8600723 8694632 8791271 8890713 8993238 9099233 
1336.956 9209185 9323562 9442783 9567089 9696539 9831084 9970553 10114770 
1340.813 10263528 10416680 10574102 10735773 10901786 11072418 11248145 
1344.188 11429652 11617596 11812532 12014643 12223742 12439131 12659842 
1347.564 12884824 13113089 13343835 13576463 13810347 14044704 14278376 
1350.939 14509749 14736889 14957722 15170233 15372702 15563694 15742132 
1354.314 15907089 16057806 16193496 16313429 16416939 16503488 16572811 
1357.689 16624954 16660474 16680470 16686687 16681394 16667205 16646746 
1361.065 16622283 16595490 16567263 16537805 16506851 16473863 16438200 
1364.440 16399159 16355707 16306306 16248687 16179852 16096303 15994458 
1367.815 15871201 15724371 15553273 15358832 15143813 14912874 14672601 
1371.190 14431517 14199932 13989609 13813157 13683133 13610932 13605605 
1374.566 13672808 13814016 14026241 14302230 14631060 14999104 15391020 
1377.941 15790883 16183156 16553475 16889294 17180174 17417852 17596088 
1381.316 17710496 17758314 17738286 17650636 17496962 17280274 17004816 
1384.691 16675924 16299936 15883912 15435386 14961965 14470774 13967983 
1388.067 13458373 12945248 12430614 11915700 11401463 10889100 10380288 
1391.442 9877185 9382248 8898026 8427028 7971722 7534563 7118123 6724832 
1395.299 6356960 6016202 5703434 5418582 5160733 4928277 4719325 4531874 
1399.157 4364077 4214298 4080971 3962593 3857617 3764410 3681437 3607208 
1403.014 3540436 3480034 3425014 3374473 3327516 3283285 3241080 3200448 
1406.872 3161322 3124007 3089043 3057011 3028347 3003243 2981571 2963029 
1410.729 2947305 2934209 2923681 2915724 2910285 2907169 2905907 2905960 
1414.586 2906808 2908128 2909866 2912191 2915367 2919613 2924916 2931197 
1418.444 2938360 2946470 2955903 2967297 2981323 2998539 3019102 3042764 
1422.301 3068890 3096729 3125679 3155455 3186128 3218153 3252170 3288848 
1426.159 3328820 3372627 3420749 3473546 3531390 3594550 3663303 3737880 
1430.016 3818593 3905948 4000579 4103342 4215147 4336972 4469799 4614785 
1433.874 4773349 4947445 5139547 5352618 5589928 5854717 6149991 6478465 
1437.731 6842491 7244220 7685613 8168203 8692777 9258918 9864565 10505931 
1441.588 11177502 11872391 12582801 13300313 14016375 14722520 15410700 
1444.964 16073626 16705006 17299610 17853358 18363018 18826192 19241114 
1448.339 19606884 19923454 20191812 20413692 20591266 20726682 20821642 
1451.714 20877116 20893464 20870464 20807560 20703950 20558662 20370590 
1455.089 20138650 19862094 19540962 19176242 18770148 18325778 17846882 
1458.465 17337386 16801370 16242944 15666482 15076521 14477716 13874547 
1461.840 13270964 12670240 12075129 11488137 10911807 10348988 9802677 
1465.215 9275730 8770556 8288920 7831932 7400462 6995287 6617273 6267327 
1469.073 5945895 5652610 5385897 5142953 4920042 4713032 4518120 4332364 
1472.930 4154108 3982940 3819541 3665110 3520980 3388155 3267113 3157697 
1476.787 3059344 2971216 2892468 2822412 2760519 2706325 2659219 2618343 
1480.645 2582502 2550295 2520324 2491439 2463003 2434817 2407125 2380340 
1484.502 2354835 2330828 2308376 2287472 2268138 2250512 2234833 2221279 
1488.360 2209868 2200376 2192333 2185113 2178093 2170819 2163020 2154602 
1492.217 2145624 2136216 2126496 2116639 2106771 2097062 2087568 2078268 
1496.074 2069000 2059511 2049567 2039121 2028343 2017707 2007748 1998972 
1499.932 1991595 1985515 1980289 1975392 1970467 1965405 1960478 1956180 
1503.789 1952993 1951108 1950284 1949907 1949072 1946945 1942956 1937029 
1507.647 1929473 1920977 1912286 1904120 1897005 1891281 1887064 1884286 
1511.504 1882712 1881921 1881263 1880036 1877545 1873296 1867146 1859453 
1515.362 1850924 1842593 1835486 1830406 1827716 1827190 1828252 1829975 
1519.219 1831483 1832049 1831351 1829373 1826408 1822872 1819069 1815217 
1523.076 1811362 1807386 1803168 1798662 1793884 1788998 1784156 1779546 
1526.934 1775348 1771698 1768701 1766497 1765114 1764511 1764447 1764498 
1530.791 1764122 1762719 1759787 1755076 1748559 1740457 1731126 1720934 
1534.649 1710232 1699357 1688649 1678547 1669599 1662337 1657213 1654405 
1538.506 1653691 1654590 1656364 1658410 1660300 1661929 1663418 1664907 
1542.364 1666355 1667483 1667764 1666706 1663990 1659741 1654475 1649076 
1546.221 1644518 1641565 1640622 1641700 1644498 1648623 1653660 1659390 
1550.078 1665676 1672466 1679688 1687120 1694462 1701413 1707689 1713160 
1553.936 1717874 1722042 1725927 1729783 1733624 1737304 1740288 1741849 
1557.793 1741064 1737121 1729451 1718067 1703568 1687144 1670300 1654563 
1561.651 1641046 1630296 1622076 1615660 1609914 1603810 1596640 1588320 
1565.508 1579327 1570579 1563107 1557761 1554977 1554653 1556194 1558667 
1569.365 1561067 1562552 1562564 1560983 1558016 1554130 1549779 1545350 
1573.223 1541062 1536996 1533061 1529305 1525904 1523254 1521883 1522343 
1577.080 1524989 1529902 1536791 1545107 1554109 1563064 1571350 1578511 
1580.938 1584224 1588354 1590860 1591849 1591626 1590715 1589862 1589836 
1584.795 1591340 1594706 1599837 1606095 1612530 1618129 1622100 1624144 
1588.653 1624448 1623691 1622711 1622260 1622838 1624609 1627406 1630977 
1592.510 1635005 1639353 1643920 1648739 1653869 1659359 1665259 1671715 
1596.367 1678820 1686689 1695289 1704330 1713322 1721527 1728277 1733167 
1600.225 1736234 1738029 1739456 1741487 1744830 1749728 1755875 1762637 
1604.082 1769366 1775733 1781885 1788435 1796091 1805430 1816485 1828598 
1607.940 1840665 1851422 1859827 1865488 1868655 1870212 1871337 1873131 
1611.797 1876291 1881039 1887118 1893987 1900985 1907582 1913474 1918626 
1615.655 1923243 1927703 1932451 1937940 1944380 1951805 1959881 1968011 
1619.512 1975467 1981587 1986004 1988788 1990523 1992099 1994577 1998749 
1623.369 2004960 2012989 2022044 2030993 2038691 2044252 2047249 2047773 
1627.227 2046509 2044534 2043158 2043679 2047201 2054433 2065611 2080475 
1631.084 2098334 2118335 2139578 2161409 2183449 2205618 2227925 2250380 
1634.942 2272764 2294525 2314859 2332874 2347787 2358982 2366145 2369119 
1638.799 2367762 2361928 2351403 2336020 2315880 2291512 2263998 2234930 
1642.656 2206120 2179438 2156275 2137495 2123161 2112678 2105003 2098941 
1646.514 2093444 2087837 2081861 2075686 2069665 2064321 2060098 2057398 
1650.371 2056553 2057779 2061206 2066810 2074288 2083050 2092263 2100958 
1654.229 2108298 2113790 2117406 2119599 2121205 2123174 2126382 2131345 
1658.086 2138190 2146630 2156072 2165883 2175440 2184379 2192575 2200152 
1661.944 2207388 2214667 2222343 2230672 2239734 2249450 2259514 2269546 
1665.801 2279139 2288009 2296133 2303726 2311237 2319221 2328181 2338403 
1669.658 2349924 2362595 2376060 2389957 2403978 2417941 2431708 2445296 
1673.516 2458658 2471829 2484814 2497658 2510437 2523191 2535913 2548569 
1677.373 2561113 2573574 2586129 2599196 2613309 2629059 2646864 2666821 
1681.231 2688672 2711807 2735442 2758867 2781575 2803409 2824515 2845288 
1685.088 2866224 2887851 2910658 2935125 2961643 2990481 3021646 3054819 
1688.946 3089321 3124277 3158836 3192541 3225553 3258727 3293416 3331098 
1692.803 3372952 3419536 3470663 3525593 3583257 3642810 3703747 3766140 
1696.660 3830430 3897153 3966690 4039182 4114533 4192623 4273545 4357765 
1700.518 4446124 4539668 4639360 4745803 4859125 4978992 5104727 5235658 
1704.375 5371266 5511410 5656339 5806682 5963229 6126932 6298613 6479097 
1708.233 6669099 6869367 7080563 7303401 7538384 7785863 8045854 8318025 
1712.090 8601654 8895699 9198963 9510152 9828128 10152062 10481382 10816017 
1715.948 11156209 11502519 11855524 12215703 12583296 12958251 13340364 
1719.323 13729544 14125986 14530580 14944781 15370686 15810688 16267301 
1722.698 16742875 17239630 17759762 18305614 18880010 19486302 20128352 
1726.073 20810538 21537470 22314050 23145094 24035526 24989956 26012874 
1729.448 27108374 28280410 29533192 30871556 32301524 33830344 35466056 
1732.824 37216548 39088248 41085024 43207772 45455052 47824424 50314272 
1736.199 52924520 55656564 58511336 61486756 64574952 67760544 71020536 
1739.574 74325792 77643472 80939464 84179912 87331728 90362712 93241952 
1742.949 95941064 98435736 100707008 102741352 104529168 106063328 107337752 
1746.325 108347880 109092152 109574016 109802472 109790912 109554504 
1749.218 109107152 108460032 107622040 106601736 105409848 104060496 
1752.111 102570512 100957168 99235568 97416864 95508240 93514336 91439480 
1755.486 89289624 87073376 84801824 82487944 80145560 77788752 75431432 
1758.861 73087264 70769072 68488688 66256148 64079292 61963992 59914576 
1762.237 57934272 56025820 54191484 52432688 50749744 49141536 47605792 
1765.612 46139644 44740452 43406360 42136300 40929572 39785036 38700224 
1768.987 37670972 36691488 35755100 34855104 33985360 33140984 32317996 
1772.362 31513262 30723872 29946870 29179200 28417850 27660086 26903742 
1775.738 26147372 25390094 24631556 23871790 23110970 22349512 21587924 
1779.113 20827104 20068302 19313402 18564726 17825160 17097742 16385540 
1782.488 15691161 15016718 14363490 13732229 13123059 12536073 11971364 
1785.863 11429385 10910837 10416693 9947859 9505023 9088363 8697654 8332283 
1789.721 7991511 7674580 7380886 7109727 6860141 6630572 6418792 6222114 
1793.578 6037815 5863631 5698340 5541783 5394671 5258081 5132740 5018495 
1797.436 4914239 4818117 4728052 4642452 4560587 4482506 4408866 4340335 
1801.293 4277061 4218386 4163055 4109403 4055962 4001762 3946603 3890876 
1805.150 3835457 3781277 3729172 3679746 3633343 3590095 3549958 3512659 
1809.008 3477720 3444420 3411874 3379161 3345393 3309832 3271978 3231413 
1812.865 3187858 3141178 3091558 3039718 2987174 2936248 2889985 2851635 
1816.723 2824020 2808571 2805066 2811241 2823233 2836363 2846140 2849019 
1820.580 2843083 2827982 2804909 2775878 2743348 2709758 2677259 2647424 
1824.438 2621302 2599199 2580789 2564960 2550082 2534162 2515293 2491956 
1828.295 2463496 2430096 2392788 2353156 2312923 2273608 2236194 2201200 
1832.152 2168661 2138363 2110050 2083367 2058050 2033645 2009584 1985162 
1836.010 1959706 1932699 1904054 1874182 1843976 1814520 1786984 1762210 
1839.867 1740638 1722208 1706495 1692871 1680712 1669577 1659341 1650149 
1843.725 1642450 1636705 1633315 1632245 1632971 1634109 1633786 1629691 
1847.582 1619797 1602671 1578199 1547678 1513773 1479933 1449718 1426065 
1851.439 1410603 1403408 1403174 1407444 1413228 1417628 1418215 1413480 
1855.297 1403038 1387644 1369248 1350496 1334423 1323525 1319387 1321889 
1859.154 1329415 1339055 1347580 1352136 1351232 1344897 1334556 1322268 
1863.012 1309987 1298818 1288945 1279650 1270183 1260102 1249716 1239936 
1866.869 1231783 1225795 1221500 1217429 1211634 1202473 1189304 1173038 
1870.727 1156099 1141570 1132437 1130439 1135569 1146013 1158630 1169800 
1874.584 1176553 1177164 1171560 1161136 1148229 1135299 1124471 1116956 
1878.441 1113104 1112235 1113284 1114668 1114841 1112170 1105258 1093092 
1882.299 1075487 1053346 1028912 1005610 987579 978649 981371 995970 1020323 
1886.638 1050217 1080618 1106988 1126517 1138555 1144417 1146144 1145643 
1890.496 1143407 1138820 1130481 1117418 1099934 1080016 1060691 1045142 
1894.353 1035168 1030911 1030557 1031728 1032525 1032597 1033311 1036916 
1898.211 1045326 1058743 1075247 1091234 1102784 1107142 1103701 1094053 
1902.068 1080844 1066423 1051609 1035403 1015667 990874 961013 928567 897523 
1906.408 872060 854468 844590 839280 834440 826608 815112 802296 793060 
1910.747 792531 803927 826767 856774 887025 910464 922380 921882 912333 
1915.087 900002 891914 893300 905785 926994 950839 969747 976659 967295 
1919.427 941273 902448 857355 813908 778880 756506 747467 749441 758200 
1923.766 769428 780232 790187 800547 813612 830631 851111 871929 888399 
1928.106 895427 889166 868288 834475 791667 745859 703317 670006 650360 
1932.445 646961 659276 683636 712900 737760 748285 737060 701393 644968 
1936.785 577523 512430 462944 438448 441611 468226 508807 552139 588346 
1941.125 611837 621152 618558 607949 593349 578051 564946 556778 556417 
1945.464 566398 587902 619667 657641 695638 727525 748439 756911 754153 
1949.804 743377 727585 708848 687291 662496 634457 605084 578117 558196 
1954.143 548741 550545 560839 574193 583692 583692 570309 543435 505148 
1958.483 460048 413724 372782 343985 333805 346861 384317 442172 511147 
1962.823 577691 627294 648064 634368 588379 519860 442452 371815 320089 
1967.162 295959 302429 338313 398702 476821 563510 649725 726823 789539 
1971.502 836619 872532 906046 948532 1009881 1097146 1212133 1352678 1513130 
1975.841 1685776 1860371 2023101 2155752 2237500 2249295 2181151 2037271 
1979.699 1837022 1611630 1396137 1220251 1102731 1046158 1040654 1067552 
1983.556 1107951 1148362 1184305 1218118 1254610 1294562 1332179 1354567 
1987.414 1346716 1297237 1204268 1077266 935256 801031 694805 628606 605070 
1991.753 617817 656773 711248 773253 837586 901263 960494 1010242 1043967 
1996.093 1055459 1040013 996452 926426 833714 721966 594409 453405 302633 
2000.432 148931 4315 -115099 -190944 -208326 -159427 -48161 110863 293941 
2004.772 474688 629620 744771 817916 858444 882945 908776 947998 1003525 
2009.112 1068778 1131897 1179105 1200308 1190585 1151370 1087709 1006775 
2012.969 913994 813450 707068 596974 487624 385830 300148 238857 206470 
2017.309 202057 217955 244021 269738 291105 311460 341996 396791 486831 
2021.648 612384 760015 903327 1009125 1047048 1000672 873412 690875 493444 
2025.988 326157 224674 205971 262907 369241 486546 577792 616596 594545 
2030.327 520024 414563 302871 208270 145911 123591 141547 196460 281840 
2034.667 390389 511913 634300 743321 825252 869850 872639 836758 771600 
2039.007 690280 605581 527688 463194 415536 387581 383106 407734 466123 
2043.346 559848 681949 817549 944026 1037463 1079824 1066018 1007095 928866 
2047.686 864000 842128 878198 967606 1086404 1200810 1278549 1299679 1261176 
2052.025 1176660 1070454 969874 897059 863449 867267 896109 932241 960416 
2056.365 971737 966302 951054 936069 929921 937122 956710 983660 1010520 
2060.705 1030529 1038590 1032559 1012690 981401 942108 898934 855311 813981 
2065.044 775778 740622 707458 676298 648839 629411 623928 638256 675084 
2069.384 732210 801810 872307 931377 970676 988022 988696 982781 981857 
2073.723 994374 1023356 1065499 1113960 1160651 1199838 1229092 1248676 
2077.581 1259847 1262953 1256640 1238829 1208037 1165940 1117247 1069458 
2081.438 1030056 1004065 992062 990568 993163 993672 988463 977680 964540 
2085.778 953609 948227 949201 954144 958951 958857 950840 933588 908003 
2090.117 875672 838542 797761 754311 708989 663620 620474 582486 552301 
2094.457 531883 522064 523099 534968 558262 593439 640527 697809 761302 
2098.797 824433 879517 919134 938396 936390 916371 885188 851837 825041 
2103.136 811794 815700 836935 871826 914580 957437 993067 1015212 1020357 
2107.476 1007988 980958 944677 906051 871996 848422 839005 845154 865555 
2111.815 896928 933834 969611 996952 1009237 1001691 972769 924628 863166 
2116.155 796243 731707 675022 628265 589413 554324 518681 480473 441057 
2120.495 404788 376792 360640 355908 357775 358245 349081 324547 283748 
2124.834 230568 172449 116865 69403 31178 -218 -29956 -63044 -103111 -150898 
2129.656 -205060 -262777 -321025 -376690 -426568 -467087 -494493 -505458 
2133.513 -499554 -480073 -455265 -436333 -434769 -457581 -505096 -569442 
2137.371 -637451 -694109 -728090 -734406 -715759 -680442 -639096 -600982 
2141.228 -572291 -555217 -550128 -556469 -574740 -606416 -652932 -714092 
2145.086 -787497 -868349 -951180 -1030670 -1103766 -1169517 -1229246 
2148.461 -1284835 -1339273 -1394784 -1454060 -1518941 -1591351 -1670901 
2151.836 -1756969 -1847597 -1942734 -2045558 -2164801 -2311734 -2498237 
2155.211 -2727389 -2987589 -3246145 -3452050 -3543079 -3463005 -3181276 
2158.587 -2709456 -2104817 -1456123 -856681 -377297 -51236 124269 176599 
2162.444 142556 57182 -51694 -162183 -259034 -329700 -365648 -363113 -326094 
2166.784 -264391 -193871 -129586 -83833 -62147 -64718 -87646 -127554 -182431 
2171.123 -252933 -338636 -436306 -536831 -626838 -690874 -718281 -706149 
2174.981 -662558 -603308 -546855 -506819 -488054 -484768 -485298 -477069 
2178.838 -452952 -412478 -362386 -311539 -266746 -228558 -191688 -146803 
2182.696 -86654 -8903 81232 173256 254479 315024 349821 359917 349917 326688 
2187.517 295536 260840 225030 191209 163052 145399 142161 155097 181482 
2191.857 214459 244592 263710 267718 259365 247803 246888 270010 326298 
2196.197 416278 531614 655863 769705 854504 898434 897712 858317 792964 
2200.536 718203 649370 597885 568780 561490 570380 588499 608754 626956 
2204.876 641058 651416 658652 663050 663026 655962 639174 611653 574852 
2209.215 533581 494568 465120 450496 452508 468805 494217 521710 546192 
2213.555 564583 577826 588995 602187 620239 644156 672001 700600 726168 
2217.895 746127 759074 765219 765089 759725 749592 735540 719023 702716 
2222.234 690172 685204 690428 706451 731156 760335 788591 811574 826857 
2226.574 835213 840053 846943 861195 887510 927234 979310 1039210 1100706 
2230.913 1156933 1202459 1234574 1254439 1266177 1276129 1289777 1310094 
2234.771 1335552 1360741 1377826 1379476 1361584 1325217 1276002 1222653 
2238.628 1173454 1134204 1106547 1088508 1076139 1066454 1057846 1051120 
2242.486 1047636 1048109 1051099 1053497 1051619 1043703 1031047 1018688 
2246.343 1013604 1022503 1049083 1092860 1148951 1210296 1269380 1320901 
2250.200 1361819 1391711 1411062 1420795 1421334 1413657 1399745 1383337 
2254.058 1369318 1362657 1366381 1380238 1400207 1420044 1432784 1433606 
2257.915 1421038 1397529 1368248 1339729 1317360 1304762 1302535 1309054 
2261.773 1321203 1335335 1348357 1358650 1366209 1373134 1382641 1398768 
2265.630 1424256 1459896 1503127 1548388 1588129 1614870 1623182 1611759 
2269.488 1583557 1545168 1504807 1470326 1447113 1437506 1440538 1453354 
2273.345 1471925 1492710 1512857 1530820 1545892 1558244 1568481 1577536 
2277.202 1586149 1595174 1604924 1615830 1628224 1643081 1661749 1685908 
2281.060 1716896 1754877 1798223 1843441 1885844 1920778 1944942 1957317 
2284.917 1959298 1954019 1944947 1934797 1924699 1914434 1903031 1889661 
2288.775 1874356 1857987 1841739 1826536 1812142 1797581 1781184 1761737 
2292.632 1738900 1713739 1688150 1664326 1644023 1628058 1616225 1607750 
2296.490 1601531 1596841 1593077 1589922 1586952 1583686 1579630 1574488 
2300.347 1568477 1562239 1556789 1553134 1551972 1553661 1558071 1564878 
2304.204 1573573 1583607 1594010 1603581 1610873 1614681 1614490 1611137 
2308.062 1606741 1604248 1606379 1614646 1628525 1645578 1662213 1675112 
2311.919 1682324 1684202 1683002 1682075 1684452 1691993 1704958 1722425 
2315.777 1742994 1765699 1790036 1815905 1842917 1870300 1896872 1922020 
2319.634 1946502 1973063 2005789 2048632 2103015 2166050 2229604 2281573 
2323.491 2308744 2300274 2250843 2162153 2042532 1904979 1764287 1633973 
2327.349 1523898 1438968 1379228 1340827 1318014 1304907 1296684 1290194 
2331.206 1283687 1276371 1267786 1257522 1245299 1231155 1215607 1199764 
2335.064 1185052 1172888 1164361 1159958 1159509 1162435 1167924 1175039 
2338.921 1183019 1191348 1199375 1206629 1212599 1216939 1219326 1219797 
2342.779 1218414 1215585 1211646 1206849 1201328 1195136 1188234 1180755 
2346.636 1172913 1165216 1158226 1152421 1148030 1145086 1143282 1142265 
2350.493 1141665 1141347 1141274 1141650 1142483 1143608 1144465 1144203 
2354.351 1141692 1136064 1126686 1113612 1097528 1079775 1061907 1045589 
2358.208 1031967 1021743 1014499 1009108 1003700 996110 984481 967714 945778 
2362.548 919975 892636 866572 844334 827865 817711 813240 812987 815113 
2366.887 818014 820837 823479 826495 830714 836700 844731 854499 865422 
2371.227 876682 887583 897722 906905 915212 922746 929679 936085 941937 
2375.567 947029 951098 953953 955538 956145 956570 957973 961691 968698 
2379.906 979385 992912 1007403 1020196 1028588 1030550 1025607 1014954 
2383.764 1001481 988859 980739 979661 986586 1000514 1018978 1038779 1056712 
2388.103 1070435 1079000 1082761 1083347 1082886 1083512 1086597 1092533 
2391.961 1100442 1108563 1114620 1116809 1114011 1106546 1095903 1084591 
2395.818 1075273 1070179 1070434 1075874 1084936 1095344 1104383 1109682 
2399.676 1109479 1103007 1090320 1072525 1051310 1028981 1007975 990734 
2403.533 979139 974448 977079 986606 1002059 1022117 1045423 1070799 1097206 
2407.873 1123719 1149362 1173197 1194358 1212075 1225915 1235915 1242152 
2411.730 1245021 1244736 1241603 1235735 1227615 1217786 1207257 1197081 
2415.587 1188189 1181002 1175530 1171083 1166959 1162551 1157945 1153695 
2419.445 1150821 1150110 1151904 1155572 1159614 1162004 1160855 1155097 
2423.302 1144937 1131940 1118981 1109323 1106060 1111088 1124771 1145385 
2427.160 1169598 1193077 1211435 1221362 1221556 1212947 1198610 1182771 
2431.017 1169787 1162696 1162788 1169089 1179314 1190490 1200317 1207717 
2434.875 1213040 1217492 1222533 1228786 1235800 1241960 1245107 1243155 
2438.732 1235029 1220810 1201829 1180228 1158517 1138910 1123224 1112505 
2442.589 1107262 1107358 1112190 1120691 1131619 1143641 1155735 1167204 
2446.447 1178129 1188789 1199733 1211142 1222621 1233221 1241715 1246870 
2450.304 1248249 1246095 1241591 1236247 1231476 1227921 1225284 1222252 
2454.162 1217138 1208246 1194737 1176897 1156388 1135908 1118779 1108072 
2458.019 1105887 1112804 1127570 1146972 1166880 1182629 1190660 1189203 
2461.876 1178837 1162308 1143903 1127803 1117110 1112716 1113438 1116387 
2465.734 1118562 1117889 1114350 1109720 1107285 1110120 1120097 1136793 
2469.591 1157782 1179188 1197088 1208715 1213207 1211539 1205826 1198265 
2473.449 1190386 1182413 1173775 1163476 1151151 1137322 1123822 1113054 
2477.306 1107391 1108236 1115670 1128103 1142849 1156582 1166243 1169569 
2481.164 1165766 1155362 1140260 1123125 1107051 1094481 1087186 1085543 
2485.021 1088681 1094698 1101434 1107124 1110960 1113432 1116322 1121778 
2488.878 1131944 1147867 1169268 1194161 1219544 1241904 1258121 1266209 
2492.736 1265878 1258350 1246332 1233082 1222093 1215883 1215960 1222241 
2496.593 1233512 1247358 1261226 1272599 1279788 1281937 1279495 1273648 
2500.451 1266308 1259435 1254757 1253036 1254117 1256497 1258099 1256277 
2504.308 1249174 1236152 1218434 1198924 1181844 1171123 1169694 1178100 
2508.166 1194675 1215746 1237099 1254991 1267389 1274104 1276293 1275444 
2512.023 1272522 1267233 1258574 1245404 1227641 1206715 1185827 1168894 
2515.880 1159437 1159289 1167948 1182663 1199563 1214615 1225067 1229800 
2519.738 1229436 1225585 1220254 1214929 1210574 1207223 1204733 1202470 
2523.595 1199936 1196572 1191904 1185628 1177955 1169382 1161263 1155181 
2527.453 1152863 1155470 1163589 1176836 1194096 1213636 1233442 1251257 
2531.310 1265009 1272523 1272358 1263967 1248230 1227634 1206100 1188000 
2535.167 1177265 1175977 1183981 1198598 1215831 1231212 1241574 1245612 
2539.025 1244249 1239924 1235836 1234352 1236995 1243523 1252557 1261784 
2542.882 1268841 1271459 1268410 1259415 1245592 1229284 1213773 1202540 
2546.740 1198545 1203235 1216229 1235274 1257037 1277923 1295445 1308385 
2550.597 1317124 1322839 1326802 1329483 1330590 1329001 1323798 1314723 
2554.455 1302742 1289893 1278778 1271816 1270745 1276023 1287175 1302757 
2558.312 1320954 1339598 1356655 1370288 1379108 1382323 1380298 1374310 
2562.169 1366585 1359648 1355855 1356798 1363038 1374039 1388856 1406143 
2566.027 1424782 1443697 1461874 1477879 1490184 1497079 1497593 1491654 
2569.884 1480501 1466661 1453128 1442595 1436539 1434952 1436456 1438823 
2573.742 1440026 1438767 1435053 1429894 1424803 1421162 1419786 1420588 
2577.599 1423076 1426621 1430963 1436406 1443688 1453249 1465127 1478129 
2581.457 1490287 1498983 1502151 1498702 1489640 1477426 1465868 1458637 
2585.314 1458328 1465508 1478718 1494912 1510846 1524006 1533652 1540702 
2589.171 1547269 1555256 1565560 1577185 1587665 1593690 1592715 1583777 
2593.029 1568303 1549679 1532533 1521177 1518679 1525865 1541511 1562520 
2596.886 1585032 1605165 1619905 1627314 1627005 1619714 1607214 1591793 
2600.744 1575948 1561873 1551361 1545320 1544050 1547134 1553770 1562744 
2604.601 1572816 1582569 1590802 1596350 1598652 1597545 1593530 1587682 
2608.458 1581306 1575673 1571756 1570074 1570829 1574075 1580103 1589205 
2612.316 1601770 1617695 1636210 1655587 1673629 1688014 1697156 1700662 
2616.173 1699577 1695868 1691859 1689310 1689014 1690708 1693441 1696263 
2620.031 1698681 1700933 1703828 1708100 1714155 1721475 1728973 1735238 
2623.888 1739265 1740794 1740646 1740330 1741656 1746032 1754103 1765492 
2627.746 1778983 1792922 1805603 1815819 1822987 1827181 1829093 1829455 
2631.603 1829099 1828415 1827500 1825956 1823356 1819327 1813940 1807753 
2635.460 1801723 1796934 1794379 1794574 1797396 1802253 1808319 1814725 
2639.318 1820813 1826345 1831264 1835511 1839091 1841757 1843295 1843595 
2643.175 1842873 1841669 1840732 1840738 1842249 1845115 1848792 1852158 
2647.033 1854011 1853136 1848748 1840587 1828964 1814787 1799304 1783943 
2650.890 1770112 1758883 1750844 1746040 1743984 1743855 1744690 1745542 
2654.748 1745663 1744336 1741223 1735893 1728104 1717756 1705011 1690351 
2658.605 1674453 1658078 1641834 1625872 1609844 1593061 1574871 1554756 
2662.462 1532902 1510160 1487691 1466863 1448660 1433393 1420769 1410029 
2666.320 1400314 1390793 1381233 1371653 1362419 1353987 1346725 1340937 
2670.177 1336892 1334761 1334832 1337312 1342282 1349601 1358796 1369178 
2674.035 1379833 1389919 1398574 1405107 1409040 1409976 1407833 1402690 
2677.892 1395121 1386015 1376474 1367722 1360691 1355797 1352985 1351593 
2681.750 1350838 1349930 1348456 1346369 1344002 1341698 1339734 1338049 
2685.607 1336246 1333830 1330388 1325800 1320301 1314494 1309199 1304956 
2689.464 1302262 1301098 1301205 1302096 1303322 1304511 1305484 1306142 
2693.322 1306512 1306574 1306248 1305344 1303673 1301034 1297437 1292890 
2697.179 1287645 1282002 1276284 1270773 1265757 1261498 1258297 1256468 
2701.037 1256340 1258102 1261765 1266941 1272997 1278983 1283885 1286904 
2704.894 1287523 1285732 1282018 1277143 1272221 1268086 1265573 1264991 
2708.751 1266378 1269280 1273036 1276694 1279272 1280136 1278838 1275468 
2712.609 1270680 1265517 1261217 1258814 1258992 1261762 1266524 1272233 
2716.466 1277736 1282067 1284725 1285662 1285372 1284361 1283341 1282576 
2720.324 1282183 1282055 1281945 1281607 1281077 1280283 1279442 1278629 
2724.181 1278007 1277631 1277611 1277982 1278912 1280517 1282789 1285656 
2728.039 1288844 1291923 1294528 1296339 1297281 1297537 1297400 1297236 
2731.896 1297355 1297822 1298619 1299562 1300451 1301138 1301560 1301725 
2735.753 1301497 1300846 1299636 1297756 1295188 1292114 1288783 1285487 
2739.611 1282456 1279699 1277052 1274284 1271230 1268011 1264983 1262697 
2743.468 1261588 1261910 1263520 1265865 1268284 1270355 1271921 1273221 
2747.326 1274704 1276732 1279386 1282280 1284806 1286266 1286445 1285482 
2751.183 1284169 1283307 1283559 1285001 1287153 1289038 1289762 1288632 
2755.041 1285591 1281175 1276055 1270906 1266005 1261286 1256456 1251310 
2758.898 1245941 1240764 1236462 1233500 1232089 1231869 1232260 1232632 
2762.755 1232607 1232267 1232159 1232883 1234893 1238237 1242434 1246688 
2766.613 1250138 1252171 1252621 1251700 1249971 1247973 1246290 1245255 
2770.470 1245166 1246291 1248781 1252850 1258470 1265262 1272520 1279160 
2774.328 1283981 1285969 1284474 1279593 1272119 1263405 1255145 1248816 
2778.185 1245536 1245566 1248490 1253396 1259030 1264462 1269207 1273431 
2782.042 1277704 1282743 1289013 1296442 1304452 1312101 1318438 1322911 
2785.900 1325492 1326580 1326884 1326880 1326867 1326770 1326392 1325790 
2789.757 1325411 1326052 1328702 1333971 1341992 1352017 1362815 1372877 
2793.615 1380940 1386319 1389143 1390095 1390203 1390481 1391714 1394354 
2797.472 1398626 1404474 1411836 1420429 1429945 1439888 1449778 1459185 
2801.330 1467759 1475378 1481957 1487316 1491201 1493197 1493012 1490625 
2805.187 1486610 1482076 1478548 1477474 1479865 1485938 1495056 1505920 
2809.044 1517024 1526908 1534646 1539794 1542435 1543020 1542341 1541360 
2812.902 1541351 1543569 1549215 1558849 1572360 1588626 1605865 1621995 
2816.759 1635268 1644818 1650825 1654381 1657031 1660202 1664842 1671160 
2820.617 1678750 1687045 1695541 1703956 1712260 1720511 1728689 1736623 
2824.474 1744124 1751143 1757947 1764962 1772825 1781937 1792411 1803869 
2828.332 1815740 1827408 1838604 1849339 1860087 1871308 1883284 1896057 
2832.189 1909379 1922973 1936793 1951181 1966892 1984682 2005115 2028176 
2836.046 2053264 2079273 2105058 2129775 2153271 2176282 2200224 2226947 
2839.904 2258235 2295477 2339352 2389792 2446071 2507074 2571839 2639691 
2843.761 2710724 2785753 2866148 2953486 3049042 3153167 3265123 3382810 
2847.619 3502919 3621251 3733188 3834232 3920266 3987906 4034939 4060138 
2851.476 4063528 4046251 4010313 3958486 3893784 3819226 3737701 3651808 
2855.333 3563990 3476467 3391302 3310211 3234431 3164491 3100179 3040615 
2859.191 2984728 2931661 2881130 2833541 2790055 2751940 2720279 2695564 
2863.048 2677476 2665063 2657040 2652174 2649536 2648538 2649060 2651233 
2866.906 2655366 2661810 2671170 2684106 2701564 2724277 2752862 2787387 
2870.763 2827457 2872256 2920660 2971680 3024543 3078908 3134681 3191719 
2874.621 3249730 3307914 3364959 3419337 3469424 3514027 3552639 3585534 
2878.478 3613745 3638585 3661325 3682642 3702337 3719268 3731673 3737639 
2882.335 3735815 3725890 3708761 3686541 3661985 3637760 3615943 3597467 
2886.193 3582216 3569214 3557163 3544993 3532031 3518407 3504859 3492547 
2890.050 3482891 3477259 3476904 3482625 3494643 3512324 3534280 3558466 
2893.908 3582507 3604458 3623161 3638585 3651962 3665166 3680164 3698303 
2897.765 3719831 3743932 3769154 3793884 3817141 3838745 3859606 3881074 
2901.623 3904494 3930723 3959884 3991234 4023705 4056244 4088186 4119519 
2905.480 4150889 4183373 4218224 4256522 4299161 4346572 4399016 4456539 
2909.337 4519282 4587504 4661757 4742696 4831186 4927892 5033217 5147024 
2913.195 5268739 5397015 5530142 5666068 5802778 5938343 6071075 6199634 
2917.052 6322919 6439873 6549620 6651182 6743595 6825835 6896966 6956283 
2920.910 7003353 7038082 7060849 7072301 7073498 7065624 7050138 7028688 
2924.767 7002955 6974843 6946186 6918590 6893173 6870383 6850076 6831518 
2928.625 6813876 6796630 6780109 6765344 6754192 6748800 6751109 6762474 
2932.482 6783423 6813927 6853655 6902346 6960117 7027496 7105370 7194386 
2936.339 7295195 7407880 7532292 7667873 7813801 7968750 8130640 8296536 
2940.197 8462667 8624679 8778227 8919530 9045816 9155297 9247053 9320332 
2944.054 9374171 9407173 9417776 9404676 9367625 9307779 9227728 9131101 
2947.912 9021762 8903119 8777644 8646787 8511353 8371868 8229248 8084868 
2951.769 7940494 7797971 7658825 7523936 7393552 7267177 7144136 7023863 
2955.626 6906125 6791257 6680170 6574187 6474577 6382282 6297488 6219341 
2959.484 6146092 6075472 6005270 5934016 5861383 5788316 5716836 5649006 
2963.341 5586593 5530188 5479323 5432601 5388402 5345412 5303018 5261207 
2967.199 5220491 5181281 5143727 5107770 5073366 5040729 5010752 4984740 
2971.056 4964176 4950240 4943308 4942872 4947635 4955889 4966052 4976934 
2974.914 4988128 4999839 5012886 5028369 5047571 5071736 5102019 5139269 
2978.771 5183917 5236025 5295390 5361912 5435800 5517886 5609301 5711413 
2982.628 5825019 5950057 6085398 6229106 6379218 6534419 6694622 6860967 
2986.486 7035482 7219974 7415412 7621146 7834915 8053125 8271704 8486533 
2990.343 8694025 8890951 9074587 9242328 9391920 9521624 9630359 9718000 
2994.201 9785134 9832728 9861466 9871576 9862737 9834402 9786527 9719937 
2998.058 9636672 9539679 9432300 9317347 9196740 9070987 8939622 8801388 
3001.916 8655225 8500316 8336644 8164803 7986034 7801962 7614494 7425593 
3005.773 7237287 7051309 6869086 6691342 6518499 6350424 6186976 6028035 
3009.630 5873735 5724351 5580193 5441442 5307825 5178778 5053480 4930896 
3013.488 4809943 4689674 4569314 4448199 4326281 4204119 4083074 3965266 
3017.345 3853066 3748622 3653176 3566565 3487187 3412462 3339666 3266590 
3021.203 3192558 3118134 3045225 2976011 2912486 2855686 2805599 2761265 
3025.060 2721281 2684039 2648156 2612578 2576416 2539107 2500376 2460407 
3028.917 2419792 2379608 2341170 2305603 2273599 2245077 2219269 2194970 
3032.775 2170892 2146137 2120450 2094156 2068105 2043235 2020517 2000430 
3036.632 1983201 1968572 1955972 1944586 1933473 1921816 1908878 1894395 
3040.490 1878602 1862120 1845942 1831089 1818389 1808068 1800054 1793654 
3044.347 1788110 1782810 1777458 1772155 1767311 1763407 1760739 1759227 
3048.205 1758410 1757726 1756407 1753879 1749907 1744591 1738138 1730976 
3052.062 1723412 1715539 1707551 1699500 1691621 1684200 1677629 1672358 
3055.919 1668500 1665892 1663991 1662089 1659561 1656026 1651639 1646891 
3059.777 1642706 1639896 1639046 1640362 1643567 1648068 1653085 1657918 
3063.634 1661848 1664319 1664910 1663404 1659829 1654505 1648028 1641137 
3067.492 1634399 1628173 1622192 1615922 1608713 1600236 1590882 1581690 
3071.349 1574257 1570117 1570189 1574484 1581933 1590796 1599189 1605636 
3075.207 1609415 1610585 1609682 1607335 1604037 1599975 1595292 1590278 
3079.064 1585365 1581298 1578747 1578065 1578921 1580511 1581554 1580913 
3082.921 1577894 1572404 1565248 1557511 1550610 1545702 1543493 1544044 
3086.779 1546830 1550714 1554206 1555701 1553905 1548152 1538743 1526815 
3090.636 1514222 1502951 1494454 1489362 1487118 1486459 1485830 1483958 
3094.494 1480478 1475898 1471296 1467865 1466424 1467171 1469567 1472670 
3098.351 1475578 1477530 1478155 1477263 1474772 1470639 1464936 1457840 
3102.208 1449745 1441231 1432934 1425228 1418267 1411814 1405608 1399516 
3106.066 1393869 1389353 1386886 1387246 1390697 1396813 1404638 1412747 
3109.923 1419817 1424818 1427195 1426718 1423532 1417927 1410435 1401825 
3113.781 1393047 1385173 1379184 1375560 1374251 1374724 1376116 1377685 
3117.638 1379139 1380804 1383345 1387390 1393254 1400488 1408038 1414608 
3121.496 1419154 1421118 1420857 1419090 1416977 1415470 1415040 1415781 
3125.353 1417297 1419117 1420665 1421408 1421030 1419249 1416232 1412354 
3129.210 1408476 1405613 1404834 1406633 1410864 1416481 1421879 1425391 
3133.068 1425757 1422661 1416700 1409258 1401855 1395679 1391296 1388413 
3136.925 1386222 1383579 1379465 1373091 1364195 1352827 1339577 1325515 
3140.783 1312122 1301207 1294618 1293650 1298747 1309249 1323532 1339440 
3144.640 1354818 1368077 1378477 1386016 1391042 1393888 1394566 1392925 
3148.498 1388775 1382570 1375434 1369289 1366188 1367767 1374600 1385707 
3152.355 1399055 1411849 1421671 1426935 1427702 1425175 1421558 1419028 
3156.212 1419129 1422284 1427754 1433924 1439133 1442050 1442291 1440522 
3160.070 1438087 1436571 1437213 1440375 1445433 1451011 1455321 1456846 
3163.927 1454758 1449025 1440503 1430486 1420349 1411100 1403407 1397271 
3167.785 1392532 1388736 1385352 1381968 1378232 1373996 1369452 1365235 
3171.642 1362270 1361766 1364595 1371035 1380313 1390741 1400047 1406083 
3175.500 1407519 1404491 1398442 1391711 1386807 1385486 1388101 1393652 
3179.357 1400290 1405984 1409209 1409561 1407528 1404227 1400819 1398070 
3183.214 1396162 1394839 1393814 1393044 1392935 1394127 1397324 1402761 
3187.072 1409939 1417813 1424900 1429801 1431576 1429999 1425559 1419270 
3190.929 1412169 1405097 1398472 1392327 1386553 1381142 1376477 1373371 
3194.787 1372916 1376117 1383564 1395250 1410257 1427239 1444475 1460550 
3198.644 1474436 1485779 1494725 1501541 1506527 1509563 1510358 1508409 
3202.501 1503466 1495722 1485906 1475079 1464528 1455478 1448603 1444281 
3206.359 1442513 1443073 1445663 1450004 1455646 1461978 1468064 1472767 
3210.216 1475019 1474123 1470022 1463608 1456342 1450086 1446475 1446315 
3214.074 1449556 1455111 1461325 1466539 1469613 1470135 1468588 1465932 
3217.931 1463038 1460391 1457690 1454049 1448274 1439478 1427458 1412954 
3221.789 1397607 1383378 1372339 1365998 1365124 1369718 1379105 1392283 
3225.646 1407873 1424560 1441017 1456010 1468568 1478007 1484086 1486946 
3229.503 1487039 1484935 1481047 1475545 1468711 1460728 1452279 1444465 
3233.361 1438587 1436020 1437457 1442771 1450871 1460121 1468768 1475543 
3237.218 1480001 1482389 1483423 1483644 1483204 1481656 1478351 1472831 
3241.076 1465336 1456981 1449492 1444715 1443876 1447088 1453264 1460279 
3244.933 1465656 1467200 1463614 1454888 1442214 1427863 1414641 1405252 
3248.791 1401677 1404821 1414099 1427689 1442774 1456341 1466016 1470589 
3252.648 1470448 1467126 1462867 1459565 1458191 1458516 1459255 1458763 
3256.505 1455774 1450091 1442564 1435014 1429424 1427574 1430174 1437085 
3260.363 1447348 1459460 1471783 1482823 1491321 1496185 1496799 1492857 
3264.220 1484629 1473099 1459763 1446380 1434842 1426581 1422473 1422595 
3268.078 1426316 1432543 1439832 1446874 1452461 1455948 1457269 1456892 
3271.935 1455661 1454583 1454337 1455176 1456684 1458181 1458790 1458303 
3275.792 1457027 1456024 1456742 1460358 1467408 1477391 1489002 1500452 
3279.650 1510073 1516874 1520602 1521825 1521389 1520250 1518934 1517607 
3283.507 1516214 1514490 1512326 1509644 1506621 1503596 1500989 1499404 
3287.365 1499393 1501528 1505998 1512617 1520571 1528759 1535958 1541374 
3291.222 1544829 1546985 1548920 1551871 1556555 1563038 1570748 1578703 
3295.080 1585954 1592016 1596776 1600390 1603032 1604647 1605015 1603757 
3298.937 1600985 1597063 1592830 1589193 1586627 1585211 1584314 1583118 
3302.794 1580838 1577252 1572690 1567751 1562910 1558322 1553611 1548058 
3306.652 1541075 1532295 1522019 1510788 1499177 1487642 1476470 1465993 
3310.509 1456877 1450274 1447549 1449788 1457072 1468184 1480597 1491352 
3314.367 1497849 1499054 1495743 1490199 1485287 1483227 1484709 1488734 
3318.224 1492927 1494799 1492561 1485865 1475679 1464045 1453042 1444438 
3322.082 1439334 1438186 1441042 1447657 1457312 1468817 1480159 1489045 
3325.939 1493158 1491125 1483033 1470507 1456319 1443575 1434595 1430246 
3329.796 1429929 1431819 1434010 1435021 1434292 1432247 1429611 1427007 
3333.654 1424614 1422177 1419336 1416161 1413140 1411335 1411707 1414780 
3337.511 1420043 1426223 1431557 1434322 1433668 1429696 1423487 1416728 
3341.369 1410997 1407321 1405858 1406027 1406711 1406813 1405584 1402922 
3345.226 1399375 1395906 1393600 1393342 1395356 1399275 1404125 1408405 
3349.083 1410691 1409785 1405102 1396875 1385957 1373871 1362364 1353322 
3352.941 1348258 1348217 1353390 1363109 1375793 1389211 1401108 1409527 
3356.798 1413537 1413493 1410854 1407810 1406326 1407584 1411608 1417161 
3360.656 1422346 1425395 1425329 1422305 1417582 1412801 1409560 1408738 
3364.513 1410325 1413746 1418047 1422642 1427182 1431746 1436480 1441306 
3368.371 1445840 1449350 1451068 1450475 1447457 1442352 1435621 1427998 
3372.228 1420023 1412316 1405522 1400329 1397470 1397625 1401042 1407464 
3376.085 1416147 1425928 1435464 1443726 1449855 1453510 1454543 1453122 
3379.943 1449495 1444092 1437601 1430928 1424943 1420451 1417756 1416645 
3383.800 1416496 1416528 1416198 1415403 1414449 1413880 1413912 1414272 
3387.658 1414122 1412408 1408346 1401972 1394303 1387109 1382339 1381345 
3391.515 1384423 1390655 1398330 1405679 1411372 1415058 1417178 1418492 
3395.373 1419580 1420429 1420449 1418844 1415170 1409699 1403465 1397935 
3399.230 1394427 1393545 1394914 1397284 1399245 1399660 1398197 1395550 
3403.087 1392970 1391825 1393046 1396717 1402187 1408514 1414638 1420080 
3406.945 1424885 1429521 1434694 1440906 1448329 1456713 1465453 1473785 
3410.802 1480865 1485846 1488077 1487122 1482970 1476075 1467556 1459070 
3414.660 1452398 1449118 1449929 1454477 1461323 1468275 1473091 1474088 
3418.517 1470727 1463647 1454575 1445524 1438289 1433914 1432503 1433380 
3422.375 1435357 1437299 1438360 1438094 1436371 1433435 1429557 1425106 
3426.232 1420711 1417037 1414989 1415475 1419148 1426080 1435813 1447305 
3430.089 1459030 1469404 1477074 1480933 1480371 1475193 1465762 1453114 
3433.947 1438866 1425339 1415176 1410778 1413700 1424001 1439894 1458093 
3437.804 1474469 1485077 1487414 1480959 1467286 1449445 1431082 1415272 
3441.662 1403856 1397272 1394843 1395476 1398090 1402109 1407213 1413079 
3445.519 1419166 1424562 1428439 1430311 1430788 1431403 1434464 1442002 
3449.376 1454920 1472240 1491161 1507548 1517242 1517500 1507787 1490146 
3453.234 1468620 1447946 1432411 1424695 1425541 1433982 1448009 1465603 
3457.091 1484997 1505220 1525695 1545889 1564991 1581853 1595246 1604078 
3460.949 1608022 1607446 1603473 1597656 1591594 1586585 1583663 1583385 
3464.806 1586041 1591762 1600386 1611450 1624178 1637410 1649868 1660391 
3468.664 1668244 1673392 1676310 1678054 1679659 1682114 1685918 1691201 
3472.521 1697556 1704448 1711261 1717633 1723321 1728439 1733280 1738332 
3476.378 1744061 1750910 1758962 1767973 1777441 1786504 1794369 1800486 
3480.236 1804657 1807077 1808366 1809177 1810187 1811944 1814893 1819466 
3484.093 1826307 1836014 1849346 1866601 1887569 1911423 1936762 1962006 
3487.951 1985857 2007668 2027555 2046337 2065092 2084721 2105741 2127827 
3491.808 2150296 2172036 2191988 2209201 2223095 2233411 2240300 2244217 
3495.666 2246019 2247058 2248837 2252828 2260114 2271142 2285469 2301955 
3499.523 2319082 2335439 2350177 2363165 2374944 2386255 2397794 2409761 
3503.380 2421638 2432587 2441475 2447464 2450102 2449530 2446243 2441006 
3507.238 2434635 2427790 2421145 2414922 2409348 2404210 2398987 2392783 
3511.095 2384344 2372523 2356304 2335332 2310043 2281585 2251730 2222251 
3514.953 2194837 2170445 2149595 2132132 2117702 2106165 2097638 2092726 
3518.810 2092126 2096491 2105799 2119238 2134940 2150341 2162552 2168896 
3522.667 2167607 2158159 2141406 2119145 2093980 2068434 2044648 2023950 
3526.525 2006765 1992738 1980898 1969956 1958633 1945803 1930745 1913387 
3530.382 1894344 1874861 1856784 1842020 1832251 1828545 1830749 1837682 
3534.240 1847211 1856769 1863922 1866927 1865130 1859122 1850527 1841597 
3538.097 1834671 1831824 1834103 1841593 1853227 1867039 1880499 1891041 
3541.955 1896479 1895513 1887951 1874589 1857148 1837826 1818953 1802621 
3545.812 1790386 1783177 1781363 1784423 1791419 1800785 1810535 1818586 
3549.669 1822951 1822234 1815757 1803872 1787867 1769455 1750813 1733919 
3553.527 1720332 1710968 1706235 1705716 1708723 1714053 1720326 1726101 
3557.384 1730077 1731492 1730021 1726118 1720652 1714720 1709120 1704198 
3561.242 1699704 1695055 1689700 1683676 1677710 1673545 1673031 1677890 
3565.099 1688696 1704666 1723497 1741977 1756675 1765042 1766057 1760484 
3568.957 1750713 1739754 1730767 1725846 1725732 1729770 1736178 1742792 
3572.814 1747493 1748782 1746192 1739805 1730506 1719541 1708237 1698010 
3576.671 1690152 1685719 1685480 1689506 1697057 1706517 1715644 1721920 
3580.529 1723027 1717741 1706251 1690283 1672837 1657464 1647584 1645286 
3584.386 1651040 1663458 1679459 1694890 1705437 1707276 1698121 1677344 
3588.244 1646268 1608175 1567497 1529197 1498031 1477466 1469124 1472517 
3592.101 1485174 1503243 1522617 1539678 1552320 1560190 1564442 1567190 
3595.958 1570553 1575988 1583904 1593700 1604066 1613676 1621639 1627520 
3599.816 1631450 1633717 1634491 1633600 1630503 1624885 1616635 1606226 
3603.673 1594632 1583144 1572932 1564674 1558416 1553677 1549697 1545957 
3607.531 1542434 1539767 1539128 1541543 1547788 1557718 1570395 1584260 
3611.388 1597501 1608680 1617093 1622848 1626657 1629439 1631870 1634170 
3615.246 1636046 1636930 1636397 1634521 1632111 1630318 1630438 1633333 
3619.103 1639209 1647401 1656929 1666630 1675812 1684222 1691906 1698937 
3622.960 1704829 1708430 1708148 1702403 1690368 1672613 1651250 1629519 
3626.818 1611137 1599392 1596375 1602465 1616439 1635983 1658390 1681219 
3630.675 1702769 1722260 1739787 1755848 1771356 1786844 1802606 1818106 
3634.533 1832344 1843699 1850695 1852269 1848480 1840776 1831742 1824559 
3638.390 1822191 1826530 1837946 1855222 1875983 1897680 1918115 1935994 
3642.248 1950873 1963021 1972887 1981032 1987676 1993210 1998060 2002630 
3646.105 2007384 2012312 2017032 2020812 2023283 2024664 2026536 2031213 
3649.962 2041207 2058262 2082112 2110313 2138562 2161941 2176397 2179998 
3653.820 2173560 2160235 2144466 2130547 2121560 2118709 2121322 2127692 
3657.677 2135563 2143228 2149383 2153537 2155505 2155248 2152913 2148414 
3661.535 2141652 2132256 2119845 2104124 2085179 2063980 2042410 2023111 
3665.392 2008902 2001958 2002751 2009867 2020258 2030370 2037407 2040408 
3669.250 2040775 2041535 2046435 2058309 2078380 2106558 2142196 2185240 
3673.107 2236760 2298546 2371565 2453933 2539483 2617660 2675472 2700400 
3676.964 2684251 2625400 2529646 2408473 2276406 2147465 2032585 1938035 
3680.822 1865550 1813556 1778722 1757281 1745743 1741024 1740031 1739765 
3684.679 1737499 1731161 1720229 1705542 1689236 1673865 1661739 1653943 
3688.537 1650295 1649609 1650356 1651066 1650824 1649298 1646301 1641560 
3692.394 1634693 1625290 1613129 1598444 1581977 1564592 1547192 1530259 
3696.251 1513893 1498030 1483130 1470205 1461160 1458370 1463767 1477998 
3700.109 1499980 1526513 1553416 1576107 1591251 1597430 1595606 1588291 
3703.966 1578683 1569531 1562162 1556464 1551187 1544966 1537108 1528206 
3707.824 1520021 1514824 1514463 1519498 1528952 1540257 1550326 1556225 
3711.681 1556241 1550396 1540352 1528629 1518220 1511287 1509247 1511953 
3715.539 1518499 1527396 1537191 1547038 1556864 1567277 1579411 1594236 
3719.396 1612104 1632343 1653138 1671798 1685494 1691844 1689745 1679656 
3723.253 1663260 1643133 1621871 1601315 1582428 1565232 1549455 1534872 
3727.111 1521845 1511370 1504896 1503632 1508191 1518326 1532994 1550461 
3730.968 1568858 1586451 1602002 1614599 1623889 1629871 1632981 1633791 
3734.826 1633152 1631838 1630473 1629396 1628618 1628003 1627512 1627322 
3738.683 1627895 1629807 1633433 1638751 1645109 1651281 1656128 1658520 
3742.541 1657857 1654300 1648411 1641180 1633635 1626927 1622123 1620151 
3746.398 1621951 1627752 1637330 1649369 1661738 1671952 1677790 1678093 
3750.255 1672999 1663911 1652963 1642101 1632354 1623836 1615856 1607586 
3754.113 1598874 1590312 1583393 1579701 1580394 1585536 1594086 1604222 
3757.970 1613984 1621737 1626788 1628934 1628664 1626457 1622777 1617913 
3761.828 1612380 1606645 1601551 1597878 1596093 1596210 1597812 1600007 
3765.685 1602001 1603013 1602727 1601003 1597641 1592513 1585530 1576794 
3769.542 1567122 1557852 1551001 1548387 1551512 1560541 1574672 1591862 
3773.400 1609702 1625679 1638075 1645687 1648260 1646019 1639430 1629263 
3777.257 1616416 1601935 1587034 1572864 1560348 1550219 1542844 1538349 
3781.115 1536813 1538135 1542328 1548761 1556550 1564038 1569376 1570804 
3784.972 1567231 1558897 1547104 1534195 1522626 1514512 1510956 1511908 
3788.830 1516611 1523874 1532787 1542907 1554273 1567024 1581061 1595534 
3792.687 1608958 1619328 1624726 1623650 1615870 1602312 1585310 1567862 
3796.544 1553077 1543255 1539324 1540649 1545253 1550607 1554680 1556453 
3800.402 1556714 1557306 1560631 1568204 1580040 1594145 1607325 1616055 
3804.259 1617953 1612570 1601533 1587783 1574806 1565087 1559645 1557677 
3808.117 1557671 1557804 1557071 1555447 1553630 1552565 1552838 1554424 
3811.974 1556839 1559573 1562640 1566421 1571709 1579091 1588402 1598494 
3815.832 1607465 1613069 1613669 1608471 1598150 1584289 1569021 1554479 
3819.689 1542336 1533627 1528927 1528136 1530834 1536254 1543287 1550552 
3823.546 1556565 1559997 1560015 1556412 1549764 1541144 1531946 1523271 
3827.404 1515862 1509794 1504647 1499844 1494951 1489915 1485417 1482351 
3831.261 1481948 1485158 1492211 1502509 1514655 1526650 1536637 1543101 
3835.119 1545578 1544566 1541477 1537976 1535731 1535744 1538312 1543049 
3838.976 1549161 1555685 1562006 1567391 1571519 1574131 1575267 1575182 
3842.833 1574326 1573405 1573049 1573620 1574781 1575712 1575215 1572402 
3846.691 1567068 1560046 1553165 1548482 1547428 1550350 1556029 1561979 
3850.548 1565510 1564624 1558869 1549558 1539176 1530479 1525388 1524007 
3854.406 1524919 1525522 1523367 1517086 1507091 1495456 1485276 1479659 
3858.263 1480618 1488710 1502777 1520333 1538424 1554405 1566620 1574422 
3862.121 1578339 1579311 1578397 1576191 1572756 1567627 1560378 1550736 
3865.978 1539011 1526172 1513473 1502129 1492748 1485318 1479231 1473363 
3869.835 1467015 1459954 1452685 1446319 1441907 1440171 1441114 1443998 
3873.693 1447699 1451232 1454081 1456463 1459040 1462823 1468447 1476158 
3877.550 1485595 1496150 1507084 1517646 1527575 1536586 1544484 1550930 
3881.408 1555679 1558468 1559518 1559400 1559088 1559723 1562332 1567320 
3885.265 1574518 1582926 1591207 1597618 1600793 1599783 1594298 1584677 
3889.123 1571945 1557572 1543288 1530680 1521178 1515460 1513696 1515419 
3892.980 1519681 1525739 1533010 1541260 1550710 1561648 1574204 1587899 
3896.837 1601832 1614558 1624523 1630500 1631902 1629052 1622887 1614791 
3900.695 1606001 1597183 1588390 1578903 1567992 1555135 1540748 1526150 
3904.552 1513521 1505118 1502693 1506665 1516057 1528496 1541095 1551281 
3908.410 1557614 1560054 1560011 1559419 1560030 1562694 1566967 1571255 
3912.267 1573567 1572152 1566183 1555802 1542187 1526920 1511638 1497310 
3916.125 1484510 1473187 1463066 1453873 1445686 1438924 1434453 1433307 
3919.982 1436561 1445003 1458807 1477372 1499169 1522036 1543691 1562075 
3923.839 1576280 1586487 1594032 1600765 1608393 1617652 1628043 1637858 
3927.697 1644787 1646815 1642825 1633064 1619108 1603428 1588744 1577371 
3931.554 1570886 1569738 1573468 1580657 1589427 1597595 1603093 1604329 
3935.412 1600472 1591704 1579065 1564120 1548514 1533552 1519824 1507503 
3939.269 1496496 1487001 1479874 1476394 1478090 1485937 1499874 1518454 
3943.126 1539084 1558706 1574431 1584424 1588061 1586025 1579674 1570683 
3946.984 1560555 1550333 1540729 1532139 1524855 1519021 1514770 1511813 
3950.841 1509937 1508695 1507875 1507689 1508666 1511744 1517902 1527867 
3954.699 1541670 1558797 1577900 1597102 1614459 1628076 1636494 1639103 
3958.556 1636112 1628565 1618261 1607215 1597344 1589936 1585453 1583447 
3962.414 1583018 1583104 1583098 1582986 1583165 1584299 1586586 1589458 
3966.271 1591680 1591609 1588074 1580718 1570654 1560151 1551834 1547975 
3970.128 1549623 1556063 1565241 1574354 1581013 1584061 1583921 1582505 
3973.986 1582126 1584724 1591003 1599850 1608859 1615025 1615726 1609697 
3977.843 1597402 1581087 1564011 1549727 1541014 1539777 1546311 1559781 
3981.701 1578501 1600409 1623325 1645289 1664570 1679926 1690607 1696505 
3985.558 1698284 1697316 1695373 1694205 1695170 1698470 1703387 1707970 
3989.416 1710059 1707488 1699043 1684895 1666605 1646979 1629111 1615715 
3993.273 1608458 1607424 1611265 1617497 1623544 1627281 1627758 1625308 
3997.130 1621374 1617920 1616617 1618390 1623119 1629762 1636848 1643160 
##END=
