##TITLE=Bambu-Lab_PETG_Lime-Green_Filament_r6_ATR-Corrected
##JCAMP-DX=5.01  $$ Nicolet v. 1
##DATATYPE=INFRARED SPECTRUM
##ORIGIN=Curtin University
##OWNER=Nicolet
##LONGDATE=2024/07/03
##TIME=15:24:39
##SPECTROMETER/DATA SYSTEM=Nicolet iS50
##DATA PROCESSING=
Ratio against background
%Transmittance->Absorbance
ATR Correction
Truncated
ElementMultiply or ElementDivide
##COMMENTS=
Number of sample scans: 32
Collection length: 47.29 sec
Sample gain: 1.0
Background collected on: Wed Jul 03 15:18:08 2024 (GMT+08:00);
Number of background scans: 32
Background gain: 1.0
Sample spacing:  1.000
Number of scan points: 16672
Resolution points: 8192
Number of FFT points: 65536
Apodization: N-B strong;
Phase correction: Mertz;
Laser frequency: 15798.3 cm-1
Number of rejected sample scans: 0
Number of rejected background scans: 0
Bench serial number: AUP1200105;
##RESOLUTION=4.000
##XUNITS=1/CM
##YUNITS=ABSORBANCE
##FIRSTX=400.163452
##LASTX=4000.187744
##FIRSTY=0.028141
##MAXX=4000.187744
##MINX=400.163452
##MAXY=1.450553
##MINY=-0.030209
##XFACTOR=1.000000
##YFACTOR=1.000000E-008
##NPOINTS=7468
##DELTAX=0.482125
##ZPD=8192
##XYDATA=(X++(Y..Y))
400.163 2814146 2932672 3051273 3156232 3242289 3312268 3374394 3436977 
404.020 3503502 3569691 3624707 3655347 3652132 3613975 3549460 3473731 
407.877 3402758 3347437 3310502 3287192 3269238 3250007 3228556 3210697 
411.734 3206474 3225278 3270897 3338704 3416269 3487241 3536780 3556335 
415.591 3545916 3513157 3470138 3429454 3401023 3390665 3400174 3428442 
419.448 3472940 3530495 3597643 3670433 3744274 3814192 3875440 3924301 
423.305 3958871 3979253 3987306 3985942 3978500 3968122 3957469 3948588 
427.162 3942804 3940566 3941417 3943974 3946273 3946376 3942846 3935168 
431.019 3923729 3909415 3893175 3875380 3856635 3837232 3817843 3799574 
434.876 3783906 3771992 3764261 3759956 3757448 3754746 3750290 3743402 
438.733 3734407 3724035 3712761 3700228 3685217 3666214 3642279 3613771 
442.590 3582593 3551571 3523493 3499915 3480617 3463725 3446719 3427635 
446.447 3406225 3384194 3364759 3351296 3346033 3348966 3357671 3367937 
450.304 3375043 3375218 3366740 3350515 3329700 3308801 3292402 3283935 
454.161 3284944 3294878 3311609 3332265 3354280 3376107 3397449 3418871 
458.017 3441007 3463776 3485946 3505369 3519819 3528053 3530607 3529933 
461.874 3529641 3533215 3542656 3557751 3576400 3595513 3612509 3626429 
465.731 3638173 3649643 3662374 3676214 3688905 3696829 3696698 3687383 
469.588 3671114 3653223 3640618 3639440 3652872 3680073 3716549 3755870 
473.445 3791955 3820854 3841584 3855635 3865788 3874806 3884655 3896427 
477.302 3910877 3928926 3951855 3980879 4016441 4057503 4101445 4144640 
481.159 4183643 4216261 4242343 4263668 4283162 4303808 4327724 4355770 
485.016 4387858 4423536 4462619 4505393 4552459 4604147 4660131 4719336 
488.873 4780310 4841862 4903730 4966838 5033062 5104674 5183599 5270892 
492.730 5366569 5469804 5579311 5693611 5811152 5930057 6047866 6161387 
496.587 6266832 6360209 6437979 6497545 6537561 6557829 6558969 6542004 
500.444 6508025 6458053 6393169 6314725 6224596 6125289 6019850 5911665 
504.301 5804105 5700103 5601769 5510124 5424902 5344671 5267148 5189771 
508.158 5110411 5027963 4942810 4856795 4772812 4694217 4623958 4563971 
512.015 4514768 4475426 4443890 4417495 4393513 4369664 4344417 4317164 
515.871 4288143 4258241 4228701 4200756 4175353 4152993 4133704 4117224 
519.728 4103161 4091218 4081185 4072879 4065909 4059542 4052645 4043926 
523.585 4032336 4017484 3999987 3981401 3963934 3949742 3940331 3935976 
527.442 3935632 3937188 3938081 3935990 3929437 3918058 3902514 3884131 
531.299 3864358 3844322 3824608 3805233 3785964 3766619 3747394 3728955 
535.156 3712318 3698503 3688182 3681337 3677229 3674538 3671879 3668195 
539.013 3663158 3657256 3651530 3647153 3644856 3644630 3645556 3646091 
542.870 3644514 3639418 3630123 3616798 3600347 3582164 3563686 3546148 
546.727 3530318 3516437 3504275 3493210 3482470 3471299 3459150 3445824 
550.584 3431393 3416043 3399878 3382630 3363632 3342012 3317038 3288588 
554.441 3257418 3225116 3193665 3164826 3139348 3116719 3095348 3073188 
558.298 3048725 3021672 2993293 2966050 2942715 2925305 2914282 2908259 
562.155 2904402 2899229 2889640 2873631 2850689 2821691 2788489 2753456 
566.012 2719093 2687782 2661592 2642068 2629997 2625142 2626127 2630623 
569.869 2635814 2639079 2638743 2634451 2627219 2618955 2611765 2607149 
573.725 2605563 2606276 2607776 2608329 2606679 2602406 2596118 2589155 
577.582 2583141 2579487 2578933 2581438 2586217 2592037 2597609 2601928 
581.439 2604459 2605107 2604106 2601736 2598215 2593712 2588494 2583225 
585.296 2579078 2577695 2580913 2590177 2606133 2628289 2655262 2685237 
589.153 2716766 2749278 2783397 2820656 2862825 2911167 2965839 3025806 
593.010 3089201 3154002 3218629 3282262 3344677 3405719 3464645 3519740 
596.867 3568319 3607196 3633386 3644750 3640454 3620939 3587627 3542557 
600.724 3488061 3426588 3360771 3293451 3227564 3165894 3110693 3063312 
604.581 3023987 2991972 2965831 2943928 2924833 2907588 2891772 2877363 
608.438 2864562 2853638 2844937 2838802 2835743 2836339 2841197 2850747 
612.295 2865029 2883547 2905195 2928348 2951093 2971539 2988191 3000178 
616.152 3007453 3010749 3011353 3010791 3010505 3011480 3014134 3018411 
620.009 3023979 3030575 3038272 3047609 3059496 3074988 3094910 3119528 
623.866 3148427 3180556 3214617 3249693 3285896 3325010 3370773 3428545 
627.723 3504430 3603714 3729022 3878537 4044927 4215396 4373199 4500460 
631.579 4581788 4607630 4576500 4495255 4377432 4240134 4100450 3972458 
635.436 3865366 3783109 3725192 3688182 3667442 3658464 3657754 3663102 
639.293 3673419 3688342 3707833 3731789 3759806 3791016 3824100 3857394 
643.150 3889149 3917815 3942458 3962846 3979582 3993852 4007142 4020815 
647.007 4035758 4052180 4069623 4087082 4103308 4117136 4127799 4135172 
650.864 4139853 4143016 4146205 4150894 4158150 4168358 4181281 4196232 
654.721 4212481 4229587 4247550 4266751 4287574 4310070 4333722 4357542 
658.578 4380419 4401631 4421223 4440038 4459392 4480430 4503562 4528168 
662.435 4552739 4575512 4595230 4611711 4626059 4640252 4656502 4676409 
666.292 4700532 4728294 4758445 4789711 4821418 4853827 4888018 4925547 
670.149 4967869 5015938 5070014 5129688 5194217 5262760 5334671 5409641 
674.006 5487715 5569151 5654298 5743317 5835956 5931331 6027870 6123354 
677.863 6215147 6300576 6377340 6443728 6498819 6542337 6574481 6595751 
681.720 6606897 6609006 6603670 6593074 6579900 6567004 6556945 6551538 
685.577 6551659 6557289 6567928 6583092 6602750 6627550 6658736 6697742 
689.433 6745803 6803459 6870507 6945929 7028217 7115821 7207533 7302979 
693.290 7402812 7508878 7624057 7751833 7895804 8058976 8243233 8449009 
697.147 8675399 8920473 9181870 9457326 9744975 10043363 10351115 10666563 
701.004 10987411 11310670 11632944 11950938 12261999 12564491 12857988 
704.379 13142991 13420549 13691859 13957863 14219187 14476208 14729348 
707.754 14979383 15227793 15476994 15730631 15993603 16272198 16574208 
711.129 16908760 17286284 17718356 18217710 18798044 19474074 20261360 
714.504 21176096 22234740 23453424 24847424 26430646 28215296 30211734 
717.878 32428380 34871556 37544592 40446476 43569096 46893040 50381588 
721.253 53972848 57570724 61036640 64187168 66804308 68665752 69593880 
724.628 69506928 68445600 66558428 64055268 61155392 58050756 54889940 
728.003 51777220 48779220 45933356 43255912 40748400 38402652 36204724 
731.378 34137844 32184794 30329406 28557426 26856828 25217646 23631810 
734.752 22093028 20597046 19142024 17729014 16362046 15047728 13794260 
738.127 12610124 11502705 10477254 9536465 8680581 7907867 7215258 6598882 
741.984 6054172 5575931 5158228 4794539 4477979 4201823 3960025 3747592 
745.841 3560667 3396404 3252576 3127271 3018613 2924711 2843695 2773761 
749.698 2713215 2660350 2613414 2570632 2530345 2491279 2452844 2415238 
753.555 2379329 2346325 2317270 2292613 2272036 2254588 2239009 2224266 
757.412 2209903 2196187 2183944 2174248 2167971 2165505 2166640 2170681 
761.269 2176701 2183863 2191656 2200058 2209503 2220710 2234509 2251603 
765.126 2272386 2296901 2324902 2355953 2389657 2425721 2463975 2504253 
768.983 2546224 2589216 2632151 2673734 2712684 2748087 2779598 2807544 
772.840 2832620 2855616 2877049 2897024 2915282 2931511 2945666 2958286 
776.697 2970532 2984004 3000391 3021173 3047355 3079510 3117916 3162807 
780.554 3214590 3273921 3341645 3418742 3506158 3604769 3715359 3838569 
784.410 3974837 4124303 4286714 4461442 4647567 4844185 5050611 5266568 
788.267 5492055 5727017 5970682 6220885 6473372 6721449 6955947 7165620 
792.124 7337978 7460513 7522166 7514930 7435304 7285414 7073313 6812510 
795.981 6520534 6216872 5920569 5648070 5411640 5218626 5071560 4968897 
799.838 4906111 4876902 4874185 4890861 4920332 4956823 4995532 5032830 
803.695 5066159 5094013 5115784 5131650 5142320 5148970 5153072 5156322 
807.552 5160406 5166816 5176501 5189657 5205621 5223000 5239936 5254565 
811.409 5265443 5271836 5273788 5272012 5267633 5261918 5256063 5251039 
815.266 5247591 5246259 5247323 5250848 5256606 5264122 5272713 5281654 
819.123 5290351 5298509 5306243 5314059 5322734 5333106 5345865 5361324 
822.980 5379341 5399382 5420684 5442477 5464308 5486247 5508911 5533452 
826.837 5561241 5593587 5631412 5675014 5723985 5777378 5833826 5891949 
830.694 5950560 6008958 6067025 6125264 6184639 6246415 6311747 6381485 
834.551 6455779 6534023 6614927 6696846 6778200 6857908 6935597 7011641 
838.408 7086760 7161687 7236685 7311350 7384689 7455419 7522363 7584741 
842.264 7642258 7694948 7742852 7785868 7823699 7856078 7883064 7905345 
846.121 7924215 7941346 7958237 7975707 7993567 8010725 8025554 8036554 
849.978 8042895 8044780 8043368 8040464 8038036 8037802 8041011 8048455 
853.835 8060642 8077956 8100772 8129526 8164636 8206498 8255532 8312297 
857.692 8377584 8452510 8538522 8637258 8750496 8880087 9027907 9195947 
861.549 9386341 9601392 9843482 10114937 10417890 10754167 11125275 11532457 
865.406 11976694 12458643 12978522 13535666 14128052 14751805 15400514 
868.781 16064864 16732304 17387066 18010602 18582376 19081376 19487732 
872.156 19784740 19960542 20009298 19931550 19733680 19426740 19024882 
875.531 18543876 17999872 17408540 16784514 16141105 15490070 14841525 
878.905 14203970 13584480 12988967 12422545 11889666 11394119 10938764 
882.280 10525206 10153431 9821776 9527086 9265354 9032296 8824123 8637874 
886.137 8471595 8324064 8194507 8082105 7985833 7904331 7836102 7779597 
889.994 7733465 7696498 7667676 7645975 7630337 7619622 7612744 7608761 
893.851 7606995 7607025 7608540 7611183 7614343 7616988 7617728 7614949 
897.708 7607047 7592617 7570532 7539890 7499835 7449393 7387392 7312565 
901.565 7223911 7121090 7004758 6876737 6739786 6597164 6452019 6306825 
905.422 6163204 6021946 5883504 5748402 5617685 5492992 5376288 5269408 
909.279 5173473 5088634 5013996 4947916 4888518 4834118 4783601 4736463 
913.136 4692809 4653151 4618268 4589094 4566655 4551931 4545647 4548040 
916.993 4558567 4575870 4597951 4622557 4647825 4672667 4697077 4721943 
920.849 4748605 4778217 4811270 4847301 4885088 4923043 4959812 4994635 
924.706 5027523 5059078 5090111 5121214 5152535 5183692 5214060 5243046 
928.563 5270383 5296294 5321438 5346673 5372842 5400553 5430107 5461555 
932.420 5494804 5529854 5566846 5606165 5648488 5694709 5745881 5803135 
936.277 5867560 5940035 6021087 6110768 6208700 6314151 6426324 6544661 
940.134 6669090 6800204 6939159 7087330 7245949 7415599 7595892 7785325 
943.991 7981477 8181328 8381768 8580055 8774212 8963124 9146519 9324717 
947.848 9498337 9668017 9834228 9997262 10157300 10314672 10470072 10624626 
951.705 10779894 10937516 11098714 11263706 11431146 11597830 11758684 
955.080 11907300 12036664 12140206 12212762 12251351 12255500 12227242 
958.455 12170744 12091678 11996570 11892223 11785134 11681186 11585337 
961.829 11501384 11431912 11378207 11340432 11317779 11308786 11311581 
965.204 11324055 11343925 11368723 11395795 11422303 11445405 11462473 
968.579 11471298 11470272 11458350 11434923 11399640 11352155 11292124 
971.954 11219250 11133461 11035127 10925099 10804695 10675522 10539238 
975.329 10397398 10251419 10102608 9952365 9802289 9654187 9510108 9372043 
979.186 9241933 9121431 9011911 8914439 8829723 8758000 8698967 8651555 
983.043 8613952 8583669 8557863 8533727 8508958 8482124 8452740 8421239 
986.899 8388640 8356212 8325146 8296218 8269848 8246118 8224932 8206222 
990.756 8190024 8176619 8166468 8160234 8158663 8162594 8172927 8190614 
994.613 8216765 8252538 8299143 8357698 8429062 8513653 8611351 8721482 
998.470 8842959 8974546 9115166 9264228 9421825 9588756 9766466 9956831 
1002.327 10161924 10383933 10625055 10887604 11174148 11487689 11831746 
1005.702 12210476 12628618 13091516 13605170 14176391 14813234 15525463 
1009.077 16325319 17227960 18251754 19417788 20748366 22264402 23981566 
1012.452 25905306 28025190 30308988 32697738 35102876 37407492 39473716 
1015.826 41156976 42326376 42886636 42795236 42068856 40777232 39027628 
1019.201 36945836 34659004 32283556 29918080 27640652 25508902 23561742 
1022.576 21821860 20298568 18990502 17888250 16976684 16236924 15648080 
1025.951 15188740 14838053 14576688 14387451 14255583 14168940 14117789 
1029.326 14094584 14093587 14110537 14142273 14186479 14241485 14306064 
1032.702 14379230 14460161 14548077 14642346 14742422 14847988 14958885 
1036.077 15075050 15196279 15322118 15451615 15583311 15715349 15845563 
1039.452 15971604 16091067 16201435 16300125 16384459 16451800 16499858 
1042.827 16526987 16532403 16516322 16479836 16424559 16352314 16264854 
1046.203 16163740 16050370 15926246 15793161 15653218 15508896 15362820 
1049.578 15217584 15075554 14938846 14809366 14688821 14578836 14480904 
1052.953 14396426 14326587 14272439 14234848 14214648 14212644 14229640 
1056.328 14266402 14323513 14401263 14499535 14617954 14755939 14912933 
1059.704 15088651 15283152 15496862 15730326 15984008 16257940 16551693 
1063.079 16864322 17194650 17541668 17904942 18284916 18682990 19101284 
1066.454 19542266 20008228 20500904 21021384 21570360 22148584 22757588 
1069.829 23400038 24079966 24802500 25573268 26397788 27280930 28226694 
1073.205 29238444 30319238 31472212 32700678 34007744 35395636 36864768 
1076.580 38412920 40034832 41722084 43463720 45246848 47057380 48880728 
1079.955 50702196 52507572 54283400 56017720 57700688 59324980 60886068 
1083.330 62382104 63813620 65183008 66494440 67753504 68966928 70142128 
1086.706 71286280 72405440 73503456 74581600 75638400 76670280 77672144 
1090.081 78637808 79560112 80430600 81239232 81974432 82623616 83174216 
1093.456 83614744 83935328 84127768 84185136 84101560 83872408 83495216 
1096.831 82970904 82304480 81504992 80583960 79553544 78424368 77204424 
1100.207 75899160 74512664 73049136 71514552 69917472 68269280 66583896 
1103.582 64877544 63168352 61476256 59822728 58230336 56721784 55319024 
1106.957 54042296 52909488 51935572 51132496 50508832 50069176 49813156 
1110.332 49734412 49819492 50047440 50390160 50813864 51281320 51754732 
1113.708 52198416 52581100 52877332 53068084 53140640 53088240 52909176 
1117.083 52606024 52184664 51653224 51021088 50298292 49494944 48621176 
1120.458 47687248 46703580 45680684 44628908 43558144 42477500 41395140 
1123.833 40318336 39253604 38206796 37183036 36186580 35220516 34286628 
1127.208 33385444 32516396 31678348 30869886 30089706 29336578 28609260 
1130.584 27906170 27225318 26564366 25920874 25292764 24678702 24078242 
1133.959 23491730 22919922 22363492 21822620 21296812 20784954 20285636 
1137.334 19797454 19319352 18850716 18391322 17941200 17500472 17069264 
1140.709 16647699 16236003 15834580 15444063 15065207 14698865 14345737 
1144.085 14006329 13680843 13369198 13070942 12785417 12511729 12248813 
1147.460 11995598 11751109 11514600 11285685 11064294 10850573 10644641 
1150.835 10446320 10255031 10069658 9888762 9710797 9534512 9359200 9184869 
1154.693 9012344 8843025 8678727 8521343 8372589 8233812 8105834 7989008 
1158.550 7883203 7788054 7703061 7627891 7562491 7507218 7462785 7430243 
1162.407 7410814 7405797 7416581 7444586 7491384 7558620 7648056 7761171 
1166.265 7898956 8061420 8247269 8453624 8676071 8908784 9144946 9377208 
1170.122 9598207 9800984 9979393 10128275 10243653 10322729 10363957 
1173.498 10366958 10332518 10262471 10159571 10027270 9869484 9690319 
1176.873 9493852 9283971 9064257 8838093 8608667 8379173 8152797 7932770 
1180.730 7722262 7524165 7340925 7174303 7025385 6894590 6781813 6686709 
1184.588 6608878 6548045 6504058 6476913 6466537 6472737 6495083 6532891 
1188.445 6585292 6651342 6730079 6820568 6921913 7033110 7153038 7280321 
1192.302 7413389 7550584 7690327 7831361 7972941 8114960 8257926 8402875 
1196.160 8551110 8703968 8862561 9027614 9199378 9377696 9562126 9752171 
1200.017 9947447 10147848 10353628 10565326 10783611 11009143 11242397 
1203.393 11483582 11732709 11989681 12254550 12527578 12809373 13100797 
1206.768 13402772 13716163 14041601 14379495 14730076 15093644 15470695 
1210.143 15862046 16268909 16692662 17134788 17596676 18079484 18584170 
1213.518 19111480 19662022 20236256 20834514 21456864 22103084 22772374 
1216.894 23463386 24173948 24901096 25641174 26390126 27144074 27900136 
1220.269 28657356 29417440 30185268 30968868 31778878 32627580 33527792 
1223.644 34491784 35530616 36653812 37869284 39183612 40602304 42129924 
1227.019 43770160 45525800 47398620 49389416 51498072 53723568 56063892 
1230.395 58515984 61075336 63735752 66488856 69323672 72226384 75180008 
1233.770 78164312 81155928 84128952 87055808 89908408 92659304 95282336 
1237.145 97753080 100048472 102146936 104028616 105676472 107077696 
1240.038 108225408 109119272 109765184 110174016 110359968 110339352 
1242.931 110129872 109750424 109221016 108562336 107794808 106937536 
1245.824 106007504 105019632 103987392 102923944 101842872 100758432 
1248.717 99685136 98636728 97625368 96661032 95751664 94903520 94121784 
1252.093 93410600 92772976 92210344 91722088 91305400 90955368 90665208 
1255.468 90426704 90230016 90063408 89912808 89761696 89591528 89382952 
1258.843 89117224 88778088 88352944 87833624 87216304 86501256 85692224 
1262.218 84796128 83822352 82782104 81687336 80549744 79379800 78186352 
1265.594 76976784 75757768 74535816 73317840 72110968 70922024 69756584 
1268.969 68618448 67509264 66428940 65376092 64348732 63344688 62361740 
1272.344 61397500 60449292 59514148 58589220 57672076 56761140 55855908 
1275.719 54956812 54064764 53180796 52305508 51439096 50581152 49730876 
1279.094 48887376 48049672 47216976 46388760 45564924 44745944 43932952 
1282.470 43127728 42332460 41549440 40780728 40027876 39291892 38573316 
1285.845 37872372 37189072 36523196 35874180 35240972 34621864 34014544 
1289.220 33416318 32824334 32235864 31648370 31059570 30467200 29869068 
1292.595 29262928 28646832 28019360 27380026 26729516 26069758 25403750 
1295.971 24735304 24068776 23408816 22760192 22127678 21515938 20929328 
1299.346 20371636 19845814 19353578 18895278 18469820 18074746 17706538 
1302.721 17360960 17033440 16719471 16414845 16115955 15819962 15524888 
1306.096 15229717 14934401 14639710 14347130 14058591 13776286 13502419 
1309.472 13239081 12988059 12750761 12528099 12320330 12126974 11946663 
1312.847 11777225 11615800 11459117 11303909 11147319 10987186 10822252 
1316.222 10652184 10477328 10298529 10116823 9933131 9748165 9562314 9375737 
1320.080 9188376 9000189 8811209 8621746 8432440 8244335 8058873 7877744 
1323.937 7702854 7536061 7379166 7233715 7101117 6982653 6879599 6793384 
1327.794 6725688 6678502 6654211 6655539 6685424 6746888 6842637 6974683 
1331.652 7143865 7349450 7588916 7857851 8150117 8458131 8773259 9086161 
1335.509 9387133 9666637 9915543 10125700 10290383 10404656 10465766 
1338.885 10473170 10428534 10335513 10199208 10025771 9821895 9594321 
1342.260 9349559 9093668 8832185 8569912 8310909 8058405 7814763 7581559 
1346.117 7359778 7150022 6952720 6768382 6597534 6440784 6298614 6171259 
1349.975 6058665 5960420 5875851 5804011 5743889 5694341 5654297 5622660 
1353.832 5598493 5580975 5569549 5563915 5564043 5570249 5583022 5603122 
1357.689 5631438 5669001 5717091 5777168 5850900 5940173 6047046 6173591 
1361.547 6321699 6492884 6687978 6906853 7148219 7409508 7686816 7975100 
1365.404 8268392 8560203 8843950 9113421 9363140 9588724 9787049 9956224 
1369.262 10095542 10205295 10286623 10341255 10371330 10379191 10367153 
1372.637 10337248 10291253 10230464 10155941 10068540 9969196 9859034 
1376.012 9739482 9612372 9479953 9344887 9210199 9079085 8954851 8840503 
1379.870 8738606 8651083 8579125 8523312 8483692 8459996 8451712 8458078 
1383.727 8478029 8510112 8552556 8603262 8660194 8721516 8785824 8852194 
1387.584 8920035 8988802 9057738 9125786 9191635 9254015 9312028 9365456 
1391.442 9414960 9461851 9508018 9555577 9606677 9663542 9728466 9804050 
1395.299 9893269 9999443 10126087 10276780 10455013 10664132 10907449 
1398.675 11188432 11510830 11878908 12297523 12772073 13308437 13912748 
1402.050 14590859 15347485 16184989 17101774 18090356 19135588 20213242 
1405.425 21289506 22321652 23260196 24052496 24647390 25000572 25079728 
1408.800 24868644 24369570 23603124 22605898 21426054 20117938 18736490 
1412.176 17332720 15950492 14624751 13381197 12236664 11200200 10274246 
1415.551 9455965 8738609 8112847 7568193 7094031 6680672 6319821 6004733 
1419.408 5730040 5491382 5285056 5107678 4956255 4828121 4721109 4633504 
1423.266 4564005 4511550 4475191 4454001 4447242 4454447 4475593 4511026 
1427.123 4561331 4626965 4707990 4803965 4913924 5036583 5170734 5315367 
1430.980 5469760 5633339 5805544 5985671 6172848 6366083 6564380 6766762 
1434.838 6972109 7179046 7385779 7590057 7789423 7981650 8165145 8339271 
1438.695 8504528 8662464 8815422 8966387 9118730 9276103 9442244 9620643 
1442.553 9814306 10025279 10254425 10501345 10764372 11041003 11328093 
1445.928 11622136 11919223 12214996 12504369 12781587 13040309 13273929 
1449.303 13475986 13640513 13762332 13837346 13862821 13837828 13763586 
1452.678 13643640 13483632 13290602 13072146 12835573 12587258 12332450 
1456.054 12075549 11820281 11570023 11327912 11096629 10878178 10673705 
1459.429 10483440 10306714 10142287 9988364 9842917 9703710 9568390 9434760 
1463.286 9300890 9165470 9027849 8888105 8746601 8603802 8459813 8314333 
1467.144 8166856 8017090 7865477 7713288 7562566 7415449 7273321 7136082 
1471.001 7001839 6867079 6727482 6579087 6419292 6247596 6065615 5876673 
1474.859 5684949 5494624 5309217 5131237 4962101 4802264 4651389 4508717 
1478.716 4373186 4243726 4119392 3999480 3883620 3771712 3663878 3560336 
1482.573 3461317 3366919 3277218 3192190 3111722 3035697 2963930 2896270 
1486.431 2832580 2772900 2717502 2666899 2621779 2582874 2550757 2525668 
1490.288 2507496 2495868 2490379 2490784 2497200 2510108 2530237 2558483 
1494.146 2595727 2642903 2701027 2771401 2855757 2956449 3076571 3220050 
1498.003 3391773 3597601 3844062 4137594 4483289 4882895 5332863 5822438 
1501.861 6332841 6837817 7305649 7702654 7997606 8166145 8194552 8082048 
1505.718 7840806 7493920 7071581 6606192 6128051 5661964 5225761 4830194 
1509.575 4480126 4175996 3915460 3694694 3509267 3354696 3226624 3121054 
1513.433 3034276 2963032 2904500 2856467 2817243 2785709 2761038 2742643 
1517.290 2729921 2722183 2718676 2718626 2721431 2726649 2734050 2743535 
1521.148 2754971 2768108 2782524 2797640 2812810 2827428 2840883 2852708 
1525.005 2862462 2869817 2874562 2876553 2875829 2872462 2866539 2858090 
1528.863 2847036 2833273 2816745 2797565 2776100 2752894 2728496 2703379 
1532.720 2677785 2651757 2625284 2598524 2571961 2546309 2522486 2501182 
1536.577 2482720 2466945 2453326 2441287 2430538 2421301 2414291 2410450 
1540.435 2410427 2414282 2421281 2429957 2438608 2445627 2449902 2450927 
1544.292 2448699 2443540 2435850 2426026 2414445 2401664 2388419 2375669 
1548.150 2364363 2355284 2348852 2344953 2343162 2342917 2343720 2345364 
1552.007 2347972 2351812 2357157 2364141 2372634 2382290 2392684 2403353 
1555.865 2413922 2424098 2433693 2442604 2450895 2458801 2466830 2475673 
1559.722 2486131 2498875 2514361 2532667 2553561 2576663 2601544 2628037 
1563.579 2656269 2686674 2720035 2757190 2799002 2846128 2899039 2958004 
1567.437 3023138 3094592 3172750 3258257 3352200 3455925 3571024 3699075 
1571.294 3841468 3999325 4173341 4363748 4570137 4791150 5023973 5263984 
1575.152 5504257 5735719 5947779 6129286 6269882 6361203 6397705 6376938 
1579.009 6299563 6169012 5991103 5773704 5526150 5258684 4981650 4704815 
1582.866 4436647 4183901 3951443 3742278 3557746 3397812 3261317 3146276 
1586.724 3050217 2970343 2903829 2848116 2800987 2760752 2726147 2696283 
1590.581 2670452 2647994 2628268 2610656 2594731 2580356 2567739 2557380 
1594.439 2549882 2545757 2545210 2548113 2554091 2562723 2573702 2587072 
1598.296 2603141 2622413 2645362 2672219 2702867 2736890 2773724 2812875 
1602.154 2854051 2897312 2942923 2991180 3042297 3096186 3152562 3211038 
1606.011 3271380 3333668 3398455 3466592 3538992 3616271 3698334 3784260 
1609.868 3872138 3959407 4043143 4120389 4188554 4245420 4289238 4318582 
1613.726 4332230 4329224 4308992 4271599 4217994 4150156 4070957 3983960 
1617.583 3892969 3801627 3713194 3630386 3555349 3489688 3434379 3389805 
1621.441 3355690 3331200 3315088 3305923 3302322 3303117 3307250 3313886 
1625.298 3322105 3331069 3339971 3348206 3355541 3362033 3368025 3374025 
1629.156 3380414 3387497 3395497 3404585 3415039 3427117 3441003 3456545 
1633.013 3473128 3489792 3505353 3518854 3529866 3538704 3546270 3553837 
1636.870 3562569 3573179 3585827 3600260 3616035 3632706 3649991 3667690 
1640.728 3685557 3703277 3720478 3736884 3752567 3768022 3784136 3802015 
1644.585 3822615 3846482 3873655 3903733 3935990 3969692 4004086 4038532 
1648.443 4072424 4105268 4136742 4166903 4196334 4226099 4257629 4292228 
1652.300 4330769 4373419 4419678 4468748 4520097 4573741 4630396 4691165 
1656.157 4757178 4829050 4906882 4990207 5078476 5171372 5269013 5371975 
1660.015 5480955 5596453 5718602 5847098 5981457 6121237 6266206 6416385 
1663.872 6571839 6732534 6898234 7068531 7243095 7421744 7604552 7791595 
1667.730 7982839 8177830 8375688 8575390 8776105 8977454 9179596 9383211 
1671.587 9589084 9797961 10010386 10226781 10447635 10673483 10904811 
1674.962 11141764 11383818 11629702 11877694 12126214 12374417 12622580 
1678.338 12872015 13124540 13381656 13643914 13910784 14180975 14453077 
1681.713 14726406 15001138 15278287 15559086 15844502 16134951 16430600 
1685.088 16731931 17040434 17358794 17690648 18039810 18409526 18802206 
1688.463 19219444 19662608 20133620 20635302 21171198 21745120 22360556 
1691.839 23020550 23728140 24487300 25303742 26185042 27139754 28175690 
1695.214 29298234 30509480 31809158 33197272 34677204 36258280 37956104 
1698.589 39790640 41782420 43948416 46299280 48839184 51568468 54488112 
1701.964 57603548 60926128 64471300 68254328 72285096 76564008 81080296 
1705.340 85812440 90729872 95794008 100957728 106163672 111342584 116414336 
1708.715 121292416 125890336 130128264 133935944 137252704 140025984 
1711.608 142212016 143780768 144722960 145055296 144818752 144070352 
1714.501 142871712 141279792 139343760 137108192 134618288 131923856 
1717.394 129078040 126132200 123129056 120098496 117057384 114013600 
1720.287 110971616 107937584 104920960 101934120 98989304 96096280 93260624 
1723.662 90484240 87766912 85107832 82506872 79964368 77480552 75054704 
1727.038 72684952 70368680 68103344 65887248 63719672 61600452 59528904 
1730.413 57503104 55519456 53573044 51658756 49772404 47911920 46077708 
1733.788 44272408 42499884 40763984 39067332 37410568 35792504 34210580 
1737.163 32661986 31144584 29657712 28202500 26781816 25399598 24060236 
1740.539 22767824 21525770 20336560 19201898 18122884 17100256 16134457 
1743.914 15225586 14373435 13577296 12835827 12147074 11508402 10916693 
1747.289 10368506 9860414 9389413 8953025 8549462 8177442 7835833 7523435 
1751.146 7238497 6978695 6741122 6522568 6319822 6130016 5950920 5781159 
1755.004 5620171 5468087 5325498 5193006 5070815 4958407 4854520 4757393 
1758.861 4665157 4576370 4490422 4407492 4328404 4254206 4185701 4123031 
1762.719 4065800 4013049 3963668 3916593 3870850 3825627 3780185 3733917 
1766.576 3686429 3637798 3588822 3540814 3495460 3454309 3418201 3387104 
1770.434 3359968 3335032 3310361 3284306 3255955 3225252 3192972 3160388 
1774.291 3129079 3100516 3075712 3055095 3038292 3024159 3010983 2996999 
1778.148 2980861 2962114 2941335 2919847 2899270 2880685 2864366 2849627 
1782.006 2835214 2819938 2803200 2785260 2766942 2749133 2732157 2715592 
1785.863 2698348 2679200 2657410 2633184 2607617 2582172 2558162 2536266 
1789.721 2516434 2498251 2481354 2465873 2452328 2441309 2432921 2426349 
1793.578 2420098 2412508 2402431 2390019 2376529 2363899 2353693 2346312 
1797.436 2340559 2334165 2324686 2310653 2292405 2271909 2252084 2235666 
1801.293 2224002 2216809 2212341 2208306 2202881 2195289 2185966 2176025 
1805.150 2166553 2158196 2150905 2144251 2137864 2131806 2126515 2122515 
1809.008 2119934 2118245 2116277 2112503 2105694 2095276 2081458 2065057 
1812.865 2047116 2028529 2010010 1992268 1976204 1963311 1955358 1954039 
1816.723 1960321 1973823 1992775 2014293 2035210 2053105 2066725 2076348 
1820.580 2083196 2088797 2094165 2099486 2103831 2105801 2103728 2096328 
1824.438 2083036 2064178 2040908 2014965 1988445 1963447 1941713 1924397 
1828.295 1911792 1903359 1897920 1893869 1889630 1883923 1875877 1865044 
1832.152 1851305 1834592 1814970 1792759 1768523 1743238 1718220 1694801 
1836.010 1673972 1656070 1640599 1626265 1611411 1594526 1574683 1551853 
1839.867 1527022 1501870 1478538 1459004 1444733 1436330 1433436 1434613 
1843.725 1437656 1439780 1438346 1431185 1417273 1396870 1371489 1343551 
1847.582 1315894 1290946 1270310 1254461 1242770 1233856 1226059 1217911 
1851.439 1208457 1197224 1184231 1169582 1153501 1136195 1117873 1098918 
1855.297 1080050 1062211 1046547 1034063 1025431 1020860 1020084 1022419 
1859.154 1027051 1033046 1039432 1045197 1049284 1050675 1048628 1042973 
1863.012 1034384 1024133 1013960 1005516 999620 996099 993665 990523 985081 
1867.351 976499 965214 952610 940402 929881 921305 913790 905859 896081 
1871.691 884023 870312 856709 845227 837435 833811 833755 835865 838811 
1876.031 841809 844984 849286 855916 865757 879101 895306 913121 930792 
1880.370 946377 957880 963467 961689 951865 934502 911342 885356 860053 
1884.710 838612 822938 813210 808015 804939 801805 797305 791602 786049 
1889.049 782610 783012 788333 798691 813548 831980 852838 874757 896002 
1893.389 914307 927427 933396 931474 922503 908840 893553 879564 868409 
1897.729 860014 852803 844751 834229 820912 805753 790633 777385 767279 
1902.068 760757 757756 758184 762265 770525 783358 800436 820498 841442 
1906.408 861157 878231 892480 904847 916512 927814 937708 943334 941030 
1910.747 927733 902159 865633 821978 776564 735066 702359 681574 674167 
1915.087 680087 698043 725636 759493 795426 828967 856124 874162 882131 
1919.427 880926 872623 859598 843843 826597 808864 791589 776373 764862 
1923.766 758178 755550 754034 748533 733671 705924 665740 618126 572110 
1928.106 537765 523469 532965 564585 611904 666461 720513 769026 810579 
1932.445 846468 878643 908386 934635 954430 963979 959899 940691 907449 
1936.785 863856 815792 770433 735188 716556 718847 742985 786171 841843 
1941.125 901440 956521 1001135 1033545 1056315 1074967 1095277 1120615 
1944.982 1149761 1177377 1195892 1198680 1183204 1152403 1114437 1079909 
1948.839 1058539 1055452 1069438 1093277 1116289 1127250 1117909 1084615 
1952.697 1029010 956325 873626 788197 706423 633485 574786 535070 519129 
1957.036 530048 567315 625128 691991 752023 788927 790695 753712 684157 
1961.376 595862 505385 426263 364149 316432 274495 228819 174651 114636 
1965.716 58942 20510 9722 28871 70332 118769 155983 167480 146411 94717 
1970.537 20444 -64914 -151859 -233117 -303573 -357948 -389082 -387797 
1974.395 -345102 -255551 -120517 50533 240912 430320 599323 732973 823507 
1978.734 871571 884417 874692 857098 846544 854844 889004 948335 1024533 
1983.074 1102651 1165328 1197707 1192098 1150553 1083798 1007448 936870 
1986.931 882344 846915 826504 813210 798056 774596 739741 693881 639410 
1991.271 580238 520826 466589 423406 396118 386579 391697 402341 405533 
1995.611 387405 339263 261241 163885 65705 -11570 -50957 -44985 801 69232 
2000.432 135885 175448 167557 101553 -22275 -192208 -387978 -583679 -751824 
2004.772 -867899 -915174 -888954 -799363 -669873 -531892 -415893 -342996 
2008.629 -319523 -337134 -376769 -417254 -441463 -442676 -424326 -398346 
2012.487 -379867 -383259 -418240 -488704 -592364 -721387 -864160 -1005450 
2016.344 -1129190 -1221296 -1271200 -1276393 -1241090 -1175739 -1092503 
2019.719 -1002405 -912317 -825728 -744656 -673480 -620349 -596964 -613596 
2023.577 -674162 -771804 -888822 -1000620 -1083943 -1124372 -1122100 
2026.952 -1091848 -1056014 -1036606 -1046243 -1083903 -1136096 -1182244 
2030.327 -1202932 -1186457 -1132392 -1050685 -957001 -866481 -789145 -727223 
2034.185 -675322 -623546 -561416 -481990 -384830 -275754 -166403 -70255 1026 
2038.524 41081 51209 39965 19819 3535 -1068 7163 21604 31796 27565 3358 
2043.828 -39084 -90796 -138100 -165977 -161402 -115423 -23860 111804 284016 
2048.168 478310 673325 843552 964449 1018642 1000823 919657 795186 654214 
2052.508 523160 422624 362621 342531 353244 382581 420979 464909 516461 
2056.847 580666 659943 751695 847406 935178 1004127 1048598 1069752 1074549 
2061.187 1072284 1070468 1072039 1075077 1074512 1065699 1046192 1017429 
2065.044 982949 946785 911234 876061 839821 801340 761675 724787 696407 
2069.384 681908 684216 702086 730480 762364 791041 812547 826382 835379 
2073.723 844221 857627 878807 908836 946366 988665 1031943 1072176 1105707 
2078.063 1129532 1141587 1141608 1130716 1112013 1089810 1068928 1053678 
2081.920 1047041 1049866 1060966 1077528 1095673 1111341 1121109 1122809 
2085.778 1115365 1099068 1074950 1044294 1008220 967143 920698 867979 808253 
2090.117 741640 669784 596313 526778 467980 427029 409955 420265 457798 
2094.457 518462 594178 674651 749140 809217 850501 873748 884301 890605 
2098.797 901217 922535 956760 1001764 1051872 1100135 1140266 1168700 
2102.654 1184535 1189396 1185340 1173726 1154503 1126406 1088392 1041018 
2106.511 987657 934211 888204 856635 844054 851166 874727 908527 944934 
2110.851 977215 1000766 1014053 1018283 1016286 1011329 1005753 999835 
2114.708 992124 979493 958797 928024 887384 839643 789534 742210 701615 
2119.048 668678 641155 614264 582497 541975 492195 436429 380890 332539 
2123.388 296450 274226 263276 257829 250939 236434 210627 172340 122421 
2127.727 62325 -6832 -84637 -171045 -265412 -365821 -468540 -568525 -659802 
2132.067 -736546 -793767 -827315 -834570 -813890 -765544 -691864 -597609 
2135.924 -489820 -377359 -269808 -176694 -106420 -66028 -60611 -92615 
2139.782 -160773 -259529 -377794 -500895 -612173 -697046 -746302 -758853 
2143.639 -741206 -705190 -663930 -627498 -600979 -584412 -575475 -572621 
2147.497 -577650 -596111 -635202 -700578 -793581 -910082 -1042076 -1180003 
2151.354 -1315540 -1443768 -1563715 -1677343 -1788889 -1904477 -2031634 
2154.729 -2178172 -2349878 -2545033 -2747474 -2923464 -3020899 -2980761 
2158.104 -2754951 -2330267 -1744304 -1083069 -455645 39085 341301 440438 
2161.962 367014 175016 -77657 -342836 -587788 -794292 -952273 -1054988 
2165.819 -1095426 -1069062 -977593 -833874 -661703 -492298 -356455 -277334 
2169.677 -264866 -314801 -412231 -536860 -668381 -790066 -889039 -956427 
2173.534 -986483 -978126 -936778 -876083 -816607 -781902 -791008 -851866 
2177.392 -957237 -1086194 -1210374 -1302759 -1345790 -1335819 -1281833 
2180.767 -1201119 -1111144 -1023639 -942721 -866643 -792385 -720096 -654670 
2184.624 -603921 -574325 -566534 -573729 -583180 -580428 -555059 -503997 
2188.482 -433319 -354870 -282505 -227137 -193587 -180314 -181100 -188765 
2192.339 -197404 -204603 -210812 -217987 -228008 -240991 -255618 -269379 
2196.197 -280967 -291021 -302471 -319963 -348214 -389651 -443666 -504988 
2200.054 -565631 -616397 -648907 -658308 -643945 -608113 -555774 -491356 
2203.911 -418084 -337810 -251962 -163205 -77518 -3640 48020 68820 55206 
2208.251 11209 -51314 -114929 -160975 -174607 -148636 -85324 4755 105708 
2212.591 200993 276999 326079 346791 343715 325327 301913 283494 277833 
2216.930 289349 317610 358244 402781 441272 464396 466278 445905 407608 
2221.270 359661 311924 272740 247051 235481 235230 242003 252091 263403 
2225.609 275839 290094 306540 323899 339670 350952 356445 357567 359024 
2229.949 367645 390196 430861 489356 560740 636406 707058 765397 808025 
2234.289 836352 855019 870058 885920 903938 922019 935755 940239 932363 
2238.628 911965 882189 848337 816392 791328 776101 771268 775656 786661 
2242.968 801163 815868 827379 832635 829265 816284 794859 768343 741808 
2247.307 720745 709451 709521 719144 733533 746706 753140 750130 738454 
2251.647 722587 709362 706214 719103 751154 801848 867156 940652 1014695 
2255.987 1082031 1137550 1178964 1207523 1227005 1242733 1259409 1279364 
2259.844 1301410 1320503 1329341 1320428 1289050 1234889 1163299 1084112 
2263.701 1009592 951639 918822 915291 940105 988330 1052689 1125179 1198444 
2268.041 1266678 1325924 1374236 1411424 1439041 1459797 1476924 1493228 
2271.898 1510352 1528043 1544827 1558315 1566453 1568561 1565747 1560671 
2275.756 1556628 1556177 1560276 1567812 1576271 1582695 1585208 1584032 
2279.613 1581950 1583574 1594167 1617793 1656054 1707167 1766173 1826108 
2283.471 1879673 1920991 1947035 1957970 1956684 1947712 1935701 1924212 
2287.328 1914968 1907884 1901577 1893962 1883137 1867856 1847537 1822530 
2291.186 1793793 1762974 1732468 1705034 1683445 1669981 1665509 1669206 
2295.043 1678388 1689129 1697159 1698986 1692701 1678130 1656643 1630305 
2298.900 1601123 1570675 1539977 1509987 1481904 1457423 1438346 1426235 
2302.758 1421751 1424232 1431939 1442571 1454044 1464942 1474830 1483893 
2306.615 1492620 1501179 1509355 1516735 1522962 1527925 1531973 1535510 
2310.473 1538808 1541781 1543992 1545038 1544862 1544048 1543622 1544793 
2314.330 1548315 1554534 1563279 1574375 1588034 1605062 1626593 1653688 
2318.188 1686690 1725241 1768499 1816128 1868630 1927560 1994204 2068032 
2322.045 2144868 2216184 2270033 2293772 2277401 2216797 2115142 1982649 
2325.902 1834053 1685623 1551464 1441235 1358703 1302354 1267029 1246350 
2329.760 1234754 1228562 1226034 1226592 1229966 1235508 1242100 1248422 
2333.617 1253447 1256697 1258155 1258109 1256880 1254679 1251952 1249279 
2337.475 1247592 1247928 1251001 1256696 1263939 1270990 1275869 1277270 
2341.332 1274965 1269924 1263970 1258934 1256033 1255363 1256149 1257154 
2345.189 1257476 1256892 1255978 1255913 1257832 1262336 1269329 1277910 
2349.047 1286748 1294509 1300090 1302849 1302635 1299841 1295182 1289828 
2352.904 1285047 1282208 1282178 1285221 1290660 1297017 1302326 1304688 
2356.762 1302867 1296537 1286486 1274233 1261613 1250286 1241251 1234857 
2360.619 1230779 1228117 1225738 1222441 1217185 1209305 1198721 1185978 
2364.477 1172328 1159372 1148758 1141715 1138618 1139072 1141993 1146176 
2368.334 1150718 1155342 1160380 1166468 1174085 1183206 1193127 1202599 
2372.191 1210303 1215250 1217168 1216548 1214534 1212536 1211867 1213490 
2376.049 1217871 1224819 1233723 1243492 1252819 1260436 1265422 1267467 
2379.906 1267205 1266032 1265961 1269005 1276516 1288810 1304860 1322430 
2383.764 1338689 1350716 1356361 1354649 1345938 1331987 1315381 1299107 
2387.621 1285880 1277585 1274774 1276818 1281997 1287997 1292755 1294909 
2391.479 1294207 1291427 1287932 1285141 1283681 1283490 1283709 1283212 
2395.336 1281149 1277228 1271907 1266021 1260198 1254558 1248594 1241429 
2399.193 1232203 1220624 1207176 1192912 1179038 1166593 1155818 1146633 
2403.051 1138774 1132280 1127950 1127218 1131882 1143397 1162220 1187449 
2406.908 1216897 1247422 1275481 1297854 1312046 1316714 1311480 1297284 
2410.766 1276083 1250674 1224436 1200635 1181939 1169756 1164030 1163236 
2414.623 1164997 1166791 1166660 1163671 1158058 1150840 1143199 1136073 
2418.480 1129787 1124139 1118781 1113567 1108902 1105637 1104925 1107683 
2422.338 1114149 1123612 1134369 1144190 1150630 1151833 1146904 1136237 
2426.195 1121464 1104948 1089355 1076805 1068347 1063820 1061796 1060202 
2430.053 1057004 1050838 1041406 1029483 1016523 1004121 993432 985059 
2433.910 978962 974931 973154 974234 979217 989237 1004543 1024398 1046631 
2438.250 1068150 1085666 1096798 1100478 1097640 1090536 1082147 1075129 
2442.107 1070960 1069471 1069102 1067415 1062195 1052269 1038217 1022321 
2445.965 1008262 1000000 1000909 1012550 1034286 1063139 1094592 1123541 
2449.822 1145462 1157456 1158750 1150424 1134967 1115180 1093558 1071833 
2453.679 1051147 1032230 1016117 1004147 997930 998733 1006669 1020435 
2457.537 1037020 1052636 1063471 1066757 1061806 1049865 1033730 1016703 
2461.394 1001697 990383 983117 979003 976724 974798 972146 967993 961729 
2465.734 952743 940481 924688 905635 884253 862281 841748 824492 811865 
2470.073 804280 801510 803184 809025 819251 834303 854665 880038 909121 
2474.413 939447 967816 990906 1006093 1011995 1008746 997824 981490 962400 
2478.753 943042 925195 910096 898116 889025 882103 876414 871029 865353 
2483.092 859318 853380 848618 846144 846981 851627 860086 871763 885614 
2487.432 900328 914484 926635 935464 939905 939588 935093 928032 920910 
2491.771 916593 917536 924894 938079 954771 971631 985138 992737 993396 
2496.111 987812 977770 965545 953025 941371 931073 922301 915397 911230 
2500.451 910946 915868 926810 943903 966484 993187 1022226 1051853 1080268 
2504.790 1105791 1126735 1141800 1150067 1151615 1147404 1139489 1130118 
2508.648 1121408 1114367 1108810 1103235 1095725 1084919 1070454 1053523 
2512.505 1036723 1023297 1016382 1018343 1030345 1052170 1082375 1118317 
2516.363 1156382 1192224 1221293 1239548 1244426 1235684 1215671 1188995 
2520.220 1161539 1138442 1123130 1116272 1116097 1119324 1122917 1125032 
2524.077 1125999 1127397 1131061 1137821 1146571 1154386 1157703 1153616 
2527.935 1141446 1123220 1103307 1086859 1078424 1080289 1092020 1110933 
2531.792 1132949 1153969 1171056 1182613 1188634 1189913 1187694 1183267 
2535.650 1177778 1172260 1167862 1165536 1166191 1170143 1177251 1186666 
2539.507 1197268 1207781 1217261 1225068 1231176 1235804 1239454 1242620 
2543.365 1245677 1248717 1251503 1253591 1254408 1253426 1250779 1247193 
2547.222 1244177 1243773 1247731 1257054 1271216 1288155 1304718 1317714 
2551.079 1324824 1325442 1321080 1314577 1309116 1307052 1309191 1314491 
2554.937 1320821 1325697 1327430 1325503 1320644 1314180 1307344 1301038 
2558.794 1295511 1290805 1287222 1285353 1286205 1290610 1298650 1309459 
2562.652 1321175 1331539 1338838 1342263 1342498 1341237 1340517 1341930 
2566.509 1346021 1352188 1359132 1365313 1369920 1372917 1375295 1378510 
2570.366 1384019 1392653 1404388 1418216 1432509 1445453 1455467 1461796 
2574.224 1464731 1465550 1466412 1469514 1476708 1488525 1504128 1521307 
2578.081 1537100 1548656 1554231 1553586 1547939 1539629 1531170 1524355 
2581.939 1520044 1517891 1517003 1516453 1515825 1515231 1515375 1516978 
2585.796 1520508 1526047 1533351 1541910 1551255 1560987 1570688 1579715 
2589.654 1587344 1592870 1595944 1596816 1596521 1596583 1598396 1602780 
2593.511 1609476 1617125 1623870 1627974 1628600 1626145 1622118 1618588 
2597.368 1617386 1619407 1624406 1631111 1637844 1643182 1646354 1647472 
2601.226 1647314 1646859 1646849 1647452 1648317 1648674 1647763 1645275 
2605.083 1641621 1637913 1635869 1637241 1643380 1654589 1670081 1687793 
2608.941 1705013 1719090 1728284 1732143 1731918 1729866 1728648 1730232 
2612.798 1735298 1743065 1751689 1758926 1763218 1764116 1762407 1759748 
2616.656 1757950 1758107 1760536 1764393 1768454 1771468 1772799 1772579 
2620.513 1771520 1770708 1771096 1773230 1777299 1783072 1790304 1798714 
2624.370 1808072 1818107 1828340 1838117 1846529 1852653 1856001 1856439 
2628.228 1854584 1851570 1848740 1847228 1847700 1850058 1853480 1856700 
2632.085 1858547 1858196 1855566 1851215 1846223 1841594 1837983 1835364 
2635.943 1833180 1830666 1827476 1823771 1820632 1819447 1821618 1827734 
2639.800 1837311 1848643 1859464 1867435 1871121 1870199 1865619 1859097 
2643.657 1852502 1847124 1843552 1841617 1840812 1840622 1841047 1842568 
2647.515 1845827 1851450 1859465 1869152 1879244 1888109 1894210 1896501 
2651.372 1894801 1889528 1881894 1873330 1865414 1859337 1855940 1855329 
2655.230 1857079 1860331 1863915 1866696 1867795 1866613 1862942 1856852 
2659.087 1848523 1838186 1826028 1812282 1797216 1781198 1764746 1748228 
2662.945 1731957 1715933 1699968 1683767 1667204 1650413 1633995 1618827 
2666.802 1605869 1595855 1589118 1585434 1584206 1584627 1585863 1587244 
2670.659 1588473 1589298 1589701 1589656 1589216 1588542 1587840 1587426 
2674.517 1587515 1588241 1589327 1590342 1590538 1589171 1585716 1579985 
2678.374 1572191 1562992 1553350 1544335 1537099 1532588 1531504 1534102 
2682.232 1540069 1548416 1557686 1566067 1571892 1574031 1572267 1567319 
2686.089 1560763 1554467 1550127 1548709 1550268 1553958 1558426 1562255 
2689.947 1564486 1564748 1563438 1561315 1559289 1558104 1558130 1559304 
2693.804 1561348 1563780 1566168 1568231 1569661 1570386 1570332 1569462 
2697.661 1567868 1565738 1563336 1561005 1559090 1557791 1557217 1557214 
2701.519 1557555 1557806 1557703 1557046 1555817 1554243 1552740 1551937 
2705.376 1552459 1554825 1559391 1566112 1574663 1584200 1593777 1602303 
2709.234 1608940 1613240 1615275 1615507 1614802 1613878 1613299 1613149 
2713.091 1613117 1612611 1611028 1607968 1603595 1598361 1593091 1588621 
2716.948 1585645 1584458 1585031 1587065 1590104 1593682 1597454 1601117 
2720.806 1604380 1606830 1608175 1608086 1606523 1603771 1600479 1597505 
2724.663 1595958 1596716 1600486 1607407 1617334 1629665 1643524 1657993 
2728.521 1672065 1684943 1695973 1704760 1711275 1715653 1718297 1719730 
2732.378 1720438 1720824 1721192 1721707 1722534 1723803 1725735 1728522 
2736.236 1732341 1737246 1743120 1749704 1756614 1763406 1769593 1774705 
2740.093 1778390 1780270 1780205 1778213 1774570 1769745 1764448 1759315 
2743.950 1754984 1751767 1749758 1748819 1748961 1750228 1752900 1757281 
2747.808 1763558 1771418 1780085 1788256 1794590 1798068 1798476 1796626 
2751.665 1794202 1793201 1795321 1801377 1810945 1822416 1833568 1842204 
2755.523 1846893 1847281 1844191 1839217 1834102 1830276 1828480 1828762 
2759.380 1830660 1833570 1837048 1840862 1845066 1849673 1854605 1859643 
2763.238 1864449 1868624 1872067 1874756 1876944 1878761 1880224 1881148 
2767.095 1881150 1879847 1876961 1872564 1867048 1861017 1855320 1850778 
2770.952 1848275 1848475 1851837 1858362 1867512 1878075 1888381 1896505 
2774.810 1900935 1901069 1897522 1892105 1887388 1885668 1888398 1895486 
2778.667 1905326 1915349 1922998 1926589 1925996 1922585 1918639 1916649 
2782.525 1918284 1923993 1933107 1944061 1955245 1965327 1973697 1980231 
2786.382 1985172 1988801 1991351 1993057 1994247 1995475 1997483 2000910 
2790.240 2006228 2013324 2021797 2030968 2040368 2049933 2060057 2071475 
2794.097 2084988 2100995 2119440 2139761 2161082 2182234 2202265 2220211 
2797.954 2235284 2246861 2254645 2258813 2260242 2260366 2261162 2264321 
2801.812 2271171 2281740 2295058 2309187 2322053 2331951 2338111 2341081 
2805.669 2342194 2343269 2345966 2351242 2359394 2369987 2382293 2395505 
2809.527 2409103 2422650 2436060 2449134 2461804 2473806 2484814 2494561 
2813.384 2502866 2509833 2515859 2521584 2528053 2536239 2547076 2560891 
2817.241 2577516 2596073 2615412 2634456 2652659 2670375 2688633 2708811 
2821.099 2731904 2758136 2786668 2815742 2843550 2868874 2891759 2913640 
2824.956 2936970 2964282 2997491 3037064 3082099 3130490 3179838 3228271 
2828.814 3274909 3320127 3365212 3411881 3461910 3516542 3576644 3642450 
2832.671 3714019 3791288 3874278 3963141 4058260 4160266 4270093 4388728 
2836.529 4517266 4656688 4807749 4970969 5146753 5335721 5538846 5757690 
2840.386 5994449 6251593 6531616 6836727 7168497 7528043 7916123 8333365 
2844.243 8780482 9258056 9766178 10303599 10866976 11449942 12042765 
2847.619 12632249 13202469 13736020 14215666 14626208 14956170 15198874 
2850.994 15352966 15421791 15412650 15335158 15200168 15018463 14800312 
2854.369 14555168 14291558 14017083 13738301 13460261 13186496 12918639 
2857.744 12656845 12400148 12147222 11897144 11649800 11406053 11167590 
2861.120 10936279 10713876 10501508 10299585 10107940 9926011 9753142 
2864.495 9588881 9432936 9285302 9146175 9015850 8894545 8782341 8679067 
2868.352 8584244 8497095 8416712 8342159 8272811 8208355 8149011 8095156 
2872.210 8047418 8006210 7971646 7943625 7921894 7906256 7896765 7893775 
2876.067 7897981 7909865 7930010 7958454 7995016 8039184 8090477 8148423 
2879.925 8212794 8283456 8360485 8444053 8534466 8631984 8737031 8849876 
2883.782 8970609 9098789 9233426 9372826 9514804 9656917 9796987 9933241 
2887.639 10064791 10191391 10313431 10431413 10545864 10656904 10764200 
2891.015 10867164 10965044 11057170 11143247 11223494 11298744 11370383 
2894.390 11440110 11509720 11580670 11653839 11729191 11805905 11882512 
2897.765 11957348 12029229 12097748 12163710 12228965 12296030 12367643 
2901.140 12446113 12532966 12628919 12733948 12847745 12970115 13101080 
2904.516 13241008 13390440 13549931 13719957 13900793 14092851 14296682 
2907.891 14513308 14744101 14990790 15255272 15539475 15845437 16175260 
2911.266 16531087 16915136 17329400 17774914 18251344 18756268 19285118 
2914.641 19831028 20385476 20938970 21481632 22003946 22496926 22952470 
2918.017 23363260 23723032 24026580 24270310 24452094 24571716 24630838 
2921.392 24632670 24581948 24484518 24347180 24177336 23982532 23770108 
2924.767 23546408 23316392 23083212 22848298 22611720 22372854 22131022 
2928.142 21886140 21638884 21390572 21142904 20897342 20655144 20417144 
2931.518 20183984 19956332 19734942 19520596 19313644 19114134 18921218 
2934.893 18733528 18549402 18367452 18186922 18008056 17831724 17659402 
2938.268 17492316 17331244 17176024 17025754 16878808 16733512 16588192 
2941.643 16441779 16293772 16144310 15994053 15843840 15694499 15546566 
2945.019 15400212 15255094 15110537 14965872 14820679 14675158 14530101 
2948.394 14386936 14247251 14112511 13983409 13859715 13740182 13622946 
2951.769 13505782 13386898 13265084 13140313 13013415 12885894 12759335 
2955.144 12635079 12513551 12394192 12275687 12156005 12033191 11905577 
2958.520 11772485 11634105 11491467 11346308 11200320 11055071 10911716 
2961.895 10770815 10632592 10496791 10363036 10230730 10099084 9967320 
2965.270 9834600 9700526 9565122 9429216 9294107 9161434 9032484 8907841 
2969.127 8786837 8667921 8548775 8427167 8301626 8171944 8039175 7905508 
2972.985 7773351 7644945 7521569 7403541 7290196 7180477 7073307 6968087 
2976.842 6864886 6764314 6667288 6574592 6486471 6402497 6321539 6241911 
2980.700 6161851 6079974 5995525 5908756 5820739 5733084 5647567 5565692 
2984.557 5488144 5414982 5345517 5278818 5213884 5149930 5086482 5023292 
2988.415 4960144 4896831 4833169 4769068 4704874 4641216 4579181 4519906 
2992.272 4464313 4412809 4365072 4320261 4277429 4235746 4194801 4154870 
2996.129 4116539 4080387 4046652 4014901 3984173 3953319 3921182 3887304 
2999.987 3851938 3815996 3780802 3747560 3716721 3687997 3660069 3631166 
3003.844 3599477 3563756 3523901 3480997 3436939 3394170 3354743 3319742 
3007.702 3289010 3261291 3234538 3206648 3176151 3142555 3106282 3068515 
3011.559 3030553 2993551 2957905 2923666 2890527 2858275 2826938 2796844 
3015.417 2768380 2741842 2717045 2693459 2670258 2646879 2623080 2599073 
3019.274 2575420 2552763 2531439 2511164 2491241 2470663 2448632 2424945 
3023.131 2400052 2375226 2351887 2331543 2315103 2302740 2293914 2287423 
3026.989 2281685 2275210 2266867 2256070 2242852 2227937 2212385 2197545 
3030.846 2184356 2173410 2164708 2157505 2150852 2143808 2135731 2126661 
3034.704 2117231 2108565 2101858 2098114 2097834 2101070 2107304 2115842 
3038.561 2125784 2136313 2146805 2156841 2166379 2175766 2185782 2197779 
3042.418 2213185 2233385 2259215 2290701 2326865 2365844 2405391 2443307 
3046.276 2478356 2510276 2540228 2570412 2603423 2641647 2686491 2737986 
3050.133 2794482 2852888 2909188 2959255 2999570 3027937 3043794 3048312 
3053.991 3043834 3033401 3019829 3005278 2990882 2976895 2962906 2948490 
3057.848 2933594 2918643 2904642 2892948 2884763 2880918 2881704 2886770 
3061.706 2895280 2906105 2918169 2930434 2942196 2953214 2963479 2973354 
3065.563 2983169 2993155 3003227 3012752 3020732 3026093 3027682 3024975 
3069.420 3017877 3007084 2993688 2979050 2964638 2951607 2940873 2933009 
3073.278 2928213 2926185 2926186 2927040 2927426 2926166 2922635 2917134 
3077.135 2910797 2905334 2902402 2902753 2906022 2910471 2913555 2912801 
3080.993 2906643 2894974 2879234 2861759 2844854 2829991 2817161 2805067 
3084.850 2791584 2774779 2753535 2727925 2699140 2668861 2638621 2609463 
3088.708 2581710 2555134 2529525 2505112 2482678 2463433 2448586 2439026 
3092.565 2434794 2435246 2438924 2444294 2450011 2455227 2459840 2464381 
3096.422 2469613 2476415 2485257 2496194 2508776 2522180 2535474 2547904 
3100.280 2558967 2568496 2576551 2583090 2588039 2590820 2590919 2587873 
3104.137 2581575 2572520 2561815 2550751 2540513 2531594 2523659 2515586 
3107.995 2505769 2492676 2475310 2453431 2427582 2398909 2368607 2337819 
3111.852 2307303 2277716 2249659 2223748 2200728 2181228 2165594 2153722 
3115.709 2144952 2138130 2131915 2125205 2117234 2107898 2097603 2087443 
3119.567 2078634 2072531 2070385 2072857 2080172 2091669 2105956 2121078 
3123.424 2134914 2145579 2151894 2153667 2151748 2147630 2142973 2139210 
3127.282 2136961 2135932 2135208 2133347 2129000 2121450 2110664 2097495 
3131.139 2083364 2069831 2058254 2049289 2042649 2037304 2031610 2023890 
3134.997 2012890 1998229 1980413 1960739 1940882 1922339 1905955 1892035 
3138.854 1880136 1869732 1860433 1852397 1846310 1843102 1843554 1847815 
3142.711 1855181 1864058 1872380 1877874 1878869 1874372 1864548 1850464 
3146.569 1833925 1817214 1802445 1791382 1785072 1783622 1786168 1791158 
3150.426 1796688 1800877 1802253 1800169 1794677 1786495 1776808 1766887 
3154.284 1757968 1751249 1747610 1747633 1751523 1758899 1768597 1778957 
3158.141 1787868 1793495 1794670 1791264 1784144 1774869 1765093 1755973 
3161.999 1747720 1739932 1731771 1722801 1713426 1704908 1699074 1697676 
3165.856 1701471 1709930 1721154 1732510 1741490 1746475 1747283 1745018 
3169.713 1741688 1739145 1738527 1739887 1742141 1743673 1742895 1738858 
3173.571 1731477 1721624 1710672 1700090 1691145 1684553 1680483 1678725 
3177.428 1678702 1679916 1681791 1684062 1686727 1690011 1694449 1700489 
3181.286 1708355 1717696 1727373 1735600 1740370 1739864 1733248 1721246 
3185.143 1706216 1691794 1682091 1680518 1688789 1706310 1730043 1755455 
3189.000 1777284 1791158 1794523 1787234 1771430 1750880 1729952 1712543 
3192.858 1701374 1697465 1700239 1707867 1717844 1727504 1734294 1736550 
3196.715 1733123 1723849 1709221 1690621 1669820 1648929 1630074 1615301 
3200.573 1605997 1603064 1606567 1615738 1629121 1644689 1660274 1673727 
3204.430 1683543 1688966 1690177 1688044 1683986 1679368 1675232 1672096 
3208.288 1670013 1668768 1668223 1668473 1669930 1673033 1677958 1684370 
3212.145 1691301 1697470 1701658 1703229 1702482 1700462 1698690 1698557 
3216.002 1700580 1704298 1708222 1710517 1709543 1704672 1696410 1686473 
3219.860 1676975 1670014 1666948 1668181 1673303 1681440 1691872 1704102 
3223.717 1718034 1733573 1750209 1766919 1781978 1793514 1799922 1800603 
3227.575 1796127 1788098 1778734 1770158 1763629 1759428 1756785 1754555 
3231.432 1751629 1747575 1742783 1738239 1735147 1734397 1736185 1739905 
3235.290 1744397 1748369 1750606 1750454 1747631 1742298 1734769 1725544 
3239.147 1715187 1704360 1693868 1684644 1677473 1672951 1671254 1672351 
3243.004 1675992 1681940 1690130 1700553 1713005 1726941 1741155 1754047 
3246.862 1763805 1769068 1769200 1764591 1756308 1745702 1733763 1720863 
3250.719 1706629 1690442 1672028 1651997 1631920 1614129 1600979 1594117 
3254.577 1593743 1598887 1607502 1617484 1627328 1636575 1645694 1655777 
3258.434 1667743 1681964 1697994 1714620 1730587 1744733 1756401 1765447 
3262.292 1772034 1776368 1778612 1778918 1777571 1775271 1773090 1772410 
3266.149 1774238 1779092 1786513 1795032 1802709 1807363 1807585 1802992 
3270.006 1794425 1783815 1773708 1766550 1764177 1767093 1774446 1784054 
3273.864 1792829 1797609 1795884 1786753 1771180 1752032 1733485 1719947 
3277.721 1714792 1719541 1733098 1752325 1772737 1789999 1801061 1804936 
3281.579 1802801 1797340 1791634 1788296 1788581 1792358 1798495 1805515 
3285.436 1812207 1818019 1822863 1826947 1830326 1832635 1833356 1832091 
3289.293 1828772 1824072 1819172 1815188 1812947 1812384 1812694 1812716 
3293.151 1811380 1808373 1804217 1800203 1797670 1797502 1799689 1803469 
3297.008 1807616 1811277 1814529 1818403 1824668 1834933 1849831 1868446 
3300.866 1888331 1906141 1918537 1923286 1919962 1909917 1895765 1880601 
3304.723 1867175 1857208 1851355 1849372 1850530 1853929 1858674 1863808 
3308.581 1868255 1870727 1869888 1864617 1854544 1840224 1823035 1805399 
3312.438 1789726 1778318 1772697 1773444 1780228 1791996 1807405 1824890 
3316.295 1842972 1860404 1875928 1888607 1897592 1902236 1902267 1897762 
3320.153 1889333 1878060 1865402 1853076 1842843 1836276 1834323 1837188 
3324.010 1844359 1854377 1865493 1875764 1883582 1888087 1889187 1887674 
3327.868 1884753 1881853 1880182 1880577 1883286 1888164 1894732 1902432 
3331.725 1910861 1919673 1928701 1937855 1947035 1955893 1963970 1970661 
3335.583 1975225 1977069 1975909 1971845 1965428 1957528 1949235 1941567 
3339.440 1935142 1930196 1926661 1924090 1922169 1920707 1919739 1919668 
3343.297 1920764 1923208 1926752 1930837 1934485 1936853 1937312 1935849 
3347.155 1932903 1929371 1926288 1924373 1923886 1924298 1924530 1923265 
3351.012 1919166 1911341 1899689 1884862 1868197 1851293 1835703 1822619 
3354.870 1812415 1804830 1799078 1794068 1789034 1783548 1777746 1772313 
3358.727 1768051 1765804 1765877 1768226 1772391 1777707 1783474 1789233 
3362.584 1794621 1799538 1803801 1807219 1809656 1811191 1812229 1813562 
3366.442 1816159 1820869 1827942 1836644 1845338 1851740 1853554 1849421 
3370.299 1839203 1824437 1807836 1792522 1781321 1775751 1775948 1780750 
3374.157 1788179 1796312 1803667 1809405 1813355 1815641 1816297 1815310 
3378.014 1812600 1808258 1802770 1797133 1792572 1790288 1790985 1794688 
3381.872 1800695 1807985 1815449 1822290 1828236 1833436 1838205 1842998 
3385.729 1847975 1853134 1858330 1863379 1868134 1872414 1875978 1878542 
3389.586 1879708 1879304 1877546 1875094 1873164 1873100 1876121 1882707 
3393.444 1892506 1904234 1916182 1926653 1934597 1939945 1943664 1947463 
3397.301 1953260 1962435 1975585 1992060 2010300 2028147 2043512 2054826 
3401.159 2061596 2064346 2064524 2064016 2064640 2067643 2073415 2081613 
3405.016 2091210 2101210 2110859 2120031 2129274 2139540 2151895 2166992 
3408.874 2184926 2205172 2226676 2248304 2269229 2288924 2307501 2325684 
3412.731 2344345 2364369 2386368 2410582 2436716 2464036 2491587 2518402 
3416.588 2543606 2566747 2587560 2606122 2622605 2637099 2649661 2660359 
3420.446 2669479 2677818 2686552 2697274 2711581 2730338 2753459 2779388 
3424.303 2805524 2828573 2845697 2855145 2856970 2852974 2846107 2839886 
3428.161 2837021 2838914 2845346 2854595 2864207 2871631 2875094 2873864 
3432.018 2868506 2860493 2851804 2844263 2839235 2837070 2837318 2838656 
3435.875 2839391 2837759 2832401 2822678 2808774 2791467 2772172 2752154 
3439.733 2732587 2714200 2697250 2681725 2667439 2654184 2641831 2630335 
3443.590 2619673 2609705 2600211 2590994 2581890 2572762 2563503 2554080 
3447.448 2544260 2533706 2521906 2508384 2492791 2474895 2455055 2433701 
3451.305 2411647 2389579 2368100 2347386 2327354 2307691 2288164 2268554 
3455.163 2249196 2230776 2214259 2200587 2190561 2184323 2181431 2180898 
3459.020 2181411 2181727 2181042 2179008 2175833 2171808 2167107 2161543 
3462.877 2154453 2145092 2132877 2117889 2100954 2083586 2067565 2054441 
3466.735 2044946 2038873 2035162 2032231 2028692 2023569 2016953 2009578 
3470.592 2002831 1998296 1997175 1999959 2006555 2015872 2026403 2036496 
3474.450 2044608 2049805 2051747 2050747 2047622 2043131 2037867 2032030 
3478.307 2025374 2017735 2009265 2000734 1993615 1989650 1990182 1995566 
3482.165 2004727 2015260 2024135 2028556 2027128 2020400 2010827 2002247 
3486.022 1998463 2002274 2014516 2033682 2056629 2079257 2097792 2109968 
3489.879 2115173 2114785 2111629 2108929 2109807 2116070 2128250 2145283 
3493.737 2165010 2184745 2202021 2215156 2223582 2227850 2229121 2228852 
3497.594 2228054 2227138 2225928 2223929 2220859 2216894 2212939 2210231 
3501.452 2210123 2213300 2219657 2228112 2237076 2244782 2249805 2251493 
3505.309 2249917 2245806 2240397 2234857 2230589 2228655 2230058 2235520 
3509.167 2245372 2259417 2276867 2296283 2316003 2334253 2349781 2361769 
3513.024 2370202 2375280 2377404 2376689 2372946 2365866 2355319 2341753 
3516.881 2326515 2311914 2300695 2295495 2298319 2309737 2328962 2353856 
3520.739 2381556 2409079 2433995 2454687 2470561 2481836 2489201 2493493 
3524.596 2495603 2496419 2496689 2497185 2498548 2501253 2505266 2510147 
3528.454 2514899 2518333 2519200 2516679 2510566 2501527 2490869 2480458 
3532.311 2472352 2468467 2470065 2477529 2490101 2505808 2521996 2535583 
3536.168 2544195 2546591 2543364 2536906 2530805 2528492 2532401 2542773 
3540.026 2557584 2573032 2584943 2590056 2587294 2577895 2565009 2552478 
3543.883 2543490 2539598 2540636 2544958 2550715 2556545 2562294 2568796 
3547.741 2577201 2588262 2601575 2615539 2627761 2635680 2637414 2632207 
3551.598 2620559 2604002 2584617 2564703 2546390 2531389 2520755 2514932 
3555.456 2513429 2514908 2517416 2518668 2516889 2511156 2501838 2490566 
3559.313 2479627 2471466 2467929 2469630 2475983 2485348 2495507 2503978 
3563.170 2508552 2507487 2499618 2484642 2463134 2436512 2406994 2377187 
3567.028 2349608 2326023 2307174 2292762 2281528 2271995 2262940 2253668 
3570.885 2244057 2234337 2224601 2214528 2203385 2190269 2174678 2157031 
3574.743 2138900 2122845 2111818 2108488 2114550 2130070 2153768 2183114 
3578.600 2214998 2246465 2275058 2299102 2317713 2330453 2337308 2338128 
3582.458 2332877 2321382 2303715 2280335 2252240 2220950 2188586 2157521 
3586.315 2130164 2108586 2094064 2086901 2086229 2090125 2096034 2101234 
3590.172 2103638 2102256 2097534 2091243 2085770 2083324 2084919 2089880 
3594.030 2095917 2099807 2098725 2091316 2078737 2064309 2052704 2048136 
3597.887 2053254 2067603 2087962 2109235 2126141 2134588 2132915 2122097 
3601.745 2104927 2084949 2065439 2048527 2035399 2026393 2021764 2021817 
3605.602 2026903 2037208 2052141 2070397 2089848 2108239 2123656 2135067 
3609.459 2142420 2146707 2149298 2151696 2155137 2160374 2167640 2176704 
3613.317 2186828 2197027 2206258 2213694 2219189 2223239 2227096 2232230 
3617.174 2239846 2250345 2263049 2276256 2288093 2296855 2301834 2303261 
3621.032 2302143 2299260 2294963 2288741 2279729 2267256 2251748 2234934 
3624.889 2219675 2209251 2205988 2210521 2221563 2235986 2249877 2259724 
3628.747 2263305 2260300 2252195 2241515 2231368 2224307 2222003 2224947 
3632.604 2232273 2242153 2251963 2258980 2261026 2257148 2247807 2234995 
3636.461 2221593 2210706 2204608 2204179 2208933 2217258 2227274 2237512 
3640.319 2247350 2256813 2266437 2276346 2286196 2294715 2300395 2301545 
3644.176 2297182 2287024 2271643 2252193 2230376 2207882 2186634 2168275 
3648.034 2154435 2146142 2143718 2146575 2153184 2161413 2169031 2174174 
3651.891 2175700 2173436 2167932 2160242 2151495 2142563 2133972 2125711 
3655.749 2117460 2108631 2098633 2087136 2074335 2061040 2048651 2038815 
3659.606 2032759 2030840 2032226 2034840 2036066 2033496 2025725 2012939 
3663.463 1996684 1979444 1963589 1950854 1942026 1937056 1935712 1937861 
3667.321 1943478 1952419 1963699 1975205 1983798 1986115 1979666 1964116 
3671.178 1941496 1915944 1892272 1874409 1864361 1861490 1863188 1865908 
3675.036 1866683 1863798 1857315 1848649 1839907 1832926 1829062 1829215 
3678.893 1833808 1843050 1856686 1873781 1892610 1910594 1924869 1933184 
3682.750 1934277 1928404 1917243 1903054 1887885 1873222 1859716 1847383 
3686.608 1836380 1827032 1820153 1816436 1816118 1818395 1821698 1824088 
3690.465 1823918 1820508 1814313 1806410 1798159 1790513 1783743 1777652 
3694.323 1772092 1767299 1763976 1762981 1764920 1769360 1774942 1779632 
3698.180 1781438 1779167 1772695 1762851 1751096 1738446 1725447 1712049 
3702.038 1698103 1683957 1670873 1660478 1654458 1653458 1656786 1662360 
3705.895 1667564 1670324 1669995 1667793 1666148 1667656 1673968 1685039 
3709.752 1699157 1713752 1726513 1736320 1743656 1750099 1757600 1767381 
3713.610 1779465 1792549 1804742 1814124 1819452 1820074 1816126 1807868 
3717.467 1795561 1779776 1761411 1742320 1725071 1712713 1708039 1712372 
3721.325 1725342 1744486 1766105 1786274 1801811 1811276 1815017 1814740 
3725.182 1812716 1810903 1810526 1811522 1813192 1814326 1813799 1810823 
3729.040 1805335 1797734 1789157 1781091 1775247 1773114 1775431 1781949 
3732.897 1791145 1800482 1807006 1808091 1802293 1789699 1772111 1752429 
3736.754 1734022 1719829 1711941 1711086 1717052 1728404 1743141 1758836 
3740.612 1772857 1782872 1787200 1785237 1778071 1768157 1759056 1754531 
3744.469 1757265 1768240 1786170 1808197 1830734 1850518 1865588 1875123 
3748.327 1879522 1879688 1876336 1869841 1860631 1849243 1837301 1827091 
3752.184 1821480 1822959 1832511 1849500 1871351 1894431 1914978 1930043 
3756.042 1938274 1939745 1935787 1928098 1918255 1907162 1895084 1881895 
3759.899 1867330 1851364 1834388 1817409 1801813 1789353 1781844 1780622 
3763.756 1786171 1797596 1812443 1827093 1837534 1840495 1834585 1820785 
3767.614 1802363 1783951 1770017 1763478 1765029 1772793 1783476 1793708 
3771.471 1801227 1805702 1808688 1812357 1818694 1828131 1839379 1849594 
3775.329 1855409 1854393 1845633 1830368 1811506 1792831 1777710 1768218 
3779.186 1764570 1765555 1768857 1772134 1774044 1774612 1775218 1777991 
3783.043 1784958 1797048 1813387 1831431 1847592 1858203 1860723 1854617 
3786.901 1841492 1824609 1807737 1794135 1785607 1782306 1783015 1786010 
3790.758 1789690 1793232 1796394 1799175 1801437 1802403 1800929 1795757 
3794.616 1786491 1773716 1759362 1746187 1737028 1733841 1737354 1746718 
3798.473 1760067 1774908 1789092 1800927 1809760 1815529 1818827 1820535 
3802.331 1821594 1822997 1825509 1829538 1835161 1841677 1848119 1853148 
3806.188 1855500 1854625 1850587 1844506 1837978 1832763 1830251 1831057 
3810.045 1835016 1841376 1849180 1857625 1866393 1875571 1885531 1896364 
3813.903 1907762 1918602 1927284 1931978 1931148 1924164 1911449 1894547 
3817.760 1875660 1857180 1841064 1828438 1819661 1814222 1811392 1810251 
3821.618 1810237 1811067 1812678 1815135 1818386 1822138 1826019 1829529 
3825.475 1832195 1833643 1833733 1832260 1829388 1825348 1820680 1816048 
3829.333 1812211 1809565 1808074 1806967 1805001 1800788 1793455 1783040 
3833.190 1770890 1759469 1751449 1749127 1753507 1763655 1777210 1790796 
3837.047 1801095 1806026 1805057 1799602 1792242 1785974 1783318 1785587 
3840.905 1792860 1804072 1817719 1832156 1846366 1859859 1872804 1885456 
3844.762 1897802 1909509 1919376 1925830 1927360 1922934 1912576 1897379 
3848.620 1879395 1861125 1844786 1831669 1821993 1814869 1808969 1802977 
3852.477 1796158 1788667 1781200 1774893 1770546 1768612 1769195 1772179 
3856.334 1777488 1785150 1794983 1806435 1818148 1828211 1834644 1836075 
3860.192 1832465 1825465 1817985 1813039 1812942 1817864 1826035 1834170 
3864.049 1838722 1837502 1830481 1820119 1810195 1804749 1806230 1814965 
3867.907 1828794 1844182 1857385 1865848 1868855 1867700 1864782 1862459 
3871.764 1862341 1864493 1867813 1870575 1871237 1869133 1864719 1859524 
3875.622 1855303 1853599 1855297 1859957 1866527 1873424 1879166 1883013 
3879.479 1884845 1885418 1885587 1886250 1887421 1888488 1888124 1884820 
3883.336 1877417 1865732 1850440 1833195 1816077 1801051 1789498 1781872 
3887.194 1777915 1776886 1777979 1780621 1784566 1789828 1796354 1803898 
3891.051 1811966 1819815 1826805 1832494 1836971 1840642 1844326 1848924 
3894.909 1855063 1862965 1872488 1882928 1893449 1903045 1911026 1916918 
3898.766 1920709 1922697 1923275 1923003 1922103 1920694 1918643 1915781 
3902.624 1912108 1907819 1903346 1899016 1895209 1891989 1889134 1886410 
3906.481 1883672 1881117 1879268 1878858 1880438 1884062 1889049 1894050 
3910.338 1897349 1897360 1893112 1884592 1872674 1859169 1846121 1835561 
3914.196 1829088 1827622 1831466 1840216 1853060 1868926 1886582 1905085 
3918.053 1923541 1941635 1959093 1975899 1991792 2006034 2017441 2024394 
3921.911 2025445 2019671 2007175 1989377 1968670 1948250 1930918 1919095 
3925.768 1913845 1915093 1921789 1932289 1944674 1956945 1967389 1974334 
3929.625 1976381 1972632 1962889 1948137 1930380 1912554 1898005 1889569 
3933.483 1888798 1895712 1908506 1924165 1939302 1950935 1957124 1957324 
3937.340 1952074 1942694 1930593 1916879 1902266 1887321 1872506 1858823 
3941.198 1847447 1839858 1837073 1839662 1847057 1858008 1870745 1883645 
3945.055 1895637 1906351 1915970 1924892 1933141 1940361 1945559 1947821 
3948.913 1946524 1942050 1935749 1929553 1925499 1925006 1928299 1934600 
3952.770 1942094 1948954 1953710 1955790 1955432 1953418 1950567 1947504 
3956.627 1944254 1940805 1937156 1933626 1930943 1929879 1930962 1933971 
3960.485 1937909 1941343 1942694 1941152 1936821 1930909 1925341 1922016 
3964.342 1922130 1926044 1932814 1940956 1948927 1955597 1960581 1964143 
3968.200 1966855 1969156 1971124 1972228 1971789 1969221 1964496 1958187 
3972.057 1951424 1945551 1941567 1939566 1938909 1937919 1934598 1927174 
3975.915 1914634 1897376 1877345 1857898 1843137 1837033 1842585 1860665 
3979.772 1889882 1926565 1965599 2001448 2029651 2047506 2054644 2052609 
3983.629 2043949 2031214 2016180 1999634 1981523 1961806 1941072 1921056 
3987.487 1903977 1892331 1887644 1890010 1897962 1909004 1920463 1930469 
3991.344 1938204 1944109 1949012 1953595 1957846 1961093 1962561 1961914 
3995.202 1959675 1957515 1957322 1960679 1967880 1977897 1988653 1997938 
3999.059 2004210 2007374 2008622 2009843 
##END=
