##TITLE=Bambu-Lab_PLA_Beige_Filament_r1_ATR-Corrected
##JCAMP-DX=5.01  $$ Nicolet v. 1
##DATATYPE=INFRARED SPECTRUM
##ORIGIN=Curtin University
##OWNER=Nicolet
##LONGDATE=2024/07/03
##TIME=10:31:33
##SPECTROMETER/DATA SYSTEM=Nicolet iS50
##DATA PROCESSING=
Ratio against background
%Transmittance->Absorbance
ATR Correction
Truncated
ElementMultiply or ElementDivide
##COMMENTS=
Number of sample scans: 32
Collection length: 47.28 sec
Sample gain: 1.0
Background collected on: Wed Jul 03 10:23:07 2024 (GMT+08:00);
Number of background scans: 32
Background gain: 1.0
Sample spacing:  1.000
Number of scan points: 16672
Resolution points: 8192
Number of FFT points: 65536
Apodization: N-B strong;
Phase correction: Mertz;
Laser frequency: 15798.3 cm-1
Number of rejected sample scans: 0
Number of rejected background scans: 0
Bench serial number: AUP1200105;
##RESOLUTION=4.000
##XUNITS=1/CM
##YUNITS=ABSORBANCE
##FIRSTX=400.163452
##LASTX=4000.187744
##FIRSTY=0.063779
##MAXX=4000.187744
##MINX=400.163452
##MAXY=1.382049
##MINY=-0.032385
##XFACTOR=1.000000
##YFACTOR=1.000000E-008
##NPOINTS=7468
##DELTAX=0.482125
##ZPD=8192
##XYDATA=(X++(Y..Y))
400.163 6377879 6259823 6163378 6095054 6049213 6012268 5967832 5903121 
404.020 5813713 5703832 5583152 5461326 5343546 5228704 5111461 4986096 
407.877 4850962 4710460 4574213 4453534 4357251 4288637 4244880 4218709 
411.734 4201817 4187885 4174374 4161962 4152682 4147170 4143378 4136581 
415.591 4121359 4093906 4054039 4005478 3954694 3908649 3872665 3849022 
419.448 3837135 3834577 3838820 3848224 3862219 3880417 3901540 3922580 
423.305 3939102 3946400 3941352 3923872 3897272 3867127 3839064 3816270 
427.162 3797932 3779274 3753496 3714808 3661292 3596625 3529566 3471417 
431.019 3432307 3417586 3425950 3449288 3476035 3494193 3495463 3477634 
434.876 3444966 3406343 3372352 3352097 3351178 3370931 3409170 3461478 
438.733 3522648 3587457 3651028 3708651 3755728 3788105 3802742 3798660 
442.590 3777575 3743935 3704369 3666539 3637984 3625016 3632168 3661777 
446.447 3713987 3786646 3875596 3974993 4078108 4178350 4270318 4350500 
450.304 4417295 4470305 4509250 4532936 4538978 4524349 4486715 4425818 
454.161 4344454 4248304 4144996 4042391 3947100 3863563 3794078 3739437 
458.017 3699875 3675553 3666632 3672730 3692408 3722969 3760939 3803004 
461.874 3847054 3892539 3940217 3990546 4043410 4096076 4143585 4179833 
465.731 4199367 4199051 4179082 4142664 4094768 4040330 3982855 3923761 
469.588 3862816 3799033 3731731 3661177 3588599 3515674 3443983 3374577 
473.445 3308025 3244700 3185163 3130296 3081043 3037942 3000679 2967890 
477.302 2937509 2907330 2875788 2842318 2807398 2772063 2737327 2703667 
481.159 2670939 2638636 2606449 2574723 2544629 2517907 2496308 2480940 
485.016 2471890 2468080 2467633 2468338 2468171 2465559 2459506 2449468 
488.873 2435271 2417030 2395312 2371211 2346393 2322964 2303120 2288620 
492.730 2280398 2278355 2281451 2287933 2296347 2305420 2314411 2323022 
496.587 2331162 2338595 2344850 2349269 2351334 2350984 2348850 2346100 
500.444 2344160 2344062 2346138 2349792 2353809 2356870 2358113 2357539 
504.301 2355846 2354033 2352702 2351528 2349245 2344022 2334293 2319607 
508.158 2301051 2281076 2262800 2248891 2240696 2237848 2238519 2240212 
512.015 2240744 2238927 2234788 2229211 2223276 2217627 2212195 2206318 
515.871 2199253 2190626 2180794 2170741 2161761 2154979 2151051 2150052 
519.728 2151655 2155352 2160589 2166769 2173087 2178468 2181667 2181573 
523.585 2177716 2170606 2161867 2153816 2149264 2150380 2158324 2173082 
527.442 2193644 2218457 2245893 2274483 2302977 2330257 2355276 2377033 
531.299 2394861 2408561 2418525 2425602 2430778 2434746 2437684 2439226 
535.156 2438746 2435716 2430018 2421961 2411993 2400303 2386473 2369399 
539.013 2347642 2319943 2285811 2245865 2201790 2155919 2110725 2068265 
542.870 2029884 1996187 1967233 1942780 1922421 1905702 1892099 1881014 
546.727 1871861 1864156 1857619 1852230 1848075 1845193 1843405 1842280 
550.584 1841230 1839751 1837644 1835130 1832760 1831205 1830976 1832195 
554.441 1834537 1837347 1839875 1841351 1841453 1840104 1837507 1834082 
558.298 1830430 1827233 1825156 1824746 1826293 1829780 1834918 1841319 
562.155 1848693 1856907 1866036 1876095 1886827 1897499 1907050 1914421 
566.012 1919092 1921468 1922977 1925627 1931288 1940848 1953669 1967724 
569.869 1980200 1988580 1991595 1989772 1985248 1981064 1980119 1984345 
573.725 1994316 2009376 2028136 2048967 2070331 2090794 2108919 2123193 
577.582 2132219 2135146 2132145 2124678 2115308 2107044 2102504 2103082 
581.439 2108629 2117653 2127952 2137502 2144977 2150062 2153159 2155026 
585.296 2156397 2157810 2159770 2162918 2168159 2176462 2188499 2204192 
589.153 2222547 2241776 2259875 2275205 2287083 2295914 2302865 2309396 
593.010 2316609 2324993 2334400 2344355 2354465 2364585 2374865 2385465 
596.867 2396358 2407178 2417386 2426608 2434923 2443051 2452157 2463384 
600.724 2477413 2494097 2512450 2530985 2548249 2563389 2576391 2588072 
604.581 2599786 2612942 2628736 2647910 2670799 2697480 2727896 2761882 
608.438 2799168 2839222 2881201 2923951 2966141 3006415 3043615 3076890 
612.295 3105786 3130206 3150370 3166702 3179754 3190087 3198241 3204670 
616.152 3209836 3214250 3218649 3224036 3231677 3242901 3258792 3279803 
620.009 3305543 3334633 3364998 3394245 3420293 3441928 3459073 3472887 
623.866 3485417 3499039 3515821 3536937 3562324 3590706 3619871 3647304 
627.723 3670848 3689323 3702896 3713069 3722366 3733639 3749407 3771260 
631.579 3799512 3833248 3870672 3909623 3948002 3984185 4017133 4046364 
635.436 4071864 4093913 4113077 4130150 4146117 4162056 4179014 4197762 
639.293 4218647 4241493 4265647 4290084 4313630 4335106 4353520 4368222 
643.150 4378946 4385954 4389988 4392251 4394202 4397290 4402653 4410914 
647.007 4422094 4435709 4451052 4467378 4484099 4500858 4517412 4533583 
650.864 4549280 4564576 4579932 4596276 4614924 4637239 4664103 4695450 
654.721 4730074 4765818 4800211 4831248 4858071 4881232 4902391 4923693 
658.578 4946867 4972756 5001159 5031259 5062326 5094302 5128104 5165313 
662.435 5207620 5256027 5310382 5369368 5430933 5493007 5554133 5613750 
666.292 5672077 5729500 5785951 5840413 5890866 5934654 5969173 5992557 
670.149 6004208 6004902 5996522 5981599 5962720 5942046 5921120 5900782 
674.006 5881369 5862915 5845432 5829073 5814166 5801206 5790787 5783446 
677.863 5779556 5779250 5782400 5788593 5797110 5807030 5817321 5826891 
681.720 5834803 5840449 5843745 5845244 5846125 5847987 5852559 5861281 
685.577 5875000 5893751 5916790 5942846 5970325 5997683 6023601 6047084 
689.433 6067521 6084595 6098366 6109197 6117785 6125037 6131916 6139243 
693.290 6147469 6156600 6166269 6175960 6185228 6193915 6202143 6210175 
697.147 6218228 6226296 6234124 6241373 6247844 6253713 6259492 6265867 
701.004 6273357 6281911 6290837 6298817 6304318 6306024 6303265 6296114 
704.861 6285287 6271790 6256515 6239949 6222107 6202613 6180941 6156549 
708.718 6129050 6098180 6063769 6025792 5984321 5939721 5892694 5844165 
712.575 5795125 5746309 5697952 5649638 5600357 5548732 5493325 5432904 
716.432 5366592 5293822 5214309 5128006 5035140 4936304 4832627 4725751 
720.289 4617724 4510658 4406421 4306349 4211149 4121081 4036242 3956919 
724.146 3883795 3817898 3760409 3712314 3674078 3645554 3626046 3614588 
728.003 3610327 3612843 3622264 3639310 3665154 3701118 3748484 3808257 
731.860 3881073 3967021 4065634 4175885 4296164 4424423 4558366 4695637 
735.717 4834099 4972036 5108240 5242100 5373450 5502486 5629562 5754980 
739.574 5878846 6000913 6120628 6237110 6349418 6456768 6558800 6655739 
743.431 6748466 6838353 6926970 7015746 7105700 7197328 7290683 7385641 
747.287 7482207 7580682 7681723 7786134 7894546 8007042 8122922 8240718 
751.144 8358308 8473319 8583441 8686661 8781317 8866017 8939354 8999760 
755.001 9045389 9074190 9084156 9073643 9041656 8988060 8913630 8819881 
758.858 8708896 8583044 8444723 8296254 8139753 7977122 7810078 7640123 
762.715 7468617 7296725 7125479 6955726 6788230 6623582 6462326 6304896 
766.572 6151714 6003169 5859660 5721589 5589338 5463212 5343364 5229682 
770.429 5121772 5018868 4919906 4823568 4728599 4633882 4538711 4442954 
774.286 4347050 4251924 4158793 4068791 3982755 3900975 3823175 3748614 
778.143 3676294 3605215 3534553 3463737 3392448 3320562 3248080 3175143 
782.000 3102088 3029444 2957893 2888173 2820815 2755924 2693151 2631712 
785.857 2570739 2509549 2448003 2386532 2326036 2267512 2211693 2158791 
789.714 2108496 2060226 2013475 1968143 1924611 1883587 1845794 1811556 
793.571 1780599 1752120 1725040 1698422 1671779 1645215 1619284 1594750 
797.428 1572248 1552121 1534403 1518954 1505629 1494397 1485344 1478502 
801.285 1473764 1470707 1468710 1467002 1465005 1462382 1459069 1455202 
805.141 1451010 1446637 1442106 1437348 1432329 1427131 1422049 1417592 
808.998 1414438 1413271 1414708 1419128 1426569 1436647 1448526 1460968 
812.855 1472569 1481979 1488212 1490895 1490355 1487507 1483567 1479782 
816.712 1477110 1476054 1476682 1478782 1481955 1485765 1489799 1493597 
820.569 1496730 1498843 1499859 1500104 1500372 1501786 1505512 1512279 
824.426 1522139 1534205 1546936 1558504 1567387 1572829 1575052 1575159 
828.283 1574752 1575396 1578239 1583721 1591653 1601435 1612414 1624177 
832.140 1636763 1650686 1666745 1685820 1708661 1735663 1766746 1801473 
835.997 1839136 1879060 1920760 1964118 2009421 2057202 2108119 2162826 
839.854 2221864 2285732 2354949 2430129 2511865 2600428 2695397 2795330 
843.711 2897576 2998618 3094596 3182146 3259117 3324971 3380709 3428290 
847.568 3469890 3507145 3540862 3571184 3598196 3622690 3646763 3673982 
851.425 3709057 3757086 3822707 3909422 4019236 4152738 4309460 4488294 
855.282 4687894 4906716 5142915 5394190 5657554 5929463 6206001 6483231 
859.139 6757644 7026320 7286979 7537798 7777178 8003503 8215145 8410635 
862.995 8588865 8749435 8892670 9019499 9130989 9227903 9310262 9377165 
866.852 9426913 9457486 9467061 9454560 9419913 9363985 9288354 9194861 
870.709 9085239 8960940 8823020 8672382 8509825 8336198 8152374 7959282 
874.566 7757859 7549082 7334073 7114176 6890916 6665911 6440687 6216527 
878.423 5994443 5775248 5559830 5349365 5145425 4949962 4765085 4592737 
882.280 4434557 4291745 4165144 4055364 3962844 3887794 3830035 3788807 
886.137 3762703 3749839 3748078 3755460 3770350 3791485 3817778 3847960 
889.994 3880437 3913273 3944455 3972286 3995762 4014615 4029137 4039842 
893.851 4047081 4050883 4051184 4048109 4042382 4035388 4028918 4024616 
897.708 4023359 4024930 4028024 4030753 4031337 4028750 4023055 4015313 
901.565 4007172 4000317 3996022 3994987 3997349 4002865 4011076 4021378 
905.422 4033013 4045142 4056915 4067722 4077389 4086258 4095038 4104482 
909.279 4114984 4126310 4137659 4147976 4156369 4162500 4166612 4169261 
913.136 4170866 4171282 4169699 4164857 4155689 4141776 4123728 4103013 
916.993 4081496 4060800 4041782 4024469 4008258 3992345 3976216 3959739 
920.849 3943097 3926450 3909671 3892312 3873818 3853862 3832719 3811271 
924.706 3790781 3772379 3756678 3743479 3732022 3721293 3710564 3699668 
928.563 3689066 3679562 3671908 3666469 3663113 3661370 3660705 3660744 
932.420 3661407 3662776 3664879 3667543 3670345 3672761 3674472 3675559 
936.277 3676658 3678776 3683126 3690752 3702341 3718102 3737808 3760980 
940.134 3786999 3815238 3845198 3876560 3909265 3943582 3980020 4019285 
943.991 4061978 4108378 4158198 4210614 4264394 4318283 4371370 4423468 
947.848 4475230 4528027 4583598 4643650 4709429 4781390 4859180 4941594 
951.705 5026892 5112991 5197794 5279433 5356411 5427558 5491912 5548487 
955.562 5596049 5632962 5657328 5667259 5661279 5638762 5600216 5547271 
959.419 5482422 5408736 5329404 5247558 5166148 5087932 5015382 4950571 
963.276 4894892 4848851 4811960 4782888 4759884 4741222 4725713 4712795 
967.133 4702431 4694686 4689296 4685389 4681505 4675957 4667383 4655156 
970.990 4639755 4622563 4605578 4590996 4580644 4575858 4577312 4585165 
974.847 4599168 4618788 4643263 4671687 4703136 4736729 4771867 4808304 
978.703 4846251 4886236 4928989 4975130 5025074 5078820 5135988 5195803 
982.560 5257267 5319256 5380726 5440927 5499564 5556941 5613940 5671886 
986.417 5732306 5796545 5865538 5939739 6018998 6102952 6191140 6283186 
990.274 6378792 6477631 6579198 6682743 6787406 6892434 6997422 7102505 
994.131 7208341 7315808 7425778 7538729 7654688 7773368 7894431 8017822 
997.988 8144024 8273992 8409003 8550312 8698862 8855138 9019202 9190813 
1001.845 9369661 9555540 9748480 9948733 10156851 10373558 10599829 10836778 
1005.702 11085561 11347292 11622825 11912680 12217025 12535731 12868504 
1009.077 13215044 13575152 13948745 14335853 14736560 15150970 15579119 
1012.452 16020975 16476266 16944338 17423906 17912982 18408872 18908450 
1015.826 19408492 19906158 20399118 20885698 21364536 21834382 22293874 
1019.201 22741410 23175590 23595564 24001296 24393638 24774074 25144180 
1022.576 25505280 25858140 26203274 26541338 26873774 27203206 27533460 
1025.951 27869264 28215602 28577218 28958264 29362228 29792098 30250568 
1029.326 30740156 31263060 31820980 32414776 33044344 33708696 34405984 
1032.702 35133688 35888548 36666396 37461944 38268472 39077876 39881032 
1036.077 40668324 41430400 42158804 42846392 43487328 44077052 44611788 
1039.452 45088140 45502804 45852356 46133324 46342408 46476844 46534912 
1042.827 46516380 46422724 46257052 46023908 45728708 45377396 44976192 
1046.203 44531448 44049848 43538444 43004676 42456200 41900456 41344308 
1049.578 40793808 40253888 39728472 39220576 38732252 38264724 37818300 
1052.953 37392492 36986192 36598092 36227132 35872944 35536076 35218160 
1056.328 34921700 34649996 34407060 34197648 34027548 33903556 33833460 
1059.704 33825664 33888520 34029688 34255588 34571112 34979760 35483852 
1063.079 36085008 36784080 37581140 38475048 39463152 40541088 41703020 
1066.454 42942228 44251876 45625580 47057732 48543292 50077360 51654768 
1069.829 53269976 54917324 56591652 58288904 60006388 61742532 63495992 
1073.205 65264816 67045568 68833008 70620440 72400344 74165152 75907912 
1076.580 77622352 79302560 80942320 82534464 84070232 85538840 86927496 
1079.955 88221536 89405032 90461584 91375616 92133472 92724424 93141568 
1083.330 93382104 93447408 93342672 93076392 92659552 92104408 91423400 
1086.706 90628152 89729136 88735896 87657920 86505880 85292208 84031112 
1090.081 82737552 81425608 80106928 78789640 77478416 76175256 74880936 
1093.456 73596288 72322896 71063056 69819168 68592808 67384136 66191888 
1096.831 65013736 63847100 62689888 61540948 60400192 59268300 58146484 
1100.207 57036160 55938876 54856212 53789920 52741872 51714076 50708348 
1103.582 49726412 48769708 47839500 46937024 46063596 45220792 44410492 
1106.957 43634932 42896768 42198916 41544484 40936668 40378456 39872368 
1110.332 39420196 39022700 38679476 38388960 38148432 37954244 37802100 
1113.708 37687492 37606112 37554304 37529372 37529828 37555380 37606640 
1117.083 37684748 37790944 37926064 38090460 38284020 38506332 38756968 
1120.458 39035680 39342208 39675924 40035296 40417248 40816804 41226996 
1123.833 41639068 42043064 42428436 42784772 43102240 43372072 43586812 
1127.208 43740480 43828844 43849340 43801040 43684404 43500888 43252428 
1130.584 42941056 42568600 42136488 41645736 41097004 40490724 39827412 
1133.959 39107896 38333668 37507196 36631908 35712240 34753200 33760060 
1137.334 32738012 31692064 30627262 29548994 28463268 27376834 26297012 
1140.709 25231242 24186430 23168608 22182494 21231736 20319160 19446980 
1144.085 18617248 17831820 17092356 16400100 15755710 15159258 14610253 
1147.460 14107822 13650841 13237993 12867793 12538385 12247567 11992680 
1150.835 11770764 11578768 11413833 11273510 11155991 11060099 10985237 
1154.210 10931201 10897869 10885131 10892610 10919674 10965500 11029200 
1157.586 11110082 11207864 11322863 11455965 11608697 11782907 11980657 
1160.961 12204030 12455092 12735958 13048930 13396634 13782182 14209156 
1164.336 14681615 15204076 15781537 16419528 17124166 17902234 18761110 
1167.711 19708502 20752316 21900278 23159790 24537828 26040808 27674528 
1171.087 29443958 31352794 33402834 35593344 37920308 40376048 42948648 
1174.462 45621612 48373400 51177036 53999436 56801492 59538328 62160784 
1177.837 64617700 66858952 68838696 70518384 71868864 72872112 73521880 
1181.212 73823896 73795296 73463288 72862880 72033816 71017216 69852808 
1184.588 68576584 67220080 65810136 64369480 62917488 61470800 60043532 
1187.963 58647460 57291932 55983980 54728608 53528964 52386840 51302944 
1191.338 50277252 49309100 48397468 47541060 46738464 45988248 45288936 
1194.713 44638976 44036548 43479644 42965968 42493252 42059320 41662432 
1198.089 41301180 40974376 40680744 40418532 40185312 39978000 39793076 
1201.464 39626924 39476240 39338200 39210484 39091004 38977712 38868396 
1204.839 38760588 38651576 38538492 38418464 38288616 38146092 37988084 
1208.214 37811892 37615136 37395856 37152596 36884376 36590544 36270608 
1211.590 35924228 35551252 35152036 34727656 34280040 33811972 33326640 
1214.965 32827306 32316778 31797298 31270472 30737620 30200106 29659634 
1218.340 29118324 28578582 28042814 27513116 26991030 26477564 25973200 
1221.715 25478164 24992570 24516520 24050180 23593674 23147124 22710662 
1225.091 22284386 21868550 21463482 21069620 20687360 20317052 19958792 
1228.466 19612644 19278526 18956512 18646728 18349486 18064960 17793262 
1231.841 17534072 17286702 17050258 16823858 16606848 16399021 16200572 
1235.216 16011965 15833570 15665407 15506880 15356943 15214206 15077305 
1238.592 14945203 14817411 14693944 14575203 14461668 14353743 14251490 
1241.967 14154728 14063044 13976042 13893421 13815120 13741331 13672379 
1245.342 13608617 13550307 13497435 13449840 13407122 13368839 13334648 
1248.717 13304502 13278678 13257809 13242753 13234381 13233383 13240060 
1252.093 13254267 13275504 13302997 13335945 13373657 13415651 13461655 
1255.468 13511556 13565318 13622953 13684516 13750066 13819671 13893296 
1258.843 13970651 14051093 14133556 14216660 14298892 14378868 14455631 
1262.218 14528619 14597684 14662743 14723530 14779407 14829287 14871787 
1265.594 14905535 14929390 14942519 14944281 14934050 14911066 14874262 
1268.969 14822561 14755002 14671233 14571595 14457145 14329274 14189403 
1272.344 14038530 13877147 13705286 13522817 13329715 13126250 12912937 
1275.719 12690398 12459118 12219397 11971487 11715889 11453596 11186324 
1279.094 10916325 10646062 10377685 10112680 9851729 9594870 9341936 9093154 
1282.952 8849407 8612397 8384542 8168427 7966488 7780526 7611648 7460246 
1286.809 7326205 7209198 7108925 7025270 6958391 6908584 6876241 6861550 
1290.667 6864403 6884184 6919668 6969100 7030290 7100807 7178215 7260243 
1294.524 7344877 7430388 7515300 7598345 7678411 7754609 7826244 7892836 
1298.382 7954084 8009863 8060084 8104743 8143969 8178024 8207422 8232831 
1302.239 8254953 8274325 8291133 8305204 8316113 8323518 8327441 8328448 
1306.096 8327653 8326391 8325752 8326210 8327348 8328038 8326757 8322164 
1309.954 8313558 8301123 8285836 8269146 8252528 8237054 8223272 8211125 
1313.811 8200095 8189551 8178890 8167775 8156143 8144325 8132963 8122961 
1317.669 8115322 8110905 8110242 8113318 8119523 8127806 8136941 8145980 
1321.526 8154464 8162640 8171361 8181789 8194991 8211718 8232178 8256165 
1325.384 8283178 8312829 8344917 8379607 8417397 8458977 8505113 8556562 
1329.241 8613911 8677570 8747712 8824205 8906655 8994444 9086812 9183088 
1333.098 9282754 9385643 9491868 9601779 9715743 9834083 9956875 10084025 
1336.956 10215271 10350280 10488833 10630817 10776323 10925666 11079295 
1340.331 11237822 11401880 11572006 11748593 11931831 12121659 12317968 
1343.706 12520565 12729374 12944369 13165520 13392663 13625374 13863008 
1347.082 14104778 14349893 14597794 14848106 15100469 15354361 15608725 
1350.457 15861833 16111392 16354784 16589484 16813324 17024652 17222054 
1353.832 17404240 17569682 17716650 17843484 17948984 18032870 18095938 
1357.207 18139952 18167234 18180162 18180808 18170728 18151166 18123254 
1360.583 18088268 18047590 18002636 17954502 17903806 17850556 17794320 
1363.958 17734364 17669960 17600286 17524330 17440736 17347476 17241984 
1367.333 17121398 16983016 16824948 16646546 16448763 16234408 16008200 
1370.708 15776850 15549076 15335476 15148202 15000308 14904673 14872824 
1374.083 14913580 15032011 15228721 15499717 15836823 16228250 16659577 
1377.459 17114630 17576372 18027792 18452806 18836876 19167686 19435332 
1380.834 19632402 19753812 19796548 19759506 19643412 19450722 19185600 
1384.209 18853762 18462130 18018564 17531402 17009128 16459952 15891422 
1387.584 15310191 14721653 14129944 13538110 12948246 12361976 11780820 
1390.960 11206462 10640927 10086608 9546191 9022600 8518793 8037747 7582215 
1394.817 7154577 6756661 6389566 6053563 5748127 5471980 5223291 4999944 
1398.675 4799677 4620340 4459939 4316678 4188902 4075025 3973440 3882484 
1402.532 3800477 3725796 3657009 3592921 3532748 3476089 3422864 3373366 
1406.389 3327984 3287146 3251142 3220007 3193380 3170547 3150534 3132312 
1410.247 3115038 3098287 3082154 3067174 3054214 3044055 3037207 3033716 
1414.104 3033171 3034884 3038126 3042369 3047369 3053191 3060062 3068221 
1417.962 3077774 3088777 3101172 3114943 3130239 3147306 3166436 3187828 
1421.819 3211559 3237538 3265552 3295397 3326961 3360341 3395813 3433824 
1425.677 3474944 3519763 3568944 3623041 3682571 3747874 3819171 3896493 
1429.534 3979888 4069451 4165576 4269045 4381054 4503165 4637120 4784776 
1433.391 4947888 5128235 5327613 5548002 5791634 6061039 6358977 6688361 
1437.249 7052111 7453101 7894023 8377181 8904406 9476597 10093553 10753634 
1441.106 11453632 12188756 12952660 13737598 14534584 15333809 16125007 
1444.481 16898154 17643970 18354490 19023158 19644814 20215298 20731366 
1447.857 21190454 21590980 21932540 22216062 22443594 22617930 22742042 
1451.232 22818624 22849832 22837222 22781824 22684184 22544264 22361388 
1454.607 22134278 21861410 21541512 21174366 20761152 20304598 19808546 
1457.982 19277322 18715162 18125982 17513580 16881928 16235466 15579081 
1461.358 14917724 14255932 13597567 12945725 12303248 11673062 11058515 
1464.733 10463341 9891219 9345255 8827469 8338816 7879391 7448940 7047186 
1468.590 6673962 6328999 6011463 5719695 5451023 5202118 4969523 4750252 
1472.448 4542329 4344907 4158114 3982643 3819260 3668508 3530504 3404973 
1476.305 3291373 3189005 3097122 3014923 2941536 2875969 2817211 2764162 
1480.163 2715793 2671163 2629526 2590424 2553667 2519359 2487753 2459212 
1484.020 2433862 2411615 2391981 2374239 2357599 2341427 2325392 2309600 
1487.877 2294400 2280240 2267367 2255688 2244796 2234145 2223180 2211587 
1491.735 2199333 2186552 2173444 2160047 2146292 2131978 2117054 2101719 
1495.592 2086507 2072178 2059475 2048876 2040360 2033464 2027311 2020995 
1499.450 2013810 2005436 1996013 1986046 1976269 1967497 1960439 1955634 
1503.307 1953367 1953598 1955940 1959603 1963541 1966550 1967606 1966034 
1507.165 1961693 1954981 1946607 1937375 1927911 1918596 1909534 1900767 
1511.022 1892396 1884717 1878147 1873079 1869648 1867659 1866479 1865267 
1514.879 1863232 1859884 1855212 1849715 1844173 1839388 1835908 1833863 
1518.737 1832904 1832389 1831505 1829533 1826052 1820937 1814384 1806898 
1522.594 1799186 1791978 1785974 1781705 1779446 1779095 1780135 1781736 
1526.452 1782819 1782379 1779625 1774223 1766315 1756464 1745536 1734404 
1530.309 1723846 1714359 1706138 1699135 1693108 1687781 1682857 1678044 
1534.167 1673140 1667978 1662483 1656694 1650750 1644823 1639097 1633659 
1538.024 1628485 1623365 1618163 1612755 1607270 1602117 1597824 1594992 
1541.881 1593900 1594482 1596206 1598244 1599618 1599615 1597934 1594762 
1545.739 1590744 1586718 1583488 1581677 1581608 1583372 1586938 1592236 
1549.596 1599198 1607749 1617783 1629068 1641251 1653987 1666906 1679745 
1553.454 1692283 1704350 1715734 1726091 1734970 1741881 1746315 1747852 
1557.311 1746158 1741021 1732343 1720106 1704551 1686156 1665810 1644737 
1561.168 1624341 1606032 1590842 1579297 1571240 1565962 1562398 1559395 
1565.026 1556045 1551828 1546583 1540476 1533770 1526769 1519727 1512856 
1568.883 1506428 1500730 1496065 1492680 1490664 1489914 1490143 1490956 
1572.741 1491946 1492675 1492898 1492316 1490768 1488099 1484302 1479516 
1576.598 1474065 1468520 1463587 1459943 1458113 1458355 1460538 1464214 
1580.456 1468598 1472835 1476121 1477878 1477991 1476785 1475054 1473894 
1584.313 1474418 1477474 1483344 1491666 1501427 1511271 1519837 1526118 
1588.170 1529766 1531038 1530722 1529808 1529205 1529518 1531006 1533675 
1592.028 1537381 1541947 1547223 1552988 1558962 1564772 1570050 1574597 
1595.885 1578497 1582215 1586422 1591878 1599097 1608175 1618723 1630038 
1599.743 1641263 1651688 1660936 1668918 1675835 1681990 1687637 1692988 
1603.600 1698233 1703488 1708898 1714584 1720529 1726587 1732464 1737820 
1607.458 1742546 1746805 1751159 1756374 1763255 1772317 1783575 1796533 
1611.315 1810377 1824182 1837247 1849279 1860337 1870765 1880894 1890936 
1615.172 1900864 1910551 1919849 1928757 1937510 1946342 1955543 1965026 
1619.030 1974449 1983139 1990322 1995349 1997937 1998310 1997130 1995435 
1622.887 1994351 1994839 1997462 2002302 2008967 2016650 2024371 2031227 
1626.745 2036605 2040349 2042797 2044790 2047390 2051663 2058379 2067808 
1630.602 2079707 2093435 2108232 2123552 2139307 2155979 2174527 2196022 
1634.459 2221268 2250350 2282331 2315262 2346496 2373112 2392497 2402873 
1638.317 2403546 2394897 2378207 2355367 2328417 2299372 2269794 2240908 
1642.174 2213515 2188108 2165014 2144354 2126259 2110751 2097841 2087463 
1646.032 2079506 2073797 2070107 2068038 2067194 2067096 2067324 2067641 
1649.889 2068003 2068619 2069803 2071889 2075029 2079140 2083850 2088693 
1653.747 2093229 2097276 2100958 2104620 2108740 2113751 2119838 2127066 
1657.604 2135288 2144449 2154511 2165633 2178010 2191784 2206868 2222944 
1661.461 2239345 2255327 2270139 2283227 2294363 2303581 2311246 2317890 
1665.319 2324111 2330563 2337818 2346314 2356369 2368046 2381227 2395578 
1669.176 2410636 2425941 2441073 2455771 2469889 2483426 2496487 2509143 
1673.034 2521573 2533891 2546240 2558799 2571683 2585042 2599015 2613723 
1676.891 2629295 2645915 2663684 2682632 2702680 2723605 2745113 2766952 
1680.749 2789034 2811482 2834644 2858921 2884605 2911595 2939386 2967140 
1684.606 2993884 3018911 3042034 3063738 3085068 3107379 3131984 3159944 
1688.463 3191850 3227821 3267710 3311162 3357811 3407256 3459109 3512897 
1692.321 3568053 3623982 3680124 3736138 3792012 3848166 3905404 3964740 
1696.178 4027353 4094260 4166190 4243400 4325874 4413156 4504800 4600310 
1700.036 4699564 4802775 4910540 5023647 5142814 5268487 5400690 5539166 
1703.893 5683600 5833976 5990854 6155465 6329625 6515192 6713787 6926220 
1707.750 7152500 7391792 7642841 7904330 8175249 8455148 8744061 9042410 
1711.608 9350809 9669890 10000157 10342032 10695719 11061266 11438561 
1714.983 11827321 12227123 12637489 13057968 13488001 13927062 14374486 
1718.358 14829478 15291148 15758903 16232654 16713151 17202134 17702214 
1721.734 18216600 18748802 19302330 19880662 20487302 21126048 21801040 
1725.109 22516782 23278012 24089504 24955926 25882008 26872740 27933610 
1728.484 29070538 30289888 31597808 33000102 34502132 36109408 37828204 
1731.859 39666380 41633288 43739180 45993832 48404680 50976028 53708912 
1735.235 56602616 59656512 62871848 66251872 69800280 73518112 77400472 
1738.610 81433864 85595752 89855912 94179136 98527592 102862024 107140776 
1741.985 111318600 115345792 119169784 122738568 126004968 128929832 
1744.878 131482960 133641944 135390704 136719184 137624784 138114352 
1747.771 138204912 137921488 137292800 136346464 135106176 133592024 
1750.664 131823168 129821136 127611408 125222280 122681664 120013848 
1753.557 117237472 114366296 111411512 108384624 105299440 102172520 
1756.450 99022048 95866192 92721904 89604376 86527704 83505112 80549184 
1759.826 77671544 74881928 72187456 69592448 67099012 64707804 62419020 
1763.201 60232704 58148684 56166148 54282908 52495460 50799276 49189292 
1766.576 47660768 46209512 44831816 43523948 42281716 41100100 39973460 
1769.951 38896076 37862544 36868288 35909416 34982292 34082980 33206752 
1773.327 32348276 31501964 30662850 29827312 28993524 28161210 27331210 
1776.702 26504618 25682142 24863580 24047992 23233960 22420428 21607108 
1780.077 20794954 19986192 19184080 18392408 17615076 16855698 16117296 
1783.452 15402274 14712429 14049046 13413061 12805112 12225638 11674946 
1786.828 11153168 10660264 10195864 9759260 9349311 8964530 8603213 8263636 
1790.685 7944440 7644535 7363259 7100159 6854895 6627024 6416037 6221249 
1794.542 6041980 5877441 5726738 5588683 5461808 5344134 5233602 5128164 
1798.400 5026271 4927030 4830358 4736720 4646951 4561869 4482025 4407621 
1802.257 4338583 4274629 4215397 4160485 4109513 4061986 4017423 3975334 
1806.115 3935191 3896501 3858696 3821021 3782535 3742256 3699350 3653519 
1809.972 3605230 3555752 3506857 3460250 3416938 3376818 3338565 3300117 
1813.830 3259412 3215288 3168123 3119942 3073986 3033881 3002491 2981137 
1817.687 2969145 2964072 2962318 2960163 2954595 2943828 2927436 2906100 
1821.544 2881046 2853597 2824809 2794997 2764067 2731407 2696372 2658533 
1825.402 2617980 2575458 2532312 2490148 2450600 2414916 2383680 2356828 
1829.259 2333690 2313219 2294246 2275655 2256534 2236140 2213975 2189744 
1833.117 2163473 2135375 2105912 2075578 2044853 2014029 1983220 1952545 
1836.974 1922220 1892677 1864613 1838644 1815195 1793941 1774008 1753921 
1840.832 1732139 1707565 1679883 1649834 1619127 1589998 1564689 1545087 
1844.689 1532189 1525997 1525473 1528608 1532699 1534765 1532046 1522772 
1848.546 1506686 1485309 1461748 1439891 1423328 1414136 1412313 1415678 
1852.404 1420757 1423914 1422834 1417065 1408217 1399066 1392455 1390040 
1856.261 1391746 1395782 1399394 1399832 1395322 1385353 1370699 1352826 
1860.119 1333231 1313104 1293034 1273272 1254031 1235687 1218942 1204529 
1863.976 1193107 1184884 1179566 1176428 1174512 1172846 1170626 1167388 
1867.833 1162786 1156631 1148778 1138967 1127030 1112984 1097230 1080673 
1871.691 1064871 1051741 1043263 1040961 1045309 1055655 1070104 1085954 
1875.548 1100524 1111631 1118201 1120071 1117868 1112055 1102682 1089071 
1879.406 1070225 1045532 1015421 981824 948060 918032 895237 881851 878059 
1883.745 882221 891667 903290 914631 924033 930596 933888 933507 929051 
1888.085 920204 907176 891234 874660 860511 851724 850504 857433 871246 
1892.425 889029 907067 921628 929966 931015 925481 915416 903633 892721 
1896.764 884277 878383 873739 868374 860470 849308 836055 823498 815490 
1901.104 815646 826034 846233 873035 901209 924573 937515 936393 920093 
1905.443 890295 850891 807307 765389 730771 707937 699686 706534 726494 
1909.783 755407 787526 816983 838935 850773 852473 846080 834729 821306 
1914.123 807263 792562 776172 757068 735396 712912 692806 678676 673299 
1918.462 677543 689996 707504 726044 742017 752780 757254 755343 747627 
1922.802 734715 716978 694570 667497 636108 601097 563874 526597 492228 
1927.141 464410 447111 443678 455892 482744 519890 560046 594520 615612 
1931.481 619163 606196 583140 559796 546259 549349 569848 602055 635827 
1935.821 659855 666053 652261 623217 588549 559463 544201 545552 559739 
1940.160 578199 591189 591323 576448 550285 520684 497180 487225 494083 
1944.500 515938 546402 576905 599135 606708 597002 570981 533003 489881 
1948.839 449487 419333 405051 408645 428277 457608 487576 508061 510920 
1953.179 491842 451705 395518 331259 266686 207235 155230 110080 69804 33278 
1958.001 1446 -21988 -32070 -23965 5195 55124 122405 202109 287895 373783 
1962.823 453843 521987 572505 600175 602066 578591 533841 475898 414201 
1967.162 357185 309993 273440 244564 219039 193954 169936 151486 145138 
1971.502 156560 187296 232840 282904 324299 345421 341033 316327 288162 
1975.841 281526 323841 436765 626587 879871 1163554 1432767 1642830 1761161 
1980.181 1775387 1694742 1546448 1367600 1195710 1059977 974981 939340 
1984.038 938651 952208 959914 949072 916211 866605 809820 755364 709023 
1988.378 671634 640497 612376 585950 564471 554669 564644 600505 663418 
1992.718 747176 838931 921446 976732 990878 957625 880433 771453 648146 
1997.057 529243 428987 354120 302468 265150 229671 185848 128676 61238 -6882 
2001.879 -62596 -93109 -89240 -47810 29309 136041 264559 405849 550320 
2006.219 687374 804288 888481 929502 921111 864813 768754 646731 514717 
2010.558 387289 275344 184626 115843 67424 35855 18180 11737 14858 25739 
2015.380 42679 63467 86329 108954 128744 142374 146032 134899 105019 54126 
2020.202 -16397 -101504 -191855 -275586 -340399 -376514 -377832 -344777 
2024.059 -283496 -205574 -126066 -60492 -21343 -15273 -41084 -89933 -146767 
2028.399 -194882 -219313 -211095 -168799 -98105 -9210 86464 178767 260979 
2032.738 329637 384421 427422 463214 497764 538408 591751 661198 744837 
2037.078 834291 915350 971394 988376 958426 883969 776654 654577 537659 
2041.417 442345 377453 343223 332277 333022 332339 320058 290650 245593 
2045.757 193331 149169 131525 158745 242359 382442 564101 759946 936211 
2050.097 1063092 1122960 1115180 1054536 966277 878189 813545 785473 794919 
2054.436 831883 880341 923983 951025 956144 939570 904376 853795 789966 
2058.776 714868 631719 546389 467476 405095 367762 360159 381299 425138 
2063.115 481993 541414 594438 635212 661246 672700 671795 662316 649184 
2067.455 638310 636023 647319 674642 716513 767109 817744 859127 884349 
2071.795 891259 882937 866999 852769 848265 857877 881181 913399 947346 
2076.134 975835 993361 997676 989417 971675 948451 923427 899282 877192 
2080.474 856996 837896 818853 799722 781331 765642 755489 753395 760540 
2084.813 776076 796348 815658 827328 825677 807620 773930 729210 680356 
2089.153 634803 598082 572251 555446 543083 529803 511730 488251 462340 
2093.493 439485 425624 424648 436839 458735 484521 508238 526185 538063 
2097.832 546018 553446 562290 571973 579063 579434 570210 552261 530785 
2102.172 514081 510878 526980 562972 613437 668974 719285 756364 777084 
2106.511 783379 780509 774498 769794 767483 766299 763768 758402 750806 
2110.851 743567 739774 741219 746814 752546 752386 740866 714839 674882 
2115.191 625256 572680 524100 485013 458155 443263 437631 437301 438000 
2119.530 435976 428382 413489 390750 360527 324140 283462 240351 196310 
2123.870 151656 105877 57633 5351 -51894 -113936 -179467 -246549 -313339 
2128.209 -378468 -442050 -505168 -569429 -636752 -708267 -783617 -861186 
2132.067 -937424 -1007498 -1065626 -1106354 -1125528 -1121975 -1098499 
2135.442 -1062074 -1022350 -989657 -972227 -973469 -991259 -1018480 -1044976 
2139.300 -1061148 -1060490 -1042387 -1012402 -981137 -961366 -965523 
2142.675 -1001846 -1072538 -1172403 -1289695 -1408356 -1511076 -1583989 
2146.050 -1620716 -1624519 -1608874 -1594009 -1601573 -1648515 -1741344 
2149.425 -1874623 -2032079 -2191917 -2333804 -2443835 -2518669 -2564328 
2152.801 -2593137 -2619097 -2654225 -2706014 -2777834 -2868693 -2973655 
2156.176 -3082993 -3179531 -3238518 -3230319 -3129113 -2924941 -2632075 
2159.551 -2291189 -1957027 -1679852 -1488661 -1383456 -1338425 -1315433 
2162.926 -1278514 -1207220 -1102586 -984475 -882066 -821298 -814410 -855817 
2166.784 -924967 -995930 -1047086 -1068281 -1062856 -1043847 -1026915 
2170.159 -1025081 -1043298 -1079429 -1126027 -1174699 -1218792 -1254990 
2173.534 -1281630 -1297545 -1299631 -1283428 -1244091 -1179569 -1091860 
2176.909 -988293 -879441 -777779 -693582 -633807 -600726 -592304 -603188 
2180.767 -626473 -655317 -684481 -710965 -734110 -755622 -777635 -801525 
2184.624 -827078 -851020 -868559 -873725 -861979 -831905 -785335 -727095 
2188.482 -663617 -600703 -542509 -490222 -443432 -400660 -360425 -321856 
2192.339 -284812 -248816 -213610 -178615 -144202 -112259 -86614 -72314 
2196.197 -73995 -94502 -133161 -185390 -244050 -301138 -350203 -387478 
2200.054 -412671 -427621 -435598 -439230 -440517 -440403 -438988 -435901 
2203.911 -430319 -420895 -405923 -383752 -353921 -318290 -281041 -248284 
2207.769 -226404 -218993 -225744 -241346 -256835 -262858 -252543 -224367 
2211.626 -182342 -134850 -91305 -58780 -39712 -31479 -27576 -20135 -2693 
2215.966 28094 71633 124066 179045 229152 267078 286829 284789 260659 217736 
2220.788 162844 104768 52469 12804 -10986 -19716 -16943 -7508 4850 18233 
2225.609 32738 49059 67317 86066 102522 113970 119465 120829 122712 131083 
2230.431 150834 183853 228205 278240 327187 368686 398971 417437 426063 
2234.771 427999 426388 423422 420373 417732 416237 416565 419492 425438 
2239.110 434546 446387 460889 478227 499232 524566 554101 586364 618008 
2243.450 644917 663258 671120 668950 659888 648246 637927 631358 628676 
2247.790 628646 629905 632215 637361 648835 670320 704347 750636 806075 
2252.129 864949 920456 966201 997412 1011584 1008487 989833 959061 920831 
2256.469 880518 843756 815243 797948 792144 795196 802520 808768 809688 
2260.808 803479 791558 777790 767500 765268 773851 793317 821342 854148 
2265.148 888032 920062 948742 973818 995792 1015282 1032734 1048267 1061902 
2269.488 1073734 1084403 1094817 1106250 1120154 1137485 1158643 1183236 
2273.345 1209942 1236895 1261829 1282962 1299242 1310864 1319220 1326502 
2277.202 1334950 1346301 1361163 1379242 1399567 1421184 1443689 1467305 
2281.060 1492670 1520285 1549809 1580000 1608705 1633631 1653103 1666266 
2284.917 1673331 1675132 1672497 1666040 1655975 1642585 1626765 1610154 
2288.775 1594895 1582954 1575032 1569952 1564570 1554890 1537357 1510644 
2292.632 1476625 1440338 1408503 1387602 1381595 1390568 1410467 1434560 
2296.490 1455196 1466460 1465586 1453555 1434475 1414178 1398195 1390452 
2300.347 1392405 1402971 1419195 1437077 1452678 1462845 1465776 1461235 
2304.204 1450463 1435839 1420350 1406911 1397953 1394905 1397995 1406482 
2308.062 1418836 1433222 1447662 1460595 1470926 1478264 1483079 1486746 
2311.919 1491410 1499474 1512972 1532820 1558363 1587358 1616654 1643211 
2315.777 1665135 1682516 1697128 1711981 1729960 1752983 1781681 1815664 
2319.634 1854487 1898486 1948707 2006096 2069917 2135980 2196167 2239267 
2323.491 2253412 2229442 2163617 2059041 1925094 1775520 1625355 1487884 
2327.349 1372279 1282531 1217684 1173589 1144652 1125881 1113865 1106929 
2331.206 1104347 1105770 1110404 1117081 1124354 1130942 1136064 1139287 
2335.064 1140578 1139703 1136580 1131116 1123496 1114433 1105085 1096807 
2338.921 1090626 1087028 1085802 1086167 1087182 1088073 1088407 1088160 
2342.779 1087317 1085908 1083715 1080562 1076419 1071599 1066770 1062708 
2346.636 1059933 1058610 1058270 1058267 1058052 1057522 1057197 1057925 
2350.493 1060511 1065026 1070668 1075825 1078417 1076668 1069805 1058196 
2354.351 1043564 1028362 1015197 1006174 1002359 1003416 1007762 1012788 
2358.208 1015394 1012713 1002548 984336 958952 928749 896902 866386 839290 
2362.548 816214 796164 777443 758308 738040 717263 697767 681858 671382 
2366.887 666933 667747 672124 678082 684422 690820 697948 706638 717190 
2371.227 728911 740250 749307 754828 756779 756695 756960 760086 767652 
2375.567 779545 794069 808426 819664 825666 825849 821227 814156 807591 
2379.906 804385 806527 814728 828413 845789 864305 881366 894885 903726 
2384.246 907997 908882 908005 906969 906745 907487 908851 910367 912100 
2388.585 914951 920358 929698 943469 960741 979078 995114 1005805 1009466 
2392.925 1006435 999207 991401 986507 986641 991623 999172 1005762 1007809 
2397.265 1003264 992212 976979 961412 949693 945102 948967 960395 976615 
2401.604 993776 1008110 1017009 1019657 1017321 1012740 1009427 1010467 
2405.462 1017574 1030658 1047719 1065595 1080950 1091202 1095283 1093728 
2409.319 1088333 1081282 1074398 1068537 1063367 1057792 1050359 1040024 
2413.177 1026408 1010027 992213 974661 959051 946926 939240 936592 938831 
2417.516 945363 954848 965478 975110 981608 983333 979627 971006 959192 
2421.856 946752 936437 930428 929650 933618 940425 947502 952401 953539 
2426.195 950906 945984 941458 940225 944648 955716 972726 993581 1015091 
2430.535 1033954 1047328 1053158 1050690 1040089 1022713 1000652 976602 
2434.392 953695 935098 923277 919763 924448 935773 950918 966550 979770 
2438.732 988731 992916 993071 990583 986909 982941 979003 974934 970782 
2443.072 966905 964343 964476 968540 977103 989709 1004924 1020719 1034910 
2447.411 1045948 1052870 1055838 1055604 1053279 1049978 1046594 1043585 
2451.269 1040846 1037893 1033872 1027773 1018735 1006518 991572 975219 
2455.126 959470 946401 937622 933832 934376 937582 941258 943432 942967 
2459.466 939790 934885 929607 925118 921984 919845 917787 914971 910944 
2463.805 906141 901757 899364 900289 905145 913423 923921 934805 944588 
2468.145 952255 957624 961137 963546 965336 966672 967126 966356 964379 
2472.484 961732 959787 960164 964180 972087 982735 993737 1002003 1004922 
2476.824 1001416 992473 981100 971473 967485 971403 982875 998907 1014764 
2481.164 1025260 1026547 1016975 997719 972026 944162 918129 896765 881374 
2485.503 871973 868131 869188 874798 884606 898009 913672 929750 944174 
2489.843 955433 963085 968176 972686 978689 987369 998329 1009419 1017546 
2494.182 1019761 1014585 1002816 987246 972015 961195 957524 961624 972140 
2498.522 986569 1002294 1017574 1032110 1046612 1061992 1078777 1096249 
2502.379 1112676 1125634 1132949 1133368 1126829 1114452 1097712 1078142 
2506.237 1056672 1033573 1008742 982046 953854 925063 897124 871856 851117 
2510.576 836552 829386 830375 839668 856448 879004 904654 930060 952002 
2514.916 967963 977087 980234 979985 979769 982708 990725 1003831 1020043 
2519.256 1036062 1048287 1054010 1052011 1043104 1029581 1014831 1002153 
2523.113 994145 991972 995158 1001915 1009367 1014424 1014491 1008078 995343 
2527.453 978127 959386 942737 931331 927088 930139 938839 950250 960836 
2531.792 967476 968134 962283 950943 936163 920558 906811 897186 893164 
2536.132 895367 903544 916675 933060 950726 967493 981553 991604 997210 
2540.471 998775 997555 995348 994075 995581 1001092 1010976 1024659 1040493 
2544.811 1056232 1069213 1077174 1078443 1072743 1060940 1045196 1028239 
2548.668 1012905 1001344 994646 992720 994391 997973 1001728 1004528 1006032 
2553.008 1006888 1008299 1011726 1018382 1028553 1041566 1055560 1068047 
2556.865 1076349 1078315 1072982 1060835 1043798 1024789 1006923 992835 
2560.723 984231 981592 984534 992093 1003408 1017917 1035236 1055103 1076671 
2565.063 1098500 1118435 1134010 1143140 1144583 1138439 1126095 1109881 
2568.920 1092330 1075704 1061412 1049945 1041226 1034766 1030307 1027860 
2572.777 1027777 1030654 1036769 1045994 1057634 1070434 1083076 1094388 
2576.635 1103654 1110949 1117022 1123107 1130574 1140539 1153575 1169493 
2580.492 1187458 1206133 1224005 1239854 1252821 1262739 1269943 1275254 
2584.350 1279493 1283396 1287361 1291301 1294766 1297141 1297911 1297026 
2588.207 1294700 1291765 1289290 1288176 1288945 1291417 1294723 1297639 
2592.064 1298958 1297870 1294513 1289773 1285188 1282297 1282222 1285235 
2595.922 1290702 1297347 1303889 1309477 1313987 1318124 1322951 1329444 
2599.779 1338040 1348393 1359483 1370019 1378842 1385181 1388947 1390391 
2603.637 1390020 1388077 1384830 1380255 1374428 1367752 1360882 1354804 
2607.494 1350430 1348441 1349005 1351826 1356381 1362005 1368331 1375282 
2611.352 1383007 1391742 1401619 1412387 1423510 1434130 1443377 1450426 
2615.209 1454844 1456412 1455425 1452418 1448250 1443984 1440771 1439825 
2619.066 1442067 1448178 1458362 1472209 1488861 1506974 1525052 1541589 
2622.924 1555386 1565682 1572307 1575672 1576703 1576648 1576761 1578048 
2626.781 1581064 1585733 1591541 1597564 1602953 1606940 1609223 1609933 
2630.639 1609433 1608243 1606778 1605392 1604156 1603193 1602664 1602833 
2634.496 1604012 1606590 1610629 1616062 1622514 1629413 1636252 1642615 
2638.354 1648290 1653265 1657551 1661208 1664138 1666165 1667090 1666942 
2642.211 1665932 1664467 1663110 1662498 1663085 1665211 1668965 1674187 
2646.068 1680586 1687637 1694673 1700884 1705343 1707221 1705812 1700840 
2649.926 1692515 1681542 1668980 1656021 1643756 1632850 1623564 1615692 
2653.783 1608773 1602145 1595257 1587751 1579386 1570082 1560000 1549281 
2657.641 1538041 1526477 1514839 1503269 1491981 1481146 1470870 1461190 
2661.498 1451980 1442946 1433624 1423334 1411443 1397458 1381334 1363491 
2665.355 1345038 1327447 1312345 1301037 1294114 1291309 1291560 1293197 
2669.213 1294567 1294452 1292350 1288513 1283725 1278865 1274646 1271206 
2673.070 1268266 1265279 1261746 1257360 1252310 1246936 1241739 1237015 
2676.928 1232828 1228971 1225103 1220921 1216297 1211286 1206130 1200973 
2680.785 1195939 1190895 1185840 1180711 1175752 1171482 1168648 1168068 
2684.643 1170317 1175568 1183420 1192892 1202630 1211104 1216926 1219205 
2688.500 1217624 1212612 1205132 1196514 1188120 1181055 1175908 1172749 
2692.357 1171139 1170357 1169738 1168667 1167019 1164811 1162431 1160276 
2696.215 1158652 1157668 1157315 1157287 1157178 1156626 1155235 1152794 
2700.072 1149323 1145038 1140426 1136038 1132399 1129817 1128228 1127281 
2703.930 1126369 1124987 1122853 1120203 1117714 1116275 1116764 1119598 
2707.787 1124552 1130705 1136678 1140986 1142522 1140876 1136544 1130788 
2711.645 1125374 1121973 1121900 1125493 1132129 1140229 1147760 1152579 
2715.502 1153265 1149381 1141697 1132065 1122785 1116094 1113409 1115080 
2719.359 1120235 1127229 1134290 1139943 1143441 1144809 1144575 1143292 
2723.217 1141390 1138959 1135835 1132053 1128024 1124503 1122560 1122986 
2727.074 1126040 1131202 1137333 1143039 1147212 1149423 1150129 1150286 
2730.932 1150937 1152776 1155776 1159244 1162173 1163741 1163626 1162248 
2734.789 1160505 1159446 1159724 1161356 1163667 1165511 1165753 1163622 
2738.646 1159108 1152824 1145970 1139747 1135226 1132868 1132453 1133395 
2742.504 1134786 1135839 1136232 1136138 1136163 1137189 1140015 1144946 
2746.361 1151743 1159517 1166973 1172850 1176312 1177088 1175694 1173002 
2750.219 1170079 1167643 1165951 1164747 1163395 1161370 1158341 1154454 
2754.076 1150197 1146233 1143061 1140929 1139709 1139032 1138586 1138167 
2757.934 1137841 1137883 1138515 1139859 1141507 1142944 1143356 1142068 
2761.791 1138665 1133228 1126302 1118773 1111519 1105390 1100813 1097926 
2765.648 1096425 1095793 1095494 1095056 1094229 1092994 1091592 1090385 
2769.506 1089787 1090218 1091992 1095220 1099859 1105537 1111690 1117614 
2773.363 1122510 1125646 1126696 1125676 1123096 1119931 1117377 1116494 
2777.221 1118081 1122391 1129061 1137351 1146110 1154221 1160782 1165160 
2781.078 1167120 1166727 1164370 1160625 1156274 1152117 1149150 1148213 
2784.936 1150107 1155291 1163850 1175284 1188625 1202373 1214793 1224176 
2788.793 1229241 1229472 1225409 1218533 1211132 1205662 1204114 1207508 
2792.650 1215567 1226816 1238997 1249863 1257713 1261888 1262826 1261687 
2796.508 1259929 1258751 1258977 1260852 1264405 1269617 1276565 1285288 
2800.365 1295627 1307003 1318505 1328867 1337037 1342553 1345761 1347683 
2804.223 1349634 1352751 1357588 1363894 1370926 1377754 1383794 1389094 
2808.080 1394273 1400188 1407452 1416159 1425925 1435761 1444809 1452456 
2811.938 1458541 1463403 1467464 1471235 1474903 1478534 1482176 1486112 
2815.795 1490956 1497474 1506488 1518446 1533329 1550347 1568366 1585968 
2819.652 1601770 1614720 1624182 1629991 1632515 1632586 1631443 1630622 
2823.510 1631621 1635730 1643673 1655384 1670175 1686881 1704345 1721798 
2827.367 1739107 1756719 1775461 1796010 1818500 1842267 1865914 1887640 
2831.225 1905794 1919393 1928393 1933812 1937422 1941338 1947602 1957599 
2835.082 1971962 1990427 2012273 2036394 2061914 2088337 2115759 2144747 
2838.939 2176125 2210663 2248950 2291028 2336685 2385540 2437428 2492601 
2842.797 2551924 2616635 2688285 2768356 2857997 2957782 3067607 3186594 
2846.654 3313154 3444765 3578035 3708732 3831938 3942356 4034861 4105081 
2850.512 4150078 4168598 4161447 4131187 4081750 4017865 3944222 3865008 
2854.369 3783401 3701401 3619995 3539412 3459575 3380445 3302398 3226134 
2858.227 3152737 3083223 3018549 2959098 2904914 2855622 2810784 2769923 
2862.084 2732783 2699325 2669780 2644487 2623949 2608795 2599716 2597275 
2865.941 2601793 2613122 2630654 2653212 2679499 2708316 2739024 2771801 
2869.799 2807319 2846761 2891037 2940524 2994881 3053034 3113702 3175756 
2873.656 3238409 3301378 3364437 3427286 3489019 3548284 3603614 3653685 
2877.514 3697852 3736203 3769426 3798157 3822801 3842903 3857609 3865864 
2881.371 3867231 3862264 3852629 3840764 3829064 3819234 3811675 3805474 
2885.229 3798681 3789234 3775518 3757019 3734278 3708844 3682775 3658212 
2889.086 3637093 3620996 3611194 3608583 3613494 3625583 3643714 3665939 
2892.943 3689723 3712573 3732549 3748770 3761688 3772851 3784444 3798534 
2896.801 3816548 3838964 3865262 3894386 3925230 3956825 3988856 4021230 
2900.658 4053941 4086881 4119550 4151285 4181436 4209815 4236816 4263562 
2904.516 4291508 4322057 4356341 4394772 4437255 4483519 4533389 4587140 
2908.373 4645561 4709798 4780966 4859871 4946710 5041255 5143012 5251559 
2912.230 5366881 5489225 5619113 5756752 5901766 6052848 6207909 6364126 
2916.088 6518578 6668236 6810551 6943357 7064804 7173338 7267709 7346765 
2919.945 7409911 7456956 7488417 7505383 7509479 7502530 7486581 7463562 
2923.803 7435342 7403535 7369506 7334439 7299290 7264793 7231704 7200581 
2927.660 7172063 7146827 7125506 7108687 7096916 7090662 7090403 7096734 
2931.518 7110400 7132260 7162988 7203122 7252755 7311605 7379329 7455749 
2935.375 7541132 7636408 7742949 7862185 7994903 8140779 8298147 8463967 
2939.232 8634440 8805588 8973862 9136423 9291244 9436551 9570605 9691228 
2943.090 9795715 9881192 9944981 9985231 10001183 9993197 9962658 9911346 
2946.947 9841278 9754185 9651390 9534080 9403234 9259992 9105805 8942449 
2950.805 8772173 8597501 8421250 8246299 8075443 7910985 7754574 7607095 
2954.662 7468484 7337984 7214392 7096469 6983180 6873914 6768445 6666818 
2958.520 6569180 6475629 6386155 6300763 6219468 6142386 6069729 6001562 
2962.377 5937809 5878025 5821391 5766881 5713434 5660237 5606893 5553328 
2966.234 5499933 5447404 5396478 5348028 5302807 5261554 5225073 5193846 
2970.092 5168363 5148786 5134942 5126484 5122910 5123587 5127975 5135572 
2973.949 5146074 5159287 5175265 5194093 5216018 5241415 5270677 5304086 
2977.807 5341873 5384300 5431655 5484540 5543945 5611261 5688147 5776041 
2981.664 5875917 5987760 6110777 6243530 6384468 6532681 6688221 6852318 
2985.521 7026882 7213795 7414224 7627786 7852564 8085059 8321146 8556549 
2989.379 8787702 9011725 9226700 9430973 9622959 9800725 9961953 10104155 
2993.236 10224891 10322162 10394576 10441484 10462932 10459613 10432976 
2996.612 10384976 10318060 10234966 10138348 10030378 9912503 9785326 
2999.987 9648684 9502082 9345146 9178051 9001860 8818350 8629993 8439283 
3003.844 8248622 8059708 7873537 7690394 7509847 7331097 7153230 6975478 
3007.702 6797493 6619362 6441815 6266107 6093467 5925236 5762207 5604608 
3011.559 5452268 5304716 5161633 5022948 4889123 4760923 4639017 4523701 
3015.417 4414372 4309768 4208021 4107167 4005721 3903013 3799324 3695634 
3019.274 3593402 3493981 3398445 3307485 3221310 3140106 3063950 2992894 
3023.131 2927059 2866140 2809611 2756547 2705882 2656633 2608153 2560218 
3026.989 2513175 2467635 2424275 2383703 2346360 2312428 2282037 2255148 
3030.846 2231646 2211133 2192977 2176103 2159268 2141285 2121379 2099304 
3034.704 2075499 2050793 2026124 2002115 1978860 1955907 1932594 1908266 
3038.561 1882883 1856844 1831169 1807124 1785722 1767756 1753423 1742559 
3042.418 1734920 1730149 1727951 1727959 1729469 1731440 1732613 1731732 
3046.276 1728049 1721604 1713335 1704800 1697724 1693286 1691733 1692195 
3050.133 1693056 1692341 1688523 1680854 1669630 1655914 1641080 1626385 
3053.991 1612497 1599660 1587508 1575782 1564003 1552098 1540344 1529038 
3057.848 1518785 1510200 1504053 1501173 1502353 1508097 1518263 1531942 
3061.706 1547433 1562550 1575086 1583530 1587426 1587521 1585593 1583581 
3065.563 1583049 1584491 1587136 1589318 1589013 1584531 1575367 1562147 
3069.420 1546671 1531347 1518457 1509681 1505822 1506779 1511751 1519557 
3073.278 1529044 1539112 1548894 1557671 1564843 1569779 1571923 1570818 
3077.135 1566237 1558126 1546907 1533261 1518261 1503175 1489335 1477793 
3080.993 1469148 1463340 1459718 1457159 1454537 1451067 1446656 1441831 
3084.850 1437759 1435679 1436482 1440324 1446628 1454113 1461186 1466514 
3088.708 1469236 1469083 1466404 1461851 1456189 1450111 1444083 1438303 
3092.565 1432821 1427409 1421665 1415050 1407033 1397430 1386549 1375324 
3096.422 1365506 1358940 1357378 1361633 1371572 1385675 1401547 1416533 
3100.280 1428318 1435455 1437704 1435777 1431180 1425543 1420341 1416550 
3104.137 1414712 1414797 1416379 1418782 1421186 1422645 1422345 1419923 
3107.995 1415440 1409499 1403056 1397226 1392778 1389975 1388618 1388000 
3111.852 1387465 1386680 1385832 1385651 1387147 1391177 1398180 1407731 
3115.709 1418818 1429930 1439502 1446134 1448863 1447271 1441511 1432052 
3119.567 1419833 1406076 1392254 1379901 1370252 1364090 1361427 1361293 
3123.424 1362193 1362361 1360449 1355869 1349113 1341550 1335166 1331742 
3127.282 1332314 1336789 1344060 1352193 1359134 1363156 1363440 1360087 
3131.139 1353968 1346496 1339094 1332959 1328930 1327331 1328259 1331336 
3134.997 1335915 1341020 1345518 1348170 1347999 1344689 1338796 1331798 
3138.854 1325849 1323259 1325773 1334109 1347513 1363908 1380319 1393646 
3142.711 1401434 1402459 1397023 1386777 1374360 1362867 1355065 1352778 
3146.569 1356670 1365988 1378827 1392472 1403951 1410796 1411455 1405619 
3150.426 1394213 1379103 1362567 1346755 1333313 1323170 1316779 1314058 
3154.284 1314882 1318903 1325617 1334192 1343414 1351762 1357842 1360607 
3158.141 1359821 1356044 1350596 1345125 1341038 1339275 1340072 1343196 
3161.999 1348140 1354504 1362077 1370626 1379898 1389132 1397256 1402915 
3165.856 1404877 1402558 1396200 1387020 1376821 1367722 1361526 1359325 
3169.713 1361420 1367271 1375786 1385600 1395364 1403974 1410793 1415521 
3173.571 1418360 1419649 1419865 1419326 1418159 1416227 1413220 1408926 
3177.428 1403482 1397324 1391355 1386598 1383883 1383592 1385484 1388557 
3181.286 1391493 1392886 1391649 1387386 1380502 1372262 1364564 1359475 
3185.143 1358967 1364257 1375551 1391787 1410899 1430041 1446426 1457972 
3189.000 1463830 1464489 1461688 1457604 1454299 1452905 1453627 1455727 
3192.858 1458160 1459920 1460579 1460243 1459319 1458191 1456881 1454950 
3196.715 1451894 1447361 1441573 1435367 1429898 1426322 1425241 1426538 
3200.573 1429421 1432808 1435724 1437816 1439266 1440758 1443034 1446330 
3204.430 1450367 1454287 1457027 1457655 1455748 1451694 1446393 1441155 
3208.288 1437205 1435391 1435982 1438766 1443055 1448023 1452895 1457027 
3212.145 1460053 1461896 1462675 1462658 1462371 1462451 1463660 1466754 
3216.002 1472401 1480754 1491457 1503371 1514783 1523807 1528714 1528533 
3219.860 1523348 1514236 1502974 1491527 1481437 1473631 1468208 1464975 
3223.717 1463586 1464064 1466647 1471596 1478642 1486738 1494026 1498367 
3227.575 1497964 1492145 1481860 1469377 1457714 1449747 1447194 1450190 
3231.432 1457525 1467134 1476920 1485551 1492539 1498198 1503230 1508058 
3235.290 1512704 1516700 1519343 1519906 1517986 1513484 1506530 1497438 
3239.147 1486631 1474855 1463186 1453065 1446131 1443829 1446789 1454831 
3243.004 1466620 1480162 1493286 1504199 1511942 1516427 1518316 1518476 
3246.862 1517842 1517067 1516520 1516408 1516797 1517762 1519162 1520727 
3250.719 1521975 1522332 1521469 1519440 1516876 1514759 1514232 1516123 
3254.577 1520719 1527638 1536052 1545048 1553971 1562515 1570811 1579109 
3258.434 1587378 1595267 1601969 1606433 1607862 1605881 1600917 1593984 
3262.292 1586568 1580156 1575875 1574227 1574886 1576934 1579103 1580091 
3266.149 1578946 1575272 1569343 1561977 1554293 1547318 1541864 1538160 
3270.006 1536175 1535689 1536562 1538925 1543239 1549955 1559305 1570851 
3273.864 1583366 1595009 1603780 1607935 1606788 1600855 1591715 1581738 
3277.721 1573416 1568607 1568223 1571969 1578539 1586244 1593479 1599198 
3281.579 1603370 1606773 1610737 1616683 1625492 1637253 1651012 1665139 
3285.436 1677763 1687428 1693603 1696860 1698608 1700742 1704872 1711827 
3289.293 1721321 1732131 1742426 1750474 1754936 1755248 1751652 1744973 
3293.151 1736404 1727325 1719260 1713734 1712139 1715462 1724069 1737222 
3297.008 1753222 1769549 1783426 1792595 1795889 1793550 1786982 1778286 
3300.866 1769566 1762140 1756483 1752298 1748744 1745055 1740767 1735813 
3304.723 1730326 1724361 1717873 1710619 1702487 1693765 1685197 1677891 
3308.581 1672890 1670838 1671491 1673909 1676461 1677605 1676273 1672121 
3312.438 1665613 1657684 1649207 1640774 1632361 1623623 1614006 1603265 
3316.295 1591555 1579454 1567816 1557577 1549235 1543036 1538847 1536247 
3320.153 1534825 1534136 1533958 1534203 1534927 1536407 1538944 1542874 
3324.010 1548441 1555724 1564391 1573851 1583404 1592158 1599733 1605828 
3327.868 1610610 1614266 1616954 1618515 1618427 1616039 1610894 1602913 
3331.725 1592732 1581588 1571034 1562453 1556919 1554743 1555593 1558789 
3335.583 1563483 1568804 1574115 1578814 1582138 1583351 1581678 1576617 
3339.440 1568288 1557519 1545887 1535326 1527548 1523673 1523781 1527090 
3343.297 1532067 1537103 1540975 1543146 1543794 1543613 1543399 1543610 
3347.155 1544382 1545389 1546239 1546619 1546415 1545909 1545391 1545187 
3351.012 1545331 1545609 1545641 1545044 1543694 1541682 1539523 1537688 
3354.870 1536775 1537220 1539172 1542719 1547774 1554247 1561903 1570270 
3358.727 1578605 1585718 1590120 1590405 1585489 1575168 1560196 1542463 
3362.584 1524570 1509465 1499548 1496385 1500124 1509599 1522501 1536118 
3366.442 1547802 1555871 1559769 1560331 1559302 1558995 1561362 1567476 
3370.299 1577204 1589058 1600645 1609412 1613280 1611228 1603617 1591970 
3374.157 1578478 1565379 1554301 1546057 1540479 1536799 1534135 1531867 
3378.014 1529744 1528074 1527296 1527876 1530018 1533586 1538287 1543748 
3381.872 1549642 1555582 1561139 1565587 1568065 1567428 1562754 1553682 
3385.729 1540595 1524704 1507803 1491839 1478344 1468226 1461381 1457291 
3389.586 1455105 1454189 1454328 1455794 1458997 1464267 1471411 1479773 
3393.444 1488251 1495835 1501796 1506032 1508985 1511313 1513722 1516575 
3397.301 1519792 1523113 1526321 1529587 1533593 1539433 1548156 1560217 
3401.159 1575038 1590811 1604858 1614089 1615993 1609313 1594618 1574150 
3405.016 1551457 1530379 1514189 1504826 1502496 1505868 1512480 1519756 
3408.874 1525551 1528768 1529441 1528459 1527076 1526253 1526343 1526901 
3412.731 1527060 1526008 1523367 1519799 1516630 1515678 1518396 1525357 
3416.588 1535546 1546790 1556173 1561005 1559909 1553192 1543050 1532758 
3420.446 1525497 1523376 1526511 1533061 1539910 1543691 1541960 1534120 
3424.303 1521360 1506203 1491742 1480556 1474069 1472580 1475528 1481768 
3428.161 1490214 1499901 1509879 1519113 1526388 1530587 1530986 1527640 
3432.018 1521709 1515098 1509899 1507733 1508864 1512398 1516346 1518468 
3435.875 1517186 1512224 1504741 1496934 1491242 1489587 1492834 1500490 
3439.733 1511095 1522534 1532675 1539593 1542009 1539195 1531287 1519308 
3443.590 1505091 1491275 1480650 1475520 1476971 1484569 1496160 1508655 
3447.448 1519031 1525325 1527304 1526617 1525872 1527818 1533967 1544197 
3451.305 1556636 1568629 1577714 1582420 1582930 1580711 1577462 1574709 
3455.163 1572731 1570857 1567882 1562789 1555600 1547669 1541148 1538376 
3459.020 1540871 1548764 1560655 1574172 1586675 1596318 1602268 1604995 
3462.877 1605648 1605663 1606014 1607212 1609141 1611535 1614359 1617788 
3466.735 1622297 1628456 1636406 1645985 1656415 1666907 1676647 1685216 
3470.592 1692880 1700222 1708508 1718949 1732780 1750609 1772462 1797201 
3474.450 1822662 1845861 1863417 1872466 1871502 1860973 1843585 1823511 
3478.307 1805592 1793817 1790345 1794991 1805660 1819204 1832694 1844625 
3482.165 1855134 1865753 1878524 1895028 1915759 1939890 1965808 1991903 
3486.022 2017025 2040953 2064035 2086847 2109434 2131303 2151317 2168325 
3489.879 2181598 2191238 2198112 2203744 2209647 2217149 2227026 2239490 
3493.737 2254461 2271505 2290107 2309646 2329274 2348275 2365919 2381992 
3497.594 2396565 2410047 2422863 2435035 2446105 2455092 2460911 2462900 
3501.452 2461211 2457069 2452337 2449101 2449060 2452937 2460625 2471137 
3505.309 2483021 2494803 2505078 2512509 2516056 2514843 2508807 2498552 
3509.167 2485884 2473260 2463199 2457461 2456049 2457285 2458190 2455618 
3513.024 2447416 2433475 2415746 2397328 2381345 2369427 2360962 2353323 
3516.881 2342914 2326598 2303167 2273688 2241427 2210760 2185663 2168808 
3520.739 2160812 2160374 2164824 2170837 2175218 2175350 2169514 2157057 
3524.596 2138594 2115947 2091912 2069817 2052526 2041816 2037725 2038453 
3528.454 2040817 2041345 2037275 2027349 2012065 1993317 1973535 1954983 
3532.311 1939012 1926108 1915916 1908009 1902045 1898001 1895900 1895578 
3536.168 1896132 1896130 1893790 1887427 1876091 1859958 1840345 1819234 
3540.026 1798963 1781264 1767135 1756492 1748636 1742345 1736848 1732003 
3543.883 1728427 1727297 1729812 1736592 1747142 1759822 1771924 1780499 
3547.741 1783000 1778177 1766287 1749031 1729060 1708992 1690931 1675781 
3551.598 1663518 1653586 1645292 1638567 1634054 1632907 1636247 1644539 
3555.456 1657086 1672018 1686539 1697860 1703810 1703707 1698431 1690221 
3559.313 1682057 1676562 1675310 1678304 1684078 1690271 1694401 1694774 
3563.170 1691029 1684215 1676230 1669401 1665484 1665291 1668682 1674677 
3567.028 1682190 1690220 1698086 1705416 1711696 1716220 1717851 1715487 
3570.885 1708242 1696020 1679452 1659986 1639501 1619694 1602015 1587311 
3574.743 1576183 1569060 1566412 1568430 1574950 1585028 1596714 1607494 
3578.600 1614671 1616086 1610804 1599192 1582856 1563953 1544664 1526654 
3582.458 1510919 1498021 1488321 1482300 1480533 1483742 1492121 1505336 
3586.315 1522312 1541454 1560808 1578765 1593953 1605772 1614134 1619410 
3590.172 1622176 1623066 1622443 1620292 1616096 1608809 1597238 1580300 
3594.030 1557840 1530698 1500980 1471669 1445819 1425737 1412423 1405276 
3597.887 1402470 1401792 1401053 1398967 1394942 1388991 1381185 1371416 
3601.745 1359658 1346212 1332030 1319073 1309834 1306734 1311160 1322971 
3605.602 1340461 1360886 1381223 1399180 1413622 1424534 1432483 1438020 
3609.459 1441603 1443606 1444705 1446467 1451141 1461251 1478383 1502193 
3613.317 1530062 1557363 1578810 1590211 1589806 1578958 1561451 1542091 
3617.174 1525040 1512282 1503357 1495956 1487234 1475194 1459749 1442861 
3621.032 1427859 1418399 1417377 1426346 1445166 1472282 1505058 1540118 
3624.889 1573739 1602133 1622093 1631668 1630671 1620955 1606161 1590771 
3628.747 1578789 1572647 1572407 1576102 1580710 1583666 1584022 1582895 
3632.604 1583276 1588556 1601353 1622536 1650529 1682126 1713310 1740319 
3636.461 1760663 1773325 1778570 1777586 1771946 1763427 1754004 1745750 
3640.319 1740701 1740529 1746041 1756923 1771738 1788218 1804008 1817300 
3644.176 1827263 1834113 1838767 1842322 1845645 1849410 1854165 1860695 
3648.034 1870126 1883743 1902283 1925334 1950904 1975738 1995940 2008356 
3651.891 2011587 2006509 1996038 1984179 1974378 1968840 1967530 1968697 
3655.749 1969717 1968383 1963785 1956696 1949298 1944279 1943885 1949407 
3659.606 1960747 1976684 1995206 2013992 2030623 2042946 2048955 2047074 
3663.463 2036499 2017551 1991702 1961647 1930876 1902906 1880735 1866219 
3667.321 1859863 1860870 1867779 1878651 1891765 1905979 1920862 1937006 
3671.178 1956234 1981333 2015842 2063100 2125245 2202040 2289672 2380477 
3675.036 2463616 2526986 2559442 2553725 2508030 2426644 2318817 2196862 
3678.893 2073734 1960664 1865456 1791821 1739416 1704815 1682601 1666905 
3682.750 1652280 1634668 1611851 1583792 1552328 1520764 1492846 1471939 
3686.608 1459854 1456359 1459077 1464262 1467857 1466951 1460642 1450038 
3690.465 1437692 1426578 1418719 1414462 1412610 1411054 1407770 1401842 
3694.323 1393666 1384859 1377285 1372425 1370678 1371499 1373852 1376972 
3698.180 1380748 1385922 1393359 1403581 1416069 1429328 1441132 1449462 
3702.038 1453228 1452575 1448667 1442937 1436364 1428899 1419524 1406828 
3705.895 1389846 1368934 1345852 1323895 1306703 1297744 1299090 1311103 
3709.752 1332092 1358742 1386607 1410973 1427606 1433847 1429020 1414809 
3713.610 1394898 1373905 1356174 1344633 1339656 1339557 1341059 1340823 
3717.467 1336874 1329260 1319968 1311890 1307526 1307646 1311133 1315616 
3721.325 1318546 1318866 1317520 1317404 1321853 1333468 1352540 1376697 
3725.182 1401685 1422686 1435935 1440045 1436107 1427085 1416591 1407466 
3729.040 1401167 1397447 1395035 1392249 1387928 1381773 1374444 1367364 
3732.897 1362277 1360956 1364687 1374084 1388614 1406531 1424804 1439612 
3736.754 1447118 1444519 1430974 1408108 1379791 1351472 1328498 1314989 
3740.612 1312723 1320777 1335932 1353931 1370510 1382731 1389414 1391294 
3744.469 1390310 1388749 1388277 1389482 1391564 1392958 1391935 1387242 
3748.327 1378741 1367645 1356034 1346600 1341537 1342210 1348448 1358899 
3752.184 1371020 1381842 1388754 1389785 1384269 1372842 1357161 1339770 
3756.042 1323319 1310390 1302703 1301076 1305309 1314389 1326987 1341787 
3759.899 1357886 1374556 1391307 1407360 1421344 1431699 1436699 1435349 
3763.756 1427784 1415688 1401967 1389842 1382207 1380207 1383328 1389434 
3767.614 1395630 1399371 1399097 1394956 1388207 1380877 1374881 1371592 
3771.471 1371591 1374917 1381168 1389954 1400610 1412429 1424227 1434615 
3775.329 1442155 1445860 1445477 1441622 1435405 1428189 1420707 1413135 
3779.186 1405094 1395864 1385078 1372990 1360533 1348882 1339048 1331411 
3783.043 1325730 1321300 1317348 1313673 1310617 1309014 1309624 1312876 
3786.901 1318431 1325404 1332468 1338560 1343071 1345811 1346831 1346204 
3790.758 1343754 1339151 1332140 1323064 1312909 1303499 1296684 1293998 
3794.616 1295937 1301817 1309803 1317830 1324134 1328170 1330635 1333340 
3798.473 1338394 1347459 1360792 1377176 1393933 1407636 1415157 1414447 
3802.331 1405211 1389024 1368844 1348433 1331259 1320017 1316003 1318877 
3806.188 1327065 1337951 1348663 1356579 1359919 1358055 1351305 1340940 
3810.045 1328626 1315979 1304272 1294280 1286209 1280070 1275865 1273799 
3813.903 1274202 1277521 1283707 1292201 1301462 1309591 1314575 1315111 
3817.760 1311095 1303623 1294887 1287297 1282792 1282214 1285016 1289759 
3821.618 1294528 1297780 1298927 1298376 1297314 1297184 1298982 1303335 
3825.475 1310308 1319468 1330407 1342564 1355402 1368078 1379402 1387929 
3829.333 1392083 1390889 1384039 1372337 1357446 1341644 1327018 1315294 
3833.190 1307510 1303949 1304331 1308016 1313970 1321167 1328264 1334068 
3837.047 1337376 1337480 1334110 1327509 1318163 1306815 1293837 1279664 
3840.905 1264796 1250272 1237938 1230232 1229796 1238532 1256959 1283554 
3844.762 1314808 1345948 1372039 1389274 1395732 1392000 1380696 1365675 
3848.620 1351204 1340600 1335792 1336924 1342493 1349851 1355912 1357831 
3852.477 1353793 1343449 1327788 1309164 1290358 1274046 1261875 1254349 
3856.334 1250850 1250247 1251279 1253251 1256125 1260584 1267467 1277650 
3860.192 1291277 1307990 1326771 1346153 1364600 1380627 1392853 1400191 
3864.049 1401979 1398242 1389546 1377193 1362876 1348337 1334971 1323398 
3867.907 1313733 1305475 1298210 1291874 1286919 1284249 1284797 1288938 
3871.764 1296350 1305937 1316057 1325054 1331739 1335592 1336806 1336092 
3875.622 1334317 1332335 1330778 1330051 1330436 1332052 1334821 1338226 
3879.479 1341553 1343741 1343675 1340628 1334209 1325055 1314394 1303952 
3883.336 1295609 1291102 1291573 1297557 1308589 1323478 1340111 1355983 
3887.194 1368486 1375616 1376332 1370930 1361098 1349341 1338414 1330538 
3891.051 1326675 1326631 1328966 1331990 1334235 1335011 1334631 1333938 
3894.909 1334129 1336076 1340027 1345684 1352293 1358812 1364057 1367025 
3898.766 1366804 1362714 1354599 1343057 1329455 1315772 1304301 1296854 
3902.624 1294408 1296484 1301557 1307584 1312673 1315951 1317822 1319824 
3906.481 1323717 1330938 1341894 1355932 1371503 1387118 1401602 1414693 
3910.338 1426612 1437803 1448344 1457660 1464586 1467891 1466725 1461164 
3914.196 1452019 1440817 1428986 1417532 1406808 1396554 1386402 1376144 
3918.053 1365936 1356328 1347778 1340405 1333973 1327840 1321457 1314772 
3921.911 1308321 1303270 1300916 1302097 1306947 1314772 1324238 1333785 
3925.768 1342103 1348351 1352123 1353181 1351419 1346640 1338907 1328864 
3929.625 1317743 1307591 1300600 1298555 1302114 1310622 1322114 1333872 
3933.483 1343440 1349096 1350457 1348428 1344519 1340728 1338500 1338940 
3937.340 1342299 1348420 1356621 1365942 1374964 1382211 1386184 1385748 
3941.198 1380534 1371421 1360188 1349268 1340980 1337061 1338015 1343171 
3945.055 1350844 1359283 1366790 1372572 1376404 1378761 1380142 1381102 
3948.913 1381917 1382626 1382980 1382806 1381734 1379409 1375366 1369397 
3952.770 1361537 1352568 1343769 1337000 1334073 1336600 1344992 1358790 
3956.627 1376490 1396139 1415517 1432879 1446756 1456165 1460391 1459007 
3960.485 1451814 1439074 1421674 1401241 1379548 1358593 1339701 1323453 
3964.342 1309902 1298745 1290180 1284935 1284615 1290902 1305031 1326834 
3968.200 1354316 1383957 1411382 1432626 1445268 1449065 1445911 1439213 
3972.057 1432700 1429357 1430525 1435863 1443631 1451535 1457448 1460122 
3975.915 1459183 1455202 1449040 1441549 1433391 1424714 1415662 1406263 
3979.772 1396783 1387726 1379838 1373876 1370292 1369222 1370278 1372653 
3983.629 1375426 1377602 1378500 1378095 1376931 1376445 1378502 1384913 
3987.487 1397107 1415525 1439052 1465481 1491613 1514221 1530489 1538985 
3991.344 1539678 1533806 1523316 1510435 1496805 1483746 1471967 1462214 
3995.202 1455102 1451500 1451822 1455976 1462763 1470112 1475392 1476425 
3999.059 1472060 1463070 1451820 1441891 
##END=
