##TITLE=Bambu-Lab_ABS_White_Filament_r7_ATR-Corrected
##JCAMP-DX=5.01  $$ Nicolet v. 1
##DATATYPE=INFRARED SPECTRUM
##ORIGIN=Curtin University
##OWNER=Nicolet
##LONGDATE=2024/07/03
##TIME=14:25:27
##SPECTROMETER/DATA SYSTEM=Nicolet iS50
##DATA PROCESSING=
Ratio against background
%Transmittance->Absorbance
ATR Correction
Truncated
ElementMultiply or ElementDivide
##COMMENTS=
Number of sample scans: 32
Collection length: 47.29 sec
Sample gain: 1.0
Background collected on: Wed Jul 03 14:23:19 2024 (GMT+08:00);
Number of background scans: 32
Background gain: 1.0
Sample spacing:  1.000
Number of scan points: 16672
Resolution points: 8192
Number of FFT points: 65536
Apodization: N-B strong;
Phase correction: Mertz;
Laser frequency: 15798.3 cm-1
Number of rejected sample scans: 0
Number of rejected background scans: 0
Bench serial number: AUP1200105;
##RESOLUTION=4.000
##XUNITS=1/CM
##YUNITS=ABSORBANCE
##FIRSTX=400.163452
##LASTX=4000.187744
##FIRSTY=0.016582
##MAXX=4000.187744
##MINX=400.163452
##MAXY=0.403971
##MINY=-0.006209
##XFACTOR=1.000000
##YFACTOR=1.000000E-009
##NPOINTS=7468
##DELTAX=0.482125
##ZPD=8192
##XYDATA=(X++(Y..Y))
400.163 16582398 17298000 17810150 18048098 18017394 17786962 17465614 
403.538 17167656 16981206 16943472 17032840 17176438 17274598 17232876 
406.913 16993284 16554762 15975187 15354812 14806377 14423424 14256359 
410.288 14302539 14515692 14827319 15171099 15505024 15818100 16124522 
413.663 16446404 16795790 17161876 17510418 17791922 17957280 17970776 
417.038 17818186 17507532 17064332 16525088 15930654 15323153 14743654 
420.412 14231872 13824810 13554721 13444994 13507621 13740687 14128575 
423.787 14644423 15253044 15913120 16579431 17203050 17735048 18132432 
427.162 18366730 18432944 18355012 18183542 17986004 17830122 17766416 
430.537 17816036 17965934 18175512 18390824 18559730 18649304 18650614 
433.912 18576724 18454952 18315938 18186088 18084076 18022656 18012746 
437.286 18064226 18184686 18374066 18617026 18879352 19108662 19244022 
440.661 19230034 19032720 18650522 18119444 17505386 16891282 16357634 
444.036 15965553 15744813 15689986 15766356 15920859 16096694 16246373 
447.411 16341090 16374296 16359676 16323732 16296057 16299514 16343374 
450.786 16420947 16512584 16593093 16640728 16644251 16606519 16542260 
454.161 16472237 16415955 16385848 16385805 16413849 16466195 16541598 
457.535 16642803 16772991 16930446 17104120 17271782 17404054 17472404 
460.910 17459420 17365912 17212734 17036362 16879804 16780782 16764304 
464.285 16838744 16997020 17220458 17483546 17757980 18014506 18224190 
467.660 18361220 18406148 18350390 18200348 17977898 17717690 17459848 
471.035 17241582 17089246 17013614 17010768 17066268 17161694 17280882 
474.409 17413432 17554622 17703552 17858914 18016886 18169294 18304310 
477.784 18408122 18468194 18475350 18426374 18325396 18183752 18017990 
481.159 17846882 17687342 17550434 17439662 17352088 17281568 17224140 
484.534 17181362 17161302 17176094 17235274 17340166 17480042 17632662 
487.909 17770566 17869448 17916308 17913444 17876848 17829076 17790896 
491.284 17773288 17775180 17786654 17795870 17797036 17796926 17814200 
494.658 17874666 18002982 18213096 18502528 18850484 19221568 19572980 
498.033 19863694 20062616 20154272 20141310 20042574 19888740 19715466 
501.408 19556108 19435344 19365098 19344286 19361432 19401556 19452336 
504.783 19509782 19580090 19676658 19814234 20001742 20236690 20504438 
508.158 20781668 21044922 21279014 21483256 21673332 21876460 22122906 
511.532 22436018 22825162 23283862 23792636 24326976 24865270 25394300 
514.907 25911290 26420638 26928720 27439156 27950296 28457378 28956984 
518.282 29452294 29955196 30485450 31065150 31711016 32428988 33210662 
521.657 34035932 34878232 35710996 36513368 37271904 37980196 38636300 
525.032 39241512 39799676 40320008 40818540 41317868 41842584 42412848 
528.406 43035896 43701968 44384704 45048144 45657884 46191604 46646184 
531.781 47037204 47392084 47740508 48104392 48493152 48904180 49327716 
535.156 49752956 50172320 50582552 50982232 51368684 51736496 52078820 
538.531 52391304 52675916 52941872 53203524 53473724 53757904 54049780 
541.906 54332844 54586584 54794912 54953744 55073776 55175900 55283712 
545.281 55412328 55561748 55715588 55845284 55919840 55915024 55819908 
548.655 55638796 55387528 55087396 54759364 54420144 54081336 53751004 
552.030 53435788 53141776 52873524 52632188 52413580 52207304 51999832 
555.405 51778112 51534420 51269248 50992672 50721296 50473076 50261204 
558.780 50089164 49948948 49822812 49687912 49522956 49313800 49057168 
562.155 48761068 48441720 48119480 47813148 47537148 47299528 47102284 
565.529 46943080 46815612 46710652 46614864 46510660 46376876 46192068 
568.904 45938908 45610168 45211708 44763376 44294252 43835384 43410988 
572.279 43031540 42691668 42372852 42051376 41707680 41334372 40939096 
575.654 40543268 40173980 39855328 39599956 39404164 39248760 39103112 
579.029 38933652 38711124 38417700 38049796 37618376 37145032 36657280 
582.404 36182156 35740960 35345528 34996580 34685260 34396808 34115256 
585.778 33829016 33533790 33234030 32940444 32666768 32424852 32221780 
589.153 32057810 31928878 31828634 31751786 31695806 31660728 31646148 
592.528 31649072 31661004 31668250 31655192 31607978 31520634 31397202 
595.903 31252086 31106996 30983954 30898904 30856478 30848298 30854994 
599.278 30852118 30817074 30735960 30607008 30440862 30257826 30081676 
602.652 29934304 29830390 29775526 29765520 29789254 29831580 29877542 
606.027 29915074 29937254 29942588 29934602 29920298 29907544 29903544 
609.402 29912618 29935888 29971308 30015174 30064070 30116160 30171846 
612.777 30233062 30301326 30376650 30456106 30535064 30609298 30678062 
616.152 30746076 30823854 30925026 31061360 31237596 31447540 31673178 
619.527 31887912 32062932 32174152 32208540 32166104 32059156 31907182 
622.901 31731262 31548810 31371128 31203958 31048836 30906424 30777194 
626.276 30661806 30559082 30465052 30372100 30270972 30153682 30016596 
629.651 29863016 29702828 29549954 29417970 29315456 29242978 29192940 
633.026 29151774 29104786 29040854 28956202 28856290 28753992 28666602 
636.401 28611152 28599642 28636518 28717110 28828828 28954492 29076104 
639.775 29179064 29255258 29305170 29336994 29364794 29404722 29471500 
643.150 29575070 29718822 29899712 30109006 30334588 30562796 30780456 
646.525 30976180 31141418 31271588 31367030 31433306 31481262 31525276 
649.900 31580686 31660252 31770584 31910456 32071292 32239854 32403230 
653.275 32553304 32690324 32823302 32967090 33137504 33345528 33593448 
656.650 33873688 34171276 34469368 34755280 35024640 35283476 35545488 
660.024 35827420 36143100 36498320 36889248 37304172 37727692 38146288 
663.399 38553400 38951064 39349096 39761700 40201852 40677208 41187472 
666.774 41723848 42271796 42813924 43334372 43821336 44269204 44678484 
670.149 45055068 45409300 45754040 46103412 46470656 46866452 47296868 
673.524 47762824 48259720 48778756 49309972 49844568 50377728 50909368 
676.898 51444200 51989924 52555216 53148000 53775072 54442056 55154900 
680.273 55920424 56746828 57643064 58619008 59683944 60847676 62121464 
683.648 63518964 65057160 66756688 68641128 70736672 73072320 75681440 
687.023 78605608 81898392 85630736 89894536 94805944 100506568 107165672 
690.398 114979472 124169824 134978928 147657408 162444080 179534320 
693.290 199036912 220922480 244962416 270669120 297249344 323591008 
696.183 348315232 369914816 386984576 398488320 403970656 403618656 
699.076 398149632 388589920 376039776 361504160 345804256 329556672 
701.969 313191936 296989312 281115296 265655968 250647216 236096752 
704.861 222000464 208353696 195157712 182421488 170160816 158394896 
707.754 147143648 136423776 126247136 116620224 107545840 99024912 91060128 
711.129 83656400 76821240 70562888 64886756 59791560 55266404 51289488 
714.504 47829624 44849312 42308332 40167412 38389096 36937600 35775928 
717.878 34863888 34157464 33609952 33176624 32819082 32509678 32233004 
721.253 31984154 31765368 31581324 31435852 31331144 31268854 31252400 
724.628 31288210 31385676 31553812 31797748 32115058 32494624 32918468 
728.003 33365972 33819408 34268672 34713628 35163764 35635236 36148024 
731.378 36721084 37371000 38110028 38946132 39882932 40920068 42052556 
734.752 43271480 44563624 45912432 47298420 48701116 50099444 51473788 
738.127 52807368 54088572 55312668 56483040 57610980 58715140 59817748 
741.502 60942800 62112024 63343816 64652800 66050848 67548224 69154120 
744.877 70876768 72722432 74694288 76792728 79015728 81361496 83830344 
748.252 86426768 89159304 92039176 95077760 98282840 101656504 105192576 
751.627 108876344 112683952 116583376 120535288 124494768 128413424 
754.519 132242096 135933280 139441648 142723872 145735792 148429936 
757.412 150753312 152648704 154058624 154932976 155237008 154957584 
760.305 154106064 152715760 150835088 148519968 145825984 142803904 
763.197 139499136 135953328 132207584 128304824 124289616 120205888 
766.090 116094712 111991960 107927304 103926056 100010728 96202648 92521656 
769.465 88984400 85601488 82375696 79301552 76367904 73560576 70867880 
772.840 68282224 65800912 63424952 61155552 58991772 56928952 54958692 
776.214 53070696 51254516 49501396 47805388 46162940 44572400 43033352 
779.589 41546200 40112328 38733732 37413316 36154016 34957828 33825420 
782.964 32755510 31745076 30790110 29886296 29030308 28219854 27453910 
786.339 26732612 26057270 25429772 24852564 24327808 23856934 23439266 
789.714 23071288 22745906 22453164 22181014 21917890 21654770 21387008 
793.089 21114968 20843212 20578152 20325970 20089414 19866808 19652448 
796.463 19438554 19218000 18987378 18748406 18508166 18276652 18064322 
799.838 17878706 17723070 17595446 17490326 17400380 17318724 17239582 
803.213 17158960 17073296 16979432 16874284 16756663 16627826 16492998 
806.588 16361190 16243303 16149713 16087089 16056499 16053531 16069388 
809.963 16093653 16116301 16129207 16126612 16104233 16059365 15990486 
813.337 15898559 15787752 15666388 15545200 15435584 15346417 15281354 
816.712 15238121 15209351 15185353 15156792 15117264 15063388 14994264 
820.087 14910162 14811465 14698667 14574286 14443812 14316776 14205234 
823.462 14121438 14073991 14065691 14092395 14144471 14209869 14277818 
826.837 14340689 14395302 14441865 14482332 14518723 14553056 14586568 
830.212 14621082 14658669 14702228 14754731 14819098 14898596 14997874 
833.586 15122910 15281873 15482830 15730912 16025323 16357543 16711641 
836.961 17067712 17406698 17715464 17990576 18238346 18472370 18708406 
840.336 18959706 19232972 19526926 19833640 20139548 20428878 20685386 
843.711 20894334 21043850 21126720 21142274 21096432 21001166 20872730 
847.086 20726788 20575180 20422656 20266896 20100688 19916092 19708234 
850.460 19478692 19234746 18987358 18746958 18520042 18306582 18100422 
853.835 17891860 17670742 17430738 17171452 16898972 16625233 16364766 
857.210 16131565 15935121 15778570 15658194 15565082 15488124 15418691 
860.585 15353343 15294951 15250847 15228889 15232406 15257093 15289993 
863.960 15313138 15308829 15265785 15183340 15071757 14948399 14832201 
867.335 14737030 14668533 14623682 14594068 14570824 14548806 14528942 
870.709 14516752 14519722 14543424 14589189 14653119 14727738 14804278 
874.084 14875450 14937392 14990172 15037180 15083724 15135208 15195148 
877.459 15264052 15337846 15409148 15468066 15505742 15516825 15502965 
880.834 15473467 15443686 15431511 15452730 15516179 15622275 15763005 
884.209 15925091 16093822 16257381 16407941 16542887 16662464 16768588 
887.583 16862922 16946976 17022322 17091044 17156136 17221428 17290112 
890.958 17365390 17449462 17545256 17655834 17786520 17943046 18131628 
894.333 18357392 18623598 18931734 19282712 19677546 20118922 20610664 
897.708 21158156 21766968 22443252 23192640 24021166 24934990 25940270 
901.083 27042354 28245012 29549854 30957304 32467310 34080320 35796592 
904.458 37614328 39525044 41509456 43534376 45553552 47511152 49349136 
907.832 51015324 52469048 53684540 54648868 55358372 55814360 56019460 
911.207 55977500 55694636 55181616 54454292 53533684 52442484 51204132 
914.582 49840092 48371756 46820664 45211360 43570500 41925744 40302168 
917.957 38720172 37193376 35730052 34335228 33014186 31773512 30620804 
921.332 29562696 28602314 27737210 26960194 26261774 25632646 25066064 
924.706 24558112 24105752 23705206 23349566 23030094 22737888 22466716 
928.081 22215460 21987728 21788970 21623114 21488904 21379330 21282928 
931.456 21188694 21089854 20987156 20888836 20807648 20756866 20746340 
934.831 20779996 20856152 20969732 21114292 21284020 21474366 21681392 
938.206 21900528 22126616 22354186 22578706 22798056 23013200 23227934 
941.581 23447570 23677112 23920274 24178222 24450204 24733606 25025624 
944.955 25323544 25625420 25930866 26240666 26557438 26884456 27225926 
948.330 27586272 27969702 28380426 28823588 29305354 29834778 30422670 
951.705 31081660 31824588 32663152 33607100 34664484 35842104 37147220 
955.080 38587768 40172436 41909652 43806620 45868032 48095892 50489972 
958.455 53048192 55765688 58633600 61635620 64744444 67919912 71108680 
961.829 74247280 77266384 80097848 82679712 84959928 86897864 88464264 
965.204 89639896 90414352 90785744 90760544 90352896 89584128 88481608 
968.579 87077040 85405776 83505552 81416752 79180960 76840320 74434712 
971.954 72000560 69568480 67163696 64806328 62513812 60302452 58188036 
975.329 56185864 54308692 52564816 50957044 49482312 48133432 46900724 
978.703 45774400 44746392 43810536 42962388 42198420 41515604 40911328 
982.078 40382536 39925732 39536808 39210556 38940708 38720452 38543616 
985.453 38406368 38307176 38247464 38229940 38256988 38328600 38441448 
988.828 38588936 38762524 38952584 39149892 39346004 39531952 39698020 
992.203 39832844 39923564 39957648 39923920 39814816 39627468 39364688 
995.578 39035028 38653380 38240804 37823916 37432936 37098804 36847948 
998.952 36698388 36655312 36710020 36841432 37019816 37212832 37390072 
1002.327 37526972 37607180 37621420 37567060 37447108 37269460 37046496 
1005.702 36794536 36532668 36280128 36053300 35863832 35716680 35610996 
1009.077 35541428 35500804 35482704 35482176 35496892 35526096 35569536 
1012.452 35627592 35699768 35785636 35884692 35996792 36122728 36264208 
1015.826 36424408 36608104 36820604 37067584 37353288 37680220 38048232 
1019.201 38455980 38902420 39389552 39923508 40515228 41178128 41926052 
1022.576 42769340 43713104 44756124 45891692 47108088 48389480 49713564 
1025.951 51050148 52357724 53583352 54664704 55535628 56133648 56409212 
1029.326 56331216 55890792 55101048 53993908 52615936 51024472 49282884 
1032.702 47457156 45611856 43806228 42089436 40497644 39052208 37761616 
1036.077 36623804 35630908 34772800 34039608 33422072 32910898 32495048 
1039.452 32162144 31898718 31692206 31532456 31412412 31327422 31273664 
1042.827 31245630 31236596 31238098 31242632 31245674 31247208 31251826 
1046.203 31266720 31299032 31353340 31430074 31525296 31632454 31744514 
1049.578 31855498 31962152 32063230 32160110 32255172 32352526 32456632 
1052.953 32573246 32709390 32871864 33067610 33301674 33577120 33894384 
1056.328 34251308 34643956 35067732 35517260 35988132 36476216 36977772 
1059.704 37489620 38008740 38531952 39056612 39580684 40103016 40624264 
1063.079 41146176 41671412 42201724 42737464 43275144 43807832 44325068 
1066.454 44814244 45262156 45656812 45988380 46249268 46433996 46539176 
1069.829 46562280 46503256 46364324 46150144 45867880 45526420 45134596 
1073.205 44700804 44232272 43736012 43219900 42693940 42170072 41661696 
1076.580 41180212 40733596 40322420 39941204 39578296 39219160 38850980 
1079.955 38465020 38059444 37638532 37212260 36792396 36390692 36015936 
1083.330 35673340 35364076 35086324 34836540 34611336 34408284 34226968 
1086.706 34068504 33934420 33825916 33741692 33677460 33626000 33578748 
1090.081 33527542 33466622 33394366 33313006 33227470 33143922 33066906 
1093.456 32998986 32939758 32887548 32840070 32796398 32756488 32721046 
1096.831 32689932 32661546 32632154 32596524 32549490 32487430 32409828 
1100.207 32319642 32222062 32123118 32027770 31937930 31852014 31765162 
1103.582 31670712 31561696 31432982 31282142 31109646 30918306 30710884 
1106.957 30489956 30255940 30007414 29741886 29458146 29156376 28839894 
1110.332 28513674 28183066 27851698 27519650 27182760 26834086 26466044 
1113.708 26073708 25656442 25219344 24771850 24326212 23894216 23484608 
1117.083 23102172 22747694 22418042 22108070 21811844 21523730 21238680 
1120.458 20953474 20666958 20380676 20098812 19827792 19575398 19348170 
1123.833 19150054 18981320 18837790 18712620 18597404 18485062 18371210 
1127.208 18255616 18142006 18037360 17949866 17887834 17857664 17862920 
1130.584 17903562 17976264 18074940 18192314 18321060 18455982 18594244 
1133.959 18736118 18884828 19044294 19219416 19413920 19630518 19870830 
1137.334 20135314 20425210 20740836 21083416 21453624 21852700 22282406 
1140.709 22745586 23246582 23791898 24388606 25044156 25764052 26551662 
1144.085 27407200 28328752 29313470 30359570 31467508 32641202 33887768 
1147.460 35216616 36638168 38161820 39793800 41535720 43382072 45319468 
1150.835 47324928 49367024 51406348 53399032 55299644 57065108 58658888 
1154.210 60053276 61231664 62188712 62929416 63467852 63824752 64025544 
1157.586 64097872 64069732 63967496 63814776 63631164 63431972 63228032 
1160.961 63026584 62831632 62645660 62469976 62305656 62153248 62012532 
1164.336 61881232 61754428 61624192 61479828 61309428 61102248 60851304 
1167.711 60555408 60219708 59855124 59474904 59092172 58715864 58349636 
1171.087 57991688 57637404 57282972 56929028 56582164 56255160 55964180 
1174.462 55725012 55548428 55438884 55393084 55402584 55456372 55543836 
1177.837 55656648 55788520 55934416 56087768 56239716 56378104 56488924 
1181.212 56557880 56572172 56522524 56402588 56209140 55941308 55600104 
1184.588 55189496 54716756 54192812 53633116 53055944 52480292 51923336 
1187.963 51399088 50916912 50482152 50096976 49761980 49477316 49242108 
1191.338 49054464 48910308 48803324 48725488 48668176 48624532 48590508 
1194.713 48566176 48553720 48556696 48576796 48612484 48657552 48702292 
1198.089 48735100 48745292 48725464 48673308 48592604 48491232 48379628 
1201.464 48268340 48164224 48070048 47982696 47894988 47797816 47683252 
1204.839 47546684 47389668 47217996 47040960 46867592 46703548 46549352 
1208.214 46400060 46247048 46080932 45895224 45688256 45463324 45227368 
1211.590 44988932 44755056 44529576 44313816 44106488 43906124 43712360 
1214.965 43526084 43349336 43184532 43032068 42890888 42758064 42629552 
1218.340 42501480 42371672 42239564 42107068 41978336 41859392 41757272 
1221.715 41679516 41633420 41624024 41654000 41722032 41823356 41950160 
1225.091 42093588 42245540 42400228 42555720 42713376 42877192 43052316 
1228.466 43243548 43453956 43684844 43934608 44200172 44476436 44757520 
1231.841 45036944 45308300 45566268 45806604 46026852 46226016 46404112 
1235.216 46561080 46695544 46804928 46884392 46927948 46929812 46885652 
1238.592 46794572 46659684 46488128 46290176 46077324 45859236 45642632 
1241.967 45430124 45220696 45012272 44804036 44599032 44404824 44232100 
1245.342 44091500 43989456 43924964 43888240 43862324 43827056 43764132 
1248.717 43661924 43517120 43334660 43124768 42898736 42666212 42434064 
1252.093 42206416 41986936 41780184 41592280 41429408 41296272 41193596 
1255.468 41118084 41062532 41019456 40982576 40949080 40918904 40893208 
1258.843 40871164 40849056 40819172 40772396 40701004 40601888 40477944 
1262.218 40338352 40195632 40063148 39951520 39867308 39812088 39784088 
1265.594 39778512 39789252 39809136 39831288 39848708 39855828 39849600 
1268.969 39829812 39799688 39764424 39729984 39700896 39678788 39662364 
1272.344 39647420 39629368 39604308 39570520 39528460 39479996 39428000 
1275.719 39374916 39321932 39269900 39219004 39169160 39119864 39070532 
1279.094 39019516 38964236 38901212 38827500 38740452 38639788 38526756 
1282.470 38404836 38278156 38150988 38026028 37904148 37784380 37664776 
1285.845 37543600 37420256 37297340 37180560 37077848 36998192 36949904 
1289.220 36938632 36965372 37027320 37118368 37230516 37355880 37488224 
1292.595 37622604 37756360 37887432 38014628 38137432 38255840 38371256 
1295.971 38486868 38606212 38733756 38872440 39023748 39187368 39361332 
1299.346 39543628 39731880 39924564 40119992 40316208 40510340 40699100 
1302.721 40879368 41049172 41208364 41358160 41500648 41637160 41767220 
1306.096 41888632 41998956 42096628 42183688 42265540 42350196 42446076 
1309.472 42559152 42690696 42836536 42987840 43134032 43264684 43372780 
1312.847 43453860 43507816 43535908 43540796 43525692 43494248 43450580 
1316.222 43399972 43346876 43295944 43249392 43208332 43171976 43139364 
1319.597 43110384 43086008 43067928 43056804 43051888 43049184 43042876 
1322.973 43026580 42996232 42952144 42899508 42848156 42809396 42792832 
1326.348 42803952 42841952 42900540 42969252 43036580 43092764 43131372 
1329.723 43150004 43150028 43134788 43108492 43074908 43036156 42993992 
1333.098 42949556 42904708 42862336 42827224 42805016 42801896 42823260 
1336.474 42873188 42953756 43065212 43206740 43377388 43576064 43802112 
1339.849 44054184 44330220 44626492 44937276 45255952 45576012 45891980 
1343.224 46200228 46499228 46788864 47069320 47340848 47602612 47853324 
1346.599 48092036 48318640 48534072 48740864 48941156 49136776 49327272 
1349.975 49510796 49683224 49840208 49977884 50095028 50192200 50273280 
1353.350 50342772 50405180 50463856 50519292 50569660 50611104 50639680 
1356.725 50652884 50649952 50633336 50607576 50577924 50548916 50523608 
1360.100 50502548 50484756 50467772 50449496 50427888 50401156 50367064 
1363.476 50322020 50261436 50179856 50071988 49934232 49765948 49568732 
1366.851 49347144 49106340 48851832 48588408 48320580 48052784 47790112 
1370.226 47537380 47298208 47073920 46861260 46652748 46436940 46201100 
1373.601 45933728 45626628 45276984 44886340 44459884 44004448 43526936 
1376.977 43033440 42528660 42016276 41498804 40977952 40454804 39929572 
1380.352 39403024 38877376 38356960 37848824 37361552 36902992 36478996 
1383.727 36091040 35735736 35406820 35097568 34803236 34522768 34259064 
1387.102 34016688 33799676 33608264 33438514 33282022 33128190 32966696 
1390.478 32789760 32593146 32376036 32139056 31883522 31609930 31318140 
1393.853 31007680 30679616 30336588 29983958 29628674 29278888 28941640 
1397.228 28622064 28322672 28043022 27780342 27530346 27289258 27054114 
1400.603 26824040 26600494 26385842 26183392 25995714 25824302 25669506 
1403.979 25530940 25408462 25302760 25216706 25154482 25121496 25123360 
1407.354 25165298 25251692 25385916 25570768 25808004 26099048 26443298 
1410.729 26838842 27280850 27762756 28276220 28812320 29362342 29919216 
1414.104 30476060 31026910 31565082 32082372 32568078 33009700 33393472 
1417.479 33706380 33938424 34084808 34146980 34133876 34060696 33947240 
1420.855 33815136 33686432 33580756 33515572 33506426 33566924 33711188 
1424.230 33953024 34306816 34786444 35403428 36165864 37075884 38130260 
1427.605 39318976 40628224 42041944 43545256 45126192 46777480 48496208 
1430.980 50281268 52131932 54045100 56014572 58032300 60089044 62176472 
1434.356 64287788 66417860 68561696 70715400 72874472 75037080 77206072 
1437.731 79390392 81607040 83879800 86236200 88704456 91310872 94076896 
1441.106 97020648 100156408 103496904 107053936 110837128 114853016 
1443.999 119102432 123578768 128267976 133150112 138203152 143407984 
1446.892 148755632 154251328 159916160 165781472 171872496 178183200 
1449.785 184641264 191076048 197193120 202574896 206710432 209060304 
1452.678 209143184 206624992 201385312 193543888 183444144 171603360 
1455.572 158642432 145211552 131919848 119277608 107658696 97288520 88252872 
1458.947 80526568 74006496 68546776 63984936 60160172 56925648 54153972 
1462.322 51740720 49605592 47690392 45956536 44379312 42943636 41637116 
1465.697 40448376 39365800 38378312 37477580 36659436 35923396 35271504 
1469.073 34704256 34218112 33802640 33439174 33101812 32761746 32390240 
1472.448 31965732 31477358 30927760 30331742 29712868 29097884 28510704 
1475.823 27969044 27482482 27054670 26687182 26382820 26148602 25995232 
1479.198 25935220 25979408 26134602 26403336 26786480 27286492 27911442 
1482.573 28677528 29607870 30730498 32073974 33664092 35523944 37675768 
1485.949 40148568 42985976 46256628 50061708 54537492 59847608 66163160 
1489.324 73628112 82312776 92159912 102937376 114207376 125331056 135513984 
1492.699 143897616 149682944 152263968 151337616 146961936 139542384 
1495.592 129752696 118412688 106357096 94326496 82897808 72460656 63227796 
1498.968 55267472 48543596 42954428 38363284 34620816 31581364 29111238 
1502.343 27095004 25436470 24058578 22901444 21918592 21075146 20345806 
1505.718 19712394 19162750 18689246 18285516 17944724 17657636 17412480 
1509.093 17196570 16997322 16805094 16614240 16423317 16233815 16049482 
1512.469 15874583 15712246 15565199 15434216 15318478 15216194 15124083 
1515.844 15038708 14957141 14877949 14801540 14729155 14663056 14604425 
1519.219 14553076 14507918 14468087 14434362 14409471 14398064 14403710 
1522.594 14427452 14465548 14509445 14548207 14572379 14576831 14563357 
1525.969 14539534 14517091 14506576 14515813 14547148 14598945 14667402 
1529.345 14749064 14842602 14948393 15067287 15198990 15341909 15493104 
1532.720 15649205 15808508 15971376 16139900 16316179 16500583 16691668 
1536.095 16886162 17079730 17269340 17453678 17634254 17813306 17993144 
1539.470 18174920 18357740 18539200 18716348 18886300 19046822 19197224 
1542.846 19337226 19468018 19591644 19712202 19834490 19963984 20104612 
1546.221 20257704 20421010 20588466 20751936 20903638 21037776 21151894 
1549.596 21247068 21325668 21389782 21439458 21473030 21486924 21478250 
1552.971 21446412 21394412 21328510 21257526 21190702 21135642 21097410 
1556.347 21078412 21078184 21095674 21129152 21178574 21245134 21333058 
1559.722 21448142 21597038 21785778 22018386 22294790 22610048 22954714 
1563.097 23314178 23671146 24005582 24296702 24524620 24671470 24723402 
1566.472 24672292 24517384 24265900 23933748 23543082 23120408 22692466 
1569.848 22283510 21912002 21590102 21323754 21114548 20960712 20859626 
1573.223 20808252 20804842 20848536 20940884 21084958 21287150 21555852 
1576.598 21902638 22341414 22888534 23561028 24374220 25337850 26450458 
1579.973 27693818 29028214 30391062 31701442 32867004 33797100 34415456 
1583.349 34671200 34547108 34060920 33262576 32225616 31037502 29787892 
1586.724 28558946 27418308 26415136 25578876 24921624 24442208 24131184 
1590.099 23976374 23966730 24094348 24354182 24742946 25256972 25891886 
1593.474 26643836 27512598 28504270 29634482 30927304 32413196 34122512 
1596.850 36079596 38294356 40755928 43428152 46245772 49113716 51911660 
1600.225 54499012 56728280 58459116 59575456 59999540 59702504 58706276 
1603.600 57080116 54929356 52381552 49571188 46628116 43668120 40789120 
1606.975 38068124 35561816 33305622 31315748 29590224 28112898 26857794 
1610.351 25794676 24893096 24125810 23469520 22905694 22419008 21996958 
1613.726 21629724 21309940 21031948 20791666 20584614 20405894 20249716 
1617.101 20110620 19985252 19873184 19778102 19705432 19659874 19643868 
1620.476 19654514 19684884 19726210 19769880 19811362 19850816 19892900 
1623.852 19945128 20014388 20105958 20221418 20360744 20521644 20702536 
1627.227 20903288 21126048 21375970 21662672 21999432 22402752 22890368 
1630.602 23478608 24178888 24994430 25918494 26934290 28015720 29128958 
1633.977 30234908 31289276 32244556 33053524 33672028 34065288 34212340 
1637.353 34110004 33772728 33229322 32517650 31678844 30751198 29768076 
1640.728 28755526 27733774 26718668 25723604 24759838 23837922 22967224 
1644.103 22156928 21415250 20750898 20170620 19679664 19278374 18961518 
1647.478 18717008 18527684 18373102 18235216 18099852 17959332 17812202 
1650.854 17661312 17511096 17365758 17227874 17098628 16978752 16869204 
1654.229 16771333 16686713 16615581 16557321 16509587 16470082 16436847 
1657.604 16409265 16388070 16374622 16370103 16375590 16390476 16415164 
1660.979 16449431 16494809 16552333 16623810 16708583 16805992 16913056 
1664.354 17026126 17140798 17252894 17356816 17447178 17517854 17564518 
1667.730 17585280 17582716 17564574 17541150 17523376 17519026 17530152 
1671.105 17553362 17580952 17605434 17622208 17632118 17640378 17654610 
1674.480 17681124 17722608 17776628 17837398 17897460 17951184 17994796 
1677.855 18028002 18051708 18067158 18076168 18080560 18083750 18090942 
1681.231 18107946 18140502 18191870 18261048 18343762 18432934 18521654 
1684.606 18605216 18682532 18755428 18826706 18898832 18971516 19042410 
1687.981 19107318 19162274 19204452 19233380 19250078 19257408 19259966 
1691.356 19263158 19272678 19294634 19332664 19388052 19456954 19532240 
1694.732 19604804 19667146 19716194 19756376 19798832 19858006 19947554 
1698.107 20076706 20247302 20454782 20689652 20942160 21204518 21473844 
1701.482 21751016 22039886 22345132 22671550 23023496 23405754 23823402 
1704.857 24282082 24787094 25342024 25948024 26604374 27309078 28060962 
1708.233 28861146 29713300 30623778 31599530 32647002 33771848 34978680 
1711.608 36272496 37658880 39145356 40740328 42451972 44286524 46247760 
1714.983 48335196 50545696 52873604 55312060 57853844 60492200 63220948 
1718.358 66034576 68926480 71889576 74913608 77984656 81083784 84187320 
1721.734 87267664 90296328 93246336 96096424 98830480 101438944 103914864 
1725.109 106250968 108436032 110453160 112280968 113894456 115268200 
1728.002 116379360 117208280 117740768 117967072 117883816 117493832 
1730.895 116807744 115841552 114615368 113150328 111464448 109570528 
1733.788 107476000 105184520 102700704 100033056 97196320 94211488 91104432 
1737.163 87902472 84633056 81322120 77994624 74673704 71381256 68137592 
1740.539 64960764 61866356 58868688 55980636 53215420 50586584 48106616 
1743.914 45785608 43628968 41635264 39796148 38095472 36513788 35029104 
1747.289 33622484 32281042 31000626 29785136 28645804 27597500 26653614 
1750.664 25821042 25097520 24470190 23918516 23417962 22945962 22487044 
1754.040 22034078 21588668 21157868 20749310 20369254 20018510 19694562 
1757.415 19393092 19111700 18851756 18618570 18420082 18262736 18148402 
1760.790 18071414 18018822 17973138 17916072 17833450 17718562 17573256 
1764.165 17406372 17231120 17059876 16902332 16762499 16639534 16528193 
1767.541 16421890 16315306 16205143 16091943 15979294 15872706 15778231 
1770.916 15700419 15641620 15599867 15569355 15541404 15506601 15457328 
1774.291 15389980 15306223 15213309 15121435 15040983 14978798 14936157 
1777.666 14908081 14885999 14859814 14822983 14773690 14716735 14659873 
1781.042 14611523 14577104 14556861 14544912 14532415 14508285 14463670 
1784.417 14392408 14292677 14167481 14023138 13869888 13720740 13589740 
1787.792 13489610 13428862 13409206 13423978 13459694 13498807 13525443 
1791.167 13530112 13511888 13478970 13444829 13422213 13420743 13442010 
1794.542 13482342 13534194 13591280 13650640 13713910 13785641 13871052 
1797.918 13974773 14098762 14242558 14403885 14578271 14759106 14936849 
1801.293 15098849 15231133 15321126 15362137 15355767 15312398 15249683 
1804.668 15186878 15139778 15116985 15118885 15138910 15169382 15202553 
1808.043 15234765 15263755 15288052 15303071 15301769 15274956 15214789 
1811.419 15118433 14989669 14837604 14675511 14515691 14368610 14240816 
1814.794 14137035 14059967 14012626 13995336 14006405 14037824 14078454 
1818.169 14114018 14133587 14132855 14116286 14094181 14079249 14078860 
1821.544 14093031 14113110 14126188 14120085 14089319 14035529 13966328 
1824.920 13889837 13809866 13722287 13617064 13481880 13308655 13097820 
1828.295 12860826 12616575 12387722 12194273 12047987 11952328 11901956 
1831.670 11885315 11888691 11897859 11901235 11888950 11855314 11797355 
1835.045 11717032 11617729 11506352 11389436 11272660 11158496 11047745 
1838.421 10938987 10832596 10729498 10634388 10553388 10493860 10461004 
1841.796 10456325 10476069 10511968 10550918 10579799 10586776 10564834 
1845.171 10513207 10437023 10344757 10247060 10152299 10067107 9995084 
1848.546 9939896 9903848 9890175 9900200 9930465 9970990 10005450 10015324 
1852.404 9986363 9914687 9813515 9709753 9637289 9625490 9687777 9814641 
1856.261 9976459 10133033 10247273 10298372 10288823 10239537 10183428 
1859.636 10148508 10150890 10189230 10250757 10318880 10383792 10445865 
1863.012 10515353 10604774 10722409 10866229 11026243 11187370 11340274 
1866.387 11482557 11621675 11767350 11925747 12091041 12247020 12368520 
1869.762 12434551 12434674 12378153 12291583 12215047 12188096 12241244 
1873.137 12386166 12614088 12896312 13193614 13463186 13669664 13789493 
1876.513 13816497 13759643 13642160 13493764 13346645 13227380 13155466 
1879.888 13138522 13177095 13264517 13393939 13556979 13746640 13954589 
1883.263 14168660 14370191 14535708 14638023 14653594 14567219 14377895 
1886.638 14100118 13765130 13410144 13075220 12790661 12573422 12422293 
1890.014 12324511 12258540 12208248 12167092 12143473 12155477 12225411 
1893.389 12365432 12571042 12813654 13048291 13219296 13277747 13190204 
1896.764 12950036 12573276 12097656 11569962 11039597 10548055 10128366 
1900.139 9799905 9571293 9435964 9378009 9370188 9382510 9384504 9356201 
1903.997 9287689 9180799 9044006 8890192 8728861 8570478 8424811 8308459 
1907.854 8241797 8247455 8336991 8505635 8722099 8937382 9097140 9162821 
1911.712 9127924 9024989 8914839 8866278 8925677 9099489 9346295 9593618 
1915.569 9761375 9791965 9668570 9419023 9097870 8765440 8461809 8196852 
1919.427 7953290 7703322 7426212 7124085 6819670 6548328 6338547 6201427 
1923.284 6123251 6075348 6027037 5962390 5885702 5820677 5792766 5815621 
1927.141 5877195 5942921 5961973 5894733 5722952 5468489 5180003 4923642 
1930.999 4754861 4701667 4754918 4878391 5022624 5156383 5272819 5403971 
1934.856 5601546 5918206 6383513 6989867 7687228 8403922 9060380 9598797 
1938.714 9989541 10234705 10355262 10379833 10328451 10218649 10061931 
1942.089 9882573 9715012 9608935 9613143 9762710 10064927 10495925 11005978 
1945.946 11532991 12016959 12410902 12682272 12814681 12804154 12666130 
1949.322 12434396 12168728 11944102 11839097 11902931 12146061 12513503 
1952.697 12911562 13224548 13361880 13284608 13015523 12620010 12175915 
1956.072 11726513 11274894 10778309 10189872 9493305 8740519 8037302 7521036 
1959.929 7290869 7363287 7646545 7973656 8156004 8063816 7667912 7058279 
1963.787 6397517 5868848 5594252 5607488 5833365 6128960 6321402 6273708 
1967.644 5912214 5256643 4401727 3506370 2750227 2308677 2302761 2781205 
1971.502 3682786 4858733 6077937 7103360 7744516 7922630 7693381 7248339 
1975.359 6845138 6746379 7127462 8040611 9398887 11018594 12679990 14203890 
1979.217 15481343 16492678 17259924 17828738 18217160 18416764 18388504 
1982.592 18098498 17533744 16734794 15799273 14869806 14097649 13605051 
1985.967 13443058 13575819 13883254 14208348 14398425 14369630 14121426 
1989.342 13742238 13356677 13082029 12969623 12995737 13067484 13079694 
1992.718 12953301 12680427 12313968 11944876 11643345 11428310 11239146 
1996.093 10975515 10529688 9844529 8940223 7912827 6889426 5988708 5264829 
1999.950 4702619 4226882 3751509 3215931 2625207 2039121 1564028 1300129 
2003.808 1318993 1634814 2210370 2965162 3799660 4610767 5321533 5887314 
2007.665 6314827 6660349 7025159 7527794 8280231 9341116 10703364 12263110 
2011.522 13853330 15269723 16329831 16902144 16961284 16564587 15853358 
2014.898 14995938 14156666 13446183 12909559 12504358 12138055 11673893 
2018.273 11007128 10086318 8962911 7780453 6755838 6096247 5943295 6295995 
2022.130 7007540 7806607 8397979 8551146 8189884 7403280 6417744 5495106 
2025.988 4850838 4568551 4609941 4843900 5125066 5353714 5503856 5597253 
2029.845 5665794 5694763 5622911 5359724 4850003 4121464 3312393 2637791 
2033.703 2336844 2577731 3422726 4801854 6557828 8494792 10442653 12262199 
2037.560 13860431 15152038 16059244 16507147 16455978 15923502 15016199 
2040.935 13912309 12838031 11993354 11511725 11408102 11596793 11909828 
2044.311 12170723 12240769 12076372 11731622 11355050 11142559 11285656 
2047.686 11913121 13044842 14564760 16243888 17786178 18917196 19444036 
2051.061 19309978 18584010 17444626 16115172 14816688 13709884 12871712 
2054.436 12280621 11852526 11475760 11064769 10580828 10051025 9532792 
2057.812 9101680 8811610 8686653 8716866 8867149 9087379 9326460 9531545 
2061.669 9657295 9668463 9551773 9321621 9030988 8755439 8582739 8576940 
2065.526 8763578 9109234 9538773 9952993 10265184 10423872 10428728 10318751 
2069.384 10156175 10000278 9892744 9853773 9891314 10010430 10222523 
2072.759 10536207 10951582 11443465 11961816 12434981 12797235 13002517 
2076.134 13044967 12952160 12772479 12551012 12312814 12056211 11766137 
2079.510 11428361 11054209 10677389 10347279 10101305 9947478 9850103 
2082.885 9746624 9572087 9295797 8941203 8587773 8340928 8292291 8475042 
2086.742 8846187 9291708 9667598 9844389 9757400 9420584 8922704 8388031 
2090.600 7938042 7651061 7549402 7604331 7761444 7963006 8168624 8356736 
2094.457 8518144 8643285 8719642 8729080 8665591 8541203 8391667 8266003 
2098.314 8212551 8254716 8384360 8557762 8714202 8791676 8749482 8578486 
2102.172 8303765 7975518 7661084 7427627 7334592 7422806 7707637 8170606 
2106.029 8762303 9403230 10001563 10471508 10757163 10846641 10775307 
2109.405 10613651 10443042 10330723 10310804 10377396 10496043 10619145 
2112.780 10709100 10747249 10738010 10697509 10642535 10577396 10491033 
2116.155 10355855 10139510 9809110 9344638 8739052 8006556 7179064 6309376 
2120.012 5463785 4716176 4133293 3762501 3617666 3678073 3887821 4173680 
2123.870 4458342 4681531 4801900 4805183 4687125 4453633 4105710 3642911 
2127.727 3063564 2372403 1581259 709667 -219699 -1180624 -2143171 -3063843 
2131.585 -3883454 -4518552 -4880417 -4888410 -4506775 -3754976 -2724023 
2134.960 -1549240 -377810 677072 1556430 2270997 2866166 3400915 3902702 
2138.817 4361410 4730712 4956054 4997094 4853685 4554020 4154166 3703637 
2142.675 3241442 2781405 2331855 1892571 1478134 1095715 747430 406516 23825 
2147.014 -465252 -1104967 -1907542 -2826394 -3776596 -4650227 -5359987 
2150.390 -5854385 -6127670 -6208563 -6140120 -5952181 -5668557 -5305977 
2153.765 -4906181 -4530824 -4271559 -4193682 -4304398 -4488242 -4505459 
2157.140 -4007227 -2643999 -181528 3353361 7627010 12053232 15969761 
2160.515 18828908 20355026 20559386 19717160 18241306 16585050 15137688 
2163.891 14163219 13769337 13921480 14466317 15208011 15940979 16510727 
2167.266 16821012 16849324 16624473 16213736 15701707 15171245 14690146 
2170.641 14308452 14042098 13883395 13789422 13695708 13517597 13170518 
2174.016 12584466 11729964 10615657 9313257 7936394 6633181 5548671 4811896 
2177.874 4497308 4619126 5122353 5899294 6802541 7694959 8461826 9059555 
2181.731 9507570 9881912 10278492 10773734 11385579 12077819 12756122 
2185.106 13316259 13672125 13786029 13670441 13386801 13011490 12624117 
2188.482 12280948 12029120 11899469 11928246 12150702 12595571 13261243 
2191.857 14105134 15027842 15887493 16516980 16764626 16517732 15735116 
2195.232 14454297 12793668 10927697 9067792 7426445 6194004 5501948 5418244 
2199.090 5920033 6913487 8236488 9694831 11088234 12245833 13046050 13435726 
2202.947 13425934 13090366 12540857 11912664 11330812 10898778 10665532 
2206.322 10635560 10765205 10988053 11236209 11464695 11663478 11850753 
2209.698 12050154 12272821 12494152 12666781 12731841 12662281 12481137 
2213.073 12273513 12160239 12258129 12623966 13224287 13928755 14551003 
2216.448 14900387 14851862 14383596 13590959 12652655 11781985 11162088 
2219.823 10906810 11036117 11491803 12161847 12924258 13673482 14347810 
2223.198 14927515 15439908 15935639 16474942 17104894 17848564 18697110 
2226.574 19621892 20580286 21552408 22545800 23610300 24828106 26292324 
2229.949 28078836 30227142 32729152 35538440 38579340 41769212 45020928 
2233.324 48246036 51343228 54200616 56697408 58728468 60225192 61180920 
2236.699 61646856 61715664 61482200 61005072 60280700 59252500 57835540 
2240.075 55969432 53657016 50987192 48118828 45245712 42538208 40109640 
2243.450 37990568 36142920 34489656 32952364 31475786 30043480 28664426 
2246.825 27360382 26145556 25021436 23974318 22987000 22046074 21151586 
2250.200 20312728 19547946 18872408 18300568 17838776 17488010 17246088 
2253.576 17110414 17076914 17142138 17302520 17553832 17888284 18291466 
2256.951 18737964 19191414 19600764 19911794 20072250 20049714 19833854 
2260.326 19445450 18927436 18338260 17733770 17161892 16655451 16234741 
2263.701 15911063 15696580 15599135 15627695 15780974 16045602 16392186 
2267.077 16779610 17160768 17492434 17743304 17898258 17958726 17940102 
2270.452 17866312 17764074 17653376 17546854 17444516 17340456 17222260 
2273.827 17085552 16935776 16794694 16696509 16679112 16770855 16978974 
2277.202 17281116 17630258 17963526 18222142 18367070 18390348 18318510 
2280.578 18205624 18116950 18117312 18251904 18542434 18978952 19526102 
2283.953 20127448 20715492 21222994 21595992 21801350 21834524 21716218 
2287.328 21487282 21193568 20877206 20562982 20259408 19961220 19662066 
2290.703 19361946 19076186 18830236 18655048 18570510 18580222 18665196 
2294.079 18790248 18913976 19002426 19037116 19018010 18956938 18870406 
2297.454 18768098 18650006 18507446 18329076 18110090 17857862 17591550 
2300.829 17339084 17125588 16968208 16869122 16818340 16798580 16794102 
2304.204 16795132 16804860 16832296 16890200 16985430 17114834 17263748 
2307.580 17410878 17532876 17612820 17644528 17633648 17595270 17550564 
2310.955 17519710 17519624 17560774 17648564 17781560 17954496 18157194 
2314.330 18375556 18594130 18797132 18973670 19119414 19237466 19337728 
2317.705 19434048 19539970 19670384 19840758 20069162 20378266 20788366 
2321.081 21310008 21928582 22594992 23220296 23689196 23881462 23702258 
2324.456 23109558 22127370 20844062 19395070 17934464 16604362 15507289 
2327.831 14691074 14148011 13827213 13658830 13575050 13528408 13495442 
2331.206 13472639 13465172 13476646 13505748 13544969 13587103 13628946 
2334.582 13673937 13729223 13802889 13896517 14005813 14119873 14227475 
2337.957 14320122 14395211 14454775 14503039 14543068 14573597 14590367 
2341.332 14587470 14561903 14514755 14450898 14378432 14305786 14239101 
2344.707 14182551 14138512 14107848 14090808 14085348 14085323 14079307 
2348.083 14051750 13986318 13871551 13705778 13499651 13275173 13061066 
2351.458 12884554 12764727 12707603 12706892 12745654 12804415 12865094 
2354.833 12915845 12950499 12967455 12964102 12937574 12880665 12784977 
2358.208 12644403 12458309 12232773 11980779 11718618 11462901 11225418 
2361.583 11011852 10821023 10649371 10491756 10346758 10214377 10098020 
2364.959 9999352 9915844 9840460 9762915 9674100 9571010 9460283 9358472 
2368.816 9287198 9265482 9303260 9395495 9523292 9659005 9777022 9860342 
2372.674 9907825 9933098 9957907 10003055 10079290 10184248 10301820 
2376.049 10409191 10486230 10521536 10516030 10483539 10441803 10408886 
2379.424 10394672 10399804 10416251 10432227 10435854 10420907 10386661 
2382.799 10338445 10283355 10228083 10176302 10128811 10084254 10043192 
2386.175 10008661 9988328 9993061 10034377 10119176 10248211 10412172 
2389.550 10594461 10772131 10924050 11032574 11089656 11096378 11063443 
2392.925 11005656 10941277 10886012 10853094 10849103 10874225 10921254 
2396.300 10975283 11015611 11019112 10966573 10847293 10665988 10441768 
2399.676 10207308 9999062 9847621 9773146 9776232 9843751 9953893 10085393 
2403.533 10225083 10371363 10531319 10714630 10925587 11159147 11397690 
2406.908 11617751 11794948 11914065 11972222 11980674 11959979 11933783 
2410.283 11921713 11934440 11971249 12022948 12075152 12114522 12131582 
2413.659 12125026 12099372 12063589 12026985 11995140 11968306 11942351 
2417.034 11910875 11869832 11818724 11764681 11717102 11685635 11673858 
2420.409 11676103 11678915 11664368 11616144 11526194 11399376 11251259 
2423.784 11103023 10978527 10895234 10862328 10882108 10953065 11071748 
2427.160 11236900 11444747 11688994 11955448 12221994 12460768 12644363 
2430.535 12751767 12774515 12718502 12602128 12451386 12294572 12157207 
2433.910 12059939 12017297 12038198 12124320 12270244 12459859 12670825 
2437.285 12873087 13037196 13140458 13172917 13138864 13057250 12953512 
2440.661 12853916 12776965 12729218 12707246 12701156 12698747 12694043 
2444.036 12687698 12687578 12704592 12749902 12830089 12944938 13087503 
2447.411 13247383 13411866 13570190 13714878 13842371 13951018 14042190 
2450.786 14115383 14170507 14205810 14220709 14215186 14192197 14157256 
2454.162 14115625 14072086 14026961 13974978 13907314 13811840 13679557 
2457.537 13507330 13302242 13081529 12870091 12694565 12577634 12530856 
2460.912 12550886 12620842 12711629 12790739 12829826 12811937 12736294 
2464.287 12620225 12493964 12392950 12350664 12386804 12504318 12686905 
2467.663 12903682 13118184 13295799 13413033 13461721 13447443 13386659 
2471.038 13299084 13202939 13109670 13023417 12942444 12864600 12785648 
2474.413 12705760 12627507 12553789 12488101 12433176 12390190 12361879 
2477.788 12350915 12363869 12407894 12492158 12622597 12799997 13017427 
2481.164 13257949 13495537 13699869 13841159 13898601 13867707 13763109 
2484.539 13618221 13478125 13386687 13376859 13457774 13612910 13804599 
2487.914 13984875 14109445 14151445 14106724 13994627 13848566 13704811 
2491.289 13592192 13524518 13500212 13508175 13533122 13563094 13592664 
2494.665 13622827 13658695 13706637 13771682 13856112 13959012 14076798 
2498.040 14199845 14315230 14406090 14451499 14433469 14341475 14174145 
2501.415 13943980 13672143 13385662 13110562 12866310 12665913 12517262 
2504.790 12424056 12393706 12431275 12541936 12722730 12960612 13229839 
2508.166 13496706 13724264 13884259 13961965 13961531 13903047 13818928 
2511.541 13743211 13705898 13724713 13801715 13924970 14068704 14202465 
2514.916 14296530 14330599 14298801 14212769 14098239 13988746 13917328 
2518.291 13904443 13955370 14059323 14195293 14340301 14479372 14607677 
2521.667 14728505 14848800 14969663 15084138 15177897 15233371 15241032 
2525.042 15201698 15128328 15040427 14953601 14873112 14793364 14700347 
2528.417 14584804 14448431 14310239 14201391 14154330 14189134 14302967 
2531.792 14469209 14645912 14789619 14870955 14883997 14844956 14783687 
2535.167 14733465 14715067 14735834 14787782 14857046 14927790 14991402 
2538.543 15042168 15076579 15086435 15061317 14989004 14861887 14684985 
2541.918 14476813 14269286 14098154 13993805 13974520 14038553 14169738 
2545.293 14340709 14522026 14691130 14835093 14953894 15056320 15154255 
2548.668 15259856 15378692 15505983 15627248 15721397 15761748 15728198 
2552.044 15612653 15424350 15191504 14956304 14763854 14653776 14645304 
2555.419 14735406 14898070 15092925 15275004 15408039 15470752 15460776 
2558.794 15390793 15283733 15162803 15050265 14960054 14900260 14873990 
2562.169 14882468 14926315 15006932 15124863 15278076 15459884 15659111 
2565.545 15860086 16044607 16197909 16310552 16383881 16426675 16454546 
2568.920 16482253 16517315 16557919 16589979 16594302 16553055 16459739 
2572.295 16322805 16166547 16023664 15927017 15898425 15942330 16045453 
2575.670 16182564 16323550 16443901 16530683 16582225 16605096 16610628 
2579.046 16607141 16599925 16588712 16570989 16544925 16510863 16470456 
2582.421 16428035 16387075 16350357 16320920 16301464 16297294 16314851 
2585.796 16361615 16443267 16561488 16711254 16880592 17050886 17201148 
2589.171 17313244 17374062 17382524 17348106 17289958 17232142 17198200 
2592.547 17203314 17252578 17337894 17444372 17552730 17648560 17724606 
2595.922 17784952 17840170 17905372 17992020 18105388 18242600 18393358 
2599.297 18544362 18682042 18796754 18882948 18940694 18973312 18986646 
2602.672 18987972 18984562 18982900 18987646 18999584 19015656 19030676 
2606.048 19037444 19031836 19014360 18991876 18977460 18985712 19029660 
2609.423 19114502 19235796 19379844 19526246 19653620 19744066 19789102 
2612.798 19788090 19749976 19687888 19616170 19546102 19485626 19437466 
2616.173 19402696 19382812 19381530 19405484 19462970 19560554 19700114 
2619.549 19876040 20074234 20275004 20456608 20600454 20697566 20749158 
2622.924 20764564 20761206 20754758 20757328 20772924 20798264 20824320 
2626.299 20842768 20846948 20837216 20821174 20808854 20813296 20844168 
2629.674 20906384 20997814 21110596 21232930 21351322 21454840 21536364 
2633.050 21594710 21633168 21657670 21674980 21689090 21701690 21711090 
2636.425 21716574 21718674 21722472 21735882 21767118 21820818 21894590 
2639.800 21978382 22055696 22109320 22125042 22098922 22034686 21944186 
2643.175 21842506 21741870 21650128 21570420 21503092 21450568 21416966 
2646.551 21409520 21434510 21493464 21580514 21681640 21778780 21854854 
2649.926 21898646 21907198 21885668 21842556 21786450 21721276 21647840 
2653.301 21564890 21473312 21379648 21294652 21230592 21195286 21187298 
2656.676 21194372 21196516 21170944 21101596 20984230 20827722 20652342 
2660.052 20481410 20333140 20214078 20117508 20027104 19921774 19784826 
2663.427 19610682 19404728 19183212 18967308 18776228 18622452 18509120 
2666.802 18431312 18378348 18338384 18303260 18268390 18235934 18210206 
2670.177 18197316 18202312 18228164 18273808 18335472 18407152 18480752 
2673.552 18548434 18602916 18638504 18651502 18641352 18609938 18561388 
2676.928 18501650 18436756 18373194 18316552 18271880 18242798 18230748 
2680.303 18235112 18252194 18275420 18296398 18305464 18296658 18267526 
2683.678 18222396 18170842 18125318 18098488 18098844 18127492 18178572 
2687.053 18240884 18300776 18347304 18374032 18381580 18376730 18368432 
2690.429 18366294 18375834 18398422 18429350 18461106 18484626 18492650 
2693.804 18481454 18452294 18410608 18364558 18322024 18288554 18266142 
2697.179 18253250 18245074 18237078 18225986 18212260 18198706 18190510 
2700.554 18192214 18205276 18228070 18256056 18283416 18305048 18318322 
2703.930 18322318 18317758 18305552 18285508 18257170 18220446 18176782 
2707.305 18130466 18085680 18047078 18016388 17991160 17966554 17937478 
2710.680 17902278 17863876 17831478 17815306 17824408 17860976 17919196 
2714.055 17986472 18046652 18088406 18105776 18103146 18090274 18078950 
2717.431 18077498 18088018 18105404 18120232 18122346 18106618 18072580 
2720.806 18024706 17970962 17918568 17872480 17834982 17805438 17783678 
2724.181 17768866 17762390 17766632 17783800 17816106 17864192 17926610 
2727.556 18001068 18083174 18166876 18246934 18318304 18377758 18424554 
2730.932 18460248 18487682 18509514 18526668 18537936 18540566 18531232 
2734.307 18509010 18474634 18432144 18384950 18335894 18284702 18229358 
2737.682 18167724 18100090 18032340 17974702 17940274 17939834 17978664 
2741.057 18052456 18149514 18252518 18343938 18409090 18441868 18441878 
2744.433 18415108 18371054 18319688 18271544 18235390 18219188 18228762 
2747.808 18266442 18330210 18413334 18505278 18594760 18670674 18726808 
2751.183 18759998 18771902 18766388 18747720 18720800 18690250 18661360 
2754.558 18639882 18630532 18637134 18658108 18689292 18721882 18747612 
2757.934 18760732 18761134 18754570 18750140 18756852 18779640 18816462 
2761.309 18860452 18900930 18929610 18941844 18939008 18928266 18918452 
2764.684 18917284 18928772 18952834 18985466 19021090 19054302 19082124 
2768.059 19104552 19124746 19147842 19180542 19229108 19296348 19382270 
2771.435 19481388 19584652 19681048 19762078 19822960 19866490 19900874 
2774.810 19937416 19986692 20054870 20140566 20237618 20336202 20427810 
2778.185 20507842 20577046 20639534 20701198 20765606 20832846 20898800 
2781.560 20956718 20999364 21021862 21023158 21005682 20976664 20946502 
2784.936 20926096 20926528 20955788 21017186 21108010 21220396 21342984 
2788.311 21463836 21574394 21671072 21754710 21830476 21902970 21974184 
2791.686 22042118 22101698 22146790 22173982 22182432 22175230 22158306 
2795.061 22137236 22117002 22101474 22094624 22101264 22127634 22178554 
2798.437 22255842 22354224 22464264 22571424 22663120 22731596 22778632 
2801.812 22813670 22850236 22901288 22974506 23070950 23186462 23316140 
2805.187 23457806 23614228 23789308 23985994 24201178 24422644 24632164 
2808.562 24811688 24947598 25038054 25092722 25129630 25169212 25226876 
2811.938 25310144 25418090 25543966 25681324 25826834 25982594 26154154 
2815.313 26348092 26567202 26809688 27068910 27336004 27601998 27862404 
2818.688 28116650 28370362 28632338 28913492 29225812 29578054 29975920 
2822.063 30419672 30904866 31422370 31962738 32516774 33081148 33657888 
2825.438 34253964 34880000 35546856 36263104 37034260 37863356 38752664 
2828.814 39703312 40717888 41797080 42937480 44131232 45365068 46623736 
2832.189 47892408 49161428 50428756 51701024 52990800 54313680 55684376 
2835.564 57115316 58612524 60178252 61808848 63496360 65228864 66992172 
2838.939 68770984 70555144 72339752 74129912 75939168 77786840 79691712 
2842.315 81667720 83719088 85839760 88017856 90239832 92495136 94777248 
2845.690 97081664 99396376 101695712 103932600 106036888 107921872 109495968 
2849.065 110678064 111412792 111681288 111504120 110937680 110063872 
2851.958 108975592 107764688 106510120 105274512 104101456 103017216 
2854.851 102034944 101155784 100371944 99667120 99017328 98393792 97765960 
2858.227 97108456 96403376 95646400 94844440 94014328 93175512 92346696 
2861.602 91537888 90751048 89981288 89219928 88460496 87701616 86948536 
2864.977 86211432 85503848 84838400 84224720 83667216 83166752 82719560 
2868.352 82319568 81959288 81630744 81326336 81040784 80771232 80517400 
2871.728 80282280 80070056 79886032 79734120 79617288 79538192 79500472 
2875.103 79508440 79569184 79690176 79878584 80139424 80474224 80880312 
2878.478 81353120 81885944 82472224 83105888 83783208 84500832 85259064 
2881.853 86060200 86909320 87814048 88779200 89807912 90895616 92030480 
2885.229 93194640 94368464 95536648 96691384 97836272 98983888 100151056 
2888.604 101351512 102591600 103867192 105165624 106470464 107768608 
2891.497 109053120 110326256 111596688 112874832 114169616 115484472 
2894.390 116816904 118162304 119515560 120873952 122239936 123619128 
2897.283 125017760 126441896 127895400 129379976 130896224 132445320 
2900.176 134031056 135660768 137343808 139092912 140920560 142838176 
2903.069 144853808 146970768 149185744 151488960 153865104 156295552 
2905.962 158761344 161248368 163751152 166273360 168830256 171444992 
2908.855 174145840 176959808 179908352 183003984 186246080 189621392 
2911.748 193104800 196662096 200251712 203827536 207341664 210745632 
2914.641 213991536 217034048 219833216 222356032 224578944 226488544 
2917.534 228079456 229354512 230319952 230984208 231356912 231450144 
2920.427 231281184 230874320 230261648 229480464 228570800 227567248 
2923.321 226497072 225378208 224217696 223019776 221786096 220522576 
2926.214 219238080 217943600 216649936 215364672 214090272 212826048 
2929.107 211567520 210309328 209045600 207768656 206468672 205134096 
2932.000 203751504 202309776 200802960 199230752 197601024 195925312 
2934.893 194215968 192481984 190728240 188954560 187159408 185342608 
2937.786 183506320 181655504 179795088 177928576 176056512 174177056 
2940.679 172288800 170392080 168490992 166590816 164696784 162808688 
2943.572 160921376 159023392 157105040 155159600 153189264 151206112 
2946.465 149227648 147273552 145358736 143488416 141660400 139865088 
2949.358 138093104 136335856 134590816 132857712 131138248 129431952 
2952.251 127734632 126038640 124335848 122618016 120880352 119120240 
2955.144 117337136 115531000 113701592 111848504 109972848 108076264 
2958.037 106163888 104242320 102318472 100399448 98490872 96598080 94727352 
2961.413 92885880 91084184 89333888 87646208 86029696 84489168 83024688 
2964.788 81631544 80304840 79036968 77821424 76652856 75526368 74436568 
2968.163 73379728 72351616 71348536 70369504 69415232 68487928 67591176 
2971.538 66728384 65901420 65110160 64354548 63634424 62952252 62312508 
2974.914 61723548 61193272 60727320 60325352 59979580 59671908 59379708 
2978.289 59079620 58751328 58383144 57972208 57523172 57044736 56546012 
2981.664 56033392 55512136 54986100 54461644 53948996 53460180 53006312 
2985.039 52594492 52223032 51885544 51571920 51275260 50995668 50741980 
2988.415 50528412 50367720 50265472 50215000 50199716 50196584 50188712 
2991.790 50167124 50140904 50130428 50166432 50278440 50491848 50822672 
2995.165 51279084 51862104 52568984 53393440 54322204 55337196 56412924 
2998.540 57519580 58626056 59704268 60733072 61696196 62580636 63374260 
3001.916 64061856 64626448 65051520 65326212 65448344 65425984 65273732 
3005.291 65008500 64645836 64197668 63671156 63074448 62419692 61724952 
3008.666 61014368 60317420 59663016 59075500 58574444 58173020 57878596 
3012.041 57695328 57625392 57670916 57834684 58122008 58542540 59110768 
3015.417 59844532 60765124 61891244 63236840 64809620 66610716 68637168 
3018.792 70883776 73347008 76019688 78891280 81939640 85131312 88415792 
3022.167 91733760 95017608 98201448 101222104 104022104 106548352 108750824 
3025.542 110581944 111998248 112964016 113455672 113462904 112990040 
3028.435 112052832 110678312 108901824 106768056 104332912 101661864 
3031.328 98826424 95898928 92943280 90007064 87118800 84290744 81522880 
3034.704 78815168 76171984 73606136 71137176 68786576 66572672 64506912 
3038.079 62595004 60838440 59236068 57784952 56478684 55303676 54239868 
3041.454 53260756 52341188 51463272 50623808 49832980 49113048 48486492 
3044.829 47969876 47566576 47266700 47052768 46909072 46827268 46810624 
3048.205 46871388 47023432 47276884 47631628 48078588 48603304 49191544 
3051.580 49833872 50529328 51282756 52101640 52991612 53954960 54987632 
3054.955 56081728 57224388 58399488 59587320 60764156 61904196 62980732 
3058.330 63969680 64850280 65608492 66234900 66722564 67066120 67258896 
3061.706 67294888 67169096 66880980 66435456 65842120 65114096 64266696 
3065.081 63315736 62277248 61169172 60010016 58820516 57622480 56435548 
3068.456 55275812 54153684 53077764 52053168 51087268 50189284 49371572 
3071.831 48645832 48022828 47509212 47106488 46812300 46621124 46526432 
3075.207 46520328 46592932 46733328 46927200 47161500 47424848 47712748 
3078.582 48027332 48378148 48777312 49235152 49752704 50319056 50908932 
3081.957 51486080 52007172 52426528 52703860 52806372 52712148 52411076 
3085.332 51903380 51200060 50320740 49292436 48146080 46915380 45633564 
3088.708 44329096 43026244 41742004 40488148 39272088 38098796 36975236 
3092.083 35909828 34914664 34003060 33187092 32474064 31863034 31344768 
3095.458 30904722 30524604 30189480 29892002 29632574 29419490 29263970 
3098.833 29172726 29145786 29172882 29235468 29311094 29378764 29423872 
3102.208 29439688 29426086 29388314 29333186 29266900 29194820 29120928 
3105.584 29048174 28977504 28905760 28824644 28718682 28567892 28351754 
3108.959 28054598 27672140 27212918 26698634 26158748 25623006 25116728 
3112.334 24653538 24236452 23860320 23518076 23203004 22913200 22651182 
3115.709 22420626 22222984 22055440 21910322 21776300 21642570 21501876 
3119.085 21350764 21190380 21024822 20857868 20692352 20531322 20377296 
3122.460 20237098 20119558 20036330 19996356 20002806 20048866 20117432 
3125.835 20184340 20224458 20218326 20157608 20049340 19911382 19768034 
3129.210 19644432 19558458 19519180 19524396 19564132 19622724 19683334 
3132.586 19728486 19743632 19717914 19646994 19533280 19388564 19231494 
3135.961 19084612 18970158 18902674 18884392 18907114 18951560 18994442 
3139.336 19015816 19004282 18958778 18888038 18805254 18726036 18660622 
3142.711 18615882 18593718 18593824 18613572 18651492 18702946 18761706 
3146.087 18818054 18859306 18873824 18853986 18799136 18720052 18633866 
3149.462 18566166 18541928 18579154 18685176 18852532 19059982 19275578 
3152.837 19464570 19597576 19657178 19642582 19568078 19459940 19347640 
3156.212 19255468 19197952 19177230 19184510 19206750 19232500 19254862 
3159.588 19274254 19294716 19320386 19352438 19387364 19419114 19441314 
3162.963 19451930 19453514 19453396 19458592 19473364 19494944 19514194 
3166.338 19518014 19494486 19436044 19344372 19227026 19098372 18973518 
3169.713 18864614 18778994 18717424 18675968 18647916 18625506 18603084 
3173.089 18577352 18548420 18520222 18497770 18485334 18486434 18499908 
3176.464 18520740 18540944 18551438 18545822 18522274 18482600 18435228 
3179.839 18389552 18355714 18341838 18352842 18389700 18450934 18530782 
3183.214 18621778 18713764 18795518 18858050 18895242 18907200 18901178 
3186.590 18888840 18883992 18895732 18926328 18969136 19012814 19044832 
3189.965 19059602 19060874 19063650 19088936 19156152 19275406 19443302 
3193.340 19640134 19837588 20003454 20113972 20156748 20136050 20067528 
3196.715 19974282 19878216 19795562 19732878 19688664 19654650 19622344 
3200.091 19584226 19538568 19487840 19437852 19395596 19366668 19353446 
3203.466 19355386 19369818 19392866 19420658 19450610 19479708 19505046 
3206.841 19522850 19528584 19518374 19490262 19445000 19388946 19329532 
3210.216 19276358 19234492 19205884 19185680 19165254 19135432 19089526 
3213.592 19027412 18955354 18885650 18834280 18815402 18838526 18905298 
3216.967 19008714 19134000 19260634 19365796 19429580 19438978 19392454 
3220.342 19299834 19182634 19067896 18983106 18946446 18964760 19030056 
3223.717 19122768 19218332 19294860 19338482 19347008 19327032 19292962 
3227.093 19259314 19237582 19236228 19258184 19304012 19369816 19449642 
3230.468 19533504 19606652 19653226 19657678 19612282 19519520 19393602 
3233.843 19256910 19133442 19041990 18990070 18971278 18971062 18971388 
3237.218 18960732 18936594 18907552 18888834 18895670 18936450 19010536 
3240.594 19105982 19207012 19295662 19360604 19397360 19409066 19403892 
3243.969 19393046 19386008 19390854 19411174 19448840 19500806 19562928 
3247.344 19627582 19688438 19738504 19775822 19801792 19820782 19838248 
3250.719 19857900 19878218 19892964 19890890 19861706 19798846 19704818 
3254.094 19590326 19473952 19375478 19312302 19294276 19321414 19383674 
3257.470 19465328 19549084 19618532 19661614 19671968 19649144 19598598 
3260.845 19528544 19451898 19383010 19335146 19320248 19344804 19409600 
3264.220 19509500 19634444 19771830 19909924 20038966 20153452 20251624 
3267.595 20333352 20401488 20458442 20507610 20552398 20596980 20644980 
3270.971 20699930 20761818 20829120 20895564 20954214 20998358 21023576 
3274.346 21031410 21028338 21022622 21023626 21035312 21057798 21084482 
3277.721 21107642 21120562 21124438 21127320 21144326 21191664 21280504 
3281.096 21411634 21572950 21741730 21893234 22007464 22078974 22117798 
3284.472 22149120 22201780 22302006 22460322 22672022 22916020 23164446 
3287.847 23392828 23587646 23751962 23902496 24062394 24254844 24492518 
3291.222 24777224 25098702 25440656 25786342 26124216 26447922 26759346 
3294.597 27063242 27367290 27676836 27994660 28320452 28649858 28974304 
3297.973 29282638 29560552 29794632 29973782 30093382 30154510 30164162 
3301.348 30130590 30059696 29951912 29799866 29590356 29309990 28949282 
3304.723 28507462 27995090 27432954 26848442 26272710 25735524 25261622 
3308.098 24868026 24561846 24337934 24178664 24055608 23934200 23779976 
3311.474 23567620 23287088 22948654 22578204 22213650 21891668 21640446 
3314.849 21470014 21374360 21331082 21312776 21290780 21244016 21159758 
3318.224 21033756 20867908 20668336 20443632 20204286 19962452 19731746 
3321.599 19525552 19356140 19230874 19153108 19121074 19129318 19171380 
3324.975 19239470 19325332 19421164 19517256 19605444 19676678 19726024 
3328.350 19751016 19755446 19743992 19725716 19707766 19695404 19690984 
3331.725 19692938 19696906 19698526 19690966 19670192 19634292 19586288 
3335.100 19532562 19483524 19451054 19445348 19470346 19524376 19596810 
3338.476 19673750 19739724 19783960 19801514 19795844 19773682 19744326 
3341.851 19714290 19686156 19658120 19626374 19586984 19537138 19476046 
3345.226 19406852 19334386 19266954 19214452 19190250 19204814 19266706 
3348.601 19374264 19517170 19673632 19817888 19924046 19977004 19973460 
3351.977 19925558 19853430 19779484 19719712 19681548 19661622 19651944 
3355.352 19644062 19634830 19625816 19621194 19623788 19632020 19638448 
3358.727 19633594 19608664 19561954 19495936 19420086 19341958 19267198 
3362.102 19195808 19124738 19051168 18978142 18913568 18871788 18866360 
3365.478 18906788 18992536 19114356 19255212 19394762 19514232 19599818 
3368.853 19643236 19641862 19596580 19513264 19400168 19270748 19139380 
3372.228 19020432 18925460 18860692 18825800 18816146 18826990 18857204 
3375.603 18907028 18981906 19085028 19214036 19358056 19500202 19618578 
3378.979 19696374 19724832 19707216 19655202 19587054 19518436 19460700 
3382.354 19416236 19382550 19355666 19332068 19313012 19303604 19310446 
3385.729 19337860 19385288 19447058 19511462 19564966 19593916 19591470 
3389.104 19555456 19494396 19421710 19356748 19315560 19308288 19331870 
3392.479 19371972 19404342 19403680 19351978 19248416 19110988 18975818 
3395.855 18886658 18883300 18988234 19198338 19485416 19803092 20096496 
3399.230 20318792 20437362 20442772 20344802 20168210 19943842 19704478 
3402.605 19475370 19276726 19120664 19013924 18957318 18949722 18984176 
3405.980 19051330 19136690 19226530 19304968 19359748 19382166 19369232 
3409.356 19323104 19252012 19165224 19074638 18989986 18920310 18871798 
3412.731 18850188 18860296 18906378 18990278 19111220 19261326 19428798 
3416.106 19596336 19746042 19862068 19935336 19964660 19955884 19919088 
3419.481 19865290 19803098 19738590 19674872 19615160 19562436 19521766 
3422.857 19496594 19488652 19495306 19510580 19527816 19543556 19557002 
3426.232 19574594 19603922 19652358 19720832 19804632 19892840 19973128 
3429.607 20036396 20081258 20114032 20145206 20185142 20238232 20299408 
3432.982 20356912 20392986 20392272 20345534 20253102 20125112 19979104 
3436.358 19834910 19713076 19629412 19594428 19611602 19677614 19782094 
3439.733 19909828 20040492 20155256 20236090 20271980 20258868 20202394 
3443.108 20113186 20008006 19903608 19817230 19759860 19740532 19759142 
3446.483 19811430 19887692 19973580 20054058 20116034 20149882 20153514 
3449.859 20128410 20081750 20020364 19949344 19870774 19783378 19684254 
3453.234 19572826 19452096 19330998 19221466 19139274 19096144 19101358 
3456.609 19154478 19247872 19365200 19486754 19591742 19664836 19699746 
3459.984 19700634 19682934 19669178 19680750 19735206 19836984 19977050 
3463.360 20135888 20289554 20415002 20499648 20541840 20548772 20532072 
3466.735 20501398 20459180 20402282 20323590 20220418 20098008 19973124 
3470.110 19869884 19813690 19821336 19895300 20019642 20163616 20290616 
3473.485 20368082 20376860 20316684 20206084 20077726 19967194 19907174 
3476.861 19915540 19994650 20129954 20295790 20463088 20606498 20709984 
3480.236 20771656 20799200 20808162 20814088 20827264 20849566 20874918 
3483.611 20892316 20890294 20860176 20800430 20713044 20604680 20483062 
3486.986 20356266 20232020 20122862 20040262 19999930 20013002 20083956 
3490.362 20204624 20354284 20503298 20620464 20681840 20679770 20622908 
3493.737 20535994 20448592 20388744 20371842 20399418 20459758 20534442 
3497.112 20602810 20651814 20672402 20665144 20631682 20578110 20510778 
3500.487 20437782 20368180 20313376 20281838 20280634 20308596 20358678 
3503.863 20417954 20473010 20514552 20540092 20554924 20570470 20598500 
3507.238 20648916 20724208 20821316 20930246 21039682 21137364 21215386 
3510.613 21268072 21296120 21302584 21295830 21284006 21276774 21278988 
3513.988 21293950 21317414 21345376 21371220 21390926 21404020 21414516 
3517.364 21424544 21436464 21447202 21451800 21444804 21425746 21400532 
3520.739 21380868 21378828 21401160 21442314 21484902 21502520 21472434 
3524.114 21381118 21235672 21060954 20895678 20776562 20730962 20766492 
3527.489 20873108 21026926 21202492 21376582 21536862 21675614 21789382 
3530.865 21872930 21921252 21930654 21903972 21854124 21803082 21776844 
3534.240 21797034 21873780 22002822 22165904 22338668 22496042 22618750 
3537.615 22694152 22716518 22680826 22585508 22431742 22227970 21992040 
3540.990 21751804 21539736 21387018 21311622 21315832 21384206 21489506 
3544.365 21599726 21688544 21737474 21738648 21690718 21597618 21465998 
3547.741 21306346 21132846 20966106 20825804 20730170 20684702 20683460 
3551.116 20706182 20726522 20721228 20677994 20598842 20500338 20402532 
3554.491 20324754 20275594 20254240 20252568 20264026 20285164 20321350 
3557.866 20381202 20470810 20587214 20718720 20844648 20944200 21002164 
3561.242 21017686 21001392 20975522 20962568 20979046 21028800 21100956 
3564.617 21172412 21214072 21197182 21102670 20925378 20677268 20386138 
3567.992 20091032 19833264 19649240 19559312 19565428 19650374 19781716 
3571.367 19921856 20035910 20099760 20104512 20053616 19964686 19856668 
3574.743 19752102 19668152 19617536 19604700 19629426 19682842 19753564 
3578.118 19827426 19893984 19947952 19992684 20037432 20095046 20173712 
3581.493 20275244 20390154 20501500 20589660 20640554 20647182 20614096 
3584.868 20551398 20471594 20381298 20282316 20169350 20037458 19884354 
3588.244 19718698 19556872 19422230 19339340 19328330 19400666 19558324 
3591.619 19791598 20081026 20399646 20712746 20983754 21178116 21269684 
3594.994 21245858 21110928 20887226 20609890 20321298 20063110 19870202 
3598.369 19766734 19765400 19864906 20054568 20311968 20605502 20898566 
3601.745 21153900 21342196 21448632 21476192 21448082 21395868 21355508 
3605.120 21350496 21389922 21463518 21550340 21623374 21664320 21664184 
3608.495 21628532 21569474 21502034 21436400 21377782 21325822 21279548 
3611.870 21239812 21210256 21196344 21202330 21226274 21263214 21304414 
3615.246 21343558 21378220 21413862 21457898 21518224 21595582 21681834 
3618.621 21759968 21811986 21823528 21793718 21736172 21677642 21648656 
3621.996 21675992 21769290 21921528 22105478 22285352 22423760 22495086 
3625.371 22489548 22416138 22294938 22153362 22011766 21882574 21763840 
3628.747 21645450 21513624 21358740 21180544 20990252 20807858 20659812 
3632.122 20571602 20563846 20647066 20820208 21068700 21366972 21681740 
3635.497 21977964 22223618 22398738 22497288 22531318 22523788 22506724 
3638.872 22508970 22549502 22632372 22745852 22869408 22980030 23060326 
3642.248 23105988 23124600 23135500 23160736 23218934 23319060 23459294 
3645.623 23624224 23793502 23942360 24052010 24109178 24111874 24065968 
3648.998 23985066 23884146 23778778 23679900 23596960 23534874 23499424 
3652.373 23494050 23522212 23582932 23668616 23764158 23845222 23885252 
3655.749 23861104 23760712 23588982 23366804 23127386 22906632 22736876 
3659.124 22635714 22608072 22645242 22731394 22845990 22973058 23094994 
3662.499 23199856 23274832 23308562 23289828 23213678 23077262 22887854 
3665.874 22656896 22403860 22149318 21917786 21730208 21605798 21553196 
3669.250 21571924 21646484 21752876 21858186 21935538 21968144 21957952 
3672.625 21921732 21885866 21872326 21887418 21918306 21934640 21900108 
3676.000 21789386 21600370 21359588 21113226 20915974 20808946 20810442 
3679.375 20907772 21065298 21234616 21371612 21445614 21445082 21375684 
3682.750 21254708 21100322 20933176 20766988 20615738 20487220 20388112 
3686.126 20317804 20272340 20241710 20216398 20189094 20160674 20140284 
3689.501 20141926 20178978 20258754 20377448 20519836 20661902 20778988 
3692.876 20846772 20850486 20781920 20644524 20451560 20226454 19999584 
3696.251 19807282 19682896 19651116 19718046 19869966 20073560 20287036 
3699.627 20468564 20592792 20651234 20658026 20638108 20619552 20620622 
3703.002 20648408 20696342 20754350 20809892 20858984 20901248 20940540 
3706.377 20976852 21006708 21022382 21014908 20976442 20906096 20805980 
3709.752 20683934 20546050 20399430 20251414 20113334 19999762 19931496 
3713.128 19925368 19991484 20123656 20301112 20488730 20651728 20761034 
3716.503 20805510 20792744 20744162 20686462 20640606 20615826 20612010 
3719.878 20621672 20641324 20674466 20734714 20836704 20992066 21197474 
3723.253 21434334 21669910 21869564 22003864 22061138 22048100 21988756 
3726.629 21912754 21848502 21812520 21809084 21827430 21852668 21868394 
3730.004 21866086 21842982 21806088 21762670 21723750 21693472 21672838 
3733.379 21657584 21642702 21621550 21592616 21555772 21516410 21481554 
3736.754 21458108 21451214 21461636 21485618 21515876 21542630 21559592 
3740.130 21561998 21553852 21543566 21545214 21571860 21634826 21734386 
3743.505 21862260 21999104 22118636 22194812 22208616 22150706 22027232 
3746.880 21856430 21663958 21476620 21319702 21208940 21151642 21145676 
3750.255 21183516 21253970 21348876 21459178 21580218 21708104 21837416 
3753.631 21961226 22070070 22151084 22191762 22180484 22111680 21988242 
3757.006 21823528 21640996 21470428 21342724 21281998 21298610 21386530 
3760.381 21522956 21676474 21813246 21912292 21966012 21984118 21989590 
3763.756 22007700 22057038 22142672 22253626 22369292 22466020 22528110 
3767.132 22550480 22542482 22520052 22500020 22491758 22496408 22504860 
3770.507 22505330 22488700 22454712 22408680 22362764 22327478 22307646 
3773.882 22300990 22300670 22297184 22284940 22264070 22239650 22215726 
3777.257 22192304 22160376 22106110 22011480 21867978 21678008 21462512 
3780.633 21253706 21091194 21005812 21015468 21115766 21286814 21497168 
3784.008 21716618 21922554 22106204 22270208 22422322 22569522 22711940 
3787.383 22841430 22945504 23010158 23027724 22997170 22925356 22823478 
3790.758 22703112 22575724 22450984 22337558 22247036 22191014 22181350 
3794.134 22223542 22314804 22440124 22576066 22694458 22771180 22791930 
3797.509 22758720 22684806 22593146 22508098 22446134 22413884 22407282 
3800.884 22412298 22414374 22399596 22362724 22306430 22241314 22182820 
3804.259 22145648 22142834 22179370 22252598 22352688 22462008 22561906 
3807.635 22633438 22666364 22656952 22610690 22537938 22451216 22360000 
3811.010 22270940 22185318 22102880 22023750 21951260 21888744 21840422 
3814.385 21807586 21786136 21766604 21739510 21698826 21648272 21600396 
3817.760 21577490 21604314 21699718 21871310 22110418 22392210 22682850 
3821.135 22942926 23140972 23253942 23275624 23211256 23078144 22898126 
3824.511 22695086 22492150 22308844 22160060 22055318 21998740 21989562 
3827.886 22022150 22086746 22170516 22259328 22337490 22392782 22414766 
3831.261 22400860 22354788 22287984 22215632 22155746 22120690 22119998 
3834.636 22152906 22214538 22293958 22380230 22462278 22530300 22574758 
3838.012 22587392 22559934 22490186 22382002 22248912 22113224 22001232 
3841.387 21936682 21933760 21990944 22091754 22208980 22315146 22388294 
3844.762 22421568 22421800 22405758 22391000 22391872 22411990 22447872 
3848.137 22491130 22535308 22579624 22627050 22682642 22748330 22817786 
3851.513 22876272 22903198 22878508 22789230 22636264 22433196 22208616 
3854.888 21994368 21823312 21719784 21696614 21750718 21867502 22017606 
3858.263 22167628 22281558 22334228 22311488 22219534 22081034 21932012 
3861.638 21810314 21749906 21767530 21864126 22022358 22217476 22422792 
3865.014 22618320 22794830 22955696 23108428 23263030 23423404 23585388 
3868.389 23734950 23856086 23929668 23942794 23889848 23774324 23604798 
3871.764 23394274 23155626 22901344 22641834 22391148 22164752 21983206 
3875.139 21866792 21835042 21896566 22048540 22272026 22534784 22797906 
3878.515 23023618 23183354 23264162 23268490 23213374 23122140 23018890 
3881.890 22921748 22842584 22784526 22745366 22717798 22695054 22667216 
3885.265 22627498 22571070 22499622 22420590 22347548 22297200 22284824 
3888.640 22316960 22393498 22502186 22629452 22758980 22885546 23009798 
3892.016 23141150 23288230 23455104 23633682 23805386 23943906 24025142 
3895.391 24029292 23951884 23797342 23581638 23323754 23045942 22769552 
3898.766 22518662 22316576 22188290 22152148 22218656 22381440 22618164 
3902.141 22892194 23160172 23381718 23528064 23586318 23560898 23468700 
3905.517 23335550 23187158 23048844 22940818 22878170 22869052 22914006 
3908.892 23003730 23120928 23240524 23337430 23391018 23391796 23343700 
3912.267 23264314 23176764 23106942 23071670 23077144 23116800 23176842 
3915.642 23238090 23285934 23311696 23316406 23306378 23290694 23276318 
3919.018 23264966 23251898 23231060 23195996 23150256 23102660 23072972 
3922.393 23082522 23149260 23278206 23459388 23667004 23868626 24031014 
3925.768 24133166 24169114 24151500 24102598 24047226 24003584 23977354 
3929.143 23963534 23948250 23916726 23861684 23783124 23693054 23607328 
3932.519 23545096 23521296 23543338 23607148 23698724 23794164 23864776 
3935.894 23882246 23827644 23696582 23503998 23283752 23080272 22937740 
3939.269 22890018 22946394 23094620 23302578 23528350 23734476 23896440 
3942.644 24005734 24069746 24102634 24121088 24134106 24146606 24154726 
3946.020 24155022 24141668 24113050 24067984 24011364 23947566 23886016 
3949.395 23837052 23812894 23821638 23864364 23931926 24004286 24055288 
3952.770 24059946 24001514 23878388 23704626 23507726 23317580 23163002 
3956.145 23059682 23012934 23013610 23047248 23093780 23137406 23166014 
3959.521 23177476 23177242 23180728 23207228 23277368 23404342 23589254 
3962.896 23816692 24058332 24277684 24442226 24530608 24539056 24479400 
3966.271 24374680 24248084 24120802 24003622 23903888 23826802 23779430 
3969.646 23770850 23808678 23890800 24005766 24129034 24232726 24289458 
3973.021 24285732 24221390 24110568 23973560 23831318 23698400 23584426 
3976.397 23494466 23434938 23410666 23428598 23487290 23578734 23685976 
3979.772 23790442 23877556 23946776 24009060 24086876 24197896 24348960 
3983.147 24526444 24701038 24836190 24902680 24890286 24810516 24692142 
3986.522 24570802 24473158 24411534 24380316 24363294 24341444 24300822 
3989.898 24235658 24148898 24045896 23934966 23820530 23711438 23617476 
3993.273 23553270 23534250 23571838 23668732 23815976 23994678 24181094 
3996.648 24353742 24497970 24608256 24686196 24736474 24765528 24777924 
4000.023 24778222 24770052 
##END=
