##TITLE=Bambu-Lab_PETG_Lime-Green_Filament_r5_ATR-Corrected
##JCAMP-DX=5.01  $$ Nicolet v. 1
##DATATYPE=INFRARED SPECTRUM
##ORIGIN=Curtin University
##OWNER=Nicolet
##LONGDATE=2024/07/03
##TIME=15:12:00
##SPECTROMETER/DATA SYSTEM=Nicolet iS50
##DATA PROCESSING=
Ratio against background
%Transmittance->Absorbance
ATR Correction
Truncated
ElementMultiply or ElementDivide
##COMMENTS=
Number of sample scans: 32
Collection length: 47.27 sec
Sample gain: 1.0
Background collected on: Wed Jul 03 15:09:33 2024 (GMT+08:00);
Number of background scans: 32
Background gain: 1.0
Sample spacing:  1.000
Number of scan points: 16672
Resolution points: 8192
Number of FFT points: 65536
Apodization: N-B strong;
Phase correction: Mertz;
Laser frequency: 15798.3 cm-1
Number of rejected sample scans: 0
Number of rejected background scans: 0
Bench serial number: AUP1200105;
##RESOLUTION=4.000
##XUNITS=1/CM
##YUNITS=ABSORBANCE
##FIRSTX=400.163452
##LASTX=4000.187744
##FIRSTY=0.032403
##MAXX=4000.187744
##MINX=400.163452
##MAXY=1.447237
##MINY=-0.031406
##XFACTOR=1.000000
##YFACTOR=1.000000E-008
##NPOINTS=7468
##DELTAX=0.482125
##ZPD=8192
##XYDATA=(X++(Y..Y))
400.163 3240325 3277488 3326106 3382120 3442346 3503484 3561758 3612880 
404.020 3652201 3676090 3683023 3674939 3656843 3635749 3618114 3608077 
407.877 3605849 3608241 3610039 3606661 3596212 3580872 3566094 3559027 
411.734 3565759 3589307 3628382 3678012 3730753 3779013 3816763 3841136 
415.591 3852463 3853755 3849168 3842827 3837547 3834708 3834237 3835549 
419.448 3838114 3842315 3849439 3861652 3881026 3908879 3944710 3986142 
423.305 4029011 4068648 4101106 4124769 4140835 4153143 4166658 4185801 
427.162 4212546 4245767 4281245 4313362 4336717 4348072 4346937 4335420 
431.019 4316790 4294137 4269188 4242123 4212712 4180926 4147766 4115524 
434.876 4086899 4063942 4046816 4033747 4021382 4006192 3985731 3959590 
438.733 3929150 3896781 3864483 3833068 3801842 3769484 3735113 3699561 
442.590 3665609 3637564 3619787 3615338 3624669 3645599 3673810 3704311 
446.447 3732573 3755555 3771737 3780846 3783137 3779061 3769023 3753874 
450.304 3735074 3715032 3696689 3683047 3676182 3676710 3683391 3693553 
454.161 3703658 3710406 3711444 3706123 3695500 3682264 3669873 3661883 
458.017 3660856 3667847 3681893 3700409 3719783 3736528 3748123 3753909 
461.874 3754980 3753825 3753280 3755703 3762391 3773452 3788097 3805385 
465.731 3824504 3845077 3866751 3888965 3910569 3930010 3945771 3957063 
469.588 3964240 3968899 3973239 3979361 3988288 3999717 4012090 4023499 
473.445 4032558 4039280 4045100 4052563 4064286 4082096 4106261 4135556 
477.302 4167609 4199798 4229940 4256941 4280738 4302171 4322400 4342553 
481.159 4363383 4385321 4408530 4433294 4460083 4489804 4523596 4562688 
485.016 4607898 4659341 4716026 4776030 4836737 4895720 4951362 5003759 
488.873 5054781 5107786 5166674 5234809 5313969 5403942 5502661 5607071 
492.730 5714078 5821534 5928521 6035183 6141988 6248993 6355184 6458436 
496.587 6555751 6643960 6720273 6782817 6830611 6863503 6881701 6885503 
500.444 6874995 6850037 6810292 6755434 6685257 6599998 6500403 6387976 
504.301 6264942 6134242 5999198 5863319 5729852 5601607 5480763 5368989 
508.158 5267389 5176674 5096991 5027868 4968107 4915856 4868831 4824824 
512.015 4782030 4739438 4696749 4654307 4612690 4572572 4534625 4499735 
515.871 4469016 4443825 4425343 4414053 4409089 4408098 4407448 4403190 
519.728 4392057 4372566 4345306 4312766 4278338 4245292 4215799 4190730 
523.585 4169865 4152683 4138921 4128889 4123075 4121602 4123518 4126685 
527.442 4128007 4124398 4113622 4095086 4069866 4040306 4009113 3978617 
531.299 3950227 3924476 3901322 3880651 3862472 3847034 3834491 3824755 
535.156 3817331 3811473 3806386 3801530 3796591 3791418 3785696 3778912 
539.013 3770322 3759447 3746374 3732130 3718522 3707650 3701099 3699334 
542.870 3701370 3705113 3707986 3707938 3703965 3696322 3686095 3674546 
546.727 3662457 3649881 3636298 3621202 3604617 3587465 3571258 3557669 
550.584 3547666 3541081 3536427 3531402 3523541 3511101 3493508 3471563 
554.441 3446978 3421862 3397966 3376278 3356731 3338442 3319923 3299643 
558.298 3276347 3249352 3218689 3185031 3149467 3113257 3077474 3042918 
562.155 3010004 2978973 2950065 2923801 2900900 2882246 2868433 2859542 
566.012 2854879 2853150 2852792 2852513 2851626 2850210 2848794 2847939 
569.869 2847643 2847154 2845011 2839608 2829735 2815212 2796946 2776816 
573.725 2756967 2739319 2725003 2714357 2707010 2702318 2699557 2698170 
577.582 2697641 2697468 2697075 2696117 2694604 2693315 2693666 2697465 
581.439 2706248 2720642 2739826 2761630 2782965 2800824 2813105 2819372 
585.296 2820904 2820306 2820664 2824743 2834202 2849481 2869926 2894317 
589.153 2921424 2950547 2981675 3015642 3053829 3097883 3149277 3208970 
593.010 3276964 3352217 3432557 3514999 3596127 3672636 3741662 3801114 
596.867 3849510 3885832 3909158 3918530 3912975 3891813 3855043 3803708 
600.724 3739957 3666926 3588212 3507460 3427874 3352015 3281689 3218111 
604.581 3161921 3113368 3072282 3038289 3010860 2989545 2974029 2964215 
608.438 2959994 2961031 2966397 2974524 2983298 2990527 2994452 2994325 
612.295 2990513 2984447 2978016 2973134 2971099 2972537 2977418 2985458 
616.152 2996325 3009837 3025823 3043943 3063457 3083335 3102411 3119846 
620.009 3135470 3149876 3164169 3179621 3197069 3216660 3237795 3259524 
623.866 3280905 3301609 3322132 3344018 3369788 3402934 3447766 3509200 
627.723 3592136 3700523 3835852 3995693 4172415 4352991 4520102 4654828 
631.579 4740279 4765504 4728142 4635224 4501480 4346018 4188189 4044013 
635.436 3923952 3832343 3768320 3727615 3704588 3693912 3691479 3694678 
639.293 3702072 3712967 3726965 3743836 3763434 3785766 3810877 3838708 
643.150 3868841 3900376 3931858 3961557 3987709 4008966 4024601 4034697 
647.007 4040032 4041950 4042047 4042025 4043385 4047316 4054547 4065304 
650.864 4079317 4095974 4114497 4134182 4154498 4175203 4196083 4216842 
654.721 4236902 4255445 4271614 4284984 4295938 4305884 4317017 4331764 
658.578 4351968 4378151 4409183 4442551 4475117 4504179 4528362 4548084 
662.435 4565243 4582501 4602171 4625443 4652039 4680502 4708922 4735838 
666.292 4760798 4784581 4808764 4835181 4865250 4899655 4938321 4980772 
670.149 5026490 5075264 5127185 5182635 5241982 5305497 5373277 5445400 
674.006 5521959 5603129 5688959 5779183 5872946 5968732 6064440 6157720 
677.863 6246223 6327926 6401186 6464762 6517680 6559250 6589113 6607466 
681.720 6615176 6613889 6605827 6593552 6579561 6566037 6554731 6547082 
685.577 6544342 6547780 6558681 6578250 6607331 6646266 6694735 6751903 
689.433 6816590 6887591 6963932 7045014 7130608 7220841 7316088 7417036 
693.290 7524524 7639733 7764024 7899005 8046407 8208028 8385620 8580838 
697.147 8795089 9029347 9283929 9558260 9850688 10158509 10478027 10805025 
701.004 11135036 11463826 11787699 12103754 12410088 12705882 12991431 
704.379 13268112 13538085 13803872 14067787 14331447 14595419 14859316 
707.754 15122215 15383437 15643324 15903993 16169631 16446596 16743250 
711.129 17069604 17437048 17858236 18346908 18917754 19586048 20367256 
714.504 21276494 22328142 23535550 24911018 26465664 28209400 30150252 
717.878 32293556 34640576 37186908 39920896 42821960 45858844 48987172 
721.253 52146124 55254216 58204968 60865616 63082616 64698716 65581512 
724.628 65656460 64929704 63488216 61476480 59062004 56404132 53635012 
728.003 50852900 48124196 45489332 42969804 40574280 38303140 36151632 
731.378 34111924 32174364 30328458 28563454 26869122 25236086 23656368 
734.752 22123636 20633542 19183984 17775380 16410686 15095319 13836563 
738.127 12642826 11522470 10482816 9529103 8663906 7886817 7194667 6582023 
741.984 6041902 5566626 5148700 4781407 4459173 4177496 3932674 3721239 
745.841 3539586 3383709 3249351 3132351 3029115 2936918 2854061 2779550 
749.698 2712770 2653077 2599603 2551292 2507225 2466808 2430001 2397120 
753.555 2368588 2344513 2324540 2307812 2293312 2280222 2268240 2257614 
757.412 2248930 2242718 2239093 2237575 2237244 2237053 2236264 2234686 
761.269 2232734 2231216 2231050 2233010 2237649 2245387 2256692 2272177 
765.126 2292649 2318804 2351044 2389216 2432574 2479845 2529597 2580455 
768.983 2631371 2681627 2730776 2778519 2824540 2868487 2909943 2948535 
772.840 2983905 3015696 3043601 3067415 3087175 3103317 3116847 3129309 
776.697 3142649 3158843 3179568 3205851 3238074 3276084 3319656 3368809 
780.554 3424111 3486662 3557894 3639180 3731562 3835480 3950857 4077337 
784.410 4214519 4362258 4520738 4690439 4872055 5066275 5273737 5494803 
788.267 5729471 5977053 6235815 6502440 6771572 7035491 7284056 7505152 
792.124 7685479 7811874 7872834 7860140 7770282 7605437 7373816 7089125 
795.981 6769370 6434817 6105842 5800704 5533853 5314828 5148024 5033102 
799.838 4965858 4939372 4945194 4974353 5018227 5069177 5121021 5169316 
803.695 5211447 5246457 5274749 5297537 5316272 5332145 5345795 5357270 
807.552 5366239 5372242 5375086 5374970 5372508 5368594 5364229 5360383 
811.409 5357867 5357343 5359309 5364072 5371707 5381941 5394179 5407529 
815.266 5421000 5433652 5444962 5454759 5463318 5471198 5479010 5487264 
819.123 5496327 5506354 5517445 5529641 5542995 5557509 5573065 5589385 
822.980 5606071 5622754 5639317 5656032 5673679 5693473 5716874 5745278 
826.837 5779746 5820752 5868143 5921079 5978258 6038093 6099005 6159645 
830.694 6219192 6277486 6335108 6393248 6453495 6517473 6586512 6661404 
834.551 6742222 6828405 6918883 7012289 7107160 7202015 7295428 7386059 
838.408 7472725 7554582 7631239 7702840 7770097 7833982 7895419 7954939 
842.264 8012470 8067280 8118350 8164692 8205823 8241924 8273850 8302747 
846.121 8329630 8354982 8378547 8399380 8416272 8428119 8434396 8435348 
849.978 8432027 8426068 8419444 8414195 8412198 8415052 8423977 8439738 
853.835 8462530 8491937 8526967 8566262 8608481 8652683 8698843 8748011 
857.692 8802280 8864453 8937585 9024405 9127020 9246800 9384646 9541392 
861.549 9718186 9916975 10140468 10392047 10675362 10993948 11350790 
864.924 11748090 12187152 12668359 13191117 13753717 14353062 14984214 
868.299 15639879 16309950 16981212 17637556 18260416 18829798 19325652 
871.674 19729438 20025764 20203682 20257636 20187716 19999338 19702340 
875.048 19309792 18836810 18299318 17713192 17093458 16453730 15805823 
878.423 15159507 14522551 13901114 13300228 12724417 12178167 11665992 
881.798 11192105 10759812 10370822 10024823 9719469 9450912 9214619 9006340 
885.655 8822779 8661813 8522173 8402938 8302852 8220064 8152133 8096446 
889.512 8050730 8013446 7983850 7961701 7946768 7938383 7935245 7935587 
893.369 7937638 7940070 7942342 7944675 7947732 7952140 7957970 7964537 
897.226 7970377 7973525 7971809 7963082 7945329 7916647 7875229 7819468 
901.083 7748133 7660698 7557599 7440280 7311097 7172937 7028794 6881413 
904.940 6733088 6585690 6440741 6299623 6163620 6033917 5911515 5797172 
908.797 5691347 5594316 5506254 5427317 5357679 5297449 5246567 5204688 
912.654 5171170 5145086 5125337 5110779 5100307 5092951 5087907 5084640 
916.510 5082937 5082967 5085301 5090800 5100406 5114867 5134544 5159273 
920.367 5188470 5221233 5256643 5293877 5332264 5371209 5410032 5447961 
924.224 5484156 5517957 5549155 5578191 5606119 5634436 5664674 5697962 
928.081 5734737 5774727 5817108 5860885 5905173 5949486 5993725 6038068 
931.938 6082794 6128116 6174156 6221057 6269070 6318759 6371008 6426952 
935.795 6487913 6555146 6629792 6712772 6804768 6906324 7017880 7139798 
939.652 7272479 7416297 7571615 7738721 7917730 8108478 8310491 8522921 
943.509 8744603 8974133 9209962 9450381 9693572 9937510 10179953 10418499 
947.366 10650817 10874967 11089767 11295141 11492176 11682999 11870343 
950.741 12057063 12245535 12437323 12632903 12831627 13031733 13230368 
954.116 13423555 13606212 13772258 13914987 14027695 14104570 14141642 
957.490 14137430 14093381 14013758 13905086 13775332 13633075 13486773 
960.865 13344187 13212067 13095936 13000000 12927020 12878264 12853569 
964.240 12851325 12868775 12902230 12947352 12999509 13054007 13106440 
967.615 13152824 13189910 13215256 13227277 13225141 13208506 13177213 
970.990 13131046 13069558 12992081 12897976 12786879 12658998 12515232 
974.364 12357172 12187043 12007419 11821166 11631307 11440976 11253367 
977.739 11071564 10898368 10735980 10585881 10448619 10324065 10211661 
981.114 10110769 10020999 9942278 9874814 9818624 9773250 9737364 9708715 
984.971 9684300 9660891 9635580 9606382 9572551 9534632 9494215 9453368 
988.828 9414210 9378470 9347216 9320855 9299311 9282288 9269552 9261128 
992.685 9257371 9258976 9266960 9282500 9306884 9341449 9387384 9445752 
996.542 9517280 9602310 9700753 9812122 9935649 10070492 10215950 10371713 
1000.399 10538002 10715704 10906395 11112250 11335976 11580662 11849678 
1003.774 12146588 12475103 12839131 13242747 13690352 14186680 14736919 
1007.148 15346867 16023244 16774128 17609632 18542622 19589222 20768960 
1010.523 22104120 23617860 25331258 27259046 29404196 31751910 34263488 
1013.898 36870940 39474024 41941852 44121112 45852648 46994652 47447868 
1017.273 47174448 46203920 44624324 42562880 40163524 37567664 34901200 
1020.648 32267820 29747180 27396148 25251746 23334592 21652350 20202724 
1024.022 18975894 17956526 17125372 16460732 15939809 15539959 15239875 
1027.398 15020478 14865460 14761426 14697695 14665827 14659186 14672565 
1030.773 14701885 14744176 14797534 14860986 14934309 15017635 15111166 
1034.148 15214846 15328319 15450759 15581147 15718165 15860416 16006292 
1037.523 16154072 16301827 16447598 16589430 16725549 16854346 16974342 
1040.899 17084058 17181862 17265890 17334098 17384460 17415182 17425002 
1044.274 17413334 17380426 17327342 17256006 17169068 17069740 16961522 
1047.649 16847880 16731733 16615291 16499813 16385885 16273674 16163519 
1051.024 16056377 15954010 15858959 15774222 15702842 15647499 15610316 
1054.400 15592788 15595879 15620124 15665776 15732822 15821010 15930024 
1057.775 16059545 16209526 16380332 16572745 16787764 17026232 17288468 
1061.150 17574004 17881622 18209656 18556588 18921516 19304500 19706560 
1064.525 20129394 20574910 21044772 21540188 22061906 22610482 23186522 
1067.901 23790998 24425396 25091722 25792578 26531110 27311144 28137144 
1071.276 29014132 29947444 30942330 32003614 33135382 34340844 35622428 
1074.651 36981828 38419984 39936804 41530728 43198148 44933036 46726752 
1078.026 48568408 50445468 52344324 54250872 56150884 58030124 59874536 
1081.402 61670768 63406944 65073784 66665508 68180600 69621784 70995304 
1084.777 72310048 73576152 74803768 76002112 77178496 78338072 79483304 
1088.152 80614088 81728048 82820864 83886824 84919224 85910128 86850344 
1091.527 87728952 88533232 89248744 89860152 90352144 90710488 90922616 
1094.903 90978080 90868840 90589480 90137664 89514752 88726112 87780832 
1098.278 86690912 85469912 84131440 82688224 81151632 79532032 77839296 
1101.653 76083664 74276296 72429744 70558080 68677256 66805120 64961608 
1105.028 63168524 61449188 59827660 58327796 56972204 55781184 54771472 
1108.404 53955256 53339188 52923448 52701056 52657508 52770936 53012896 
1111.779 53349684 53744352 54158960 54556836 54904424 55172848 55338644 
1115.154 55384408 55298908 55077208 54720312 54234540 53630228 52920264 
1118.529 52118428 51238216 50292020 49291120 48246048 47167032 46064156 
1121.905 44947320 43825728 42707432 41598884 40504916 39429116 38374300 
1125.280 37343080 36338180 35362360 34418068 33506986 32629668 31785264 
1128.655 30971816 30186588 29426730 28689658 27973422 27276630 26598350 
1132.030 25937734 25293854 24665602 24051782 23451294 22863426 22287958 
1135.406 21725226 21176060 20641496 20122552 19619912 19133732 18663620 
1138.781 18208606 17767416 17338722 16921480 16515155 16119868 15736344 
1142.156 15365621 15008748 14666420 14338766 14025359 13725384 13437961 
1145.531 13162419 12898570 12646572 12406866 12179728 11965046 11762075 
1148.906 11569437 11385245 11207405 11033881 10862865 10692952 10523176 
1152.282 10352980 10182147 10010894 9839740 9669573 9501537 9336938 9177150 
1156.139 9023467 8877034 8738837 8609643 8490123 8380778 8282015 8194089 
1159.997 8117141 8051231 7996403 7952814 7920763 7900844 7893955 7901285 
1163.854 7924286 7964637 8024169 8104796 8208315 8336157 8489098 8666816 
1167.711 8867407 9087174 9320530 9560148 9797577 10023898 10230664 10410594 
1171.569 10558118 10669617 10743276 10778793 10777026 10739554 10668499 
1174.944 10566352 10435960 10280426 10103158 9907731 9697810 9477115 9249354 
1178.802 9018248 8787486 8560740 8341510 8133065 7938206 7759161 7597591 
1182.659 7454600 7330852 7226770 7142578 7078387 7034158 7009610 7004186 
1186.516 7016992 7046900 7092611 7152810 7226272 7311944 7408924 7516484 
1190.374 7633930 7760586 7895612 8038056 8186733 8340277 8497322 8656669 
1194.231 8817482 8979502 9143103 9309272 9479363 9654798 9836801 10026108 
1198.089 10222986 10427181 10638235 10855728 11079434 11309572 11546692 
1201.464 11791590 12045134 12308075 12580901 12863825 13156821 13459837 
1204.839 13772880 14096141 14430070 14775337 15132679 15502933 15886876 
1208.214 16285291 16698973 17128840 17575886 18041128 18525546 19029924 
1211.590 19554884 20100934 20668698 21259112 21873576 22513898 23181962 
1214.965 23879396 24606972 25364318 26149728 26960286 27792146 28640908 
1218.340 29501944 30370792 31243458 32116920 32989808 33863144 34740920 
1221.715 35630588 36542688 37490272 38487588 39548592 40685688 41908760 
1225.091 43224688 44637412 46148404 47757344 49462756 51262636 53154796 
1228.466 55137128 57207632 59364248 61604612 63925628 66323124 68791720 
1231.841 71324664 73914000 76550584 79224136 81922816 84632944 87338456 
1235.216 90020928 92659544 95231904 97714536 100083528 102314768 104384184 
1238.592 106268168 107944440 109393656 110601376 111559400 112266616 
1241.485 112728320 112954880 112959872 112758888 112368392 111805960 
1244.378 111090264 110241328 109280584 108230296 107113240 105951952 
1247.271 104767808 103580104 102405080 101255248 100139144 99061992 98027000 
1250.646 97036936 96095864 95210024 94387616 93637560 92967792 92383208 
1254.021 91884216 91466096 91119184 90829784 90581288 90355216 90132192 
1257.396 89892616 89617288 89288368 88890120 88409976 87839200 87173400 
1260.772 86412320 85559424 84621136 83605968 82523632 81384168 80197264 
1264.147 78971848 77715968 76437232 75143096 73841688 72541672 71252168 
1267.522 69981896 68738432 67527200 66351296 65211404 64106436 63034092 
1270.897 61991520 60975772 59983820 59012724 58059644 57121980 56197704 
1274.273 55285436 54384500 53494720 52616000 51747924 50889604 50039624 
1277.648 49196516 48358964 47526340 46698616 45876404 45060584 44252052 
1281.023 43451572 42659660 41876828 41103728 40341260 39590612 38853224 
1284.398 38130680 37424548 36736316 36067236 35418196 34789504 34180836 
1287.774 33591048 33018208 32459748 31912678 31373734 30839642 30307164 
1291.149 29773188 29234684 28688886 28133392 27566416 26987020 26395304 
1294.524 25792388 25180340 24561964 23940664 23320172 22704596 22098244 
1297.899 21505612 20931312 20379772 19855058 19360462 18898130 18468786 
1301.275 18071520 17703790 17361712 17040408 16734576 16439098 16149552 
1304.650 15862513 15575740 15288186 14999753 14711149 14423659 14139020 
1308.025 13859281 13586721 13323678 13072328 12834516 12611522 12403888 
1311.400 12211303 12032715 11866241 11709458 11559528 11413404 11268216 
1314.776 11121421 10971135 10816225 10656267 10491494 10322534 10150131 
1318.151 9975050 9797883 9619169 9439424 9259246 9079347 8900500 8723509 
1322.008 8549067 8377810 8210353 8047519 7890390 7740509 7599766 7470415 
1325.866 7354859 7255608 7175243 7116457 7082255 7075918 7101083 7161548 
1329.723 7261014 7402713 7589020 7821083 8098514 8419212 8779194 9172528 
1333.581 9591274 10025486 10463350 10891593 11296047 11662648 11978461 
1336.956 12232763 12417872 12529604 12567210 12533066 12432002 12270734 
1340.331 12057177 11799987 11508022 11190084 10854576 10509206 10160831 
1343.706 9815206 9477028 9149887 8836381 8538340 8256903 7992795 7746335 
1347.564 7517589 7306406 7112431 6935267 6774433 6629502 6500078 6385757 
1351.421 6286036 6200287 6127736 6067388 6018172 5979030 5948958 5927052 
1355.279 5912547 5904831 5903449 5908241 5919334 5937265 5962949 5997797 
1359.136 6043392 6101565 6174160 6263030 6369908 6496362 6643651 6812560 
1362.993 7003173 7214612 7444908 7690938 7948467 8212388 8476987 8736334 
1366.851 8984609 9216612 9427997 9615567 9777398 9912835 10022331 10107166 
1370.708 10169140 10210250 10232424 10237273 10226127 10199979 10159634 
1374.083 10105819 10039306 9960949 9871709 9772654 9664974 9550039 9429570 
1377.941 9305654 9180919 9058408 8941478 8833510 8737616 8656345 8591527 
1381.798 8544184 8514550 8502243 8506431 8525954 8559520 8605635 8662646 
1385.656 8728572 8801099 8877557 8955131 9031161 9103420 9170470 9231745 
1389.513 9287654 9339258 9388023 9435485 9482969 9531567 9582100 9635405 
1393.371 9692534 9755044 9825070 9905425 9999461 10110936 10243865 10402394 
1397.228 10590702 10812932 11073210 11375590 11724121 12122919 12576325 
1400.603 13089064 13666283 14313327 15035270 15835840 16715929 17671870 
1403.979 18693372 19761940 20849740 21919600 22926298 23819300 24546838 
1407.354 25060856 25322098 25304734 24999594 24415394 23577860 22526744 
1410.729 21311238 19984866 18600416 17205946 15841947 14540027 13322596 
1414.104 12203551 11189368 10280570 9473220 8760423 8133638 7583868 7102433 
1417.962 6681536 6314416 5995333 5719291 5481715 5278325 5104967 4957679 
1421.819 4832919 4727666 4639617 4567137 4509221 4465290 4435041 4418389 
1425.677 4415404 4426301 4451501 4491520 4546862 4617873 4704545 4806431 
1429.534 4922708 5052198 5193519 5345190 5505713 5673610 5847496 6026223 
1433.391 6208881 6394831 6583711 6775100 6968431 7162618 7356091 7546813 
1437.249 7732664 7911813 8083098 8246237 8402045 8552305 8699763 8848016 
1441.106 9001302 9164213 9341188 9535939 9750818 9986386 10241286 10512458 
1444.964 10795783 11086791 11381304 11675638 11966469 12250359 12523162 
1448.339 12779681 13013636 13218063 13386016 13511303 13589232 13617133 
1451.714 13594626 13523628 13408194 13253954 13067570 12856135 12626576 
1455.089 12385372 12138344 11890550 11646221 11408661 11180253 10962517 
1458.465 10756240 10561668 10378708 10207002 10045865 9894288 9750859 
1461.840 9613789 9481121 9350974 9221769 9092455 8962434 8831400 8699072 
1465.697 8564977 8428440 8288734 8145408 7998619 7849300 7699027 7549689 
1469.555 7402887 7259337 7118530 6978698 6837169 6691016 6537820 6376240 
1473.412 6206486 6030196 5850114 5669528 5491647 5319152 5153799 4996405 
1477.270 4846843 4704317 4567696 4435755 4307513 4182364 4060144 3941126 
1481.127 3825807 3714852 3608802 3508027 3412580 3322266 3236680 3155354 
1484.984 3077960 3004349 2934665 2869328 2808873 2753805 2704491 2660996 
1488.842 2623127 2590541 2562932 2540160 2522480 2510485 2505085 2507308 
1492.699 2518128 2538417 2568878 2610187 2663151 2728868 2808806 2904890 
1496.557 3019556 3155777 3317315 3508939 3736494 4006761 4326585 4701436 
1500.414 5133297 5618342 6144874 6692409 7232255 7729751 8148228 8453877 
1504.271 8620735 8634809 8496378 8220013 7831974 7365757 6856766 6337505 
1508.129 5834268 5365563 4942408 4569452 4246724 3971267 3738420 3542855 
1511.986 3379280 3242843 3129439 3035662 2958729 2896287 2846173 2806385 
1515.844 2775126 2750885 2732537 2719437 2711267 2707867 2708994 2714171 
1519.701 2722687 2733661 2746214 2759580 2773214 2786742 2799892 2812394 
1523.559 2823967 2834289 2843063 2850022 2854955 2857652 2857864 2855306 
1527.416 2849673 2840754 2828512 2813109 2794910 2774351 2751879 2727826 
1531.273 2702429 2675847 2648298 2620099 2591641 2563363 2535669 2508789 
1535.131 2482927 2458257 2435064 2413934 2395611 2380892 2370402 2364343 
1538.988 2362316 2363394 2366275 2369681 2372560 2374376 2375045 2374850 
1542.846 2374205 2373432 2372573 2371442 2369686 2366930 2362989 2357932 
1546.703 2352075 2345938 2340096 2334977 2330881 2327861 2325912 2324988 
1550.561 2325099 2326391 2328977 2332921 2338034 2343938 2350011 2355683 
1554.418 2360584 2364769 2368667 2373048 2378713 2386311 2396062 2407875 
1558.275 2421295 2435867 2451307 2467590 2485028 2504058 2525053 2548242 
1562.133 2573630 2601059 2630309 2661252 2693915 2728490 2765344 2804986 
1565.990 2848060 2895427 2948146 3007536 3075045 3152245 3240603 3341528 
1569.848 3456105 3585264 3729654 3889782 4065864 4257855 4465192 4686588 
1573.705 4919687 5160793 5404509 5643656 5869458 6072012 6241202 6367739 
1577.563 6444102 6465369 6429513 6337534 6193277 6003101 5775356 5519837 
1581.420 5246913 4966921 4689321 4422255 4172127 3943489 3738974 3559455 
1585.277 3404418 3272203 3160602 3067172 2989601 2925747 2873664 2831418 
1589.135 2797012 2768419 2743687 2721244 2700116 2679958 2661022 2643926 
1592.992 2629264 2617420 2608401 2601883 2597430 2594708 2593637 2594542 
1596.850 2598006 2604719 2615367 2630405 2649963 2673842 2701519 2732243 
1600.707 2765096 2799237 2834026 2869229 2905151 2942685 2983166 3028041 
1604.564 3078609 3135605 3199102 3268363 3342121 3418890 3497254 3576114 
1608.422 3654771 3732790 3809747 3885067 3957759 4026498 4089659 4145494 
1612.279 4192296 4228472 4252514 4263051 4258846 4239024 4203256 4152143 
1616.137 4087387 4011792 3928981 3842989 3757675 3676331 3601506 3534881 
1619.994 3477461 3429626 3391247 3361787 3340232 3325230 3315255 3308743 
1623.852 3304346 3301074 3298359 3296077 3294385 3293663 3294311 3296728 
1627.709 3301175 3307794 3316538 3327222 3339532 3353114 3367600 3382698 
1631.566 3398102 3413568 3428762 3443280 3456763 3468902 3479714 3489536 
1635.424 3499035 3508972 3520090 3532691 3546594 3561228 3575831 3589818 
1639.281 3602973 3615607 3628369 3642090 3657321 3674377 3693150 3713369 
1643.139 3734724 3757107 3780473 3804900 3830268 3856326 3882557 3908472 
1646.996 3933810 3958704 3983705 4009630 4037335 4067483 4100345 4135917 
1650.854 4173890 4213894 4255498 4298462 4342515 4387522 4433479 4480656 
1654.711 4529588 4581158 4636460 4696649 4762680 4835177 4914372 5000125 
1658.568 5092197 5190329 5294424 5404582 5520953 5643673 5772720 5907954 
1662.426 6049004 6195429 6346730 6502420 6662090 6825493 6992579 7163558 
1666.283 7338806 7518662 7703242 7892179 8084542 8278935 8473837 8668005 
1670.141 8860791 9052375 9243473 9435272 9628952 9825601 10026132 10231420 
1673.998 10442340 10659833 10884628 11117064 11356635 11602151 11851724 
1677.373 12103329 12355120 12605850 12854810 13101955 13347642 13592623 
1680.749 13838001 14085340 14336593 14593917 14859195 15133606 15417112 
1684.124 15708613 16006292 16308561 16614914 16926594 17246496 17578786 
1687.499 17928102 18298874 18694782 19118852 19573576 20061250 20584082 
1690.874 21144352 21744180 22385818 23071952 23806292 24593952 25441548 
1694.250 26356482 27345920 28415460 29568794 30808046 32135674 33556476 
1697.625 35079320 36717488 38487192 40405036 42485092 44736928 47165908 
1701.000 49775048 52568412 55553740 58743088 62150924 65790488 69669560 
1704.375 73787696 78135176 82694392 87441176 92345944 97372152 102473784 
1707.750 107592680 112658632 117592512 122312584 126740504 130805000 
1710.644 134441936 137593024 140205728 142238000 143665008 144485776 
1713.537 144723664 144420368 143625744 142389264 140755840 138768656 
1716.430 136473664 133923304 131174888 128285440 125304008 122267208 
1719.323 119198168 116110432 113013056 109915696 106830192 103770304 
1722.216 100748792 97775416 94855656 91991760 89184208 86433888 83742592 
1725.591 81112896 78546720 76044392 73603872 71221584 68893480 66616464 
1728.966 64389144 62211756 60085224 58010064 55985112 54007440 52072656 
1732.342 50175796 48312528 46480132 44677764 42906396 41167788 39463820 
1735.717 37795384 36162336 34563376 32996830 31461238 29956236 28482666 
1739.092 27042982 25640640 24279892 22965000 21700012 20488346 19332698 
1742.467 18234936 17195996 16215986 15294188 14429297 13619770 12863992 
1745.843 12160566 11508093 10905185 10350098 9840655 9374109 8947308 8556805 
1749.700 8199117 7870780 7568576 7289482 7030926 6790664 6566847 6357970 
1753.557 6162729 5979826 5808075 5646385 5494106 5351025 5217530 5094241 
1757.415 4981606 4879426 4786447 4700468 4618733 4538818 4459106 4379454 
1761.272 4301015 4225676 4155351 4091136 4032949 3979559 3929254 3880334 
1765.130 3831867 3783799 3736939 3692466 3651477 3614575 3581625 3551831 
1768.987 3523985 3496722 3468841 3439353 3407776 3374000 3338394 3301712 
1772.844 3264985 3229230 3195445 3164168 3135668 3109778 3086032 3063738 
1776.702 3042050 3020075 2996944 2972043 2945074 2916362 2886824 2857863 
1780.559 2831236 2808501 2790711 2778013 2769687 2764247 2759978 2755096 
1784.417 2748489 2739521 2728305 2715327 2701351 2686909 2672438 2657937 
1788.274 2643211 2627903 2611645 2594315 2576042 2557260 2538485 2520170 
1792.132 2502524 2485351 2468228 2450577 2432143 2413101 2394165 2376290 
1795.989 2360428 2347038 2336005 2326519 2317674 2308654 2299340 2290201 
1799.846 2282157 2276006 2272002 2269459 2267037 2262923 2255647 2244469 
1803.704 2229616 2212095 2193449 2175149 2158460 2144103 2132570 2123998 
1807.561 2118577 2116206 2116642 2119219 2123006 2126874 2129770 2130824 
1811.419 2129634 2125871 2119447 2110219 2098192 2083605 2067501 2051621 
1815.276 2038598 2031269 2032148 2042564 2062096 2088419 2117934 2146446 
1819.134 2170330 2187080 2195856 2197133 2192423 2183510 2172131 2159611 
1822.991 2146887 2134408 2122569 2111452 2101224 2091855 2083458 2075845 
1826.848 2068876 2062089 2054957 2046641 2036320 2023203 2006804 1987036 
1830.706 1964403 1939719 1914115 1888749 1864621 1842396 1822509 1805090 
1834.563 1790183 1777566 1766927 1757552 1748484 1738325 1725560 1708846 
1838.421 1687417 1661504 1632656 1603368 1576929 1556351 1543559 1538557 
1842.278 1539321 1541846 1541390 1533573 1515920 1488342 1453519 1415673 
1846.135 1379618 1348987 1325686 1309392 1298351 1290125 1282680 1274889 
1849.993 1266740 1258631 1251073 1243941 1236669 1228073 1217098 1203015 
1853.850 1185735 1165745 1144153 1122475 1102612 1086670 1076646 1073920 
1857.708 1078634 1089004 1101459 1111155 1113380 1104896 1085524 1058268 
1861.565 1029014 1004478 990668 990625 1003933 1026594 1052564 1075275 
1865.423 1089684 1092917 1085014 1068245 1046381 1023598 1003641 989038 
1869.280 980936 978813 980853 984468 987383 987863 985763 982230 979399 
1873.620 979236 982926 989830 997933 1003971 1004871 998294 983568 961385 
1877.959 933796 903307 872739 844664 821573 805480 797839 798862 807397 
1882.299 820655 835025 846776 853469 854634 851963 848375 846957 849484 
1886.638 856182 865550 875771 885625 895460 906800 921706 940980 963583 
1890.978 986089 1003968 1012772 1010275 996832 975709 951438 928559 909711 
1895.318 895467 884412 874590 864422 854021 844690 838710 837760 842314 
1899.657 850935 860985 869127 872848 870847 863840 853823 843516 835230 
1903.997 830471 829075 829917 831172 831466 830030 827694 826007 827174 
1908.336 832702 843192 857587 874057 890168 904433 916442 927522 939655 
1912.676 954974 974569 998130 1023656 1048437 1069632 1085532 1095324 
1916.533 1099525 1098958 1094774 1087554 1077705 1065250 1050388 1032855 
1920.391 1012168 986986 955707 916468 868802 814024 756644 703273 662260 
1924.730 640831 644122 672675 723290 789116 862110 934260 999455 1053479 
1929.070 1093985 1119283 1128280 1119726 1093523 1050640 994459 930252 
1932.927 864989 805287 756990 723466 706008 703843 715687 740133 776753 
1937.267 825164 885267 955164 1031571 1108704 1179949 1238365 1279125 
1941.125 1299668 1301173 1287252 1263212 1233725 1202150 1169343 1134835 
1944.982 1097517 1058056 1019508 988162 971244 975400 1003302 1052930 
1948.839 1116540 1183758 1243950 1290592 1322135 1343241 1360538 1380253 
1952.697 1402857 1422489 1426744 1401836 1336880 1229626 1088125 930577 
1956.554 779957 659408 585586 566541 599348 674011 775424 887925 996345 
1960.894 1087397 1148129 1167532 1136654 1053589 924614 767391 606926 471627 
1965.233 384746 360061 396571 481794 595611 717827 832065 929334 1004729 
1969.573 1055865 1077636 1064612 1011284 918530 794865 658225 529872 430348 
1973.913 370942 353144 369263 409472 467153 544253 648526 788910 965004 
1978.252 1164112 1360502 1525636 1635054 1679048 1661571 1599327 1512365 
1982.110 1419353 1331760 1254047 1184509 1120946 1062486 1013007 977797 
1985.967 963421 973113 1007004 1060315 1127263 1200494 1274303 1342781 
1989.824 1401020 1443265 1464737 1461737 1434262 1385343 1322497 1253642 
1993.682 1186919 1127303 1077181 1035346 999383 965778 931809 893532 847741 
1998.021 790040 717873 630007 530468 426248 328257 246483 188660 156261 
2002.361 145897 149150 158016 166561 174014 182715 197227 220130 250529 
2006.701 282654 309354 323688 323626 310819 291302 271019 255085 243562 
2011.040 234320 221995 202528 172728 134045 89484 45305 6173 -23776 -44927 
2015.862 -60371 -76753 -99902 -134095 -176951 -221601 -255954 -268241 
2019.719 -250344 -204686 -142120 -82918 -47303 -50475 -94238 -166927 -244899 
2024.059 -302966 -321038 -294163 -233085 -163541 -115723 -117742 -184608 
2027.917 -317155 -500173 -708957 -913234 -1086132 -1206628 -1265116 -1261244 
2031.774 -1205390 -1112453 -1001216 -887317 -783809 -696361 -627254 -574742 
2035.631 -537098 -511527 -494384 -478016 -450521 -395972 -299389 -151104 
2039.489 45495 273278 501980 697768 830729 886551 869025 800373 711702 
2043.828 634712 591226 590029 625818 686656 759202 835680 913308 994354 
2048.168 1080004 1168246 1250907 1317403 1356837 1362889 1333949 1274648 
2052.025 1192851 1099379 1005191 921439 856564 816082 799345 800344 807673 
2056.365 808838 792938 755809 701263 641512 592313 569082 580232 625401 
2060.705 694143 771015 838969 885896 906156 902224 881781 855636 833421 
2065.044 823030 828824 852572 892781 945946 1005526 1063579 1111211 1140977 
2069.384 1148312 1133404 1100185 1055771 1007319 960966 919603 884267 854204 
2073.723 829360 809947 797450 792454 795157 803773 816658 832245 851621 
2078.063 877449 914022 964592 1029924 1106076 1185778 1258972 1316323 
2081.920 1350314 1358044 1340272 1301463 1247561 1185492 1121563 1061824 
2085.778 1010964 972860 949068 939099 939169 943672 945386 938218 917717 
2090.117 883210 837018 784678 732624 688083 656658 642729 647927 671963 
2094.457 711555 761995 816417 868435 912332 945235 966646 979155 986660 
2098.797 993544 1002984 1016573 1033949 1053942 1074335 1093594 1109988 
2102.654 1122662 1130291 1132138 1127457 1116781 1101251 1083549 1066662 
2106.511 1054014 1047702 1048944 1057154 1071085 1088355 1107008 1124648 
2110.369 1139572 1149400 1152305 1146106 1129511 1101595 1063072 1015390 
2114.226 961433 904376 848065 795828 751083 715965 691820 678208 673760 
2118.566 675335 679619 683149 683707 679708 671028 657495 639237 615189 
2122.906 584674 546717 502200 453093 403488 357386 318234 286401 259695 
2127.245 233027 200815 158464 104921 42879 -21320 -80048 -125907 -154566 
2131.585 -164542 -158155 -139144 -112244 -80740 -47260 -12530 22942 59316 
2135.924 95975 132928 168870 203060 233088 256355 268579 266315 246214 
2140.264 208217 154929 92656 28530 -29868 -77880 -113465 -139102 -158517 
2144.604 -177115 -198965 -228181 -267087 -318681 -384716 -467380 -565373 
2148.461 -674800 -787218 -892689 -980969 -1047354 -1093480 -1130922 -1177224 
2152.318 -1253881 -1378689 -1563069 -1805137 -2092028 -2398353 -2692475 
2155.694 -2937344 -3097618 -3140623 -3045152 -2803220 -2430680 -1965465 
2159.069 -1467207 -1000059 -618007 -349117 -193675 -127566 -116664 -125891 
2162.926 -132138 -123843 -104780 -84759 -77891 -93097 -134257 -197108 
2166.784 -274212 -354650 -429472 -489803 -531084 -549853 -547338 -527277 
2170.641 -498747 -472221 -459224 -466008 -493426 -532519 -569186 -585886 
2174.499 -570262 -517563 -435269 -339456 -252451 -193755 -177597 -207421 
2178.356 -279225 -381899 -502106 -625392 -739828 -833575 -897852 -925621 
2182.213 -914505 -865948 -787012 -686932 -576841 -464621 -356473 -254394 
2186.071 -160953 -78549 -12643 31685 49591 42151 15666 -17647 -44916 -56060 
2190.893 -48702 -28798 -9077 -2861 -19418 -58299 -109930 -157507 -183796 
2195.232 -175568 -129950 -52783 41275 135112 212128 261858 279214 266846 
2199.572 231255 182902 132472 91053 67274 67523 94166 146651 220062 308599 
2204.394 404731 502331 594837 677088 742963 786735 802031 785264 736055 
2208.733 660142 568188 475555 397579 347674 332457 352047 399546 464530 
2213.073 534778 600037 652546 688789 707227 709688 699067 680580 659730 
2217.412 643800 638991 650954 682016 732157 797257 871351 946165 1013551 
2221.752 1065649 1096728 1103103 1084904 1045524 992465 935320 885124 850688 
2226.092 837703 845721 870106 902262 934249 959951 978375 992742 1009574 
2230.431 1034842 1072315 1120476 1173875 1222953 1258277 1271458 1258521 
2234.289 1218942 1157037 1079673 996297 916786 851652 809828 798184 819428 
2238.628 871798 948368 1038784 1130195 1211101 1272600 1310880 1326191 
2242.486 1322642 1305730 1281410 1254149 1227786 1204839 1188152 1179573 
2246.343 1180948 1192068 1211410 1235101 1258785 1277872 1289653 1292656 
2250.200 1287623 1275863 1259158 1238988 1217386 1197230 1183250 1181115 
2254.058 1196721 1233219 1289897 1360406 1434629 1500565 1548628 1573384 
2257.915 1575939 1561708 1538707 1513466 1489604 1466369 1441397 1411882 
2261.773 1378215 1344195 1316661 1302397 1306148 1327600 1361991 1400899 
2265.630 1435894 1460658 1473569 1476863 1476148 1477087 1484169 1498543 
2269.488 1518797 1541089 1560979 1574023 1577225 1568833 1549371 1520804 
2273.345 1487377 1454437 1428374 1414784 1417928 1439059 1476852 1527092 
2277.202 1584478 1643264 1699114 1748840 1791507 1827055 1856849 1882436 
2281.060 1906029 1929661 1955390 1984146 2015831 2048621 2079534 2104787 
2284.917 2121208 2126878 2121910 2107965 2087832 2064105 2038989 2013365 
2288.775 1987768 1962376 1938032 1915695 1896618 1881142 1868647 1857070 
2292.632 1843895 1826716 1804680 1778554 1750800 1724395 1701800 1683588 
2296.490 1668474 1653681 1636330 1614332 1587880 1559003 1531175 1507775 
2300.347 1491310 1482260 1479661 1481449 1485933 1492176 1500622 1512280 
2304.204 1528207 1548331 1571245 1594080 1613645 1627093 1633174 1632218 
2308.062 1626318 1617936 1609488 1602127 1596015 1590328 1584499 1578458 
2311.919 1573488 1571575 1574993 1585031 1601710 1623417 1647593 1671574 
2315.777 1693714 1713603 1732325 1751449 1772577 1796541 1823625 1853874 
2319.634 1888060 1927708 1975017 2031328 2095633 2163039 2224821 2269356 
2323.491 2285165 2263690 2202037 2103933 1979199 1841524 1705799 1584922 
2327.349 1487543 1416799 1370736 1343509 1327920 1317497 1308071 1298141 
2331.206 1288490 1280940 1277113 1277658 1282017 1288773 1296230 1302734 
2335.064 1307329 1309512 1309343 1307033 1303107 1298175 1293241 1289364 
2338.921 1287888 1289715 1295478 1304753 1316578 1329157 1340641 1349355 
2342.779 1354321 1355308 1352974 1348286 1342509 1336590 1331171 1326499 
2346.636 1322652 1319513 1317113 1315468 1314761 1314976 1316089 1317874 
2350.493 1320014 1322242 1324447 1326526 1328511 1330363 1331908 1332742 
2354.351 1332540 1331074 1328414 1325096 1322077 1320331 1320632 1322960 
2358.208 1326586 1329795 1330486 1326466 1316320 1299550 1276953 1250455 
2362.066 1222654 1196355 1174010 1157364 1147208 1143433 1145251 1151239 
2365.923 1159845 1169422 1178648 1186497 1192651 1197276 1201228 1205547 
2369.781 1211520 1219999 1231447 1245478 1261233 1277316 1292349 1305049 
2373.638 1314721 1321067 1324308 1324896 1323498 1320673 1317041 1313113 
2377.495 1309406 1306456 1304702 1304472 1306069 1309424 1314410 1320637 
2381.353 1327673 1334944 1341963 1348137 1353154 1356620 1358536 1358978 
2385.210 1358284 1356885 1355325 1353997 1353261 1353197 1353927 1355131 
2389.068 1356463 1357202 1356457 1353015 1345824 1333952 1317212 1296094 
2392.925 1272098 1247319 1224326 1205414 1192557 1186713 1188204 1196410 
2396.782 1210227 1228070 1248238 1268635 1287387 1302592 1313062 1318126 
2400.640 1318189 1314184 1307647 1299875 1291819 1283792 1275665 1267173 
2404.497 1258549 1250551 1244600 1242042 1243671 1249109 1256648 1263457 
2408.355 1266456 1263098 1252283 1234403 1211453 1186084 1161446 1139930 
2412.212 1123458 1112953 1108877 1111070 1119134 1132094 1148822 1167485 
2416.070 1186386 1203726 1218346 1229683 1237977 1243835 1248260 1251607 
2419.927 1253983 1254557 1252258 1245785 1234342 1217877 1197560 1175557 
2423.784 1154866 1138531 1129045 1127442 1133133 1143597 1155399 1164597 
2427.642 1168358 1165287 1156138 1143057 1129077 1116713 1107518 1101414 
2431.499 1097237 1093155 1087876 1080778 1072293 1063407 1055340 1048770 
2435.357 1043974 1040774 1039129 1039107 1041286 1046125 1053936 1064158 
2439.214 1075643 1086725 1096015 1102710 1107039 1110029 1113085 1117182 
2443.072 1122818 1129405 1136053 1141623 1145541 1147429 1147598 1146120 
2446.929 1143044 1138072 1131091 1122296 1112825 1104450 1099411 1099250 
2450.786 1104676 1114577 1126773 1138130 1145886 1148264 1144948 1136880 
2454.644 1125818 1113413 1100947 1088847 1077221 1065937 1055225 1045530 
2458.501 1037534 1031354 1026694 1022336 1016808 1008661 997458 983649 
2462.359 968998 955528 945175 938623 935504 934064 932187 928093 921277 
2466.698 912620 904448 899480 900018 906991 919445 934530 948409 957026 
2471.038 957626 949138 933129 912976 893497 879203 873623 878009 891391 
2475.377 910628 931573 949938 962650 968278 967266 961423 953274 944982 
2479.717 938162 933313 930270 928319 926899 925520 924057 922312 920067 
2484.057 916751 911683 904304 894365 882347 869388 857056 847304 841828 
2488.396 842173 849052 862792 882818 908089 936689 966365 994344 1018131 
2492.736 1035520 1045370 1047516 1043021 1033634 1021766 1009686 999564 
2496.593 992778 990298 992235 998281 1007397 1018214 1028994 1038248 1044806 
2500.933 1048362 1049401 1049252 1049496 1051708 1056734 1064728 1074930 
2504.790 1086284 1097586 1108121 1117596 1126378 1134854 1143577 1152489 
2508.648 1161329 1169351 1175879 1180308 1182654 1183360 1183630 1184631 
2512.505 1187703 1193352 1201470 1210652 1218980 1224067 1224209 1218703 
2516.363 1208661 1196490 1185640 1179264 1179591 1186903 1199923 1215802 
2520.220 1231656 1244942 1254660 1260756 1264421 1266675 1268456 1269731 
2524.077 1270210 1269353 1267310 1264530 1262054 1260635 1260630 1261413 
2527.935 1261959 1260987 1257863 1252686 1246542 1240683 1236408 1234141 
2531.792 1233468 1233398 1233081 1232034 1230843 1230576 1232610 1237559 
2535.650 1245509 1255333 1265891 1276005 1285587 1295207 1306193 1319390 
2539.507 1334875 1351109 1365707 1375479 1378264 1373212 1361746 1346763 
2543.365 1332297 1321861 1317923 1320835 1329543 1341678 1354853 1366966 
2547.222 1376915 1384244 1389011 1391010 1390102 1385848 1378376 1368284 
2551.079 1357222 1347303 1341011 1340048 1345199 1355790 1370300 1386489 
2554.937 1402395 1416405 1427917 1436655 1442950 1447025 1449410 1450533 
2558.794 1451314 1452764 1456037 1461837 1470219 1480230 1490186 1497986 
2562.652 1502114 1501717 1497376 1490451 1482999 1476750 1473039 1472213 
2566.509 1474239 1478610 1485224 1493823 1504609 1517375 1531744 1546820 
2570.366 1561488 1574583 1585437 1593669 1599440 1603112 1605263 1606074 
2574.224 1605744 1604305 1601879 1598569 1594825 1591192 1588589 1587985 
2578.081 1590804 1598328 1611785 1631562 1656954 1685728 1714572 1739281 
2581.939 1756089 1762440 1757962 1744249 1724952 1704199 1686050 1672931 
2585.796 1665704 1663284 1663524 1663756 1661908 1656683 1648078 1637087 
2589.654 1625361 1614728 1606836 1602537 1602017 1604606 1609426 1615443 
2593.511 1622115 1629384 1637763 1647794 1659741 1673082 1686717 1699118 
2597.368 1709052 1716204 1721426 1726344 1732926 1742222 1754007 1766217 
2601.226 1775921 1779902 1776290 1764847 1747549 1727663 1708904 1694118 
2605.083 1684733 1680427 1679896 1681408 1683745 1686538 1690366 1696223 
2608.941 1705101 1717493 1733272 1751711 1771749 1792177 1811868 1829573 
2612.798 1844155 1854448 1859588 1859103 1853379 1843637 1832007 1820921 
2616.656 1812729 1809045 1810506 1816340 1824988 1834336 1842638 1848774 
2620.513 1852776 1855606 1858738 1863591 1870939 1880550 1891270 1901447 
2624.370 1909365 1914014 1915285 1913947 1911494 1909420 1909080 1911218 
2628.228 1916085 1923531 1933310 1944742 1957270 1969785 1981038 1989625 
2632.085 1994355 1994765 1991189 1984877 1977595 1970871 1965725 1962167 
2635.943 1959274 1955829 1950739 1943684 1935292 1926818 1919817 1915340 
2639.800 1913804 1914723 1917066 1919462 1920881 1920715 1918831 1915592 
2643.657 1911596 1907446 1903829 1901209 1899872 1899808 1900671 1901882 
2647.515 1902799 1902932 1902217 1901153 1900634 1901595 1904709 1909726 
2651.372 1915736 1921159 1924251 1923671 1918980 1910639 1899846 1888290 
2655.230 1877518 1868737 1862547 1859101 1858043 1858819 1860633 1862474 
2659.087 1863250 1861941 1857693 1850102 1839338 1825937 1810732 1794493 
2662.945 1777758 1760777 1743595 1726258 1709203 1693167 1679161 1668180 
2666.802 1660908 1657407 1657222 1659441 1663042 1667200 1671369 1675341 
2670.659 1679029 1682322 1685122 1687250 1688533 1688937 1688612 1687757 
2674.517 1686497 1684814 1682536 1679395 1675307 1670489 1665462 1661028 
2678.374 1657898 1656404 1656487 1657442 1658353 1658363 1656994 1654381 
2682.232 1651280 1648756 1647835 1649113 1652486 1657203 1661914 1665209 
2686.089 1665968 1663667 1658529 1651375 1643380 1635608 1628728 1622822 
2689.947 1617500 1612160 1606320 1599909 1593424 1587759 1583920 1582738 
2693.804 1584487 1588788 1594638 1600754 1605911 1609151 1610064 1608757 
2697.661 1605692 1601674 1597510 1593988 1591698 1591003 1592013 1594555 
2701.519 1598288 1602793 1607745 1612862 1618189 1623801 1629787 1635948 
2705.376 1641857 1646768 1649880 1650574 1648749 1644821 1639754 1634804 
2709.234 1631154 1629578 1630406 1633255 1637553 1642527 1647684 1652781 
2713.091 1657961 1663526 1669768 1676696 1683911 1690735 1696129 1699169 
2716.948 1699124 1695991 1690391 1683583 1677193 1672866 1671719 1674099 
2720.806 1679590 1687039 1695113 1702578 1708655 1713040 1715953 1717703 
2724.663 1718566 1718769 1718441 1717820 1717454 1718088 1720684 1725702 
2728.521 1733272 1742579 1752414 1761251 1767981 1772132 1774153 1775110 
2732.378 1776379 1779137 1783937 1790661 1798573 1806655 1813875 1819404 
2736.236 1822772 1823746 1822355 1818715 1813279 1806587 1799580 1793161 
2740.093 1788223 1785459 1785156 1787101 1790883 1795856 1801514 1807460 
2743.950 1813436 1819285 1824776 1829539 1833186 1835366 1835901 1835067 
2747.808 1833374 1831643 1830827 1831740 1834957 1840728 1849076 1859658 
2751.665 1871985 1885531 1899648 1913661 1926846 1938339 1947397 1953268 
2755.523 1955494 1954063 1949411 1942547 1934827 1927626 1922205 1919113 
2759.380 1918324 1919180 1920686 1921672 1921478 1919712 1916625 1912626 
2763.238 1908271 1904045 1900219 1896930 1894496 1893263 1893658 1896158 
2767.095 1900875 1907457 1915179 1922866 1929401 1933821 1935743 1935287 
2770.952 1933058 1929812 1926424 1923585 1921810 1921472 1922759 1925652 
2774.810 1929985 1935301 1941104 1946788 1951960 1956451 1960420 1964110 
2778.667 1967856 1971839 1976066 1980313 1984524 1988803 1993532 1999285 
2782.525 2006549 2015493 2025933 2037128 2048186 2058273 2066984 2074346 
2786.382 2080763 2086843 2093077 2099717 2106726 2114142 2121899 2130187 
2790.240 2139239 2149161 2159850 2170797 2181203 2190285 2197626 2203369 
2794.097 2208132 2212983 2218939 2226632 2236178 2247030 2258331 2269334 
2797.954 2279605 2289247 2298836 2309072 2320400 2332829 2345604 2357467 
2801.812 2366921 2372659 2374099 2371496 2366088 2359627 2354045 2350916 
2805.669 2351092 2354463 2360300 2367429 2374902 2382178 2389353 2396910 
2809.527 2405533 2415556 2426941 2439157 2451616 2463719 2475371 2486685 
2813.384 2498090 2509795 2521770 2533523 2544480 2554308 2563102 2571622 
2817.241 2581024 2592554 2606990 2624447 2644355 2665849 2688098 2710607 
2821.099 2733481 2757113 2782000 2808211 2835519 2863359 2891318 2919342 
2824.956 2948100 2978601 3012113 3049534 3091118 3136428 3184463 3234015 
2828.814 3284054 3333899 3383377 3432611 3482093 3532528 3585038 3641087 
2832.671 3702509 3771231 3848916 3936495 4033988 4140602 4255105 4376236 
2836.529 4503530 4637410 4779473 4931807 5096707 5276322 5472258 5685771 
2840.386 5917740 6169090 6440711 6733521 7048174 7385070 7744219 8125426 
2844.243 8528219 8952145 9396489 9859825 10339736 10831977 11330377 11826774 
2848.101 12311389 12773401 13201897 13586433 13917989 14189431 14396012 
2851.476 14535506 14608520 14618188 14570034 14471133 14329626 14153856 
2854.851 13951738 13730381 13495763 13252783 13005289 12756175 12507443 
2858.227 12260522 12016227 11775298 11538356 11306351 11080591 10862422 
2861.602 10653154 10453463 10263518 10082631 9909870 9744244 9585334 9433418 
2865.459 9289436 9154698 9030237 8916338 8812367 8716685 8627196 8541856 
2869.317 8459274 8379150 8302194 8229995 8164397 8107076 8058939 8020226 
2873.174 7990329 7968274 7952926 7943429 7939220 7940276 7946766 7959150 
2877.031 7977826 8003271 8035947 8076241 8124654 8181439 8246729 8320383 
2880.889 8401954 8490807 8586436 8688342 8796365 8910493 9030678 9156483 
2884.746 9286867 9420265 9554689 9688123 9818996 9946474 10070565 10191744 
2888.604 10310823 10428136 10543730 10657018 10767112 10873149 10974579 
2891.979 11071213 11163188 11250684 11333800 11412268 11485904 11554546 
2895.354 11618605 11679073 11737619 11796175 11856604 11920243 11987661 
2898.729 12058709 12132651 12208651 12286144 12365354 12447228 12533528 
2902.105 12626463 12728301 12840803 12964785 13100044 13245250 13398391 
2905.480 13557401 13720784 13888161 14060430 14239651 14428431 14629441 
2908.855 14844786 15075822 15323260 15587647 15869680 16170506 16491742 
2912.230 16834956 17201262 17590670 18001940 18432494 18878774 19336410 
2915.606 19800492 20265544 20725476 21173436 21601920 22003242 22370056 
2918.981 22695978 22976398 23208312 23390626 23523766 23609220 23649440 
2922.356 23647738 23608242 23535884 23436078 23314426 23175870 23024266 
2925.731 22862104 22690466 22509504 22319018 22119294 21911148 21696294 
2929.107 21477164 21256306 21036328 20819352 20607128 20400810 20201080 
2932.482 20008150 19821544 19640406 19463404 19289122 19116428 18944712 
2935.857 18774054 18605104 18438662 18275248 18114740 17956174 17798052 
2939.232 17638640 17476698 17311848 17144680 16976566 16809184 16644078 
2942.608 16482045 16323230 16167253 16013412 15861289 15710759 15561962 
2945.983 15415020 15269735 15125363 14980714 14834653 14686348 14536025 
2949.358 14384720 14234389 14087084 13944371 13806914 13674051 13544324 
2952.733 13415889 13287315 13157952 13028237 12899297 12772503 12648757 
2956.109 12528051 12409507 12291466 12172110 12049921 11924144 11794885 
2959.484 11662926 11529291 11395017 11260626 11126189 10991368 10855804 
2962.859 10719362 10582372 10445774 10311002 10179595 10053062 9932304 
2966.234 9817498 9708037 9602511 9498956 9395209 9289178 9179113 9063936 
2970.092 8943291 8817651 8688305 8557124 8426287 8297792 8173078 8052765 
2973.949 7936616 7823768 7713068 7603652 7495306 7388283 7283255 7180648 
2977.807 7080310 6981382 6882459 6782134 6679788 6575859 6471939 6370345 
2981.664 6273100 6181369 6094793 6011767 5929938 5847225 5762450 5675979 
2985.521 5589249 5504316 5422940 5346229 5274283 5206712 5142937 5082766 
2989.379 5026434 4974401 4926828 4883003 4841360 4799623 4755297 4706703 
2993.236 4653261 4595756 4536141 4476885 4420285 4368033 4320815 4278318 
2997.094 4239628 4203245 4167742 4131756 4094405 4055320 4014748 3973622 
3000.951 3933193 3894895 3859782 3828140 3799517 3772551 3745459 3716397 
3004.809 3683995 3647688 3607788 3565347 3521945 3479087 3438162 3399836 
3008.666 3364188 3330594 3297858 3264710 3229905 3192939 3154000 3114100 
3012.523 3074914 3038242 3005460 2977068 2952434 2930124 2908169 2884719 
3016.381 2858497 2829148 2797150 2763537 2729513 2696233 2664359 2634361 
3020.238 2606330 2580380 2556374 2534214 2513662 2494373 2475999 2458214 
3024.096 2441008 2424584 2409208 2395085 2382265 2370515 2359344 2348334 
3027.953 2337199 2326070 2315236 2305073 2295735 2286834 2277594 2266941 
3031.811 2253915 2238055 2219760 2200082 2180749 2163568 2150053 2141124 
3035.668 2136844 2136784 2139915 2145021 2150957 2156752 2161822 2165993 
3039.525 2169633 2173550 2178831 2186757 2198353 2214351 2234692 2258888 
3043.383 2286101 2315679 2347193 2380952 2417783 2458511 2503882 2553811 
3047.240 2607408 2663023 2718790 2772866 2824029 2871758 2916027 2956945 
3051.098 2994516 3028283 3057257 3080522 3097253 3107260 3111024 3109640 
3054.955 3104608 3097253 3088778 3080093 3071716 3064032 3057175 3051072 
3058.813 3045353 3039475 3032767 3024832 3015848 3006706 2998962 2994359 
3062.670 2994437 2999704 3009593 3022414 3035956 3048154 3057529 3063613 
3066.527 3066756 3067602 3066743 3064167 3059583 3052469 3042626 3030514 
3070.385 3017150 3004136 2992869 2984305 2978704 2975528 2974017 2973380 
3074.242 2972992 2972761 2972664 2972713 2972773 2972614 2971735 2969854 
3078.100 2966806 2962630 2957576 2951917 2945911 2939830 2933915 2928436 
3081.957 2923561 2919248 2914893 2909366 2901050 2888284 2869698 2844729 
3085.814 2814099 2779519 2743403 2708486 2677011 2650460 2629269 2612991 
3089.672 2600686 2591113 2583051 2575583 2568195 2560597 2552809 2544924 
3093.529 2537268 2530267 2524341 2520210 2518513 2520024 2525130 2533763 
3097.387 2545138 2557678 2569220 2577604 2581156 2579495 2573593 2565847 
3101.244 2559229 2556548 2559239 2566992 2577745 2588114 2594649 2594570 
3105.102 2586782 2571923 2552154 2530336 2509459 2491672 2478172 2468853 
3108.959 2462585 2457480 2451240 2441599 2426908 2406588 2381198 2352562 
3112.816 2323314 2296089 2272763 2254114 2239427 2227140 2215228 2202316 
3116.674 2188038 2173106 2158947 2147178 2138766 2134005 2132308 2132743 
3120.531 2134354 2136659 2139458 2143119 2148064 2154756 2163437 2174246 
3124.389 2187037 2201273 2215937 2229428 2239859 2245208 2244184 2236271 
3128.246 2222508 2204897 2186050 2168337 2153403 2141764 2132820 2125487 
3132.104 2118530 2111130 2102705 2093054 2082010 2069529 2055526 2040330 
3135.961 2024708 2009674 1996293 1985145 1976009 1968094 1960231 1951700 
3139.818 1942735 1934717 1929642 1929432 1934922 1945272 1958151 1970431 
3143.676 1979261 1983095 1982035 1977751 1972471 1968269 1965884 1964916 
3147.533 1964149 1962079 1957914 1951737 1944521 1937663 1932158 1928303 
3151.391 1925559 1922571 1917823 1909939 1898185 1882648 1864226 1844593 
3155.248 1825867 1810391 1800136 1796363 1799138 1807205 1818274 1829507 
3159.105 1838346 1843072 1843322 1839899 1834427 1828476 1823032 1818192 
3162.963 1813309 1807426 1799725 1790088 1779154 1768036 1758128 1750448 
3166.820 1745709 1744115 1745380 1749058 1754524 1761076 1767897 1774400 
3170.678 1780108 1785094 1789836 1795230 1802169 1811188 1821915 1833072 
3174.535 1842667 1848437 1848760 1843101 1832395 1818893 1805420 1794728 
3178.393 1788706 1787825 1791159 1796639 1801726 1804049 1802059 1795145 
3182.250 1783956 1770009 1755270 1741841 1731443 1725230 1723579 1726127 
3186.107 1732064 1740387 1750082 1760454 1771087 1781948 1792963 1804004 
3189.965 1814599 1823902 1830670 1833668 1831962 1825283 1814305 1800623 
3193.822 1786520 1774633 1767257 1765765 1770343 1779931 1792376 1805148 
3197.680 1815800 1822730 1825184 1823516 1818645 1811980 1804690 1797731 
3201.537 1791566 1786495 1782433 1779348 1777121 1775701 1775065 1775235 
3205.395 1776352 1778792 1782912 1789077 1797301 1806949 1816858 1825188 
3209.252 1830116 1830197 1824836 1814699 1801543 1787790 1775878 1767553 
3213.109 1763527 1763447 1766116 1770038 1774036 1777615 1780816 1784171 
3216.967 1788259 1793440 1799454 1805816 1811867 1817098 1821412 1824928 
3220.824 1828055 1831043 1833848 1835993 1836863 1835753 1832413 1827005 
3224.682 1820438 1813901 1808835 1806420 1807361 1811812 1819211 1828498 
3228.539 1838394 1847547 1854892 1859712 1861823 1861439 1859178 1855549 
3232.396 1851084 1845923 1840098 1833425 1826066 1818553 1811832 1807335 
3236.254 1806366 1809742 1817453 1828363 1840657 1851966 1860148 1863698 
3240.111 1862192 1856104 1846686 1835634 1824665 1815273 1808501 1805112 
3243.969 1805305 1809068 1815838 1824942 1835443 1846395 1856860 1865934 
3247.826 1872863 1876827 1876964 1872529 1863239 1849516 1832768 1815331 
3251.684 1800072 1789688 1785970 1789116 1797842 1809673 1821748 1831872 
3255.541 1839006 1843475 1846677 1850263 1855491 1862765 1871398 1880187 
3259.398 1887699 1892707 1894498 1892851 1887919 1880279 1870635 1860297 
3263.256 1850757 1843691 1840457 1841638 1846667 1853933 1860961 1865249 
3267.113 1865020 1859734 1850157 1837989 1825368 1813996 1805013 1798783 
3270.971 1795437 1794922 1797207 1802248 1809597 1818015 1825676 1830374 
3274.828 1830402 1825340 1816342 1806242 1798723 1797283 1804014 1818922 
3278.686 1839853 1863061 1884298 1900070 1908600 1910115 1906748 1901739 
3282.543 1898601 1899983 1907207 1919937 1936400 1953918 1969600 1981016 
3286.400 1986794 1986732 1981778 1973585 1964011 1954633 1946369 1939505 
3290.258 1933789 1928790 1924254 1920115 1916836 1914938 1914876 1916937 
3294.115 1921012 1926670 1933259 1940116 1946588 1952254 1956902 1960511 
3297.973 1963279 1965516 1967620 1969992 1972940 1976477 1980380 1984096 
3301.830 1987037 1988614 1988560 1986875 1983902 1980374 1976944 1974201 
3305.688 1972402 1971490 1970911 1970043 1968053 1964284 1958281 1950020 
3309.545 1940012 1929224 1918989 1910864 1906262 1906205 1910965 1920064 
3313.402 1932215 1945750 1958811 1969907 1978100 1983266 1985838 1986628 
3317.260 1986426 1985757 1984663 1982901 1980178 1976407 1971788 1967122 
3321.117 1963325 1961301 1961496 1963778 1967467 1971604 1975206 1977714 
3324.975 1979118 1979874 1980742 1982593 1986066 1991618 1999475 2009772 
3328.832 2022589 2037704 2054392 2071377 2086645 2097864 2102928 2100622 
3332.689 2091337 2077120 2061454 2048363 2041421 2042646 2051875 2066779 
3336.547 2083608 2098188 2107119 2108758 2103620 2094103 2083641 2075792 
3340.404 2073004 2076111 2083912 2093839 2102579 2107028 2105017 2096048 
3344.262 2080872 2061422 2039979 2018679 1999040 1981905 1967701 1956506 
3348.119 1948569 1944138 1943384 1946273 1952166 1959873 1967987 1975170 
3351.977 1980520 1983980 1986146 1987941 1990221 1993413 1997171 2000737 
3355.834 2003122 2003545 2001735 1998121 1993558 1989062 1985321 1982650 
3359.691 1980745 1978953 1976382 1972162 1965931 1957621 1947706 1937101 
3363.549 1926967 1918592 1913118 1911269 1913192 1918347 1925595 1933297 
3367.406 1939758 1943440 1943345 1939121 1931288 1921078 1910288 1901001 
3371.264 1895061 1893996 1898398 1907918 1921167 1936086 1950353 1961838 
3375.121 1969225 1972090 1970864 1966610 1960677 1954209 1948069 1942812 
3378.979 1938789 1936377 1936007 1937951 1942302 1948710 1956209 1963677 
3382.836 1969989 1974405 1976833 1977763 1977999 1978327 1978938 1979470 
3386.693 1979149 1977213 1973194 1967628 1961980 1958197 1958373 1964001 
3390.551 1975346 1991387 2009918 2028160 2043297 2053265 2057125 2055160 
3394.408 2048826 2040176 2031421 2024512 2020818 2020831 2024449 2030946 
3398.266 2039327 2048522 2057572 2065871 2073201 2080043 2087263 2096224 
3402.123 2108400 2124961 2146162 2171319 2198387 2224495 2246319 2261164 
3405.980 2267591 2265918 2258353 2248471 2240524 2238250 2244369 2259905 
3409.838 2284201 2315303 2350414 2386647 2421312 2452420 2478749 2499880 
3413.695 2516303 2529395 2541031 2553556 2569184 2589482 2615019 2645107 
3417.553 2677701 2710068 2739187 2762710 2779351 2789384 2794315 2796626 
3421.410 2798961 2803710 2812160 2824587 2840372 2858186 2876597 2894368 
3425.268 2910652 2925020 2937138 2946849 2953843 2957791 2958543 2956191 
3429.125 2951460 2945594 2940085 2936591 2936251 2939794 2947061 2957405 
3432.982 2969504 2982002 2993215 3001576 3005412 3003186 2993677 2976314 
3436.840 2951562 2921104 2887810 2855340 2827175 2806031 2792757 2786355 
3440.697 2783970 2781874 2776432 2765134 2747292 2724080 2697962 2672026 
3444.555 2648875 2630043 2615715 2604916 2596113 2587576 2577955 2566276 
3448.412 2552107 2535251 2515638 2493569 2469604 2444810 2420595 2398701 
3452.270 2380709 2367548 2359452 2355725 2355216 2356626 2358863 2361227 
3456.127 2363371 2364852 2365008 2362673 2356450 2345116 2328146 2306028 
3459.984 2280579 2254208 2229475 2208323 2191638 2179128 2169503 2161167 
3463.842 2152655 2143058 2132225 2120528 2108852 2098222 2089697 2084408 
3467.699 2083335 2087120 2095812 2108644 2123778 2138777 2150843 2157675 
3471.557 2158103 2152393 2142375 2130745 2120525 2114143 2112767 2116096 
3475.414 2122625 2129974 2135573 2137260 2133735 2124810 2111373 2095221 
3479.271 2078740 2064324 2054044 2049302 2050369 2056628 2066620 2078581 
3483.129 2090873 2102268 2112333 2121067 2128936 2136445 2143898 2151342 
3486.986 2158729 2165849 2172561 2178806 2184384 2189037 2192272 2193479 
3490.844 2192233 2188464 2182944 2177048 2172805 2172131 2176506 2186201 
3494.701 2200118 2215966 2230657 2241239 2245698 2243421 2235451 2224104 
3498.559 2212390 2203061 2197930 2197504 2201007 2206841 2213042 2218009 
3502.416 2220964 2222070 2222364 2223565 2227406 2235431 2248243 2265386 
3506.273 2285190 2304919 2321316 2331382 2333225 2326676 2313456 2296975 
3510.131 2281211 2269872 2265295 2267933 2276712 2289606 2304394 2319543 
3513.988 2334354 2348579 2362041 2373958 2383240 2388597 2389539 2386742 
3517.846 2382381 2379345 2380370 2386914 2398553 2413242 2428101 2440809 
3521.703 2450604 2458553 2466872 2477945 2492796 2510726 2529174 2545004 
3525.561 2555530 2559729 2558273 2553252 2546911 2540769 2534972 2528686 
3529.418 2520781 2510675 2499022 2487450 2478110 2472502 2471044 2472832 
3533.275 2476120 2479385 2481865 2484156 2487852 2494847 2506535 2522945 
3537.133 2542816 2563588 2582295 2596132 2603331 2603399 2597157 2586905 
3540.990 2575602 2566646 2562998 2566748 2578365 2596661 2618939 2641634 
3544.848 2661314 2675432 2682957 2684457 2681749 2677115 2672719 2670008 
3548.705 2669665 2671619 2675548 2680782 2686521 2691675 2694866 2694466 
3552.563 2689118 2678104 2661805 2641993 2621472 2603631 2591574 2587300 
3556.420 2591401 2602587 2618259 2635016 2649321 2658364 2660524 2655581 
3560.277 2644817 2630295 2614414 2599046 2585056 2572156 2559109 2544355 
3564.135 2526814 2506497 2484581 2463107 2444378 2429848 2419709 2412760 
3567.992 2406915 2399880 2390153 2377301 2362021 2345839 2330133 2316035 
3571.850 2303783 2292970 2282720 2272156 2260352 2246695 2230524 2211552 
3575.707 2189861 2166293 2142578 2121214 2104955 2096094 2095487 2102236 
3579.564 2113808 2126694 2137624 2144443 2147018 2146862 2146585 2148691 
3583.422 2154662 2164320 2175762 2186341 2193381 2195255 2191537 2183371 
3587.279 2172612 2161406 2151305 2143036 2136391 2130698 2124931 2118306 
3591.137 2110607 2102061 2093417 2085966 2080985 2079841 2083608 2092770 
3594.994 2107067 2125401 2145567 2164858 2180314 2189514 2191101 2185277 
3598.852 2173769 2159732 2146732 2137937 2135382 2139744 2150084 2164626 
3602.709 2181134 2197806 2213103 2226249 2236299 2242378 2243162 2237524 
3606.566 2224842 2205782 2182441 2158358 2137678 2124049 2119702 2124592 
3610.424 2136759 2152715 2168869 2182190 2191244 2196161 2198069 2198532 
3614.281 2198802 2199399 2200166 2200410 2199622 2197595 2194704 2191824 
3618.139 2190147 2190828 2194743 2202393 2213682 2227968 2244060 2260316 
3621.996 2275153 2287243 2295976 2301849 2306298 2311381 2318940 2330196 
3625.854 2344747 2360937 2376047 2387271 2392652 2391603 2385196 2375759 
3629.711 2365820 2357270 2350661 2345270 2339390 2331493 2320810 2307999 
3633.568 2294966 2284362 2278605 2279176 2286017 2297565 2311048 2323387 
3637.426 2331938 2334975 2331834 2323175 2310440 2295524 2280531 2267385 
3641.283 2257687 2252442 2251981 2255939 2263217 2272138 2280731 2287085 
3645.141 2289740 2287996 2281877 2272275 2260576 2248371 2237059 2227670 
3648.998 2220583 2215702 2212304 2209591 2206645 2203011 2198333 2192992 
3652.855 2187428 2182366 2178224 2175209 2172980 2170676 2167279 2161707 
3656.713 2153432 2142687 2130380 2118513 2109272 2104771 2106277 2113854 
3660.570 2125968 2139722 2151390 2157355 2154945 2143346 2123552 2098208 
3664.428 2070869 2044880 2022554 2004726 1990807 1979444 1969063 1958853 
3668.285 1948676 1939249 1931321 1925323 1920813 1916720 1911703 1904789 
3672.143 1895867 1886019 1876846 1870246 1867338 1868372 1872276 1877154 
3676.000 1880949 1882034 1879729 1874453 1867486 1860604 1855546 1853643 
3679.857 1855440 1860778 1868462 1877073 1884725 1889872 1891676 1890157 
3683.715 1886305 1881871 1878436 1877249 1878520 1881410 1884375 1885845 
3687.572 1884633 1880540 1874134 1866452 1858472 1850354 1841555 1831096 
3691.430 1817938 1801784 1783364 1764322 1746825 1733073 1724601 1722104 
3695.287 1725348 1733396 1744714 1757559 1770025 1779917 1785179 1784186 
3699.145 1776190 1761711 1742693 1722347 1704278 1691747 1686687 1689312 
3703.002 1698248 1710870 1724426 1736734 1746714 1754462 1760686 1766203 
3706.859 1771375 1775791 1778208 1777296 1771887 1761941 1748440 1733570 
3710.717 1719815 1709699 1704540 1704388 1707817 1712490 1715982 1716579 
3714.574 1714065 1709560 1705179 1703210 1705111 1710921 1719321 1727873 
3718.432 1734299 1737201 1736679 1734388 1732868 1734389 1740222 1750033 
3722.289 1761866 1773143 1781342 1785190 1784823 1782034 1779207 1778676 
3726.146 1781852 1788837 1798345 1808456 1816947 1822379 1823901 1822000 
3730.004 1817724 1812660 1808294 1805877 1806136 1809345 1815294 1823660 
3733.861 1833954 1845616 1858157 1870979 1883303 1894454 1903718 1910754 
3737.719 1915561 1918754 1921270 1924175 1928134 1933374 1939192 1944284 
3741.576 1947081 1946328 1941296 1932623 1921677 1910754 1901937 1896834 
3745.434 1895860 1898364 1902740 1906892 1908933 1907646 1902539 1894264 
3749.291 1883977 1873499 1864414 1857853 1854132 1852598 1851755 1849716 
3753.148 1844785 1836092 1824127 1810700 1798768 1791539 1791656 1800430 
3757.006 1817124 1839427 1863501 1885468 1902014 1911394 1913391 1909376 
3760.863 1901489 1892164 1883303 1876320 1871945 1870482 1871882 1875856 
3764.721 1881938 1889271 1896682 1902782 1906410 1906792 1904006 1898932 
3768.578 1893023 1888086 1885611 1886497 1890631 1897432 1905462 1913266 
3772.436 1919429 1922912 1922981 1919469 1912591 1903270 1892694 1882698 
3776.293 1875193 1871927 1873963 1881406 1893195 1907444 1921698 1933714 
3780.150 1941932 1945932 1946180 1943778 1939918 1935410 1930508 1924818 
3784.008 1917732 1908969 1898645 1887481 1876569 1867089 1859814 1855038 
3787.865 1852406 1851296 1850884 1850714 1850505 1850219 1849781 1849064 
3791.723 1847775 1845545 1842247 1838198 1834200 1831535 1831411 1834772 
3795.580 1841872 1852115 1864308 1876785 1888032 1897016 1903457 1907709 
3799.438 1910804 1913963 1918396 1924959 1933817 1944641 1956335 1967382 
3803.295 1975997 1980673 1980375 1974835 1964546 1950824 1935186 1919226 
3807.152 1904080 1890450 1878413 1867918 1858901 1851593 1846364 1843750 
3811.010 1843984 1847026 1852356 1859360 1867414 1875994 1884922 1893942 
3814.867 1902709 1910583 1916593 1919905 1919956 1916948 1911739 1905646 
3818.725 1899962 1895555 1892467 1890094 1887554 1884041 1879246 1873489 
3822.582 1867628 1862715 1859555 1858790 1860472 1864449 1870337 1877315 
3826.439 1884411 1890189 1893044 1891679 1885772 1876220 1865230 1856021 
3830.297 1851724 1854319 1863948 1878498 1894427 1907831 1915689 1916867 
3834.154 1912380 1904845 1897193 1892085 1890780 1893319 1898546 1905074 
3838.012 1911628 1917464 1922221 1925719 1927826 1928390 1927396 1925076 
3841.869 1921932 1918528 1915202 1911784 1907670 1901970 1894105 1884086 
3845.727 1872802 1861736 1852407 1845924 1842599 1842030 1843383 1846102 
3849.584 1849996 1855645 1863488 1873940 1886486 1899617 1911371 1919615 
3853.441 1922916 1920780 1914045 1904415 1894073 1885446 1880708 1881640 
3857.299 1889307 1903802 1923822 1946683 1968517 1985015 1992290 1988216 
3861.156 1972814 1948479 1919222 1889524 1863304 1843010 1829481 1822266 
3865.014 1820319 1822631 1828426 1837253 1848596 1861653 1875349 1888271 
3868.871 1899266 1907593 1912941 1915435 1915324 1912799 1907965 1901144 
3872.729 1893127 1885278 1879439 1877414 1880400 1888450 1900346 1913922 
3876.586 1926644 1936447 1942198 1943999 1942837 1940167 1937391 1935239 
3880.443 1933685 1931922 1928689 1922737 1913205 1899924 1883714 1866343 
3884.301 1850310 1838335 1832798 1835160 1845592 1862903 1884830 1908589 
3888.158 1931418 1951076 1966113 1975706 1979784 1978843 1973871 1966328 
3892.016 1957975 1950702 1945960 1944426 1945789 1948824 1951793 1953314 
3895.873 1952773 1950820 1949037 1949514 1953700 1961977 1973223 1985283 
3899.730 1995477 2001582 2002509 1998493 1990984 1981825 1973056 1965974 
3903.588 1961127 1958320 1956796 1955493 1953627 1950805 1947327 1944189 
3907.445 1942937 1945206 1952284 1964316 1980138 1997382 2012887 2023573 
3911.303 2027533 2024491 2015848 2004408 1993255 1985117 1981518 1982956 
3915.160 1988935 1998552 2010903 2025161 2040305 2055006 2067321 2075171 
3919.018 2076741 2071055 2058992 2042785 2025906 2011838 2003237 2000867 
3922.875 2003467 2008422 2012233 2012138 2006702 1996434 1983494 1971025 
3926.732 1962081 1958742 1961444 1968952 1978648 1987478 1992582 1992418 
3930.590 1986839 1977280 1966150 1956310 1950251 1949633 1954934 1965563 
3934.447 1980006 1995997 2011096 2022848 2029286 2029191 2022641 2010955 
3938.305 1996640 1982969 1972992 1968823 1970795 1977547 1986230 1993528 
3942.162 1996705 1994386 1986951 1976447 1965758 1957788 1954789 1957804 
3946.020 1966586 1979802 1995126 2009806 2020877 2025823 2022946 2012085 
3949.877 1994801 1974257 1954597 1939861 1932960 1934732 1943816 1957088 
3953.734 1970749 1981486 1987122 1987245 1982648 1975014 1966079 1957393 
3957.592 1950205 1945774 1945109 1949008 1957670 1970091 1984096 1996485 
3961.449 2003951 2004208 1996616 1982753 1965674 1949150 1936143 1928143 
3965.307 1924511 1923323 1922082 1918900 1913379 1906619 1901015 1899186 
3969.164 1903139 1913610 1929658 1949010 1968595 1985205 1996150 1999867 
3973.021 1996009 1985570 1970602 1953594 1937328 1924044 1915233 1911656 
3976.879 1913273 1919581 1929742 1942826 1957820 1973445 1988182 2000416 
3980.736 2008624 2011763 2009711 2003428 1994806 1986358 1980417 1978694 
3984.594 1981671 1988708 1998166 2008040 2016501 2022184 2024634 2023943 
3988.451 2020605 2015327 2008497 2000515 1991596 1982086 1972655 1964092 
3992.309 1957493 1953769 1953430 1956462 1962387 1970481 1980091 1991150 
3996.166 2003818 2018783 2036404 2056565 2078073 2099012 2116754 2129041 
4000.023 2134463 2133030 
##END=
