##TITLE=Bambu-Lab_PLA-CF_Blue_Filament_r2_ATR-Corrected
##JCAMP-DX=5.01  $$ Nicolet v. 1
##DATATYPE=INFRARED SPECTRUM
##ORIGIN=Curtin University
##OWNER=Nicolet
##LONGDATE=2024/07/10
##TIME=14:05:21
##SPECTROMETER/DATA SYSTEM=Nicolet iS50
##DATA PROCESSING=
Ratio against background
%Transmittance->Absorbance
ATR Correction
Truncated
ElementMultiply or ElementDivide
##COMMENTS=
Number of sample scans: 32
Collection length: 47.27 sec
Sample gain: 1.0
Background collected on: Wed Jul 10 13:58:51 2024 (GMT+08:00);
Number of background scans: 32
Background gain: 1.0
Sample spacing:  1.000
Number of scan points: 16672
Resolution points: 8192
Number of FFT points: 65536
Apodization: N-B strong;
Phase correction: Mertz;
Laser frequency: 15798.3 cm-1
Number of rejected sample scans: 0
Number of rejected background scans: 0
Bench serial number: AUP1200105;
##RESOLUTION=4.000
##XUNITS=1/CM
##YUNITS=ABSORBANCE
##FIRSTX=400.163452
##LASTX=4000.187744
##FIRSTY=0.088368
##MAXX=4000.187744
##MINX=400.163452
##MAXY=1.154194
##MINY=-0.009358
##XFACTOR=1.000000
##YFACTOR=1.000000E-008
##NPOINTS=7468
##DELTAX=0.482125
##ZPD=8192
##XYDATA=(X++(Y..Y))
400.163 8836821 8710608 8598426 8505082 8429953 8368888 8315539 8263888 
404.020 8210302 8154525 8099212 8047711 8002202 7961759 7922323 7878019 
407.877 7823637 7756898 7680031 7599145 7522470 7457544 7408617 7375278 
411.734 7352859 7334126 7311681 7279898 7235963 7179747 7112868 7037741 
415.591 6956988 6873356 6790104 6711167 6640908 6583273 6540768 6513659 
419.448 6499860 6495610 6496799 6500046 6503393 6506205 6508466 6509962 
423.305 6509898 6506934 6500064 6489264 6475980 6462682 6451811 6444445 
427.162 6439379 6433147 6421183 6399471 6366303 6323145 6274304 6225485 
431.019 6181872 6146354 6118875 6096628 6075953 6053605 6028227 6000782 
434.876 5973971 5950865 5933570 5922157 5914700 5907979 5898848 5885428 
438.733 5867885 5848186 5829333 5814034 5803623 5797465 5793175 5787474 
442.590 5777357 5761120 5738995 5712827 5685401 5659390 5636531 5617263 
446.447 5601030 5586835 5573991 5562543 5553224 5547114 5544979 5546850 
450.304 5551911 5558727 5565824 5572042 5576758 5579798 5581017 5580054 
454.161 5576167 5568446 5556278 5539631 5519278 5496569 5472943 5449489 
458.017 5426657 5404431 5382821 5362387 5344554 5331378 5324904 5326178 
461.874 5334596 5347626 5361411 5371508 5375045 5370802 5359810 5344858 
465.731 5329549 5317110 5309684 5307945 5311424 5318978 5329382 5341533 
469.588 5354414 5366754 5376862 5382606 5381782 5372797 5355207 5330096 
473.445 5299926 5267917 5237300 5210429 5188445 5171224 5157789 5146925 
477.302 5137764 5130025 5124120 5120779 5120708 5124232 5131148 5140813 
481.159 5152299 5164614 5176916 5188524 5198831 5207235 5213056 5215503 
485.016 5213808 5207326 5195774 5179294 5158635 5135123 5110647 5087500 
488.873 5068134 5054716 5048789 5050809 5059988 5074301 5090931 5106857 
492.730 5119626 5127881 5131659 5132039 5131139 5130956 5132990 5137910 
496.587 5145601 5155400 5166497 5178210 5190141 5202148 5214273 5226616 
500.444 5239378 5252687 5266670 5281193 5295673 5308947 5319346 5325069 
504.301 5324823 5318344 5306878 5292924 5279673 5269984 5265430 5265739 
508.158 5268958 5272216 5272884 5269610 5262851 5254711 5248072 5245581 
512.015 5248695 5257312 5269963 5284428 5298443 5310306 5319018 5324198 
515.871 5325810 5323931 5318763 5310622 5300123 5288123 5275548 5263102 
519.728 5251100 5239450 5227954 5216687 5206309 5198157 5193881 5194907 
523.585 5201779 5213744 5228869 5244313 5257562 5266724 5271137 5271398 
527.442 5268885 5265134 5261212 5257340 5252915 5246890 5238350 5227022 
531.299 5213686 5200070 5188551 5181415 5180180 5184941 5194157 5204894 
535.156 5213535 5216809 5212788 5201465 5184800 5166099 5148960 5136182 
539.013 5129018 5126999 5128440 5131285 5133966 5135957 5137676 5140014 
542.870 5143599 5148306 5153208 5156974 5158556 5157857 5155892 5154535 
546.727 5155817 5161067 5170407 5182576 5195436 5206597 5214250 5217616 
550.584 5217067 5213745 5209162 5204631 5201019 5198682 5197586 5197466 
554.441 5198009 5198861 5199674 5200007 5199591 5198233 5195924 5192936 
558.298 5189733 5186866 5184869 5184135 5184978 5187619 5192359 5199484 
562.155 5209259 5221702 5236423 5252457 5268348 5282358 5292845 5298671 
566.012 5299496 5295912 5289321 5281597 5274753 5270526 5270148 5274248 
569.869 5282876 5295580 5311528 5329573 5348378 5366479 5382517 5395509 
573.725 5405039 5411465 5415855 5419654 5424265 5430562 5438589 5447568 
577.582 5456298 5463610 5468947 5472581 5475492 5478920 5483761 5490156 
581.439 5497403 5504313 5509858 5513764 5516810 5520660 5527295 5538163 
585.296 5553625 5572666 5593216 5612762 5629181 5641278 5649031 5653394 
589.153 5655908 5658197 5661707 5667500 5676245 5688264 5703396 5720992 
593.010 5739808 5758184 5774334 5786839 5795129 5799736 5802172 5804496 
596.867 5808696 5816053 5826846 5840331 5855052 5869421 5882132 5892538 
600.724 5900737 5907452 5913804 5921063 5930390 5942655 5958297 5977280 
604.581 5999060 6022742 6047296 6071780 6095532 6118263 6139936 6160640 
608.438 6180411 6199154 6216809 6233469 6249598 6266056 6283910 6304165 
612.295 6327450 6353846 6382982 6414262 6447170 6481457 6517095 6553974 
616.152 6591656 6629097 6664899 6697554 6726134 6750586 6771902 6791784 
620.009 6812051 6834094 6858465 6884885 6912573 6940781 6969049 6997449 
623.866 7026324 7056014 7086653 7118060 7150011 7182451 7215685 7250228 
627.723 7286456 7324151 7362184 7398614 7431126 7457787 7477722 7491439 
631.579 7500729 7508080 7515899 7525883 7538704 7554152 7571506 7590111 
635.436 7609677 7630355 7652554 7676556 7702262 7729033 7755804 7781294 
639.293 7804341 7824192 7840681 7854336 7866372 7878560 7892936 7911446 
643.150 7935441 7965314 8000234 8038225 8076522 8112173 8142783 8166978 
647.007 8184676 8196911 8205480 8212415 8219562 8228435 8240098 8255321 
650.864 8274585 8298062 8325498 8356076 8388359 8420482 8450437 8476562 
654.721 8497817 8514035 8525848 8534470 8541308 8547714 8554724 8563038 
658.578 8573090 8585111 8599258 8615640 8634233 8654894 8677271 8700806 
662.435 8724815 8748511 8771100 8791836 8810082 8825321 8837216 8845678 
666.292 8850929 8853518 8854374 8854651 8855572 8858184 8863079 8870292 
670.149 8879237 8888911 8898247 8906500 8913492 8919788 8926415 8934579 
674.006 8945130 8958135 8972835 8987747 9001163 9011643 9018512 9022026 
677.863 9023263 9023732 9024993 9028226 9034078 9042757 9054165 9068121 
681.720 9084442 9102928 9123261 9144892 9167054 9188834 9209350 9227940 
685.577 9244228 9258104 9269642 9278992 9286321 9291873 9296019 9299326 
689.433 9302465 9306102 9310649 9316067 9321856 9327204 9331255 9333520 
693.290 9334052 9333558 9333216 9334368 9338166 9345305 9355944 9369724 
697.147 9385923 9403583 9421656 9438990 9454406 9466750 9475031 9478640 
701.004 9477521 9472217 9463865 9453867 9443663 9434333 9426463 9420061 
704.861 9414679 9409595 9403969 9397003 9387903 9375902 9360300 9340515 
708.718 9316277 9287779 9255803 9221658 9187055 9153724 9123086 9095979 
712.575 9072511 9052099 9033650 9015755 8996887 8975465 8949897 8918606 
716.432 8880069 8832974 8776435 8710163 8634596 8550833 8460435 8365123 
720.289 8266531 8166008 8064584 7963142 7862509 7763663 7667689 7575772 
724.146 7489081 7408667 7335442 7270232 7213834 7167057 7130620 7105050 
728.003 7090432 7086324 7091725 7105358 7125945 7152705 7185589 7225410 
731.860 7273676 7332148 7402355 7485102 7580082 7685826 7799900 7919211 
735.717 8040587 8161205 8278960 8392686 8502079 8607509 8709643 8809076 
739.574 8906008 9000055 9090313 9175603 9254904 9327739 9394453 9456352 
743.431 9515431 9573994 9634123 9697147 9763441 9832406 9902776 9973092 
747.287 10042241 10109731 10175886 10241561 10307819 10375407 10444388 
750.662 10513969 10582602 10648306 10709132 10763529 10810551 10849824 
754.037 10881246 10904614 10919264 10923921 10916764 10895712 10858856 
757.412 10804860 10733156 10644161 10539111 10419919 10289005 10149097 
760.787 10002974 9853350 9702532 9552249 9403483 9256432 9110750 8965803 
764.644 8821075 8676513 8532641 8390524 8251573 8117214 7988620 7866580 
768.501 7751409 7643004 7540875 7444199 7351875 7262499 7174573 7086622 
772.358 6997603 6907027 6815139 6722831 6631413 6542209 6456246 6374027 
776.214 6295456 6220016 6147009 6075756 6005747 5936602 5868028 5799719 
780.071 5731296 5662453 5593078 5523358 5453794 5385131 5318087 5253135 
783.928 5190308 5129199 5069088 5009202 4948947 4888079 4826739 4765333 
787.785 4704451 4644698 4586744 4531309 4479224 4431424 4388803 4351958 
791.642 4320920 4294998 4272759 4252287 4231640 4209261 4184404 4157294 
795.499 4129013 4101200 4075642 4053840 4036808 4024898 4017897 4015149 
799.356 4015682 4018362 4021990 4025372 4027449 4027415 4024803 4019547 
803.213 4012053 4002997 3993160 3983253 3973700 3964642 3955907 3947155 
807.070 3938117 3928703 3919156 3910041 3902181 3896415 3893405 3893406 
810.927 3896170 3900973 3906762 3912441 3917129 3920346 3922052 3922569 
814.784 3922395 3921954 3921538 3921239 3921108 3921241 3921906 3923504 
818.641 3926464 3931062 3937297 3944925 3953557 3962893 3972981 3984164 
822.498 3997013 4011998 4029147 4047867 4066935 4084728 4099710 4110834 
826.355 4117833 4121241 4122134 4121783 4121189 4120897 4120930 4121049 
830.212 4121035 4121009 4121607 4123946 4129294 4138754 4152858 4171257 
834.068 4192886 4216126 4239288 4261284 4282002 4302588 4325266 4352804 
837.925 4387805 4432000 4485768 4548094 4616911 4689727 4764310 4839115 
841.782 4913461 4987298 5060816 5134063 5206756 5278337 5348164 5415772 
845.639 5480982 5543754 5603974 5661206 5714641 5763272 5806348 5843824 
849.496 5876646 5906826 5937151 5970843 6011076 6060767 6122549 6198916 
853.353 6292202 6404602 6537809 6692628 6868598 7063815 7275086 7498325 
857.210 7729125 7963276 8197118 8427730 8652849 8870775 9080226 9280247 
861.067 9470063 9648940 9816039 9970231 10110090 10234033 10340650 10429067 
864.924 10499178 10551752 10588107 10609740 10617926 10613466 10596856 
868.299 10568516 10529181 10479969 10422147 10356707 10283726 10202078 
871.674 10109481 10003132 9880465 9740094 9582309 9409140 9223923 9030650 
875.531 8833186 8634783 8437733 8243444 8052490 7864872 7680245 7498114 
879.387 7318179 7140618 6966329 6797085 6635354 6484043 6345989 6223568 
883.244 6118373 6031120 5961754 5909541 5873332 5851560 5842317 5843376 
887.101 5852310 5866698 5884381 5903704 5923580 5943391 5962748 5981225 
890.958 5998173 6012692 6023850 6030902 6033569 6032096 6027260 6020032 
894.815 6011516 6002578 5993905 5985868 5978625 5972187 5966394 5961026 
898.672 5955872 5950837 5946063 5941975 5939162 5938210 5939389 5942468 
902.529 5946672 5950873 5953925 5955112 5954438 5952640 5950943 5950650 
906.386 5952671 5957177 5963547 5970545 5976747 5980871 5982076 5980071 
910.243 5975045 5967431 5957803 5946682 5934531 5921786 5908919 5896483 
914.100 5885088 5875317 5867587 5862093 5858635 5856694 5855495 5854214 
917.957 5852173 5849046 5844960 5840371 5835902 5832006 5828696 5825423 
921.814 5821171 5814735 5805117 5791884 5775350 5756554 5736937 5717983 
925.671 5700826 5686033 5673616 5663164 5654052 5645682 5637637 5629698 
929.528 5621845 5614190 5606902 5600203 5594317 5589462 5585817 5583451 
933.385 5582368 5582460 5583615 5585721 5588731 5592629 5597440 5603200 
937.241 5609954 5617762 5626757 5637127 5649103 5662857 5678427 5695656 
941.098 5714215 5733731 5753926 5774762 5796506 5819651 5844841 5872685 
944.955 5903722 5938340 5976796 6019286 6065857 6116360 6170291 6226748 
948.812 6284500 6342228 6398792 6453576 6506627 6558542 6610130 6661984 
952.669 6714084 6765558 6814723 6859334 6897040 6925646 6943423 6949072 
956.526 6941689 6920618 6885396 6835776 6771843 6694223 6604241 6503918 
960.383 6395951 6283571 6170306 6059667 5954908 5858687 5772927 5698684 
964.240 5636173 5584946 5544096 5512563 5489229 5473073 5463133 5458482 
968.097 5458188 5461360 5467266 5475400 5485598 5497908 5512492 5529370 
971.954 5548311 5568729 5589820 5610785 5631045 5650455 5669312 5688235 
975.811 5707965 5729099 5751902 5776291 5801865 5828064 5854394 5880579 
979.668 5906689 5933125 5960572 5989786 6021406 6055727 6092556 6131254 
983.525 6170851 6210340 6248967 6286507 6323270 6360055 6397859 6437534 
987.382 6479556 6523963 6570304 6617935 6666227 6714740 6763326 6812101 
991.239 6861356 6911448 6962812 7015807 7070748 7127831 7187105 7248451 
995.095 7311684 7376608 7443188 7511650 7582467 7656233 7733495 7814589 
998.952 7899545 7988184 8080289 8175802 8274932 8378085 8485648 8597778 
1002.809 8714200 8834364 8957613 9083573 9212483 9345271 9483454 9628775 
1006.666 9782879 9947047 10122130 10308713 10507325 10718546 10943027 
1010.041 11181324 11433665 11699863 11979274 12271089 12574624 12889567 
1013.416 13216145 13554972 13906839 14272392 14651944 15045311 15451908 
1016.791 15870750 16300534 16739592 17185974 17637440 18091590 18546116 
1020.166 18999010 19448708 19894076 20334368 20769106 21198136 21621644 
1023.540 22040362 22455620 22869318 23283616 23700598 24122042 24549188 
1026.916 24983094 25425010 25876814 26341254 26821870 27322560 27847034 
1030.291 28398230 28978006 29587126 30225336 30891454 31583444 32298114 
1033.666 33031088 33776728 34528384 35278912 36021336 36749220 37456848 
1037.041 38138932 38790208 39405124 39977892 40502752 40974624 41389580 
1040.417 41745004 42039588 42272948 42445312 42557436 42610740 42607404 
1043.792 42550472 42443636 42290900 42096128 41862948 41594792 41295308 
1047.167 40968752 40620184 40255308 39880084 39500200 39120732 38746032 
1050.542 38379872 38025640 37686344 37364412 37061276 36777004 36510220 
1053.917 36258508 36019148 35790124 35570876 35362780 35168992 34994032 
1057.293 34843208 34722184 34636872 34593396 34598376 34658816 34781880 
1060.668 34974468 35242692 35591292 36023520 36540920 37143612 37830208 
1064.043 38598056 39443244 40360816 41345172 42390488 43491276 44642668 
1067.418 45840336 47079888 48356348 49663508 50994040 52340268 53695284 
1070.794 55054296 56415188 57778360 59145592 60518508 61897220 63279696 
1074.169 64662032 66039288 67406496 68759128 70093048 71403680 72685144 
1077.544 73929672 75127664 76268304 77340312 78332744 79235400 80039128 
1080.919 80735792 81318776 81783176 82126112 82346528 82444728 82421592 
1084.295 82278144 82015664 81636632 81145672 80550512 79861992 79093184 
1087.670 78257696 77368120 76434728 75465336 74465784 73441064 72396208 
1091.045 71336744 70268632 69197584 68128360 67064340 66007428 64958524 
1094.420 63917924 62886000 61863356 60850896 59849424 58859408 57880612 
1097.796 56912084 55952180 54999124 54051192 53107356 52167516 51232736 
1101.171 50305252 49388148 48485048 47599644 46735076 45893716 45076936 
1104.546 44285272 43518724 42777376 42061804 41373412 40714608 40088548 
1107.921 39498632 38948036 38439196 37973624 37551824 37173468 36837740 
1111.297 36543464 36289304 36073692 35894660 35749872 35636616 35552000 
1114.672 35493336 35458408 35445764 35454772 35485448 35538236 35613652 
1118.047 35712044 35833512 35977980 36145236 36335088 36547372 36781816 
1121.422 37037708 37313632 37607100 37914380 38230352 38548580 38861532 
1124.798 39160832 39437704 39683364 39889620 40049352 40157004 40208932 
1128.173 40203360 40140280 40020908 39847184 39621232 39344964 39019904 
1131.548 38647132 38227304 37760656 37247064 36686236 36077792 35421760 
1134.923 34718796 33970640 33180190 32351494 31489458 30599498 29687176 
1138.299 28757998 27817336 26870448 25922630 24979296 24045936 23128062 
1141.674 22231028 21359744 20518636 19711332 18940746 18209016 17517780 
1145.049 16868218 16261320 15697898 15178531 14703506 14272483 13884412 
1148.424 13537408 13228822 12955506 12714140 12501600 12315292 12153260 
1151.800 12014192 11897265 11801905 11727518 11673406 11638637 11622134 
1155.175 11622822 11639749 11672266 11720084 11783283 11862316 11957925 
1158.550 12071035 12202664 12353875 12525710 12719238 12935629 13176346 
1161.925 13443284 13738967 14066567 14429913 14833315 15281394 15778767 
1165.301 16330099 16939974 17613044 18354250 19168956 20062972 21042546 
1168.676 22114136 23284140 24558668 25943180 27442238 29059204 30795764 
1172.051 32651484 34623124 36704036 38883920 41148212 43478216 45850964 
1175.426 48239444 50612736 52936464 55173548 57285416 59233700 60982340 
1178.802 62499720 63760404 64746700 65449528 65868748 66012924 65898644 
1182.177 65549128 64992444 64259164 63380480 62386352 61304368 60159164 
1185.552 58972340 57762504 56545484 55334712 54141248 52974148 51840656 
1188.927 50746344 49695388 48690464 47733068 46823548 45961336 45145436 
1192.302 44374704 43648192 42965232 42325392 41728260 41173060 40658584 
1195.678 40183096 39744560 39340840 38969952 38630088 38319572 38036740 
1199.053 37779792 37546792 37335848 37145212 36973492 36819412 36681680 
1202.428 36558612 36447828 36346284 36250448 36156932 36062852 35966076 
1205.803 35865164 35758912 35645764 35523452 35388824 35238240 35068176 
1209.179 34875924 34660032 34420424 34157984 33874120 33570192 33247214 
1212.554 32905766 32546270 32169184 31775364 31366116 30943242 30508852 
1215.929 30065304 29614898 29159812 28701880 28242594 27782922 27323562 
1219.304 26865012 26407808 25952810 25501156 25054296 24613812 24181124 
1222.680 23757384 23343392 22939570 22546164 22163304 21791056 21429330 
1226.055 21077872 20736138 20403452 20079066 19762502 19453672 19152998 
1229.430 18861378 18579840 18309396 18050724 17804104 17569424 17346252 
1232.805 17134108 16932460 16740827 16558741 16385649 16221023 16064261 
1236.181 15914798 15772155 15635929 15505755 15381275 15262081 15147761 
1239.556 15038022 14932787 14832260 14736915 14647302 14563863 14486641 
1242.931 14415225 14348783 14286312 14226957 14170307 14116533 14066322 
1246.306 14020610 13980347 13946114 13918057 13895947 13879395 13868009 
1249.682 13861690 13860643 13865244 13875924 13892831 13915737 13944055 
1253.057 13976902 14013357 14052685 14094470 14138727 14185712 14235842 
1256.432 14289433 14346556 14407036 14470474 14536387 14604369 14674126 
1259.807 14745396 14817873 14890972 14963840 15035304 15104091 15169077 
1263.183 15229475 15284961 15335509 15381129 15421619 15456249 15483809 
1266.558 15502799 15511706 15509336 15495075 15468837 15430968 15381928 
1269.933 15322030 15251370 15169802 15077057 14972864 14857000 14729314 
1273.308 14589667 14437874 14273849 14097582 13909441 13710199 13501120 
1276.684 13283733 13059668 12830400 12597053 12360368 12120886 11879145 
1280.059 11635883 11392212 11149613 10909764 10674386 10445037 10223071 
1283.434 10009626 9805751 9612437 9430773 9261845 9106696 8966249 8841228 
1287.292 8732147 8639348 8563034 8503280 8460068 8433220 8422379 8427046 
1291.149 8446465 8479729 8525608 8582631 8648888 8722200 8800112 8880218 
1295.006 8960381 9039016 9115163 9188413 9258764 9326220 9390552 9451256 
1298.864 9507552 9558666 9604105 9643870 9678499 9708907 9736079 9760714 
1302.721 9783069 9802804 9819254 9831695 9839675 9843276 9843195 9840591 
1306.579 9836779 9832899 9829628 9827045 9824693 9821827 9817638 9811632 
1310.436 9803720 9794241 9783866 9773313 9763139 9753607 9744623 9735845 
1314.293 9726852 9717369 9707393 9697212 9687399 9678721 9671901 9667567 
1318.151 9666054 9667355 9671112 9676629 9682976 9689191 9694465 9698344 
1322.008 9700917 9702781 9704947 9708682 9715101 9725123 9739197 9757392 
1325.866 9779534 9805344 9834599 9867208 9903146 9942421 9985096 10031275 
1329.723 10081144 10135137 10193894 10258155 10328556 10405480 10488804 
1333.098 10578007 10672206 10770438 10871966 10976341 11083486 11193565 
1336.474 11306792 11423260 11542978 11665761 11791497 11920141 12051849 
1339.849 12186865 12325507 12468064 12614730 12765697 12921186 13081495 
1343.224 13247004 13418041 13594726 13776967 13964267 14155979 14351366 
1346.599 14549930 14751463 14956073 15164001 15375344 15589671 15805878 
1349.975 16022080 16235884 16444594 16645789 16837534 17018644 17188648 
1353.350 17347604 17495782 17633376 17760264 17875958 17979664 18070442 
1356.725 18147456 18210192 18258586 18293154 18314936 18325378 18326106 
1360.100 18318822 18305010 18285934 18262670 18236066 18206870 18175664 
1363.476 18142670 18107602 18069452 18026300 17975606 17914326 17839444 
1366.851 17748280 17638786 17509752 17360764 17192270 17005702 16803802 
1370.226 16590931 16373487 16159952 15960804 15787780 15653154 15568593 
1373.601 15544061 15586887 15700880 15885890 16137612 16447727 16804422 
1376.977 17193214 17598010 18002314 18390446 18748600 19065408 19332200 
1380.352 19542648 19692254 19777888 19797442 19750010 19636106 19457818 
1383.727 19219006 18924928 18581812 18196358 17775304 17325156 16851998 
1387.102 16361433 15858370 15346928 14830330 14311007 13790821 13271382 
1390.478 12754352 12241717 11735842 11239417 10755406 10286902 9837055 
1393.853 9408975 9005525 8629185 8281728 7964039 7675946 7416287 7183049 
1397.710 6973605 6785106 6614706 6459916 6318738 6189713 6071941 5964843 
1401.568 5867995 5780883 5702751 5632616 5569314 5511703 5458823 5409946 
1405.425 5364632 5322599 5283621 5247392 5213611 5182040 5152649 5125672 
1409.282 5101583 5080922 5064106 5051212 5041870 5035381 5030858 5027475 
1413.140 5024647 5022138 5019976 5018407 5017717 5018195 5020062 5023518 
1416.997 5028753 5035917 5045070 5056167 5069002 5083246 5098625 5114972 
1420.855 5132306 5150795 5170730 5192373 5215858 5241187 5268332 5297388 
1424.712 5328620 5362538 5399844 5441219 5487148 5537813 5593090 5652688 
1428.570 5716370 5784236 5856780 5934968 6020026 6113214 6215580 6327967 
1432.427 6451010 6585426 6732307 6893325 7070756 7267333 7485905 7729126 
1436.284 7999257 8298135 8627458 8989023 9384957 9817608 10289223 10801276 
1440.142 11353903 11945517 12572670 13230319 13912146 14611024 15319224 
1443.517 16028643 16730984 17418020 18082076 18716316 19315130 19874086 
1446.892 20389828 20859886 21282536 21656882 21982856 22261268 22493520 
1450.268 22681228 22825846 22928350 22989432 23009510 22989100 22928706 
1453.643 22828698 22688820 22508158 22285164 22018334 21706958 21351934 
1457.018 20955954 20523194 20058646 19567264 19053640 18521944 17976234 
1460.393 17420762 16859908 16297947 15738557 15184540 14637914 14100273 
1463.769 13573341 13059354 12561013 12081085 11621855 11184630 10769740 
1467.144 10376820 10005444 9655491 9327220 9020925 8736241 8471423 8223016 
1471.001 7985960 7754336 7522518 7286378 7044269 6797424 6549772 6307056 
1474.859 6075783 5861975 5670286 5503252 5361130 5242166 5143096 5060059 
1478.716 4989245 4927625 4873096 4824470 4781191 4742966 4709518 4680414 
1482.573 4655085 4632854 4613114 4595273 4578862 4563506 4548952 4535161 
1486.431 4522347 4510907 4501378 4494185 4489488 4487040 4486209 4486137 
1490.288 4485901 4484811 4482465 4478729 4473612 4467088 4459059 4449279 
1494.146 4437577 4423919 4408580 4392068 4375066 4358275 4342215 4327209 
1498.003 4313384 4300768 4289329 4279067 4269909 4261674 4254029 4246508 
1501.861 4238705 4230378 4221626 4212932 4205042 4198816 4194984 4193866 
1505.718 4195396 4199000 4203868 4209143 4214097 4218280 4221499 4223808 
1509.575 4225269 4226000 4226053 4225485 4224413 4223041 4221695 4220752 
1513.433 4220514 4221089 4222278 4223596 4224345 4223741 4221130 4216166 
1517.290 4208840 4199495 4188665 4176956 4164947 4153092 4141795 4131334 
1521.148 4122015 4114017 4107378 4101932 4097265 4092838 4088042 4082506 
1525.005 4076053 4068834 4061195 4053494 4046003 4038728 4031460 4023907 
1528.863 4015829 4007164 3998139 3989179 3980818 3973562 3967776 3963659 
1532.720 3961203 3960185 3960303 3961025 3961795 3962019 3961190 3959047 
1536.577 3955579 3951055 3945992 3940921 3936278 3932255 3928787 3925591 
1540.435 3922409 3919062 3915577 3912133 3908930 3906099 3903569 3901085 
1544.292 3898247 3894750 3890437 3885442 3880151 3875112 3870960 3868190 
1548.150 3867070 3867617 3869549 3872358 3875461 3878337 3880599 3882110 
1552.007 3882919 3883145 3882874 3882019 3880392 3877702 3873857 3869006 
1555.865 3863759 3858994 3855614 3854305 3855155 3857594 3860554 3862814 
1559.722 3863472 3862286 3859762 3856985 3855170 3855259 3857643 3862068 
1563.579 3867849 3874051 3879888 3884839 3888678 3891452 3893254 3894167 
1567.437 3894199 3893307 3891506 3888883 3885513 3881531 3877024 3872027 
1571.294 3866665 3861265 3856326 3852485 3850407 3850544 3852955 3857298 
1575.152 3862863 3868874 3874732 3880252 3885631 3891349 3897857 3905315 
1579.009 3913426 3921563 3928880 3934676 3938572 3940640 3941352 3941360 
1582.866 3941272 3941445 3941928 3942589 3943193 3943720 3944358 3945535 
1586.724 3947808 3951626 3957110 3964018 3971723 3979393 3986258 3991809 
1590.581 3995923 3998889 4001223 4003514 4006169 4009278 4012663 4015970 
1594.439 4018875 4021244 4023176 4024959 4026971 4029404 4032269 4035310 
1598.296 4038172 4040541 4042355 4043815 4045343 4047473 4050621 4054940 
1602.154 4060341 4066534 4073220 4080207 4087482 4095155 4103334 4112015 
1606.011 4120903 4129572 4137494 4144298 4149911 4154678 4159279 4164566 
1609.868 4171311 4179991 4190706 4203077 4216454 4229983 4242863 4254348 
1613.726 4263972 4271515 4277033 4280865 4283650 4286289 4289749 4294855 
1617.583 4302084 4311318 4321840 4332478 4341810 4348653 4352368 4352989 
1621.441 4351363 4348742 4346553 4345911 4347311 4350576 4355022 4359687 
1625.298 4363777 4366813 4368785 4369982 4370887 4371907 4373242 4374836 
1629.156 4376481 4377943 4379112 4380028 4380984 4382359 4384557 4387866 
1633.013 4392415 4398048 4404426 4411016 4417154 4422227 4425746 4427553 
1636.870 4427726 4426657 4424912 4423072 4421559 4420600 4420160 4420003 
1640.728 4419810 4419286 4418270 4416760 4414837 4412744 4410656 4408792 
1644.585 4407280 4406236 4405706 4405715 4406176 4406921 4407706 4408240 
1648.443 4408380 4408124 4407757 4407795 4408926 4411802 4416931 4424380 
1652.300 4433777 4444263 4454838 4464515 4472688 4479336 4484949 4490430 
1656.157 4496790 4504819 4514928 4526968 4540319 4554143 4567477 4579673 
1660.015 4590452 4599936 4608622 4617154 4626202 4636289 4647828 4660985 
1663.872 4675814 4692150 4709738 4728082 4746599 4764606 4781469 4796793 
1667.730 4810473 4822756 4834197 4845444 4857106 4869527 4882761 4896597 
1671.587 4910707 4924757 4938603 4952297 4966037 4980112 4994826 5010294 
1675.445 5026558 5043488 5060895 5078553 5096319 5114145 5132086 5150327 
1679.302 5169173 5188977 5210087 5232812 5257302 5283545 5311290 5340151 
1683.159 5369585 5399015 5427968 5456091 5483271 5509571 5535213 5560509 
1687.017 5585748 5611165 5636978 5663374 5690580 5718916 5748803 5780735 
1690.874 5815146 5852383 5892541 5935478 5980895 6028488 6078043 6129548 
1694.732 6183192 6239225 6297747 6358628 6421432 6485610 6550707 6616711 
1698.589 6684128 6753996 6827666 6906460 6991332 7082595 7180001 7282960 
1702.447 7390839 7503339 7620557 7742905 7870921 8005078 8145562 8292341 
1706.304 8445290 8604313 8769557 8941386 9120348 9306978 9501740 9704960 
1710.161 9916797 10137369 10366850 10605399 10853130 11110097 11376075 
1713.537 11650569 11932870 12222145 12517539 12818268 13123663 13433141 
1716.912 13746177 14062336 14381145 14702277 15025593 15351254 15679783 
1720.287 16012125 16349684 16694228 17048080 17413958 17795074 18195066 
1723.662 18617918 19067728 19548518 20064154 20618210 21214216 21855944 
1727.038 22547696 23294432 24101860 24976024 25923166 26949472 28061176 
1730.413 29265114 30569416 31983942 33520034 35189544 37002992 38967324 
1733.788 41084604 43351664 45761976 48308368 50986272 53795244 56738372 
1737.163 59819348 63038252 66387516 69849632 73397568 76997648 80613504 
1740.539 84209424 87751576 91207168 94542720 97723168 100712696 103477608 
1743.914 105989096 108224984 110169640 111812136 113145472 114166656 
1746.807 114878264 115290264 115419448 115287136 114914680 114319920 
1749.700 113515808 112512352 111319888 109952488 108428608 106768856 
1752.593 104992200 103112552 101137840 99071936 96918384 94684168 92381352 
1755.968 90026464 87637640 85231480 82820920 80414904 78019872 75641880 
1759.344 73288016 70967112 68688920 66462992 64297564 62199276 60173088 
1762.719 58222820 56351220 54560016 52849500 51218312 49663580 48181684 
1766.094 46768980 45422584 44140672 42921832 41764416 40665588 39620828 
1769.469 38624180 37668940 36748728 35858156 34993156 34150720 33328476 
1772.844 32524044 31734798 30957908 30190762 29431108 28677234 27927848 
1776.220 27181610 26437086 25692532 24946334 24197416 23445760 22692702 
1779.595 21940854 21193558 20454380 19726386 19011862 18312268 17628460 
1782.970 16961210 16311537 15680924 15071164 14484164 13921680 13385114 
1786.345 12875398 12393160 11938618 11511774 11112063 10738457 10389325 
1789.721 10062716 9756556 9469249 9199788 8947815 8713335 8496211 8295836 
1793.578 8110820 7939283 7779070 7628465 7486354 7352402 7226873 7110144 
1797.436 7002450 6903551 6812737 6728888 6650696 6576883 6506265 6437865 
1801.293 6370929 6304973 6239822 6175513 6112355 6050708 5990961 5933416 
1805.150 5878373 5826143 5777194 5731914 5690641 5653178 5618835 5586369 
1809.008 5554297 5521374 5487051 5451632 5416057 5381399 5348171 5315768 
1812.865 5282591 5246496 5205660 5159535 5109404 5058241 5010135 4969091 
1816.723 4938075 4918076 4908094 4905293 4906055 4906631 4903961 4895976 
1820.580 4881815 4861700 4836870 4809245 4781115 4754544 4730863 4710292 
1824.438 4691864 4673783 4654151 4631544 4605610 4576958 4546699 4515814 
1828.295 4484713 4453102 4420476 4386602 4352258 4319115 4289452 4265139 
1832.152 4247024 4234353 4225212 4217015 4207604 4195703 4181170 4164440 
1836.010 4146129 4126350 4104722 4080825 4054720 4027405 4000771 3976988 
1839.867 3957690 3943153 3932192 3922559 3911807 3898244 3881496 3862378 
1843.725 3842480 3823236 3805358 3788558 3771976 3754615 3736016 3716380 
1847.582 3696502 3677278 3659478 3643424 3629146 3616447 3605269 3595535 
1851.439 3587293 3580394 3574512 3569088 3563572 3557476 3550401 3541915 
1855.297 3531383 3517951 3500916 3480080 3456342 3431834 3409762 3393457 
1859.154 3385415 3386357 3394954 3408244 3422545 3434758 3443165 3447644 
1863.012 3449361 3449713 3449716 3449371 3447935 3444215 3437300 3426789 
1866.869 3412970 3396469 3378072 3358547 3338779 3319869 3303405 3290970 
1870.727 3283963 3282615 3285972 3291683 3296762 3298477 3295286 3287218 
1874.584 3275985 3264106 3254092 3247470 3244468 3243936 3243992 3242476 
1878.441 3237784 3229107 3216656 3201395 3184964 3169201 3155908 3146270 
1882.299 3140842 3139294 3140668 3143619 3147200 3150874 3154900 3159797 
1886.156 3166191 3173934 3182369 3190405 3197068 3202133 3206452 3211404 
1890.014 3218365 3227570 3237705 3245833 3248518 3242830 3227870 3205350 
1893.871 3179173 3154355 3135583 3125441 3124169 3129446 3137586 3144535 
1897.729 3147287 3144271 3135686 3123038 3108790 3095773 3086792 3084136 
1901.586 3089418 3102809 3123036 3147280 3171457 3190944 3201623 3200636 
1905.443 3187312 3163309 3132503 3100133 3072134 3053652 3048363 3057335 
1909.301 3079041 3109250 3142200 3171699 3192759 3202536 3201053 3190506 
1913.158 3174712 3157465 3141602 3128304 3117635 3108886 3101734 3096352 
1917.016 3093763 3094884 3100133 3108395 3117611 3124600 3126660 3121618 
1920.873 3108898 3088979 3063467 3033980 3002388 2970040 2938323 2908364 
1924.730 2881404 2858183 2839193 2824218 2812863 2804501 2799120 2796961 
1928.588 2798981 2805708 2817186 2831951 2847632 2861145 2870223 2873854 
1932.445 2873710 2873280 2877623 2891305 2917244 2954988 3000754 3047498 
1936.303 3086943 3111314 3116118 3101372 3072352 3038166 3009592 2995828 
1940.160 3001762 3026112 3062010 3098728 3125810 3135871 3127683 3105554 
1944.018 3078357 3055156 3042571 3041534 3047989 3053739 3049935 3029782 
1947.875 2991042 2936199 2872152 2807930 2753295 2716655 2704387 2719361 
1951.732 2761175 2825518 2904714 2988567 3066569 3129321 3171240 3190704 
1955.590 3190677 3176076 3152528 3123358 3089772 3050528 3004157 2950397 
1959.447 2892231 2835125 2786110 2750935 2733001 2731747 2743651 2763119 
1963.305 2784455 2802666 2814768 2819422 2817664 2812425 2809453 2815165 
1967.162 2837346 2881583 2950355 3040563 3144884 3251733 3349758 3429061 
1971.020 3484705 3515457 3523826 3512308 3483362 3437730 3377525 3307633 
1974.877 3238960 3187350 3171293 3206291 3299835 3446214 3627685 3817957 
1978.734 3991211 4128271 4222040 4274685 4295024 4291661 4270514 4231969 
1982.592 4173866 4092952 3989096 3866091 3732773 3599523 3476718 3371057 
1986.449 3285302 3218327 3167642 3130887 3108027 3100741 3111666 3141718 
1990.307 3189829 3251082 3318790 3384886 3442182 3484384 3507066 3506380 
1994.164 3480819 3430428 3359488 3276224 3193207 3124131 3081798 3072660 
1998.021 3096443 3144586 3204425 3262992 3311306 3345877 3368375 3381168 
2001.879 3384755 3375065 3346123 3293384 3220139 3139754 3075266 3051052 
2005.736 3085007 3177204 3307108 3436187 3522542 3533489 3459550 3315547 
2009.594 3136846 2965200 2837263 2773851 2777577 2835676 2928073 3033529 
2013.451 3136602 3228018 3304191 3363784 3406831 3432753 3442231 3436764 
2017.309 3419751 3394448 3364659 3332433 3300497 3271176 3248024 3232836 
2021.166 3225896 3221154 3208252 3173583 3106697 3005322 2879380 2749704 
2025.023 2642738 2581051 2575990 2622453 2702341 2791206 2868851 2925124 
2028.881 2964041 2997768 3040886 3100709 3175164 3251887 3315088 3350354 
2032.738 3351129 3317889 3257669 3178897 3090335 2999604 2915782 2849926 
2036.596 2816175 2827238 2891261 3005418 3156459 3321192 3472478 3585865 
2040.453 3645922 3648623 3601664 3519673 3420727 3320723 3232256 3162046 
2044.311 3112831 3082922 3068657 3064834 3067606 3075285 3089766 3115476 
2048.168 3157284 3216666 3289689 3365547 3430386 3471097 3480893 3460963 
2052.025 3421249 3376407 3341432 3325994 3331380 3349285 3365595 3364928 
2055.883 3337400 3281124 3203672 3118500 3040862 2983024 2951477 2945279 
2059.740 2958114 2980286 3002587 3018234 3025164 3026034 3027406 3037412 
2063.598 3063617 3109720 3174233 3249507 3323868 3384475 3421534 3430806 
2067.455 3415758 3385536 3352180 3325934 3312716 3312107 3319191 3327255 
2071.313 3331312 3329815 3325204 3321560 3322553 3328887 3338461 3347063 
2075.170 3351466 3351117 3349332 3352066 3365852 3394554 3437575 3489209 
2079.027 3540330 3580454 3601536 3599186 3574223 3531419 3478292 3422407 
2082.885 3370257 3325531 3289427 3261009 3238672 3220820 3207093 3198183 
2086.742 3195634 3200714 3213650 3232766 3254592 3274257 3286614 3287092 
2090.600 3272948 3243218 3199134 3143433 3080842 3017333 2960619 2919087 
2094.457 2901123 2912290 2954094 3021798 3105449 3191207 3265493 3317856 
2098.314 3344080 3345924 3330040 3304176 3274974 3245603 3216292 3185838 
2102.172 3154177 3123658 3099422 3087162 3091201 3111797 3144953 3183255 
2106.029 3218916 3246283 3264126 3275193 3285005 3298821 3319577 3346581 
2109.887 3376019 3402236 3420021 3425623 3417770 3397145 3366232 3328128 
2113.744 3286828 3246298 3210672 3182981 3164681 3154626 3149488 3143891 
2117.602 3132795 3112418 3082099 3043865 3001590 2959016 2918192 2878506 
2121.459 2837528 2792131 2740794 2684307 2626295 2571861 2526028 2492000 
2125.316 2470604 2459916 2456669 2456111 2453187 2441878 2415430 2366305 
2129.174 2288356 2178480 2039792 1882396 1723707 1584687 1485745 1441095 
2133.031 1455089 1520412 1620909 1736099 1847457 1942748 2017867 2073948 
2136.889 2114013 2138227 2142341 2118481 2059586 1962964 1834020 1686097 
2140.746 1537319 1404485 1298913 1221815 1166232 1120049 1072719 1019668 
2144.604 966256 925162 912383 939453 1008663 1109438 1220688 1315966 1371290 
2148.943 1370839 1311442 1201687 1058743 903189 753867 623003 515099 425785 
2153.283 343727 252166 134839 -21336 -218906 -446434 -673641 -855406 -935782 
2157.622 -863311 -606253 -169132 403831 1036619 1646533 2165570 2556186 
2161.480 2809820 2940674 2970957 2925099 2824573 2690109 2542568 2404744 
2165.337 2297846 2238212 2230500 2267187 2328425 2389495 2427723 2431109 
2169.195 2399360 2344317 2282202 2228039 2189387 2165221 2147059 2125270 
2173.052 2092978 2050732 2005250 1967588 1947447 1950557 1976222 2018707 
2176.909 2068652 2116897 2154860 2176789 2178497 2159755 2123333 2077530 
2180.767 2034653 2009632 2015532 2059416 2138229 2238884 2340780 2422737 
2184.624 2468400 2471932 2438851 2384345 2328303 2290046 2282933 2312675 
2188.482 2375458 2461326 2555193 2641821 2706939 2741463 2741550 2710564 
2192.339 2656926 2593461 2533728 2489986 2470588 2478967 2513558 2569413 
2196.197 2638805 2713120 2783291 2841231 2879947 2896046 2890290 2869202 
2200.054 2843439 2826466 2829256 2857520 2908230 2970384 3027564 3064079 
2203.911 3068971 3040860 2987291 2922367 2861263 2816604 2794233 2794166 
2207.769 2811346 2839766 2874116 2911474 2950040 2988274 3022957 3049847 
2211.626 3064075 3062731 3045977 3017999 2985378 2955651 2934643 2925620 
2215.484 2928217 2940943 2961429 2989180 3025213 3072137 3131852 3204335 
2219.341 3285378 3367253 3438751 3488348 3506604 3489306 3438846 3364435 
2223.198 3279702 3200056 3138657 3103611 3096610 3113889 3147718 3189983 
2227.056 3233901 3275613 3313579 3347607 3376607 3399323 3413756 3419662 
2230.913 3419077 3417579 3422531 3441148 3477479 3530406 3593490 3656764 
2234.771 3709549 3744034 3756999 3750386 3729553 3701638 3672466 3646007 
2238.628 3623870 3606210 3592649 3583134 3577829 3577065 3580471 3587429 
2242.486 3596526 3606862 3617704 3629207 3641565 3654864 3668394 3680617 
2246.343 3689275 3692155 3687101 3673013 3649687 3618354 3581444 3543148 
2250.200 3508516 3483214 3472004 3477718 3499781 3534681 3576250 3618155 
2254.058 3655389 3686556 3713391 3740159 3770907 3807616 3848575 3888891 
2257.915 3921827 3941271 3943562 3928865 3900406 3863833 3825101 3789553 
2261.773 3760815 3740966 3730268 3727917 3731797 3739137 3746457 3750942 
2265.630 3750719 3746236 3739794 3735214 3735978 3744312 3759779 3779855 
2269.488 3800460 3818223 3831225 3840159 3847320 3855650 3867219 3882286 
2273.345 3899335 3916057 3930664 3943035 3954941 3969828 3991358 4022281 
2277.202 4063029 4111668 4163767 4213670 4255616 4285504 4301534 4305293 
2281.060 4301096 4295240 4293921 4301613 4319190 4343869 4369717 4390012 
2284.917 4399413 4396273 4383071 4365590 4350542 4343051 4344449 4352090 
2288.775 4360018 4361674 4352186 4330273 4298403 4261973 4227110 4198916 
2292.632 4179937 4170097 4167218 4168339 4170642 4172018 4171245 4167838 
2296.490 4161613 4152934 4142442 4131464 4121790 4115345 4113762 4117896 
2300.347 4127417 4141003 4156622 4171995 4184982 4193989 4197940 4196550 
2304.204 4190271 4180455 4169162 4158925 4152213 4150763 4155112 4164460 
2308.062 4176946 4190315 4202557 4212532 4220036 4225508 4229569 4232663 
2311.919 4234786 4235900 4236055 4235740 4235878 4237609 4241844 4249081 
2315.777 4259307 4272228 4287582 4305389 4325802 4349139 4375651 4405592 
2319.634 4439320 4477661 4521573 4571611 4626654 4682950 4733509 4768845 
2323.491 4778995 4756246 4697502 4605746 4489814 4362429 4237557 4127268 
2327.349 4039291 3975996 3934599 3909258 3893191 3880978 3869669 3858547 
2331.206 3848289 3839769 3833035 3827430 3821904 3815845 3809455 3803672 
2335.064 3799735 3798399 3799472 3801912 3804015 3804374 3802231 3797731 
2338.921 3791749 3785474 3779890 3775679 3773076 3772171 3772867 3774949 
2342.779 3778046 3781442 3784098 3785102 3783840 3780458 3775799 3771251 
2346.636 3767984 3766434 3766038 3765309 3762288 3755406 3744126 3729235 
2350.493 3712530 3696458 3683089 3673771 3668763 3667317 3668117 3669799 
2354.351 3671237 3671762 3671164 3669560 3667140 3664127 3660457 3655895 
2358.208 3649889 3641793 3630972 3617200 3600719 3582516 3564066 3546925 
2362.066 3532508 3521385 3513369 3507571 3502695 3497767 3492303 3486569 
2365.923 3481166 3477017 3474586 3473899 3474411 3475411 3476126 3476127 
2369.781 3475382 3474041 3472539 3471189 3470374 3470414 3471623 3474329 
2373.638 3478663 3484519 3491380 3498528 3505019 3510145 3513448 3514951 
2377.495 3514988 3514184 3513226 3512935 3514177 3517973 3525229 3536522 
2381.353 3551748 3569685 3588228 3604665 3616490 3622071 3621438 3616034 
2385.210 3608279 3600881 3595716 3593479 3593714 3595315 3597295 3599463 
2389.068 3602451 3607605 3616163 3628777 3644851 3662961 3680875 3696491 
2392.925 3707949 3714326 3715312 3711235 3702707 3690764 3676531 3661381 
2396.782 3646598 3633323 3622209 3613428 3606600 3601302 3597195 3594312 
2400.640 3592861 3592965 3594181 3595479 3595269 3592299 3586220 3578399 
2404.497 3571689 3569816 3576017 3591739 3615649 3643876 3670741 3690829 
2408.355 3700215 3698137 3686589 3669935 3653062 3640131 3633364 3632949 
2412.212 3637341 3644218 3651345 3657159 3660838 3662265 3661621 3659227 
2416.070 3655465 3650923 3646601 3643821 3644133 3649032 3659303 3675015 
2419.927 3694847 3716866 3738299 3756377 3768528 3773062 3769238 3757564 
2423.784 3739480 3717181 3693238 3670224 3650260 3634991 3625361 3621820 
2427.642 3624196 3631860 3643659 3658013 3672782 3685800 3695137 3699632 
2431.499 3699232 3695225 3689706 3685171 3683605 3685855 3691287 3698242 
2435.357 3704247 3707363 3706467 3701799 3694788 3687540 3681929 3679302 
2439.214 3679862 3682891 3687060 3690752 3692586 3691649 3687644 3680857 
2443.072 3672198 3663293 3656137 3653061 3655920 3665824 3682360 3703522 
2446.929 3725811 3745166 3757868 3761784 3756953 3745746 3732251 3721038 
2450.786 3715648 3718036 3727735 3742412 3758711 3773563 3784926 3792427 
2454.644 3796889 3799852 3802376 3804607 3805413 3802802 3794816 3780228 
2458.501 3759512 3734698 3709104 3686360 3669313 3659248 3655686 3656453 
2462.359 3658419 3658746 3655553 3648498 3638998 3629767 3623903 3624358 
2466.216 3632826 3649542 3672950 3700154 3727434 3751072 3767979 3776444 
2470.073 3776240 3768473 3755270 3739051 3722169 3706485 3693341 3683740 
2473.931 3678368 3677846 3682423 3691662 3704081 3717252 3728231 3734326 
2477.788 3734075 3727968 3718457 3709385 3704945 3707843 3718781 3735902 
2481.646 3755433 3773144 3785573 3791320 3791254 3788034 3785147 3785480 
2485.503 3790616 3800437 3813284 3826709 3838038 3845130 3846617 3842056 
2489.361 3831999 3818024 3802396 3788064 3777890 3774073 3777471 3787225 
2493.218 3800850 3814926 3825946 3831360 3830190 3823265 3812661 3801206 
2497.075 3791504 3785586 3784432 3788163 3795873 3806125 3816948 3826266 
2500.933 3832110 3833296 3829913 3823360 3816169 3811251 3810851 3815633 
2504.790 3824318 3834031 3841305 3843540 3839755 3831096 3820371 3810718 
2508.648 3804271 3801585 3801162 3800480 3797093 3789750 3779124 3767597 
2512.505 3758463 3754876 3758759 3770240 3787591 3807909 3827773 3844082 
2516.363 3854621 3858538 3856409 3849906 3841569 3834068 3829537 3828964 
2520.220 3831842 3836415 3840091 3840357 3835726 3826289 3813655 3800654 
2524.077 3790368 3785282 3786551 3793848 3805567 3819381 3832715 3843506 
2527.935 3850190 3852173 3849576 3843271 3834594 3825203 3816660 3810224 
2531.792 3806573 3805691 3807189 3810346 3814609 3819498 3824842 3830335 
2535.650 3835692 3840406 3844155 3846897 3849038 3851450 3854848 3859439 
2539.507 3864380 3867886 3867836 3862798 3853041 3840996 3830980 3828052 
2543.365 3836237 3857298 3889669 3929085 3969526 4005386 4032636 4049923 
2547.222 4058429 4061001 4060657 4059814 4059530 4059641 4059357 4057863 
2551.079 4054685 4050041 4044465 4038703 4033440 4029157 4026276 4024965 
2554.937 4025409 4027336 4030212 4033116 4034904 4034479 4031285 4025418 
2558.794 4017580 4009141 4001676 3996714 3995233 3997964 4004910 4015706 
2562.652 4029411 4044778 4060170 4073895 4084356 4090388 4091492 4087957 
2566.509 4080645 4071126 4061215 4052624 4046812 4044791 4046813 4052464 
2570.366 4060571 4069734 4078308 4085127 4089845 4093033 4096056 4100698 
2574.224 4108191 4119067 4132657 4147432 4161398 4172961 4181400 4187004 
2578.081 4190847 4194238 4198171 4202790 4207604 4211534 4213616 4213471 
2581.939 4211434 4208560 4206254 4205822 4208135 4213348 4221016 4230262 
2585.796 4239894 4248987 4256785 4263000 4267722 4271314 4274052 4276123 
2589.654 4277284 4277064 4274767 4270060 4262927 4254132 4244825 4236400 
2593.511 4229826 4225536 4223207 4221964 4220991 4219855 4218791 4218556 
2597.368 4220089 4224188 4230826 4239487 4249198 4259055 4268604 4277888 
2601.226 4287292 4297166 4307500 4317786 4327135 4334748 4340204 4343581 
2605.083 4345399 4346302 4346693 4346654 4345905 4344142 4341345 4337890 
2608.941 4334579 4332245 4331590 4333001 4336543 4342342 4350589 4361627 
2612.798 4375558 4392114 4410011 4427304 4441461 4450535 4453446 4450743 
2616.656 4444278 4436756 4430730 4427838 4428375 4431446 4435447 4438845 
2620.513 4440618 4440532 4438984 4436710 4434410 4432641 4431901 4432590 
2624.370 4435130 4439970 4447306 4456987 4468457 4480881 4493510 4505881 
2628.228 4517859 4529589 4541170 4552321 4562487 4570780 4576708 4580133 
2632.085 4581716 4582619 4584067 4586832 4590942 4595544 4599439 4601552 
2635.943 4601241 4598745 4594820 4590458 4586257 4582374 4578452 4574046 
2639.800 4568966 4563427 4558362 4554823 4553943 4556359 4562164 4570934 
2643.657 4581895 4594109 4606658 4618573 4629005 4637178 4642588 4645087 
2647.515 4645083 4643545 4641549 4640073 4639602 4639852 4639946 4638797 
2651.372 4635443 4629609 4621770 4612994 4604510 4597210 4591384 4586543 
2655.230 4581691 4575712 4567871 4558023 4546615 4534710 4523397 4513563 
2659.087 4505569 4499112 4493257 4486685 4478039 4466266 4450887 4432278 
2662.945 4411567 4390392 4370535 4353478 4340139 4330564 4324169 4319815 
2666.802 4316379 4312976 4309086 4304617 4299760 4294654 4289546 4284620 
2670.659 4280179 4276654 4274634 4274744 4277325 4282150 4288446 4294910 
2674.517 4300052 4302529 4301575 4297106 4289626 4280093 4269534 4258854 
2678.374 4248705 4239518 4231608 4225225 4220589 4217793 4216765 4217109 
2682.232 4218346 4219907 4221430 4222843 4224385 4226472 4229575 4233915 
2686.089 4239335 4245376 4251299 4256244 4259420 4260248 4258434 4254023 
2689.947 4247261 4238789 4229352 4219838 4211163 4204066 4199113 4196572 
2693.804 4196407 4198398 4202102 4206936 4212197 4217072 4220531 4221590 
2697.661 4219325 4213101 4202954 4189441 4173903 4157927 4143346 4131738 
2701.519 4124140 4120964 4122042 4126719 4134145 4143392 4153748 4164637 
2705.376 4175660 4186511 4196922 4206583 4214984 4221612 4225953 4227468 
2709.234 4225979 4221631 4215095 4207420 4199996 4194235 4191190 4191414 
2713.091 4194693 4200181 4206555 4212382 4216459 4218019 4216903 4213492 
2716.948 4208483 4202755 4197137 4192282 4188620 4186422 4185755 4186646 
2720.806 4189087 4192941 4198085 4204352 4211462 4219061 4226832 4234344 
2724.663 4241091 4246624 4250557 4252592 4252726 4250968 4247767 4243524 
2728.521 4238643 4233535 4228464 4223587 4219063 4215121 4212087 4210363 
2732.378 4210291 4212074 4215568 4220206 4225221 4229638 4232665 4233957 
2736.236 4233613 4232376 4231186 4231085 4232686 4236224 4241352 4247367 
2740.093 4253458 4259015 4263699 4267508 4270670 4273370 4275695 4277445 
2743.950 4278432 4278487 4277655 4276171 4274462 4272892 4271605 4270439 
2747.808 4268990 4266786 4263523 4259221 4254397 4249638 4245728 4243071 
2751.665 4241747 4241318 4241258 4240924 4240040 4238561 4236835 4235354 
2755.523 4234573 4234690 4235761 4237355 4239089 4240446 4241055 4240754 
2759.380 4239734 4238409 4237615 4238270 4241151 4246813 4255225 4265680 
2763.238 4276879 4287228 4295285 4300003 4301217 4299603 4296458 4293398 
2767.095 4291789 4292528 4295728 4300944 4307132 4313256 4318316 4321608 
2770.952 4322864 4322218 4320180 4317580 4315417 4314615 4315947 4319574 
2774.810 4325251 4332065 4338928 4344669 4348533 4350290 4350330 4349366 
2778.667 4348241 4347554 4347621 4348318 4349464 4350858 4352510 4354612 
2782.525 4357480 4361159 4365605 4370503 4375353 4379804 4383844 4387771 
2786.382 4392092 4397438 4404223 4412543 4422188 4432805 4443934 4455307 
2790.240 4466810 4478461 4490204 4501835 4512906 4522876 4531072 4536995 
2794.097 4540527 4541973 4542075 4541935 4542843 4546041 4552434 4562399 
2797.954 4575669 4591352 4608083 4624368 4638984 4651176 4660847 4668439 
2801.812 4674673 4680187 4685248 4689750 4693231 4695303 4695850 4695314 
2805.669 4694634 4695025 4697755 4703598 4712682 4724516 4738116 4752224 
2809.527 4765699 4777729 4787981 4796599 4804203 4811617 4819945 4829990 
2813.384 4842485 4857556 4875019 4894218 4914252 4934403 4954174 4973420 
2817.241 4992297 5011152 5030123 5049075 5067675 5085436 5102153 5117942 
2821.099 5133554 5149990 5168386 5189442 5213310 5239388 5266494 5293254 
2824.956 5318395 5341222 5361616 5380267 5398331 5417294 5438645 5463719 
2828.814 5493296 5527438 5565515 5606157 5647652 5688308 5727201 5764321 
2832.671 5800833 5838884 5881094 5929845 5986913 6053111 6128392 6212478 
2836.529 6305085 6406663 6518239 6641453 6778102 6929891 7098266 7284651 
2840.386 7490556 7718002 7969685 8248709 8558303 8901354 9280188 9696184 
2844.243 10150052 10641652 11169942 11732014 12322439 12931955 13546801 
2847.619 14148729 14715655 15223713 15649632 15973453 16180786 16264138 
2850.994 16223194 16064444 15799525 15443996 15015510 14532678 14013782 
2854.369 13476180 12935431 12404827 11894930 11413348 10964808 10551349 
2857.744 10172750 9827426 9512766 9226078 8964776 8726842 8510813 8315705 
2861.602 8140672 7984725 7846611 7724709 7617196 7522324 7438817 7366173 
2865.459 7304747 7255497 7219677 7198216 7191313 7198141 7216861 7244868 
2869.317 7279210 7317179 7356566 7396098 7435261 7474437 7514608 7556959 
2873.174 7602624 7652349 7706223 7763631 7823419 7884154 7944583 8003872 
2877.031 8061913 8119086 8175925 8232704 8289050 8343897 8395663 8442768 
2880.889 8484257 8519948 8550731 8578157 8603929 8629538 8655880 8683328 
2884.746 8711886 8741497 8772282 8804499 8838364 8873974 8911023 8949059 
2888.604 8987787 9027371 9068717 9113428 9163276 9219881 9283923 9354974 
2892.461 9431399 9510797 9590725 9668945 9744171 9816064 9885019 9952164 
2896.319 10018795 10086436 10156415 10229762 10307156 10388815 10474412 
2899.694 10563301 10654664 10747918 10842877 10940060 11040467 11145436 
2903.069 11256276 11374155 11499746 11633637 11776351 11928718 12091932 
2906.444 12267619 12457795 12664637 12890582 13138439 13411434 13713443 
2909.820 14048746 14421660 14836030 15294427 15797606 16343985 16929576 
2913.195 17548050 18190958 18848090 19507928 20157858 20784608 21374788 
2916.570 21915628 22395388 22804324 23134982 23382656 23545528 23624518 
2919.945 23623126 23546976 23403298 23200236 22946272 22649434 22316892 
2923.321 21954708 21567838 21160414 20736312 20299572 19854474 19405800 
2926.696 18958268 18516338 18083676 17663040 17256204 16864366 16488427 
2930.071 16129440 15788509 15466951 15165924 14886123 14627656 14389971 
2933.446 14172055 13972813 13791350 13627207 13480504 13351807 13241884 
2936.822 13151494 13080868 13029851 12997502 12982191 12981531 12992609 
2940.197 13011996 13035947 13060683 13082573 13098302 13105136 13100900 
2943.572 13084053 13053589 13009037 12950516 12878686 12794672 12699951 
2946.947 12596251 12485080 12367475 12243921 12114254 11978177 11835632 
2950.323 11687238 11534690 11380612 11228094 11079953 10938087 10803127 
2953.698 10674231 10549689 10427777 10307272 10188220 10071561 9959082 
2957.073 9852409 9752411 9658999 9571002 9486882 9405184 9325157 9246896 
2960.930 9171155 9098816 9030379 8965639 8903661 8843120 8782843 8722071 
2964.788 8661044 8600586 8541858 8485912 8433392 8384181 8337713 8293061 
2968.645 8249344 8206109 8163275 8121176 8080426 8041700 8005499 7972155 
2972.503 7941877 7914687 7890697 7870089 7853204 7840683 7833218 7831512 
2976.360 7836228 7847851 7866471 7892030 7924179 7962528 8006707 8056628 
2980.218 8112324 8174086 8242299 8317339 8399582 8489385 8587236 8693808 
2984.075 8810096 8937286 9076828 9229846 9397058 9578170 9771827 9975388 
2987.932 10185207 10396941 10606020 10808285 11000242 11179525 11344759 
2991.308 11495363 11631211 11752106 11857587 11946854 12018759 12072106 
2994.683 12105945 12120027 12114602 12090679 12049584 11992920 11922134 
2998.058 11838549 11743318 11637380 11521836 11397819 11266404 11128718 
3001.433 10985616 10837635 10685050 10528033 10366809 10201924 10034423 
3004.809 9865683 9697377 9530963 9367482 9207202 9049892 8894631 8740501 
3008.666 8586866 8433694 8281890 8132985 7988998 7851861 7722945 7602632 
3012.523 7490319 7384278 7282185 7181660 7080761 6978643 6875583 6772922 
3016.381 6672737 6577139 6487790 6405192 6328825 6257251 6188359 6120204 
3020.238 6051330 5981172 5910014 5838790 5768784 5701263 5637207 5577363 
3024.096 5522137 5471878 5426793 5387068 5352626 5323100 5297560 5274773 
3027.953 5253007 5230359 5205266 5176599 5143952 5107932 5069989 5032078 
3031.811 4996524 4965390 4939983 4920778 4906901 4896788 4888248 4879267 
3035.668 4868228 4854545 4838533 4821202 4803889 4787940 4774294 4763464 
3039.525 4755481 4749960 4746234 4743477 4740595 4736478 4730114 4720843 
3043.383 4708633 4694217 4678961 4664569 4652526 4643855 4638611 4636251 
3047.240 4635677 4635856 4636108 4636120 4635933 4635755 4635380 4634458 
3051.098 4632499 4629295 4625158 4620966 4617988 4617272 4619217 4623267 
3054.955 4627834 4630954 4630866 4626512 4618202 4607163 4595461 4585119 
3058.813 4577713 4574132 4574192 4577359 4582457 4588313 4593687 4597424 
3062.670 4598715 4597107 4592830 4586722 4580245 4574974 4572025 4571883 
3066.527 4573716 4575907 4576374 4573443 4566314 4555730 4543555 4532347 
3070.385 4524597 4522034 4525207 4533414 4545121 4558412 4571423 4582764 
3074.242 4591378 4596759 4598534 4596766 4591579 4583480 4573384 4562378 
3078.100 4551855 4543134 4537217 4534688 4535567 4539454 4545467 4552642 
3081.957 4560094 4567137 4573496 4579095 4584189 4588934 4593279 4596748 
3085.814 4598493 4597634 4593410 4585776 4575345 4563515 4551957 4542079 
3089.672 4534561 4529190 4524866 4520149 4513893 4505772 4496420 4487213 
3093.529 4479658 4474855 4472913 4473038 4473776 4473763 4472180 4469196 
3097.387 4465807 4463510 4463632 4466788 4472675 4480165 4487648 4493583 
3101.244 4496895 4497254 4494999 4490999 4486532 4482817 4480940 4481764 
3105.102 4485501 4491826 4499790 4507756 4513917 4516661 4514913 4508713 
3108.959 4499071 4487883 4477480 4469887 4466435 4467383 4471944 4478713 
3112.816 4485994 4492277 4496748 4499311 4500435 4501131 4502276 4504691 
3116.674 4508495 4513314 4518284 4522059 4523506 4521727 4516559 4508600 
3120.531 4499132 4489961 4482787 4479150 4479766 4484651 4492980 4503313 
3124.389 4513930 4523124 4529486 4532208 4531011 4526452 4519447 4511414 
3128.246 4503709 4497438 4493095 4490593 4489259 4488139 4486385 4483248 
3132.104 4478608 4472647 4465923 4459101 4452888 4447961 4445018 4444532 
3135.961 4446890 4452083 4459511 4467984 4475923 4481864 4484821 4484758 
3139.818 4482779 4480748 4480683 4483953 4490783 4500068 4509584 4516906 
3143.676 4520001 4518088 4511716 4502662 4493162 4485492 4481009 4480229 
3147.533 4482759 4487649 4493823 4500507 4507321 4514224 4521636 4529794 
3151.391 4538734 4548032 4556761 4563560 4566936 4565863 4559959 4549991 
3155.248 4537643 4525357 4515566 4510116 4509670 4513624 4520325 4527786 
3159.105 4534190 4538646 4541060 4542078 4542641 4543388 4544579 4545965 
3162.963 4547124 4547796 4548033 4548152 4548574 4549668 4551511 4553852 
3166.820 4556497 4559296 4562290 4565588 4568964 4571830 4573047 4571299 
3170.678 4565511 4555400 4541756 4526578 4512396 4501751 4496320 4496568 
3174.535 4501566 4509466 4518141 4525808 4531606 4535634 4538998 4543071 
3178.393 4549278 4558437 4570517 4584715 4599680 4613779 4625508 4634014 
3182.250 4639034 4640936 4640462 4638415 4635387 4631637 4627297 4622443 
3186.107 4617456 4613035 4610076 4609299 4611012 4614789 4619638 4624423 
3189.965 4628193 4630651 4632303 4634019 4636721 4640691 4645363 4649423 
3193.822 4651220 4649449 4643615 4634453 4623604 4613167 4605093 4600828 
3197.680 4600798 4604658 4611246 4618998 4626094 4631044 4632586 4630356 
3201.537 4625044 4618459 4613165 4611940 4616880 4628647 4646018 4666118 
3205.395 4685095 4699389 4706601 4706287 4699828 4689982 4679727 4671535 
3209.252 4666466 4664461 4664458 4665126 4665364 4664866 4663838 4663173 
3213.109 4663686 4666368 4671704 4679739 4690035 4701669 4713372 4723636 
3216.967 4731234 4735505 4736546 4735380 4733641 4733003 4734716 4739212 
3220.824 4745860 4753317 4759904 4764260 4765758 4764703 4762034 4759144 
3224.682 4757280 4757162 4758847 4761836 4765213 4768016 4769481 4769429 
3228.539 4768150 4766571 4765921 4767551 4772437 4781013 4792882 4806894 
3232.396 4821321 4834102 4843460 4848064 4847334 4841589 4831838 4819765 
3236.254 4807368 4796644 4789412 4786762 4788974 4795271 4804125 4813325 
3240.111 4820707 4824569 4824054 4819292 4811294 4801594 4791858 4783565 
3243.969 4777738 4774957 4775333 4778690 4784506 4792261 4801408 4811450 
3247.826 4822208 4833682 4845851 4858447 4870648 4881057 4887801 4889318 
3251.684 4884779 4874774 4861274 4847259 4835763 4828870 4826986 4828650 
3255.541 4831430 4832715 4830952 4826206 4820098 4814915 4812802 4814631 
3259.398 4819924 4826996 4833969 4839424 4843013 4845552 4848226 4852219 
3263.256 4858050 4865426 4873711 4881966 4889696 4896734 4902935 4908140 
3267.113 4911824 4913221 4911759 4907417 4900943 4893930 4888136 4885100 
3270.971 4885472 4889053 4894912 4901851 4909106 4916273 4923510 4930907 
3274.828 4938249 4944739 4949187 4950444 4947721 4941266 4932155 4922020 
3278.686 4912600 4905203 4900516 4898412 4898413 4899864 4902136 4904771 
3282.543 4907438 4909736 4911391 4911988 4911471 4909904 4907967 4906366 
3286.400 4906127 4907896 4911953 4917926 4925155 4932520 4939076 4944211 
3290.258 4947847 4950503 4953158 4956899 4962548 4970413 4980066 4990343 
3294.115 4999562 5005968 5008102 5005127 4997196 4985204 4970891 4956405 
3297.973 4943885 4935219 4931562 4932996 4938503 4946197 4953633 4958364 
3301.830 4958840 4954671 4946888 4937381 4928517 4921883 4917990 4915943 
3305.688 4913996 4910303 4903923 4895375 4886588 4880247 4878849 4883576 
3309.545 4893952 4907861 4922333 4934561 4942785 4946707 4947496 4947069 
3313.402 4947459 4950031 4955184 4962270 4969974 4976450 4979995 4979092 
3317.260 4972978 4961629 4946125 4928422 4911091 4896874 4887913 4885310 
3321.117 4888775 4896691 4906625 4916005 4922789 4925862 4925142 4921490 
3324.975 4916301 4911097 4907204 4905509 4906346 4909406 4913848 4918370 
3328.832 4921616 4922408 4920211 4915102 4907970 4899981 4892274 4885422 
3332.689 4879711 4874832 4870717 4867342 4865189 4864853 4866596 4870078 
3336.547 4874268 4877534 4878502 4876405 4871641 4865526 4859981 4856587 
3340.404 4856212 4858791 4863555 4869524 4876056 4882921 4890178 4897839 
3344.262 4905410 4911941 4916432 4918126 4917390 4915507 4914575 4916521 
3348.119 4922542 4932513 4945127 4958275 4970013 4978792 4984070 4985844 
3351.977 4984482 4980222 4973293 4963915 4952799 4941139 4930708 4923010 
3355.834 4919118 4919031 4921865 4926289 4930989 4935289 4939312 4943417 
3359.691 4947881 4952403 4955879 4956981 4954777 4949207 4941331 4932877 
3363.549 4925562 4920251 4916759 4913855 4910338 4905564 4900200 4895965 
3367.406 4895051 4898866 4907323 4918633 4929774 4937662 4940078 4936684 
3371.264 4928865 4919241 4910690 4905244 4903982 4906659 4912470 4920571 
3375.121 4930271 4941259 4953210 4965316 4976384 4984689 4988793 4987687 
3378.979 4981507 4971377 4959309 4947286 4936951 4928861 4922589 4916848 
3382.836 4910283 4901722 4890956 4878648 4866186 4855310 4847433 4843149 
3386.693 4842181 4843403 4845461 4847080 4847746 4847762 4848150 4850116 
3390.551 4854604 4861657 4870547 4879836 4888070 4894274 4898316 4900849 
3394.408 4903162 4906299 4910986 4917045 4923864 4930346 4935561 4938812 
3398.266 4939756 4938081 4933577 4925927 4915059 4901325 4886026 4871169 
3402.123 4859348 4852966 4853641 4861378 4874680 4890712 4906180 4918224 
3405.980 4925138 4926606 4923744 4918466 4912835 4908603 4906718 4907341 
3409.838 4910055 4914009 4918383 4922362 4925406 4926979 4926799 4924665 
3413.695 4920463 4914211 4906345 4897565 4888911 4881694 4877201 4876391 
3417.553 4879607 4886276 4895077 4904068 4911317 4915477 4916146 4914109 
3421.410 4911100 4909014 4909461 4912977 4918874 4925360 4930239 4931415 
3425.268 4927757 4919100 4906370 4891162 4875260 4860092 4846729 4835653 
3429.125 4827144 4821203 4817901 4817146 4818669 4821871 4825848 4829393 
3432.982 4831375 4830985 4828090 4823173 4817516 4812796 4810721 4812701 
3436.840 4819232 4829872 4843149 4856797 4868377 4875746 4877937 4875052 
3440.697 4868598 4860871 4854378 4851089 4851945 4856513 4863428 4870769 
3444.555 4876851 4880446 4881542 4880645 4878968 4877587 4877254 4878148 
3448.412 4880094 4882534 4885060 4887195 4888964 4890474 4891854 4893388 
3452.270 4895313 4897699 4900546 4903772 4907023 4909908 4911953 4912805 
3456.127 4912365 4910909 4909026 4907485 4907057 4908037 4910474 4913788 
3459.984 4917292 4920287 4922536 4924040 4925342 4927059 4929760 4933708 
3463.842 4938723 4944369 4950063 4955154 4959249 4962099 4963597 4963860 
3467.699 4963065 4961535 4959825 4958532 4958436 4960230 4964521 4971616 
3471.557 4981592 4994102 5008687 5024466 5040679 5056161 5069957 5081258 
3475.414 5089693 5095472 5099538 5103249 5108187 5115487 5125602 5137950 
3479.271 5151234 5163745 5174138 5181764 5187316 5192297 5198735 5208400 
3483.129 5222236 5239830 5259856 5280129 5298472 5313318 5324078 5331228 
3486.986 5335950 5339943 5344752 5351453 5360504 5371630 5383968 5396324 
3490.844 5407461 5416263 5422154 5425073 5425727 5425324 5425606 5428130 
3494.701 5434303 5444823 5459752 5478385 5499608 5522137 5544796 5566681 
3498.559 5587085 5605500 5621310 5633914 5642622 5646974 5646886 5642871 
3502.416 5636145 5628274 5620942 5615573 5613105 5613697 5616916 5621954 
3506.273 5627959 5634171 5640153 5645453 5649726 5652493 5653161 5651041 
3510.131 5645711 5637109 5625716 5612184 5597672 5583146 5569377 5556848 
3513.988 5545851 5536348 5528329 5521612 5515957 5510867 5505751 5499802 
3517.846 5492376 5482882 5471151 5457218 5441265 5423350 5403584 5381774 
3521.703 5357821 5331872 5304301 5275882 5247763 5221114 5197279 5177535 
3525.561 5163334 5155945 5156589 5165731 5182805 5205689 5230748 5253374 
3529.418 5268771 5273292 5265308 5245762 5217908 5186360 5155912 5130120 
3533.275 5110825 5097809 5089317 5082869 5076153 5067329 5055705 5041295 
3537.133 5025054 5008397 4993288 4981591 4975160 4975064 4981277 4992424 
3540.990 5006085 5019131 5028872 5033437 5032666 5027723 5020740 5013707 
3544.848 5008153 5004284 5001494 4998556 4994418 4988638 4981412 4973517 
3548.705 4965790 4958851 4953015 4948258 4944643 4942180 4941076 4941468 
3552.563 4943244 4945763 4948100 4949099 4947886 4944009 4937637 4929269 
3556.420 4919597 4909267 4898922 4888952 4880135 4873215 4869032 4868109 
3560.277 4870254 4874188 4878038 4879576 4877179 4870567 4861273 4852123 
3564.135 4846687 4847940 4857212 4873644 4894361 4915112 4931880 4941819 
3567.992 4944294 4940849 4934681 4929340 4927674 4930941 4938275 4947225 
3571.850 4954392 4956393 4950927 4937038 4915618 4888880 4860110 4832621 
3575.707 4809662 4793484 4785282 4784778 4790679 4800495 4811365 4820514 
3579.564 4825983 4826952 4824175 4819367 4815144 4813503 4815817 4821901 
3583.422 4830289 4838669 4844734 4846623 4843832 4836824 4827166 4816612 
3587.279 4806852 4798966 4793567 4790778 4790625 4793071 4798057 4805436 
3591.137 4814782 4825186 4835433 4844112 4849833 4851602 4848912 4841786 
3594.994 4830949 4817418 4802694 4788323 4775952 4766565 4760543 4757223 
3598.852 4755107 4752007 4745956 4735414 4720457 4702435 4684202 4669126 
3602.709 4660368 4659835 4667815 4682662 4701378 4720311 4736086 4746424 
3606.566 4750495 4749011 4744040 4737897 4733072 4731104 4732648 4737188 
3610.424 4743566 4750205 4755747 4759060 4759892 4758380 4755191 4751086 
3614.281 4747054 4743824 4741988 4741817 4743228 4745589 4748013 4749276 
3618.139 4748426 4744907 4739286 4732848 4727731 4726049 4729497 4738709 
3621.996 4753167 4771267 4791217 4811262 4830510 4848626 4865831 4882163 
3625.854 4897373 4910406 4919984 4924904 4924852 4920422 4913423 4906049 
3629.711 4900473 4898047 4899145 4903084 4908973 4915857 4923525 4932164 
3633.568 4942482 4954990 4969714 4985736 5001801 5016055 5027143 5034241 
3637.426 5037683 5038400 5038048 5038180 5040043 5044159 5050543 5058747 
3641.283 5068373 5079286 5091797 5106294 5123301 5142498 5163011 5183008 
3645.141 5200378 5212887 5219320 5219423 5214319 5205891 5196375 5187494 
3648.998 5180259 5174660 5170346 5166756 5163952 5162621 5164028 5169461 
3652.855 5179734 5194762 5213461 5233769 5253383 5269962 5281864 5288096 
3656.713 5288718 5284492 5276933 5267718 5258564 5250786 5244986 5240777 
3660.570 5237043 5231803 5223341 5210375 5192918 5172401 5151353 5132786 
3664.428 5119405 5112492 5111924 5115832 5121786 5127127 5130336 5131186 
3668.285 5130894 5131255 5134038 5139823 5147532 5154614 5157954 5154586 
3672.143 5143187 5124223 5100090 5074070 5049669 5028971 5012505 4998887 
3676.000 4985947 4971735 4955559 4938364 4922434 4910222 4903325 4901353 
3679.857 4902122 4902047 4897747 4886907 4869601 4847815 4824970 4804650 
3683.715 4789584 4780904 4778636 4781866 4789789 4801981 4818544 4839254 
3687.572 4863374 4888813 4912688 4931403 4941956 4942060 4930979 4909216 
3691.430 4878421 4840842 4799570 4757894 4719645 4688377 4667162 4657388 
3695.287 4658562 4667993 4681577 4694684 4703862 4707515 4706539 4703443 
3699.145 4701696 4703988 4711720 4724342 4739948 4756089 4770417 4781249 
3703.002 4787597 4788878 4784608 4774219 4757632 4735036 4707912 4678598 
3706.859 4650356 4626360 4609351 4600646 4600422 4607482 4620034 4635865 
3710.717 4653007 4669761 4684977 4697842 4708230 4716429 4723274 4729919 
3714.574 4737491 4746535 4756976 4767751 4777083 4783081 4784323 4780198 
3718.432 4771428 4759533 4746661 4734749 4725386 4718993 4715376 4713817 
3722.289 4713678 4714352 4716182 4719422 4724760 4732423 4742085 4752512 
3726.146 4762166 4769102 4772136 4770730 4765687 4758619 4751664 4746692 
3730.004 4744787 4745884 4749093 4752928 4756331 4759047 4761967 4766492 
3733.861 4774191 4785627 4800188 4815723 4829490 4838760 4841897 4839014 
3737.719 4831791 4822820 4814880 4809797 4808235 4809608 4812845 4817002 
3741.576 4821709 4827477 4835227 4845458 4857953 4871028 4882061 4888060 
3745.434 4886976 4878256 4863280 4844964 4826914 4812417 4803673 4801029 
3749.291 4803437 4808675 4814451 4819127 4822230 4824156 4825928 4828393 
3753.148 4831805 4835475 4838313 4838947 4836621 4831256 4823993 4816242 
3757.006 4809796 4805990 4805568 4808262 4813702 4820990 4829473 4838550 
3760.863 4847885 4856749 4864305 4869422 4871049 4868423 4861750 4852095 
3764.721 4841435 4832200 4826432 4825354 4828915 4835845 4844140 4851652 
3768.578 4856904 4859236 4859317 4858395 4858128 4859676 4863528 4869145 
3772.436 4875394 4880615 4883273 4882197 4876895 4867455 4854690 4839848 
3776.293 4824617 4810736 4799830 4793161 4791246 4793739 4799624 4807083 
3780.150 4814429 4820293 4824261 4826799 4829363 4833374 4840043 4849595 
3784.008 4861034 4872463 4881494 4885978 4884663 4877350 4865318 4850468 
3787.865 4835265 4821948 4812156 4806589 4805223 4807217 4811359 4816214 
3791.723 4820487 4823105 4823472 4821187 4816171 4808511 4798573 4786847 
3795.580 4774225 4761885 4751589 4745084 4744081 4749578 4761606 4778898 
3799.438 4799344 4820031 4838366 4852364 4861435 4866151 4868105 4869072 
3803.295 4870586 4873163 4876455 4879229 4880145 4877998 4872524 4864023 
3807.152 4853897 4843729 4835275 4829585 4827169 4827520 4829743 4832551 
3811.010 4834930 4836322 4836934 4837376 4838703 4841514 4845886 4850898 
3814.867 4855012 4856315 4853414 4845812 4834446 4821397 4809401 4800958 
3818.725 4797800 4800087 4806464 4814301 4820421 4821734 4816295 4803762 
3822.582 4785713 4765199 4746337 4733051 4728642 4734388 4749644 4771518 
3826.439 4795853 4817992 4834107 4842016 4841555 4834302 4823026 4810780 
3830.297 4799944 4791952 4787211 4785110 4784928 4785648 4786733 4787818 
3834.154 4789036 4790749 4793640 4798533 4806278 4817284 4831342 4847237 
3838.012 4862823 4875546 4883035 4883608 4877213 4864869 4849063 4832364 
3841.869 4817458 4806178 4799509 4797490 4799770 4805235 4812786 4820956 
3845.727 4828210 4833051 4834471 4832243 4827219 4821250 4816879 4816407 
3849.584 4821381 4831741 4846095 4861531 4874870 4883022 4884107 4877713 
3853.441 4865047 4848608 4831495 4816602 4806201 4801043 4800723 4803532 
3857.299 4807224 4809430 4808768 4804777 4798640 4792174 4787627 4786514 
3861.156 4789244 4795095 4802685 4810687 4818742 4827472 4838365 4852793 
3865.014 4871181 4892330 4913594 4931408 4942762 4945926 4941197 4930753 
3868.871 4917851 4905686 4896622 4891515 4889985 4890819 4892960 4895657 
3872.729 4898935 4903085 4908440 4914839 4921703 4927881 4932474 4934582 
3876.586 4934072 4931220 4926833 4921822 4917222 4913678 4911562 4910757 
3880.443 4910864 4911078 4910615 4908775 4905531 4901333 4897081 4893940 
3884.301 4892825 4894042 4897075 4900625 4903128 4903113 4899917 4893762 
3888.158 4886081 4879008 4874839 4875576 4882481 4895387 4913020 4932983 
3892.016 4952329 4968042 4977863 4980658 4976625 4967155 4954509 4940955 
3895.873 4928477 4918162 4910238 4904266 4899622 4895814 4892909 4891347 
3899.730 4891872 4895150 4901369 4910197 4920851 4931921 4942128 4950075 
3903.588 4954748 4955587 4952682 4946620 4938878 4931094 4925094 4922277 
3907.445 4923377 4928157 4935617 4944279 4952744 4960010 4966011 4971106 
3911.303 4976349 4982648 4990617 5000123 5010407 5020039 5027109 5029719 
3915.160 5026343 5016166 4999693 4978782 4956705 4937271 4924476 4920766 
3919.018 4926811 4940838 4959121 4976917 4989902 4995051 4991612 4980810 
3922.875 4965324 4948190 4932122 4918757 4908614 4901467 4896809 4894023 
3926.732 4892750 4892694 4893536 4894994 4896867 4898996 4901660 4905290 
3930.590 4910530 4917646 4926871 4937773 4949939 4962793 4975852 4988701 
3934.447 5000882 5011523 5019428 5023400 5022673 5017150 5007917 4996924 
3938.305 4986573 4978867 4975029 4974791 4977013 4979893 4981794 4981825 
3942.162 4980081 4977409 4975233 4974752 4977029 4982494 4991029 5002070 
3946.020 5014743 5027688 5039345 5048030 5052162 5050717 5043465 5031024 
3949.877 5014929 4996944 4978957 4962464 4948407 4936963 4927928 4920698 
3953.734 4914464 4908457 4902220 4895766 4889985 4886455 4887374 4894930 
3957.592 4910529 4934122 4963717 4995620 5025470 5048914 5063190 5067524 
3961.449 5063518 5054306 5043633 5034702 5029528 5028544 5030859 5034691 
3965.307 5038008 5038824 5035567 5027099 5013136 4994040 4971384 4947467 
3969.164 4925455 4908380 4898799 4897878 4905269 4918929 4935979 4953075 
3973.021 4967358 4976877 4980936 4979861 4974934 4968068 4961323 4956677 
3976.879 4955570 4958720 4965791 4975496 4985867 4994749 5000621 5002597 
3980.736 5001195 4997686 4993837 4991224 4990809 4992759 4996582 5001508 
3984.594 5006801 5012014 5017053 5021833 5026397 5030554 5034223 5037389 
3988.451 5040338 5043682 5048157 5054197 5061859 5070381 5078727 5085592 
3992.309 5090034 5091575 5090350 5086877 5081714 5075185 5067498 5058446 
3996.166 5048328 5037556 5027161 5018469 5012803 5010953 5013044 5018395 
4000.023 5025780 5033876 
##END=
