##TITLE=Bambu-Lab_PLA_Beige_Filament_r5_ATR-Corrected
##JCAMP-DX=5.01  $$ Nicolet v. 1
##DATATYPE=INFRARED SPECTRUM
##ORIGIN=Curtin University
##OWNER=Nicolet
##LONGDATE=2024/07/03
##TIME=11:07:33
##SPECTROMETER/DATA SYSTEM=Nicolet iS50
##DATA PROCESSING=
Ratio against background
%Transmittance->Absorbance
ATR Correction
Truncated
ElementMultiply or ElementDivide
##COMMENTS=
Number of sample scans: 32
Collection length: 47.28 sec
Sample gain: 1.0
Background collected on: Wed Jul 03 11:00:19 2024 (GMT+08:00);
Number of background scans: 32
Background gain: 1.0
Sample spacing:  1.000
Number of scan points: 16672
Resolution points: 8192
Number of FFT points: 65536
Apodization: N-B strong;
Phase correction: Mertz;
Laser frequency: 15798.3 cm-1
Number of rejected sample scans: 0
Number of rejected background scans: 0
Bench serial number: AUP1200105;
##RESOLUTION=4.000
##XUNITS=1/CM
##YUNITS=ABSORBANCE
##FIRSTX=400.163452
##LASTX=4000.187744
##FIRSTY=0.069099
##MAXX=4000.187744
##MINX=400.163452
##MAXY=0.997765
##MINY=-0.029227
##XFACTOR=1.000000
##YFACTOR=1.000000E-009
##NPOINTS=7468
##DELTAX=0.482125
##ZPD=8192
##XYDATA=(X++(Y..Y))
400.163 69098704 67972224 66951992 66131896 65509996 65013596 64520404 
403.538 63898236 63044124 61912020 60521624 58951408 57314816 55731516 
406.913 54296344 53058908 52015668 51118908 50296772 49481600 48633160 
410.288 47751984 46874596 46053568 45332712 44724764 44204556 43718844 
413.663 43209872 42641664 42016272 41373184 40768900 40250020 39828420 
417.038 39473884 39124472 38714244 38203424 37599868 36962960 36386628 
420.412 35969988 35786612 35862272 36168864 36632080 37149880 37614180 
423.787 37929996 38029212 37877600 37476400 36860332 36091716 35249940 
427.162 34419584 33676376 33074636 32640930 32372732 32245684 32224006 
430.537 32272476 32364532 32485158 32628204 32791082 32970910 33162058 
433.912 33357866 33554416 33754116 33965956 34202956 34476256 34788368 
437.286 35128016 35469264 35774624 36003488 36123608 36122404 36015156 
440.661 35846196 35682560 35597548 35651244 35870856 36240260 36701528 
444.036 37170576 37562432 37817984 37923148 37913936 37864796 37865188 
447.411 37991440 38283124 38733480 39292036 39881224 40417708 40832396 
450.786 41083152 41156420 41062444 40824576 40470820 40027528 39516744 
454.161 38957616 38367916 37766188 37172704 36609048 36097056 35656420 
457.535 35302220 35042892 34879800 34808768 34823128 34917732 35091376 
460.910 35345828 35682476 36095928 36569644 37073836 37567116 38010956 
464.285 38371708 38628948 38776332 38816044 38750856 38577104 38283992 
467.660 37859584 37301192 36625288 35870344 35091000 34344224 33673048 
471.035 33093962 32594760 32142498 31698578 31235342 30746892 30250730 
474.409 29779546 29368806 29044668 28816574 28676680 28603726 28569108 
477.784 28541028 28487858 28379342 28189316 27900394 27509240 27031240 
481.159 26500560 25965260 25476634 25077254 24791318 24620248 24546016 
484.534 24538802 24567428 24606150 24637808 24651934 24640358 24594562 
487.909 24504670 24362474 24166110 23923428 23652678 23379828 23132744 
491.284 22935130 22801444 22735004 22728848 22768426 22835462 22908772 
494.658 22972866 23014632 23026342 23007054 22962858 22905344 22849432 
498.033 22809254 22794704 22808546 22845720 22894370 22938764 22963188 
501.408 22955474 22909586 22826722 22714996 22586710 22455444 22332560 
504.783 22224342 22131162 22047840 21966570 21880148 21784910 21682390 
508.158 21579308 21485732 21413230 21372056 21371036 21416166 21510428 
511.532 21652230 21833656 22038926 22244622 22422824 22547056 22599666 
514.907 22577622 22494312 22375518 22250770 22143330 22062212 21999756 
518.282 21936240 21848554 21719718 21545690 21336376 21111170 20891226 
521.657 20693264 20525680 20390016 20284342 20207492 20160948 20148318 
525.032 20170238 20225726 20306852 20402140 20499950 20593256 20681254 
528.406 20769554 20866870 20982050 21121056 21285978 21475126 21683900 
531.781 21904932 22127964 22339836 22525378 22670246 22764724 22806436 
535.156 22801262 22760556 22696232 22615294 22517558 22396602 22245134 
538.531 22060496 21848418 21622076 21396636 21181832 20976746 20769548 
541.906 20543546 20285866 19996064 19689066 19391636 19133028 18934632 
545.281 18802486 18726880 18687374 18662390 18637036 18606550 18574538 
548.655 18546972 18526812 18510834 18491404 18460682 18415100 18356636 
552.030 18290508 18221180 18148212 18065222 17963846 17838560 17692118 
555.405 17536616 17389134 17267906 17183722 17137700 17123344 17132170 
558.780 17159622 17208124 17285174 17397722 17545016 17715310 17887268 
562.155 18036450 18144482 18205614 18228726 18233108 18240108 18264638 
565.529 18310040 18368910 18427420 18472648 18498228 18505972 18505220 
568.904 18508068 18525828 18565732 18629808 18715306 18815092 18918646 
572.279 19013552 19087678 19132730 19148676 19145642 19144198 19169782 
575.654 19245294 19382326 19575574 19803200 20032310 20229280 20370032 
579.029 20446438 20467692 20454580 20432244 20421870 20436230 20478906 
582.404 20546794 20633778 20733758 20841630 20952546 21062020 21165936 
585.778 21260972 21346842 21425522 21500278 21572612 21639878 21694578 
589.153 21726588 21727500 21696298 21642028 21583302 21544120 21546832 
592.528 21605008 21719796 21879586 22064352 22251104 22419968 22557672 
595.903 22658468 22723182 22757248 22768972 22768918 22768368 22778984 
599.278 22810788 22870122 22958564 23072530 23205150 23348970 23498270 
602.652 23650988 23808214 23972588 24146366 24330086 24522840 24723772 
606.027 24933660 25155480 25393828 25652212 25930586 26223828 26521866 
609.402 26812854 27086318 27336572 27563626 27771916 27966482 28150024 
612.777 28320230 28470120 28591030 28676868 28727936 28752760 28767116 
616.152 28790940 28842424 28934376 29070240 29244138 29442486 29647682 
619.527 29842024 30012018 30150348 30257296 30339974 30410190 30482078 
622.901 30569462 30683416 30831176 31015624 31235558 31486858 31762612 
626.276 32054692 32353182 32647610 32927156 33181970 33405140 33594328 
629.651 33753192 33891736 34024732 34168820 34339076 34545028 34788780 
633.026 35064496 35360800 35664612 35965344 36258224 36545592 36834724 
636.401 37134288 37449296 37777504 38108144 38423548 38704248 38934132 
639.775 39105796 39222708 39298184 39352056 39405108 39474120 39568380 
643.150 39689032 39830492 39982964 40136432 40283072 40418872 40544592 
646.525 40665208 40788700 40923996 41079172 41258720 41461780 41681404 
649.900 41906136 42122252 42318000 42487140 42631404 42759968 42887076 
653.275 43027500 43192372 43385552 43603324 43836068 44071736 44299948 
656.650 44514900 44717272 44913704 45115340 45335456 45586816 45879236 
660.024 46218060 46602944 47028084 47483336 47956516 48436708 48917592 
663.399 49398976 49887152 50392680 50926724 51496008 52098928 52723648 
666.774 53348324 53944100 54479212 54924576 55258840 55471480 55564816 
670.149 55553280 55460764 55315948 55147100 54976888 54819228 54678480 
673.524 54551092 54430432 54311380 54193860 54084384 53993756 53932988 
676.898 53908744 53920852 53961960 54020264 54084224 54146248 54204164 
680.273 54260924 54321720 54390764 54468952 54553504 54640304 54725756 
683.648 54809488 54894440 54986560 55092100 55216860 55364396 55536760 
687.023 55734368 55956140 56199216 56457480 56721400 56978236 57214508 
690.398 57419344 57587116 57719296 57823344 57909788 57988044 58063008 
693.773 58134752 58199256 58252128 58292164 58323320 58354668 58397832 
697.147 58464032 58560936 58691484 58853168 59039900 59242772 59451476 
700.522 59654728 59841460 60001388 60127180 60215808 60269172 60293280 
703.897 60295516 60281468 60252548 60205276 60133372 60031336 59898004 
707.272 59738112 59561572 59378936 59196676 59013484 58819092 58597840 
710.647 58332996 58013504 57637556 57213072 56754796 56278936 55797804 
714.021 55316444 54832140 54336016 53816388 53261576 52661648 52008936 
717.396 51297956 50524348 49685700 48781792 47815936 46795500 45732376 
720.771 44641668 43540924 42448352 41381708 40357484 39390084 38491724 
724.146 37672272 36939284 36299048 35756780 35317904 34988324 34774324 
727.521 34681764 34714704 34874516 35159984 35567452 36093364 36735420 
730.896 37494052 38371976 39372304 40495244 41734716 43076024 44495088 
734.270 45960196 47435708 48886624 50283900 51608504 52853156 54022452 
737.645 55130208 56195104 57234900 58261596 59277556 60274892 61237800 
741.020 62147380 62988712 63756256 64456224 65106496 65731592 66356972 
744.395 67002392 67679184 68389424 69129736 69895016 70682584 71493360 
747.770 72330552 73197040 74091824 75009112 75938760 76869048 77789592 
751.144 78692648 79572272 80421608 81229040 81976184 82637688 83184352 
754.519 83587912 83826216 83886216 83764904 83467088 83002040 82380112 
757.894 81609976 80698400 79650904 78473408 77173456 75762288 74255168 
761.269 72671552 71035536 69373984 67715016 66085100 64505352 62988512 
764.644 61537804 60147700 58807080 57503680 56229012 54980948 53764240 
768.018 52587756 51461208 50390752 49376764 48413544 47491400 46599300 
771.393 45728000 44870940 44025608 43191256 42368028 41555844 40754432 
774.768 39963648 39184236 38418164 37668060 36936776 36225956 35535516 
778.143 34863560 34206400 33559324 32917376 32274968 31627182 30969876 
781.518 30300630 29620270 28933268 28248096 27575866 26927966 26312948 
784.893 25733880 25187108 24662608 24146854 23626860 23094266 22547738 
788.267 21994612 21448636 20926710 20444486 20012188 19632792 19301164 
791.642 19006602 18735614 18475844 18218344 17959230 17699136 17441396 
795.017 17190320 16949202 16720364 16505243 16305218 16122805 15960841 
798.392 15822342 15708018 15616086 15541187 15475854 15412387 15345075 
801.767 15271166 15191180 15107137 15021952 14937457 14854233 14772929 
805.141 14695966 14628689 14578824 14554639 14561831 14600990 14665759 
808.516 14743764 14819655 14878849 14911006 14911810 14883596 14833330 
811.891 14770295 14704047 14643170 14594248 14561839 14548508 14553860 
815.266 14574884 14605840 14640060 14671698 14698107 14720927 14745573 
818.641 14779598 14829640 14897998 14981743 15072995 15161212 15236812 
822.016 15293966 15332011 15355341 15371144 15386414 15406311 15432585 
825.390 15464136 15498283 15532458 15565896 15599508 15635956 15678143 
828.765 15728462 15787929 15855972 15931595 16014874 16107585 16214622 
832.140 16342537 16498320 16686128 16905342 17150216 17410920 17677282 
835.515 17943576 18212844 18497910 18819684 19201140 19660234 20204070 
838.890 20825762 21506134 22219916 22943002 23659728 24365536 25066548 
842.264 25774858 26501854 27254014 28029332 28818352 29606610 30377204 
845.639 31113496 31799770 32421478 32965776 33422656 33787848 34065536 
849.014 34270384 34427920 34571804 34740232 34971460 35299928 35754908 
852.389 36359464 37131568 38084552 39227760 40566200 42100180 43825200 
855.764 45732436 47809140 50039568 52404376 54880528 57439840 60049276 
859.139 62671296 65266208 67795136 70224080 72526808 74686784 76697240 
862.513 78559472 80280160 81867408 83327200 84660904 85862640 86921120 
865.888 87821616 88550936 89101112 89473224 89676944 89727832 89641896 
869.263 89429032 89089640 88613288 87982480 87178040 86185896 85000736 
872.638 83626560 82074928 80359840 78495544 76495032 74371632 72141840 
876.013 69826888 67452632 65046652 62634736 60237360 57869496 55543436 
879.387 53272480 51074732 48974136 46998104 45171420 43511216 42022952 
882.762 40700668 39531244 38500244 37597620 36821040 36174696 35666072 
886.137 35301100 35080468 34997676 35040276 35191136 35431436 35740288 
889.512 36095772 36473996 36849648 37198168 37498900 37738756 37914892 
892.887 38034236 38111788 38165292 38211908 38263584 38326204 38400244 
896.262 38481940 38566148 38646760 38717816 38773192 38806336 38810872 
899.636 38781892 38718240 38624008 38509888 38392732 38292760 38230288 
903.011 38221324 38273252 38383868 38541408 38727800 38924044 39114800 
906.386 39292588 39458044 39618128 39780836 39950860 40125752 40295112 
909.761 40443220 40553972 40615808 40624532 40584596 40506320 40402144 
913.136 40283168 40157260 40029108 39901796 39778728 39664584 39563492 
916.510 39477824 39405772 39340108 39270184 39184156 39073004 38933584 
919.885 38770040 38591780 38411124 38239496 38084016 37946404 37822500 
923.260 37704580 37583436 37451476 37304580 37144060 36976612 36812788 
926.635 36665912 36547992 36466884 36424164 36414560 36427708 36450724 
930.010 36472804 36488068 36496736 36504792 36521260 36554860 36611116 
933.385 36690740 36789772 36901148 37016548 37128024 37229664 37317460 
936.759 37389756 37447872 37495312 37538656 37586628 37649344 37737412 
940.134 37860116 38025120 38237680 38501056 38817340 39186472 39606588 
943.509 40072764 40577576 41111112 41662756 42224304 42791816 43367792 
946.884 43960896 44583772 45250316 45971600 46753560 47595508 48490816 
950.259 49428700 50396124 51380012 52368392 53350520 54316244 55254980 
953.633 56154176 56998300 57767768 58439320 58986772 59384156 59608568 
957.008 59644172 59484752 59135828 58613172 57941096 57148372 56265292 
960.383 55321400 54345100 53364168 52407124 51502508 50677696 49955652 
963.758 49350872 48867036 48495616 48217456 48007480 47839188 47690756 
967.133 47547996 47405748 47266452 47137356 47026016 46938168 46874920 
970.508 46834180 46811676 46803052 46806592 46823628 46858036 46915348 
973.882 47000360 47115888 47262120 47437352 47639096 47865996 48119020 
977.257 48402184 48721660 49085400 49500740 49974084 50509132 51106740 
980.632 51764084 52475096 53230300 54017816 54824560 55638468 56449728 
984.007 57253176 58048140 58838444 59630612 60432488 61251028 62091420 
987.382 62957176 63850828 64773240 65725432 66707836 67720216 68760784 
990.756 69826784 70914168 72018576 73136608 74265760 75404608 76553608 
994.131 77713784 78887768 80079496 81294272 82538648 83819144 85141392 
997.506 86508952 87922904 89382632 90887104 92437120 94036064 95690768 
1000.881 97408960 99198832 101066128 103013760 105042528 107152264 109343928 
1004.256 111621160 113989304 116455336 119026248 121708136 124506288 
1007.148 127426848 130476968 133665752 137001952 140491920 144136336 
1010.041 147928224 151854000 155895552 160034128 164254848 168547968 
1012.934 172908944 177334896 181821472 186359008 190931728 195517840 
1015.826 200092896 204631936 209112480 213515760 217827888 222040768 
1018.719 226153456 230171088 234106480 237976432 241797520 245580832 
1021.612 249328672 253032528 256677680 260248688 263737088 267146768 
1024.505 270496160 273815200 277140960 280512672 283968032 287543328 
1027.398 291275744 295203680 299367104 303804128 308545920 313612864 
1030.291 319012736 324743040 330796000 337163520 343839328 350816576 
1033.184 358082112 365607936 373346400 381229056 389172032 397084416 
1036.077 404877984 412472928 419799968 426796928 433404768 439566048 
1038.970 445225760 450335232 454857728 458770720 462065728 464743232 
1041.863 466807200 468261376 469110272 469361216 469030336 468145632 
1044.756 466747520 464884000 462606432 459962848 456997088 453750048 
1047.649 450264032 446587648 442777984 438899456 435019072 431197152 
1050.542 427482336 423906336 420485408 417223616 414121280 411182048 
1053.435 408417888 405850304 403507744 401419616 399611296 398100928 
1056.328 396900896 396020576 395473600 395283200 395485888 396129632 
1059.221 397271808 398972960 401292608 404285184 407999488 412476288 
1062.115 417747616 423832640 430734144 438433216 446888416 456037120 
1065.008 465802592 476103104 486861984 498014560 509512000 521318016 
1067.901 533405792 545751616 558331136 571118592 584087872 597212672 
1070.794 610466752 623821248 637242432 650688384 664112128 677463104 
1073.687 690691968 703751552 716594560 729167424 741403392 753220096 
1076.580 764522944 775213376 785198720 794398848 802745600 810171648 
1079.473 816601792 821944832 826100480 828968960 830476928 830590016 
1082.366 829320320 826718144 822860096 817832704 811726080 804635392 
1085.259 796667200 787941440 778589184 768739008 758504960 747974720 
1088.152 737209344 726250560 715137984 703917376 692648896 681399680 
1091.045 670233536 659198016 648317056 637591104 627005440 616539520 
1093.938 606177792 595912128 585742784 575673792 565710592 555856576 
1096.831 546115648 536491520 526988928 517611072 508357536 499220800 
1099.724 490187232 481239808 472363424 463548864 454795616 446111808 
1102.617 437510880 429008192 420620992 412368576 404275360 396373952 
1105.510 388705088 381314048 374246112 367539968 361224864 355319488 
1108.404 349835296 344781504 340168352 336007968 332313696 329095168 
1111.297 326355552 324090336 322287520 320931328 320005024 319494144 
1114.190 319385120 319664416 320316544 321322656 322663264 324321216 
1117.083 326285344 328552320 331125728 334010496 337208864 340714592 
1119.976 344512352 348578400 352884896 357401568 362095872 366927808 
1122.869 371842688 376763424 381587008 386186496 390420896 394148992 
1125.762 397245376 399612608 401188896 401948000 401894912 401057248 
1128.655 399477312 397205088 394294624 390800512 386777024 382276992 
1131.548 377350176 372040448 366382816 360401728 354109888 347508384 
1134.441 340591040 333348256 325773312 317867520 309644064 301129408 
1137.334 292361760 283387840 274258944 265026272 255738592 246441104 
1140.227 237176992 227988512 218920192 210020016 201338912 192930448 
1143.120 184845792 177129936 169818304 162933968 156488144 150482112 
1146.013 144910000 139763568 135034288 130715176 126799312 123278456 
1148.906 120140656 117367912 114936960 112820480 110990336 109421488 
1151.800 108093912 106994208 106114728 105451664 105002000 104762152 
1154.693 104726624 104888744 105242272 105781952 106505240 107411128 
1157.586 108499776 109771040 111225832 112866048 114698200 116734816 
1160.479 118997288 121515032 124323872 127463416 130973280 134891536 
1163.372 139255232 144102000 149474112 155421280 162003376 169289472 
1166.265 177355312 186280320 196143024 207018544 218977216 232084048 
1169.158 246399184 261976160 278859264 297077760 316638880 337520064 
1172.051 359661760 382962400 407275296 432407264 458119616 484126368 
1174.944 510093760 535639712 560336128 583716160 605293504 624589248 
1177.837 641167488 654671040 664851968 671587456 674883648 674865408 
1180.730 671760064 665874432 657573056 647252992 635319872 622164160 
1183.623 608144192 593573376 578717952 563798592 548996992 534460896 
1186.516 520309088 506632320 493494336 480932224 468960992 457578848 
1189.409 446775776 436540064 426863872 417743776 409179584 401169344 
1192.302 393705504 386772320 380345248 374394240 368886560 363791232 
1195.196 359082336 354739520 350747808 347095712 343772032 340763584 
1198.089 338053024 335618528 333434240 331473376 329710816 328125888 
1200.982 326704480 325437984 324322080 323351328 322515488 321796640 
1203.875 321167808 320595968 320045664 319483008 318879264 318212768 
1206.768 317466528 316625856 315675168 314595296 313363200 311954656 
1209.661 310346656 308520288 306464224 304174912 301655872 298916000 
1212.554 295967104 292821248 289489920 285984096 282314592 278494752 
1215.447 274540992 270474304 266319040 262100848 257843584 253566832 
1218.340 249284320 245004304 240731856 236471824 232231232 228020928 
1221.233 223853856 219743200 215700176 211730688 207836176 204013888 
1224.126 200259936 196571424 192949040 189396160 185919872 182527536 
1227.019 179227280 176025328 172927376 169937072 167058000 164292576 
1229.912 161642208 159106624 156684048 154371072 152163392 150056720 
1232.805 148046800 146129952 144302384 142560512 140899280 139314560 
1235.698 137802240 136359392 134984368 133676960 132437664 131265896 
1238.592 130159360 129114272 128125144 127186400 126293496 125444040 
1241.485 124637696 123876552 123163552 122501760 121893424 121338648 
1244.378 120835560 120379936 119965056 119582944 119225832 118888376 
1247.271 118570256 118276976 118020208 117815200 117677336 117617536 
1250.164 117638840 117735248 117894840 118103312 118348320 118625048 
1253.057 118935848 119288928 119693984 120157232 120679112 121253472 
1255.950 121870288 122519808 123196032 123898368 124630264 125396352 
1258.843 126198056 127030704 127882896 128738256 129579160 130389688 
1261.736 131159768 131884736 132565272 133203832 133803128 134361728 
1264.629 134873840 135328224 135708896 135997408 136175120 136226816 
1267.522 136142672 135920096 135563584 135082080 134485840 133782384 
1270.415 132974160 132057624 131024864 129867288 128578456 127157912 
1273.308 125611024 123948336 122182136 120323960 118382480 116362776 
1276.201 114268512 112102296 109868984 107575472 105231128 102846808 
1279.094 100433856 98003504 95566824 93135040 90719760 88332592 85985208 
1282.470 83689096 81456080 79299208 77234064 75279128 73454864 71781736 
1285.845 70277336 68952728 67811608 66850176 66059992 65431096 64955464 
1289.220 64628816 64450488 64421200 64540260 64802848 65198704 65711648 
1292.595 66321300 67004724 67738496 68500336 69270712 70032736 70773528 
1295.971 71483432 72155152 72783824 73365080 73895056 74369936 74786592 
1299.346 75143528 75441408 75683488 75874848 76021096 76127272 76197080 
1302.721 76233440 76239368 76218512 76176792 76119856 76053424 75979624 
1306.096 75896792 75799760 75681728 75536912 75363272 75163416 74943680 
1309.472 74712160 74475856 74239144 74004024 73771184 73541872 73319312 
1312.847 73108416 72914000 72739424 72584048 72444080 72314344 72190088 
1316.222 72070736 71958936 71860368 71780688 71722400 71683768 71658472 
1319.597 71639016 71618496 71594696 71569856 71550576 71545176 71561248 
1322.973 71603616 71674280 71772640 71897616 72047864 72222488 72420200 
1326.348 72639240 72877336 73132536 73404896 73698264 74020496 74383480 
1329.723 74800200 75282392 75836552 76462888 77153928 77897208 78676896 
1333.098 79478576 80291296 81110864 81939432 82784880 83658432 84572512 
1336.474 85536752 86556016 87630144 88753528 89918264 91116296 92343040 
1339.849 93598784 94889016 96223312 97612272 99064776 100585776 102175032 
1343.224 103828688 105541608 107309144 109129904 111006128 112943392 
1346.117 114948240 117026008 119179624 121407584 123704784 126062464 
1349.010 128469584 130912736 133376968 135845472 138300592 140723360 
1351.903 143094880 145397408 147614800 149732704 151738832 153622224 
1354.796 155372256 156979792 158436800 159736864 160876704 161856336 
1357.689 162678976 163351024 163881520 164281088 164561264 164734288 
1360.583 164812656 164809184 164737488 164611232 164444096 164247520 
1363.476 164029200 163790960 163526096 163218784 162845120 162373152 
1366.369 161766000 160985408 159992672 158753872 157242112 155442176 
1369.262 153355360 151003728 148433776 145717712 142951088 140247792 
1372.155 137732432 135531456 133764816 132537992 131935584 132015688 
1375.048 132804392 134293392 136436880 139153184 142327936 145821728 
1377.941 149479280 153142192 156659904 159898736 162748624 165124256 
1380.834 166963296 168223504 168878528 168917232 168341040 167162864 
1383.727 165405952 163101648 160288048 157008960 153313888 149259760 
1386.620 144908624 140327184 135581056 130730984 125826136 120903464 
1389.513 115986904 111090440 106223080 101391904 96606536 91879984 87230440 
1392.888 82680400 78257240 73992000 69917536 66066064 62465568 59136188 
1396.264 56088564 53322636 50829132 48591384 46588792 44798664 43198416 
1399.639 41766596 40482812 39327780 38283828 37335084 36467688 35671164 
1403.014 34938124 34264604 33649188 33092056 32593548 32153082 31768088 
1406.389 31433802 31143326 30889132 30663416 30459554 30272442 30098746 
1409.765 29937148 29787346 29649938 29525518 29414480 29316346 29229588 
1413.140 29152600 29082842 29018732 28960078 28908714 28868124 28843538 
1416.515 28839638 28859836 28904254 28970520 29053624 29148276 29251184 
1419.890 29362502 29486400 29630056 29801500 30007226 30249222 30525042 
1423.266 30827328 31146320 31472624 31800256 32129106 32465648 32822370 
1426.641 33215168 33660180 34170216 34752404 35407200 36130056 36913408 
1430.016 37750756 38639640 39582200 40586104 41661920 42821348 44077072 
1433.391 45443028 46936232 48579288 50401232 52436312 54720880 57288584 
1436.767 60167188 63376656 66930100 70837760 75109248 79754944 84783216 
1440.142 90196088 95982568 102114760 108545056 115208448 122027056 128916368 
1443.517 135790896 142570272 149182224 155564256 161664192 167438576 
1446.410 172850448 177867792 182463040 186614096 190306736 193536880 
1449.303 196310320 198641888 200550304 202054320 203168256 203900368 
1452.196 204252768 204222288 203802912 202985296 201758560 200109920 
1455.089 198026208 195498112 192521888 189102720 185255520 181004144 
1457.982 176379312 171417360 166159072 160650048 154939312 149077632 
1460.875 143113904 137092176 131048504 125013904 119017760 113092720 
1463.769 107277616 101615872 96151144 90919224 85943296 81232632 76785344 
1467.144 72596176 68661200 64982400 61564972 58413012 55523844 52883612 
1470.519 50468184 48246016 46184320 44253840 42432672 40706620 39069200 
1473.894 37518980 36058464 34693784 33432818 32283786 31252768 30340176 
1477.270 29538902 28834494 28207182 27637114 27107778 26609102 26138028 
1480.645 25696552 25288742 24917616 24583302 24284044 24016504 23776854 
1484.020 23561766 23367832 23190456 23024234 22863658 22704138 22544612 
1487.395 22387102 22237236 22101648 21985032 21888780 21809320 21740186 
1490.771 21673716 21604198 21529014 21449342 21368606 21290630 21218194 
1494.146 21151538 21088632 21025946 20959180 20884796 20800848 20707228 
1497.521 20606848 20504472 20406808 20321034 20253404 20208138 20185608 
1500.896 20182350 20192222 20207226 20219926 20224464 20217438 20197612 
1504.271 20164660 20119754 20063716 19998792 19928272 19856740 19789898 
1507.647 19732648 19688544 19657546 19636986 19621612 19605454 19583454 
1511.022 19553342 19516036 19474162 19432370 19394466 19362484 19336106 
1514.397 19312344 19287016 19255774 19214998 19164572 19106564 19046344 
1517.772 18990750 18946358 18917622 18905188 18905332 18911018 18913336 
1521.148 18904758 18880608 18841236 18791304 18738486 18690672 18653526 
1524.523 18629816 18618034 18613576 18611190 18604848 18590276 18565180 
1527.898 18528770 18481550 18424882 18360678 18292058 18222464 18156584 
1531.273 18098434 18051772 18017968 17995306 17980090 17965802 17946750 
1534.649 17918020 17878348 17829664 17777188 17727662 17686940 17658380 
1538.024 17641106 17631092 17621644 17606270 17580722 17544412 17500636 
1541.399 17454740 17412482 17378380 17353334 17336036 17322868 17310268 
1544.774 17296768 17282832 17271724 17268176 17276662 17299826 17337732 
1548.150 17386928 17441894 17496158 17544024 17582956 17614108 17642322 
1551.525 17675460 17721548 17787206 17874514 17980916 18098868 18217758 
1554.900 18326734 18416828 18481764 18518390 18525240 18501068 18444098 
1558.275 18352346 18225638 18067674 17886832 17696004 17510150 17342328 
1561.651 17201084 17087650 16997412 16922050 16853022 16785174 16718728 
1565.026 16657982 16609058 16576154 16558763 16550457 16540969 16518537 
1568.401 16475275 16409568 16326673 16237719 16156022 16092768 16054053 
1571.776 16039681 16043801 16057519 16072158 16081085 16081635 16074542 
1575.152 16062792 16049806 16038733 16031072 16027736 16028624 16033951 
1578.527 16044203 16060298 16082665 16111316 16145183 16182877 16222307 
1581.902 16261762 16299522 16334292 16364679 16389493 16407706 16418776 
1585.277 16423503 16423818 16422942 16424380 16431095 16445408 16467912 
1588.653 16498791 16537452 16583197 16635288 16692214 16751012 16807900 
1592.028 16858500 16899724 16931020 16955730 16980074 17011902 17056852 
1595.403 17117112 17189550 17266966 17340858 17404756 17456426 17498782 
1598.778 17537688 17579552 17627746 17681732 17737494 17790134 17836158 
1602.154 17875948 17913148 17953472 18001450 18059172 18125928 18198620 
1605.529 18275294 18355458 18441414 18536392 18641178 18753916 18868374 
1608.904 18976560 19071234 19148982 19211580 19265228 19317312 19373272 
1612.279 19434428 19497488 19556630 19606516 19645540 19676388 19706040 
1615.655 19743470 19796234 19868864 19961932 20071722 20192128 20315818 
1619.030 20434908 20542372 20631998 20700120 20746434 20774902 20792926 
1622.405 20810402 20836470 20876624 20931868 20998072 21069032 21137872 
1625.780 21200760 21257244 21309372 21360642 21413274 21467998 21524922 
1629.156 21584546 21649166 21723126 21812340 21921514 22052900 22205700 
1632.531 22377368 22565542 22769964 22993400 23238802 23506990 23792626 
1635.906 24082124 24355692 24590264 24765556 24868324 24894194 24847148 
1639.281 24736468 24572646 24365746 24123580 23854532 23567888 23276414 
1642.656 22994780 22737992 22517456 22337998 22196758 22084414 21987256 
1646.032 21892860 21793250 21686842 21578418 21477428 21394680 21339358 
1649.407 21317222 21329422 21373062 21441126 21524682 21613202 21696866 
1652.782 21767824 21821774 21858414 21881400 21897328 21913548 21936670 
1656.157 21971742 22021094 22084628 22161110 22248008 22343186 22444376 
1659.533 22549606 22657632 22766528 22874530 22979534 23079498 23172808 
1662.908 23259074 23339416 23417130 23496374 23582846 23681460 23795942 
1666.283 23927222 24073322 24229242 24388876 24544798 24691060 24823404 
1669.658 24940556 25042610 25131892 25211088 25283042 25350284 25414980 
1673.034 25479372 25545580 25615678 25691964 25776634 25871826 25979222 
1676.409 26100564 26236968 26388506 26554334 26731656 26916674 27103976 
1679.784 27288074 27464622 27631424 27789954 27943918 28099614 28263482 
1683.159 28441036 28634270 28842644 29062736 29289750 29521264 29757044 
1686.535 30000360 30255996 30529178 30821324 31129852 31447728 31765562 
1689.910 32074868 32372348 32661270 32951158 33255618 33588020 33956688 
1693.285 34363828 34803536 35267356 35745216 36232072 36729020 37242820 
1696.660 37784880 38365604 38991856 39666356 40386056 41146004 41940572 
1700.036 42766796 43624204 44515328 45443728 46412568 47423728 48478004 
1703.411 49574884 50714488 51897928 53128188 54409840 55748784 57152108 
1706.786 58626860 60179980 61818212 63547300 65371072 67292224 69310520 
1710.161 71423632 73628104 75919112 78291440 80740408 83261952 85852056 
1713.537 88507056 91223448 93997968 96828504 99713888 102654368 105651760 
1716.912 108706864 111819736 114988584 118209856 121479312 124795120 
1719.805 128159536 131580816 135073520 138657728 142358016 146200784 
1722.698 150214176 154426688 158868000 163567344 168553360 173852752 
1725.591 179489920 185487264 191868896 198663824 205909744 213654368 
1728.484 221951936 230859312 240428480 250702496 261715776 273499296 
1731.377 286089056 299534048 313896224 329246304 345650592 363156544 
1734.270 381785728 401533248 422380960 444312640 467328384 491443712 
1737.163 516676960 543023488 570430208 598775488 627868928 657464832 
1740.056 687289152 717062784 746516480 775388992 803420096 830340672 
1742.949 855875968 879758592 901747904 921646464 939309312 954640064 
1745.843 967589760 978150080 986355776 992282688 996042176 997764736 
1748.736 997579648 995596800 991900672 986559424 979640576 971227776 
1751.629 961426112 950352576 938117824 924808320 910479808 895163008 
1754.522 878882432 861675584 843605440 824761472 805252992 785196928 
1757.415 764709504 743901760 722884288 701769216 680672000 659709824 
1760.308 638995200 618630720 598707264 579302080 560482176 542302720 
1763.201 524805952 508018688 491949024 476588800 461917920 447912896 
1766.094 434554688 421832064 409739488 398269728 387404576 377107552 
1768.987 367324256 357985184 349017952 340355744 331944992 323747136 
1771.880 315735488 307887968 300183136 292594432 285091296 277641248 
1774.773 270214752 262787344 255342192 247870272 240369552 232844448 
1777.666 225303984 217760832 210230400 202728368 195270128 187868560 
1780.559 180534272 173277248 166107472 159038256 152088608 145284640 
1783.452 138659440 132250816 126097736 120233968 114683784 109457464 
1786.345 104550352 99944600 95614144 91529024 87662384 83994160 80513928 
1789.721 77220352 74118880 71218896 68529024 66052116 63784772 61714204 
1793.096 59822136 58085552 56481896 54991164 53597952 52290872 51061684 
1796.471 49902904 48807304 47768392 46779988 45839144 44946104 44103652 
1799.846 43316764 42589032 41922152 41313772 40757864 40245812 39766764 
1803.222 39309992 38865376 38424856 37983732 37540308 37098152 36663228 
1806.597 36242488 35840244 35456468 35084216 34712196 34328444 33924904 
1809.972 33501330 33065628 32630500 32208524 31805548 31418138 31035398 
1813.347 30644650 30238718 29822664 29414416 29040492 28727066 28488840 
1816.723 28323742 28209880 28115006 28005490 27859158 27671768 27455546 
1820.098 27233210 27026678 26848422 26699142 26568914 26444072 26313990 
1823.473 26174380 26028780 25882188 25738360 25594106 25440306 25263398 
1826.848 25051082 24796732 24501664 24174956 23830102 23481476 23140618 
1830.224 22814458 22505612 22214004 21938760 21680372 21441766 21227618 
1833.599 21042926 20889804 20765952 20660898 20557736 20434372 20268952 
1836.974 20046000 19762204 19428696 19070072 18717724 18401892 18141580 
1840.349 17939336 17781252 17641888 17493866 17317102 17106350 16872150 
1843.725 16636655 16425241 16258428 16146706 16087534 16070643 16082767 
1847.100 16112940 16153997 16202072 16251173 16290236 16299985 16258011 
1850.475 16144635 15952265 15691157 15391219 15095180 14847741 14681113 
1853.850 14605554 14605725 14647385 14688312 14693758 14647909 14556245 
1857.226 14439923 14324686 14228702 14155114 14092089 14020507 13924566 
1860.601 13801745 13662886 13528432 13418454 13342688 13295941 13261286 
1863.976 13218261 13154748 13073057 12989195 12925650 12900528 12916053 
1867.351 12957296 12996549 13003930 12958650 12857661 12713335 12549013 
1870.727 12387530 12243938 12121693 12017850 11926685 11848266 11789212 
1874.102 11760240 11770640 11822201 11906707 12008674 12110701 12199473 
1877.477 12270172 12326006 12374285 12422022 12470416 12516054 12551087 
1880.852 12568479 12562903 12533579 12480873 12407051 12311342 12193423 
1884.228 12055374 11903592 11750050 11610841 11502957 11438133 11419753 
1887.603 11441696 11489279 11543170 11584266 11596493 11570873 11504265 
1890.978 11400782 11271780 11131993 10998388 10886659 10808449 10765997 
1894.353 10753095 10756277 10759269 10745842 10708664 10647022 10569370 
1897.729 10486782 10409446 10341824 10283982 10230002 10176380 10123308 
1901.104 10081113 10066450 10101283 10204673 10385443 10634443 10922118 
1904.479 11202939 11422174 11529855 11494737 11314105 11019062 10665784 
1907.854 10323551 10056486 9907898 9889659 9984563 10153652 10353244 
1911.229 10543041 10698198 10803202 10851830 10834529 10739113 10549493 
1914.605 10256158 9862416 9390734 8878273 8372287 7914189 7532144 7233603 
1918.462 7011102 6846883 6724411 6634790 6578736 6562041 6592369 6671878 
1922.320 6798308 6961754 7150829 7353994 7561296 7763346 7952986 8124402 
1926.177 8276921 8412585 8542274 8677725 8832050 9009149 9203951 9399733 
1930.034 9571658 9688701 9724972 9657158 9474722 9177977 8781586 8318479 
1933.892 7839100 7404241 7077670 6906925 6907870 7054301 7281153 7499564 
1937.749 7626784 7609694 7445475 7180307 6892800 6662913 6546495 6552853 
1941.607 6651151 6778178 6873036 6890060 6818411 6674471 6492244 6307303 
1945.464 6147048 6027329 5956664 5936442 5967477 6042143 6147280 6256386 
1949.322 6344215 6393559 6411093 6430391 6508722 6705911 7060479 7565427 
1953.179 8164354 8752224 9204441 9403336 9270737 8780898 7970806 6935317 
1957.036 5811658 4760544 3953675 3540260 3626647 4240693 5313421 6680279 
1960.894 8109163 9345989 10187989 10527518 10391388 9919711 9323928 8815065 
1964.751 8539711 8531481 8711274 8925619 9009525 8848199 8420138 7792137 
1968.609 7099970 6481385 6043656 5825869 5810007 5934060 6129505 6349114 
1972.466 6574283 6795932 7011153 7200281 7349821 7461837 7586003 7836289 
1976.323 8369064 9323694 10762059 12600757 14618209 16494069 17912264 
1979.699 18653318 18643650 17951288 16748054 15243202 13633898 12066260 
1983.074 10629229 9369150 8317499 7495486 6929934 6631462 6585199 6737689 
1986.931 7013983 7336984 7660724 7977095 8318882 8721288 9198966 9712015 
1990.789 10171484 10469930 10518087 10280333 9791886 9137948 8419220 7711811 
1994.646 7046745 6419164 5815166 5241703 4748093 4411462 4303506 4442070 
1998.504 4767659 5149957 5431337 5482925 5263901 4834407 4337540 3936325 
2002.361 3753754 3821306 4085336 4428041 4742868 4971846 5142512 5348395 
2006.219 5707431 6304896 7152583 8183245 9273848 10278927 11074398 11563789 
2010.076 11692165 11441362 10845232 9988027 9014390 8103356 7426949 7088561 
2013.933 7072702 7233739 7344860 7169606 6579739 5609756 4481458 3519278 
2017.791 3043404 3235597 4059210 5248565 6403228 7102405 7056856 6178963 
2021.648 4603131 2625285 605881 -1142721 -2405465 -3092814 -3204368 -2799460 
2025.506 -1958767 -772346 654540 2190253 3675955 4943830 5853263 6319059 
2029.363 6343994 6013369 5486254 4939921 4544446 4419203 4610767 5086040 
2033.220 5737592 6404049 6912429 7106910 6909113 6334173 5511528 4649916 
2037.078 3989261 3737700 4007971 4774505 5883940 7079202 8075133 8621978 
2040.935 8579701 7952068 6884370 5621921 4448016 3611737 3273845 3473354 
2044.793 4137221 5116792 6249630 7400854 8512823 9598386 10719840 11933945 
2048.650 13245273 14576538 15776996 16664676 17091312 16984568 16379166 
2052.025 15396472 14222705 13055464 12060286 11326659 10863279 10600600 
2055.401 10433852 10260577 10015527 9684381 9293000 8881778 8488108 8129396 
2059.258 7808309 7520976 7275648 7097989 7029370 7108126 7354994 7755753 
2063.115 8261390 8799790 9295091 9690760 9964255 10126103 10214521 10276118 
2066.973 10352986 10471268 10638290 10844399 11069456 11285578 11466215 
2070.348 11584780 11625357 11582738 11469669 11312686 11148431 11008739 
2073.723 10905101 10822289 10715376 10522583 10185755 9674918 9009567 
2077.099 8256260 7523851 6933226 6593113 6570497 6879107 7480812 8297503 
2080.956 9228769 10177044 11055032 11799288 12367058 12738213 12908180 
2084.331 12889730 12703835 12382211 11961740 11481280 10976638 10479600 
2087.707 10013519 9596898 9237673 8934414 8674665 8433812 8177745 7871663 
2091.564 7488680 7025000 6502617 5974779 5513717 5195498 5077707 5182603 
2095.421 5489670 5941658 6459059 6965719 7407527 7765273 8051848 8303907 
2099.279 8565064 8871094 9236691 9652751 10086296 10492348 10817567 11014991 
2103.136 11054334 10928554 10657141 10287027 9881005 9508602 9226683 9069121 
2106.994 9037285 9104162 9221584 9339358 9419216 9445378 9423664 9374955 
2110.851 9322058 9276486 9232947 9172563 9068464 8903101 8668195 8375058 
2114.708 8046472 7709231 7384397 7086240 6816655 6573308 6349201 6136704 
2118.566 5926913 5709728 5472362 5205986 4909265 4596402 4296003 4043723 
2122.423 3871119 3786043 3764510 3750385 3671523 3464294 3099304 2596342 
2126.281 2019572 1458358 990006 657825 448991 309742 163748 -51789 -363608 
2130.620 -755594 -1183345 -1596497 -1965033 -2285028 -2570243 -2827732 
2133.996 -3035444 -3133541 -3050000 -2737035 -2213176 -1584421 -1026669 
2137.371 -738387 -873584 -1484423 -2508099 -3783227 -5110277 -6313842 
2140.746 -7296927 -8050656 -8631114 -9113077 -9549691 -9939087 -10246381 
2144.121 -10417441 -10428355 -10296034 -10078686 -9844583 -9649238 -9504112 
2147.497 -9387141 -9255658 -9084759 -8887869 -8718787 -8650594 -8751780 
2150.872 -9057901 -9566218 -10249455 -11088043 -12092657 -13318363 -14841639 
2154.247 -16736748 -19014412 -21584332 -24236220 -26650086 -28440320 
2157.140 -29227460 -28723454 -26826940 -23661118 -19582412 -15074380 
2160.033 -10626088 -6599149 -3170473 -350989 1930856 3762171 5168891 6121688 
2163.891 6547325 6387114 5650134 4440137 2943687 1385334 -26562 -1153150 
2167.748 -1954484 -2473234 -2808762 -3070251 -3358144 -3737036 -4242033 
2171.123 -4883606 -5662571 -6547949 -7479811 -8350868 -9023880 -9350016 
2174.499 -9214972 -8576752 -7501856 -6147814 -4727010 -3452343 -2484978 
2177.874 -1892394 -1658976 -1691555 -1856610 -2002900 -1983664 -1668746 
2181.249 -975139 119423 1551923 3169914 4751691 6056511 6888100 7152494 
2185.106 6886036 6243997 5449559 4725473 4230939 4032927 4108513 4381818 
2188.964 4765596 5199223 5656811 6137389 6639254 7142407 7612369 8009883 
2192.821 8316190 8544489 8728636 8901668 9062621 9161762 9101194 8776781 
2196.679 8120275 7143075 5954312 4741552 3720503 3077199 2914556 3232422 
2200.536 3929169 4841531 5783855 6592563 7146789 7384801 7300198 6939409 
2204.394 6383959 5743996 5135623 4659998 4379937 4303479 4383247 4534858 
2208.251 4663252 4706554 4654696 4563904 4531054 4666871 5051363 5710276 
2212.108 6601475 7633460 8692529 9676693 10516102 11183934 11681719 12029005 
2215.966 12237800 12317221 12271768 12119823 11899912 11678688 11538588 
2219.341 11558510 11783309 12209985 12778166 13386023 13913197 14253831 
2222.716 14344820 14177117 13790217 13258586 12662490 12072106 11529961 
2226.092 11052339 10639341 10285702 9990797 9766920 9632253 9608680 9708270 
2229.949 9926814 10241093 10611277 10983631 11305634 11533118 11643271 
2233.324 11641291 11561712 11462330 11413781 11476194 11689618 12056501 
2236.699 12544008 13088983 13618636 14069497 14398572 14589854 14652878 
2240.075 14608944 14482255 14293286 14057335 13789841 13509954 13239366 
2243.450 13001505 12812114 12673074 12569556 12475124 12362343 12215163 
2246.825 12035532 11843798 11671994 11549665 11491679 11492483 11529413 
2250.200 11572549 11599024 11606113 11613733 11661374 11791752 12035251 
2253.576 12392785 12828459 13275792 13655403 13896601 13963030 13863568 
2256.951 13652219 13409360 13219003 13137039 13176405 13305017 13459585 
2260.326 13572628 13597167 13523573 13382414 13225416 13109096 13070626 
2263.701 13123653 13259806 13464416 13730034 14059872 14459977 14924910 
2267.077 15421389 15889307 16249847 16437393 16423380 16235976 15952215 
2270.452 15677126 15507395 15499526 15654152 15920723 16222687 16487110 
2273.827 16668655 16759250 16781968 16772952 16764389 16774766 16808012 
2277.202 16862146 16934880 17030380 17155888 17317038 17512106 17733592 
2280.578 17970684 18216402 18467978 18729658 19002310 19282856 19558974 
2283.953 19813118 20032060 20211658 20358280 20484882 20600798 20703002 
2287.328 20772676 20781932 20706034 20534570 20278760 19968110 19639002 
2290.703 19322248 19031926 18767718 18519718 18283668 18064518 17882306 
2294.079 17759082 17709650 17728852 17792270 17862222 17902998 17891340 
2297.454 17826358 17720896 17597342 17471268 17349576 17230562 17113216 
2300.829 17005064 16927274 16907394 16970210 17124476 17356398 17631810 
2304.204 17907956 18145568 18320710 18428026 18476942 18482048 18455392 
2307.580 18405436 18336614 18257020 18179656 18122132 18100118 18121046 
2310.955 18180104 18262426 18350566 18431642 18502844 18571272 18646364 
2314.330 18733446 18830180 18927744 19019884 19108230 19207968 19341170 
2317.705 19528626 19778614 20082918 20423036 20782002 21157880 21568296 
2321.081 22041216 22593212 23205952 23810642 24293338 24520390 24377488 
2324.456 23805106 22819862 21512754 20027176 18525352 17152952 16011760 
2327.831 15145370 14543378 14157434 13923729 13781997 13688277 13617377 
2331.206 13559760 13514181 13482597 13469014 13477440 13512113 13574159 
2334.582 13661158 13763101 13864468 13946422 13993647 13998183 13962755 
2337.957 13898804 13821477 13745934 13680731 13628863 13587899 13553361 
2341.332 13521329 13490226 13459423 13429553 13401085 13373786 13347500 
2344.707 13323325 13301899 13283844 13267125 13248269 13221682 13185082 
2348.083 13139164 13092285 13056581 13045777 13069907 13130488 13219818 
2351.458 13322847 13420399 13497782 13547472 13568736 13568435 13553822 
2354.833 13528848 13491766 13434974 13347317 13219525 13047953 12837815 
2358.208 12603032 12363386 12141176 11954993 11816938 11727260 11677276 
2361.583 11648637 11619749 11569635 11484346 11359283 11200529 11022095 
2364.959 10842354 10679358 10547050 10452565 10397258 10377035 10386517 
2368.334 10418674 10467256 10527437 10594946 10665656 10736321 10803842 
2371.709 10865993 10921026 10967816 11005966 11036579 11060527 11080190 
2375.084 11098268 11116434 11136117 11157081 11179089 11201900 11226074 
2378.460 11253049 11284493 11319618 11355554 11387037 11408728 11418696 
2381.835 11421965 11430423 11461153 11529984 11645249 11801802 11980900 
2385.210 12154022 12291967 12372856 12389122 12348562 12270684 12178049 
2388.585 12091630 12023521 11979335 11961403 11971349 12015195 12099782 
2391.961 12230838 12408006 12621706 12853117 13078728 13274666 13422168 
2395.336 13511136 13540635 13517380 13454938 13370430 13282274 13207849 
2398.711 13159393 13141030 13146810 13159760 13158699 13123477 13042797 
2402.086 12919949 12772164 12625712 12507509 12437390 12423356 12460763 
2405.462 12537871 12640426 12757883 12883633 13012759 13139688 13255207 
2408.837 13347019 13404912 13424900 13413432 13386101 13364339 13366528 
2412.212 13402388 13468710 13548099 13617074 13651317 13632809 13556414 
2415.587 13430382 13275047 13117487 12985827 12900598 12869757 12886113 
2418.963 12926004 12957146 12949503 12882750 12758980 12600748 12447918 
2422.338 12344660 12325676 12406443 12576965 12805711 13052246 13277046 
2425.713 13452325 13566303 13620146 13623177 13586858 13521511 13436177 
2429.088 13342420 13252953 13182696 13143647 13141768 13173088 13226367 
2432.464 13285871 13338626 13379809 13411861 13444251 13488094 13550998 
2435.839 13636735 13744023 13872055 14019136 14184221 14362742 14544722 
2439.214 14710494 14835122 14893317 14866571 14751156 14559679 14320097 
2442.589 14067519 13837701 13660243 13552621 13522398 13564368 13664541 
2445.965 13800392 13942225 14057022 14111888 14081875 13955023 13737234 
2449.340 13451513 13133793 12826722 12572121 12404743 12349408 12417843 
2452.715 12610961 12915495 13305346 13742933 14182517 14574952 14879068 
2456.090 15067262 15131225 15081350 14941040 14739421 14503003 14250687 
2459.466 13992718 13734880 13481044 13238152 13016597 12827113 12681760 
2462.841 12587388 12547738 12561345 12622952 12723264 12847676 12978105 
2466.216 13092633 13169073 13189360 13143267 13030936 12862948 12656672 
2469.591 12431983 12209071 12003666 11830838 11703580 11633169 11627155 
2472.967 11684419 11795234 11937760 12081853 12198070 12263655 12269282 
2476.342 12221961 12141760 12054143 11985593 11955380 11975642 12051813 
2479.717 12182697 12365093 12590335 12846569 13118610 13386911 13634720 
2483.092 13848932 14023917 14158886 14257056 14321227 14350544 14340974 
2486.468 14289408 14196583 14069743 13924169 13776966 13644926 13540414 
2489.843 13468860 13433288 13437227 13484457 13579861 13721799 13898614 
2493.218 14084729 14245578 14344045 14353852 14266155 14094998 13872616 
2496.593 13638638 13430667 13274255 13180472 13147655 13167291 13227250 
2499.969 13316080 13419967 13523563 13610676 13667610 13688630 13681108 
2503.344 13661569 13652272 13668092 13710894 13763046 13793607 13771368 
2506.719 13677550 13517085 13318736 13127240 12987013 12927257 12952039 
2510.094 13042646 13166294 13288992 13389175 13463028 13521742 13582590 
2513.469 13660073 13756824 13862812 13958134 14018889 14023768 13961519 
2516.845 13829908 13638050 13405195 13157349 12926272 12741514 12628498 
2520.220 12601014 12657073 12781356 12946781 13123374 13286189 13421667 
2523.595 13529277 13618565 13701456 13786332 13873360 13952378 14008285 
2526.970 14026560 13999638 13931306 13835382 13732811 13644720 13588002 
2530.346 13568267 13581719 13615555 13655603 13688361 13708299 13718473 
2533.721 13727459 13746479 13782938 13836680 13897672 13950949 13980496 
2537.096 13977620 13944430 13894789 13851013 13834817 13860874 13929212 
2540.471 14025284 14124725 14200925 14235269 14223891 14178968 14126775 
2543.847 14098464 14120261 14204070 14344126 14516813 14688052 14823633 
2547.222 14899831 14909753 14868076 14804222 14752842 14743134 14785225 
2550.597 14870066 14969855 15047750 15072364 15028832 14924073 14786187 
2553.972 14653753 14565789 14548382 14610234 14741363 14920451 15121620 
2557.348 15321356 15501774 15649967 15756873 15813250 15811328 15746335 
2560.723 15620489 15445303 15241253 15035703 14856012 14725160 14656753 
2564.098 14653999 14710567 14813403 14945922 15090913 15232096 15355414 
2567.473 15448515 15503866 15516617 15487768 15423435 15335686 15242469 
2570.849 15165115 15126853 15147397 15237234 15393133 15595541 15810858 
2574.224 15998609 16120682 16155556 16103085 15987217 15848285 15731400 
2577.599 15671810 15685486 15764229 15883218 16008943 16113391 16181109 
2580.974 16211810 16215790 16208319 16201884 16202305 16211234 16226590 
2584.350 16247950 16274963 16307116 16341969 16371360 16385373 16373029 
2587.725 16331628 16266981 16195349 16140670 16125659 16165832 16264630 
2591.100 16412422 16588435 16765758 16916838 17017670 17050056 17004540 
2594.475 16882392 16695896 16469665 16236845 16035231 15899539 15853005 
2597.851 15901079 16031507 16217031 16422311 16614676 16769458 16876382 
2601.226 16938036 16965502 16974160 16978532 16989206 17010654 17043850 
2604.601 17085026 17128500 17167602 17196550 17211922 17214402 17208468 
2607.976 17203314 17209650 17236444 17288698 17365648 17459756 17560228 
2611.352 17655212 17735820 17797732 17842528 17875372 17903042 17930540 
2614.727 17958928 17984602 18000772 18000922 17981338 17944566 17901004 
2618.102 17866320 17857980 17888858 17963478 18074998 18206328 18336572 
2621.477 18446044 18524044 18570814 18596840 18618544 18650514 18701138 
2624.853 18769644 18846310 18917522 18970280 18995528 18990430 18957620 
2628.228 18903550 18836804 18768084 18710506 18677528 18681924 18732494 
2631.603 18829610 18964632 19119498 19272392 19403624 19501712 19566278 
2634.978 19607072 19638016 19672086 19714338 19762742 19807254 19837820 
2638.354 19848562 19841424 19825386 19813080 19814384 19834562 19871214 
2641.729 19916340 19959528 19992836 20010742 20014036 20006630 19994412 
2645.104 19984144 19980918 19986880 20002120 20022456 20040826 20047512 
2648.479 20034644 19996588 19934846 19857452 19777800 19710458 19666410 
2651.854 19649168 19652648 19664088 19667754 19649860 19602266 19524594 
2655.230 19421936 19301270 19169740 19030302 18884122 18730744 18570176 
2658.605 18404820 18239076 18078306 17926540 17786466 17657008 17534770 
2661.980 17415638 17293514 17164198 17024280 16873494 16714701 16554974 
2665.355 16405243 16277425 16181642 16123913 16101468 16104737 16118316 
2668.731 16125889 16113918 16076647 16015774 15938554 15854759 15771842 
2672.106 15693471 15619026 15546805 15475546 15407142 15346616 15300977 
2675.481 15274905 15270291 15283463 15308235 15335530 15358431 15372076 
2678.856 15374572 15367716 15355096 15341124 15329572 15325397 15331216 
2682.232 15349279 15378699 15416592 15457655 15495402 15524323 15540998 
2685.607 15545952 15542429 15535207 15528792 15525531 15525430 15526409 
2688.982 15525312 15518975 15505499 15482808 15449806 15404506 15345723 
2692.357 15273186 15189330 15098669 15008706 14926942 14860165 14810734 
2695.733 14778287 14759220 14748378 14741330 14735730 14731936 14730403 
2699.108 14731769 14735123 14737575 14734499 14722357 14698157 14662435 
2702.483 14617818 14568920 14522094 14482602 14454613 14440407 14440712 
2705.858 14453540 14476814 14506813 14541274 14578379 14618040 14660899 
2709.234 14707772 14758843 14812483 14864773 14910539 14944491 14962616 
2712.609 14963366 14947363 14917061 14875361 14824084 14764140 14695520 
2715.984 14619502 14538813 14459282 14388846 14335613 14306432 14304411 
2719.359 14327465 14370506 14424601 14481635 14534405 14579249 14615801 
2722.735 14646794 14675513 14706530 14742304 14784221 14831087 14880163 
2726.110 14927616 14968495 14998593 15014150 15013599 14997120 14967903 
2729.485 14930986 14892681 14860224 14839486 14834316 14845915 14872464 
2732.860 14908920 14950344 14991964 15031213 15067819 15104617 15145012 
2736.236 15190836 15241912 15292643 15336498 15363736 15367729 15344784 
2739.611 15297377 15232571 15161127 15094075 15041259 15008394 14996861 
2742.986 15004191 15025423 15054118 15082088 15101868 15105164 15086260 
2746.361 15041635 14972577 14887550 14798351 14721298 14670772 14656562 
2749.737 14679792 14732641 14799538 14861012 14900543 14907769 14881106 
2753.112 14828947 14765962 14709609 14675414 14674378 14710128 14780092 
2756.487 14874958 14981889 15085164 15170439 15225571 15242859 15221171 
2759.862 15165210 15086265 14997849 14914407 14846696 14801291 14777650 
2763.238 14772257 14778170 14790023 14804563 14821985 14843496 14871323 
2766.613 14904634 14940090 14971475 14990984 14992573 14972612 14932202 
2769.988 14876355 14813894 14754758 14708806 14684868 14687607 14718249 
2773.363 14774572 14849806 14936142 15025306 15110039 15187446 15256408 
2776.739 15319156 15378383 15434745 15485624 15525986 15548361 15546206 
2780.114 15517089 15463415 15393395 15318035 15249743 15199175 15171740 
2783.489 15168858 15187553 15220919 15261770 15302639 15337818 15363473 
2786.864 15379035 15386092 15388847 15392725 15401659 15417610 15439279 
2790.240 15461892 15480296 15490466 15492204 15491693 15498399 15524037 
2793.615 15578284 15664523 15779031 15912170 16049303 16176550 16283475 
2796.990 16363770 16416663 16444204 16450327 16440755 16421869 16401758 
2800.365 16389815 16396116 16429422 16494161 16588766 16705340 16831570 
2803.740 16951920 17054326 17130014 17176882 17197276 17197780 17186494 
2807.116 17170390 17155040 17144492 17141114 17146322 17161158 17185444 
2810.491 17219934 17265018 17321640 17390664 17473328 17568788 17674218 
2813.866 17783378 17888134 17979782 18051868 18102018 18133148 18154344 
2817.241 18178578 18217508 18281372 18374180 18493860 18631328 18774356 
2820.617 18909288 19025390 19116280 19182422 19229486 19269350 19313508 
2823.992 19372506 19451494 19548768 19657400 19767222 19868522 19957206 
2827.367 20035258 20111240 20197736 20306752 20445642 20615488 20810876 
2830.742 21022578 21239446 21455178 21665104 21869780 22071312 22271794 
2834.118 22471796 22669990 22863588 23050772 23231248 23408260 23588236 
2837.493 23778934 23988802 24225822 24494430 24796786 25131768 25495676 
2840.868 25884808 26295052 26726646 27184904 27679120 28223432 28834416 
2844.243 29528036 30316644 31206840 32198422 33282858 34442892 35652544 
2847.619 36878064 38077472 39202840 40204876 41036168 41659968 42051820 
2850.994 42205624 42132312 41858412 41419996 40858208 40212104 39516040 
2854.369 38795072 38066668 37339236 36615788 35895540 35178600 34467272 
2857.744 33769944 33098836 32469672 31897772 31393964 30961308 30595198 
2861.120 30282590 30008718 29758698 29522530 29296342 29082540 28886486 
2864.495 28716126 28577296 28476812 28418648 28407108 28444926 28535244 
2867.870 28676844 28866252 29097006 29361162 29651260 29962954 30297238 
2871.245 30658828 31055552 31493232 31975734 32499616 33055752 33629736 
2874.621 34202892 34755156 35268332 35728548 36127964 36465208 36746792 
2877.996 36983544 37188772 37374352 37547332 37708496 37851132 37965196 
2881.371 38038472 38061668 38030632 37948088 37820908 37661716 37482884 
2884.746 37297812 37117840 36950816 36802088 36674092 36564096 36469244 
2888.122 36384504 36305952 36233684 36170452 36124064 36103180 36116012 
2891.497 36168568 36261576 36391920 36552900 36737744 36939060 37150940 
2894.872 37369152 37588948 37807068 38020756 38228404 38432300 38635292 
2898.247 38843440 39061788 39293916 39539056 39794128 40053600 40312716 
2901.623 40568980 40824000 41081624 41348324 41630484 41934072 42262420 
2904.998 42619716 43008008 43430624 43889100 44383308 44911204 45468544 
2908.373 46050400 46654396 47283996 47947656 48661264 49444516 50316404 
2911.748 51291136 52374448 53559988 54830284 56160468 57520564 58882352 
2915.124 60222124 61524300 62779472 63983740 65134592 66226640 67248296 
2918.499 68183664 69011328 69711952 70270200 70679096 70941488 71069472 
2921.874 71080184 70995040 70834704 70619480 70367744 70097664 69825904 
2925.249 69567112 69330616 69121000 68935320 68764736 68598120 68427992 
2928.625 68251992 68078416 67921496 67802624 67742008 67756120 67853104 
2932.000 68033440 68291656 68620456 69014272 69472080 69999624 70606992 
2935.375 71305552 72106696 73016744 74036320 75157856 76368992 77653528 
2938.750 78992888 80368616 81762216 83154664 84525944 85851896 87106488 
2942.125 88261368 89289448 90167056 90875248 91402576 91742520 91893088 
2945.501 91854360 91628096 91218656 90634072 89887080 88996120 87983272 
2948.876 86871680 85682680 84433656 83137056 81801872 80436328 79049984 
2952.251 77656064 76269264 74905616 73579680 72302240 71079680 69916528 
2955.626 68813368 67769560 66781996 65843560 64945192 64073236 63214460 
2959.002 62359400 61504736 60658796 59836692 59060652 58352300 57727756 
2962.377 57191140 56734820 56341076 55986404 55646788 55303564 54944332 
2965.752 54566940 54173952 53771436 53367576 52967416 52575236 52194112 
2969.127 51826800 51477496 51152652 50859312 50605976 50397148 50236076 
2972.503 50121264 50047164 50008784 50000924 50022752 50076664 50168196 
2975.878 50303632 50487524 50722784 51009364 51348240 51741736 52195792 
2979.253 52718712 53318552 53999040 54758592 55588640 56477864 57417648 
2982.628 58406796 59454628 60579976 61806496 63154452 64635432 66248140 
2986.004 67979496 69809232 71714784 73676952 75681608 77717320 79770728 
2989.379 81823264 83850000 85818352 87694248 89444304 91042208 92469152 
2992.754 93713696 94769696 95635032 96309072 96792992 97088688 97199496 
2996.129 97129904 96883664 96465448 95880328 95136816 94246960 93229136 
2999.505 92107920 90908016 89652296 88355512 87024200 85654872 84238384 
3002.880 82764808 81227536 79625792 77965720 76258184 74516928 72756728 
3006.255 70992888 69239704 67511656 65820136 64172276 62568644 61002824 
3009.630 59463580 57939096 56420308 54907592 53410284 51944984 50530756 
3013.006 49184060 47913828 46720180 45596752 44531492 43512832 42530464 
3016.381 41576380 40644656 39729480 38827016 37934676 37054176 36190872 
3019.756 35354580 34556364 33805836 33107336 32460816 31859956 31296108 
3023.131 30760008 30244972 29745664 29260314 28788412 28330058 27886462 
3026.507 27459358 27049770 26658704 26283806 25918918 25556370 25187574 
3029.882 24808528 24422114 24041310 23684632 23372110 23116814 22920078 
3033.257 22770438 22645822 22522714 22383212 22222310 22046234 21869204 
3036.632 21705242 21561082 21434386 21314620 21190934 21059860 20926294 
3040.008 20804878 20713010 20662156 20649570 20659800 20667478 20645152 
3043.383 20575094 20453702 20293052 20115572 19944104 19796264 19677592 
3046.758 19582962 19499070 19412086 19311958 19195510 19065510 18931582 
3050.133 18804600 18696140 18617282 18577674 18581020 18626726 18705580 
3053.509 18800986 18890678 18951968 18968516 18935360 18861324 18767652 
3056.884 18678884 18618756 18600320 18623906 18678026 18744704 18806676 
3060.259 18851290 18874934 18880070 18871724 18852466 18821988 18775748 
3063.634 18709940 18623622 18522558 18417974 18321804 18245078 18191502 
3067.010 18158206 18136954 18120122 18103084 18089124 18086812 18107286 
3070.385 18157358 18236016 18333586 18433048 18516342 18570244 18590502 
3073.760 18581544 18554816 18522712 18494104 18472930 18456504 18441620 
3077.135 18425078 18407080 18390836 18380066 18374254 18368860 18353838 
3080.510 18318322 18255064 18164984 18056870 17948010 17856824 17798638 
3083.886 17778746 17794262 17831638 17874826 17906426 17915648 17897404 
3087.261 17853556 17787506 17705058 17609626 17504322 17391630 17275176 
3090.636 17163056 17066152 16996924 16966894 16982406 17042654 17138010 
3094.011 17252298 17364244 17455558 17511992 17527814 17506328 17455938 
3097.387 17387544 17309882 17227732 17142540 17053690 16964398 16881534 
3100.762 16816648 16780976 16782646 16819808 16882274 16950698 17006336 
3104.137 17035326 17035580 17017178 16998670 16999432 17032922 17100932 
3107.512 17193366 17291572 17375310 17429236 17446028 17426606 17379096 
3110.888 17313408 17239348 17164538 17097124 17043372 17008096 16994222 
3114.263 16999468 17014640 17026052 17018550 16980510 16908796 16811126 
3117.638 16705278 16613841 16556159 16545748 16584715 16665973 16777304 
3121.013 16904278 17035594 17163506 17281092 17382486 17458438 17498664 
3124.389 17492350 17433382 17323116 17171496 16997294 16823488 16672930 
3127.764 16563779 16504956 16495956 16527466 16584802 16650768 16713079 
3131.139 16761968 16796172 16818296 16833916 16848280 16862222 16871758 
3134.514 16868462 16842558 16787514 16702581 16595643 16483104 16386423 
3137.890 16325181 16314430 16357670 16447134 16562955 16679246 16769977 
3141.265 16814068 16801790 16736493 16634395 16521731 16426859 16375713 
3144.640 16383285 16451715 16568160 16710293 16850900 16966964 17044956 
3148.015 17083998 17094642 17094938 17101782 17126066 17166312 17211012 
3151.391 17239554 17231192 17172064 17061194 16911374 16748307 16603189 
3154.766 16503954 16467962 16496615 16576296 16681619 16783172 16857014 
3158.141 16890094 16883350 16848524 16804252 16767180 16748536 16748866 
3161.516 16762765 16778152 16784214 16773511 16743923 16698936 16644811 
3164.892 16588444 16536836 16494771 16466597 16453920 16455896 16468598 
3168.267 16485125 16496880 16495882 16478945 16447859 16409324 16374076 
3171.642 16351894 16348531 16364632 16397223 16441854 16496073 16560746 
3175.017 16638640 16729873 16829980 16926500 17003770 17046318 17047518 
3178.393 17012790 16958432 16907580 16878896 16879214 16900444 16921676 
3181.768 16919652 16877710 16795832 16691737 16595190 16536206 16536469 
3185.143 16598459 16707476 16836298 16956728 17047058 17099568 17118412 
3188.518 17115544 17104120 17093652 17087250 17084908 17084494 17087182 
3191.894 17094904 17110334 17134658 17164992 17195008 17219036 17233638 
3195.269 17241062 17247630 17261490 17287688 17324726 17363168 17389820 
3198.644 17391800 17363402 17308916 17242496 17183362 17149872 17150092 
3202.019 17181138 17227448 17268830 17283570 17260270 17199556 17114962 
3205.395 17027658 16960652 16932446 16952418 17019504 17124708 17253944 
3208.770 17392596 17527966 17649492 17748556 17819634 17857764 17861092 
3212.145 17830896 17772768 17695006 17607302 17519254 17437978 17366820 
3215.520 17308696 17265550 17240628 17240080 17268674 17329770 17421978 
3218.896 17536250 17659526 17774748 17866346 17922308 17936668 17907780 
3222.271 17841040 17742164 17621746 17490810 17363956 17254706 17175290 
3225.646 17134258 17132274 17163298 17217166 17280690 17344990 17405522 
3229.021 17461308 17512776 17556892 17584332 17582512 17538738 17447136 
3232.396 17313770 17157388 17005422 16886068 16818310 16808124 16844694 
3235.772 16908074 16974838 17029034 17063380 17081122 17089314 17095660 
3239.147 17102224 17107050 17106122 17097690 17085778 17078536 17086404 
3242.522 17115478 17165660 17228478 17291426 17343182 17377978 17399502 
3245.897 17416238 17439954 17479030 17534134 17597642 17657790 17701832 
3249.273 17721682 17715700 17690304 17653556 17616692 17586798 17568350 
3252.648 17562334 17567664 17581510 17601910 17624062 17642836 17650252 
3256.023 17637684 17598782 17531898 17442382 17343664 17253778 17192938 
3259.398 17175260 17207318 17282140 17384440 17491808 17585206 17653034 
3262.774 17695154 17722076 17749112 17787542 17840228 17895994 17935124 
3266.149 17938102 17894496 17809886 17707930 17623166 17589256 17626612 
3269.524 17734948 17892580 18064320 18215500 18322154 18378556 18398066 
3272.899 18400448 18405470 18422352 18446940 18464932 18461712 18429360 
3276.275 18373240 18307210 18251614 18223830 18231902 18272654 18334436 
3279.650 18402296 18463458 18509450 18537828 18549032 18546362 18533328 
3283.025 18514674 18496232 18486712 18493728 18522794 18574476 18644152 
3286.400 18721572 18799242 18871086 18938204 19007448 19087312 19183554 
3289.776 19296728 19420218 19543316 19653854 19743978 19808912 19847650 
3293.151 19860626 19847266 19807348 19741628 19657186 19566860 19489240 
3296.526 19442050 19436146 19469440 19526676 19583480 19615262 19607382 
3299.901 19558374 19482756 19401128 19331676 19282166 19245502 19204398 
3303.277 19140318 19041502 18912940 18773142 18649076 18564920 18532892 
3306.652 18547364 18588470 18626596 18636862 18604152 18528568 18422750 
3310.027 18306804 18199722 18115828 18060918 18035212 18034392 18053244 
3313.402 18087886 18133328 18183228 18230584 18266276 18282060 18271254 
3316.778 18233178 18169490 18085308 17987076 17880922 17772848 17669538 
3320.153 17578456 17508286 17466724 17457566 17480040 17525922 17582960 
3323.528 17639462 17686504 17724418 17760000 17805628 17872806 17965558 
3326.903 18078990 18196820 18297266 18358328 18364562 18311252 18203860 
3330.279 18056774 17887880 17713704 17547540 17399448 17274016 17177164 
3333.654 17111696 17081420 17085344 17119568 17174714 17238716 17297812 
3337.029 17341824 17367608 17377280 17380912 17391256 17419300 17470644 
3340.404 17543176 17627274 17706916 17765622 17789038 17769966 17709622 
3343.780 17618204 17510948 17407712 17325758 17278450 17272412 17308788 
3347.155 17380978 17480014 17593012 17706610 17808452 17886176 17930890 
3350.530 17936054 17899520 17822958 17713216 17580288 17436428 17294568 
3353.905 17166846 17063384 16992178 16956604 16956342 16986340 17035588 
3357.281 17091382 17138074 17162938 17159546 17129576 17083156 17038076 
3360.656 17013938 17027306 17084962 17183666 17307428 17431914 17529374 
3364.031 17575994 17556852 17468650 17321752 17136128 16938286 16754633 
3367.406 16606042 16504593 16451200 16438657 16453993 16484914 16524877 
3370.781 16575020 16643705 16742919 16882178 17062298 17273478 17494136 
3374.157 17697350 17855604 17949842 17972674 17929948 17838740 17721924 
3377.532 17602698 17500328 17427724 17390672 17389530 17418866 17471562 
3380.907 17536060 17601146 17655368 17692136 17709066 17711022 17709574 
3384.282 17719362 17753098 17818748 17913826 18026652 18136566 18220272 
3387.658 18256728 18233644 18150190 18018182 17859436 17699862 17563342 
3391.033 17464878 17408690 17387624 17386114 17387336 17378428 17355298 
3394.408 17322148 17290122 17269590 17267942 17282918 17306894 17327684 
3397.783 17336638 17329754 17312046 17293650 17285618 17294910 17321528 
3401.159 17359102 17398512 17433024 17460708 17486570 17520312 17569588 
3404.534 17637826 17720588 17807942 17885044 17940126 17963574 17952292 
3407.909 17907516 17832440 17730946 17609194 17473354 17333950 17204806 
3411.284 17101820 17038832 17026142 17063548 17143064 17249608 17363514 
3414.660 17466584 17544960 17591296 17604544 17589388 17553722 17506360 
3418.035 17456692 17411368 17374628 17347158 17325416 17305386 17281566 
3421.410 17252006 17219340 17192172 17182318 17202522 17261868 17361632 
3424.785 17495416 17647736 17798964 17928076 18018620 18060924 18054498 
3428.161 18006338 17929310 17838002 17745984 17663150 17594666 17543080 
3431.536 17509192 17496236 17508820 17554436 17638858 17762566 17917642 
3434.911 18085914 18242144 18360528 18420734 18415132 18350498 18244226 
3438.286 18119598 17995864 17884328 17785346 17693488 17603456 17514906 
3441.662 17436602 17384472 17371788 17406420 17483428 17587128 17695484 
3445.037 17789898 17860316 17910534 17954182 18008246 18085444 18188222 
3448.412 18307112 18425232 18522108 18582440 18595918 18560780 18479672 
3451.787 18358024 18204862 18031638 17855730 17701902 17596798 17566018 
3455.163 17623950 17769832 17983210 18229134 18465196 18653918 18770208 
3458.538 18808794 18780780 18709354 18619456 18533252 18462582 18411748 
3461.913 18378784 18361370 18358236 18371828 18404938 18459790 18533594 
3465.288 18619516 18707208 18785046 18844650 18881236 18895726 18893932 
3468.664 18884108 18878354 18887844 18925162 18998474 19115248 19273888 
3472.039 19468358 19683072 19897758 20090140 20241420 20341654 20392436 
3475.414 20405656 20402412 20406644 20437968 20508886 20621294 20767388 
3478.789 20931530 21094218 21236272 21341658 21400286 21410036 21376850 
3482.165 21313464 21239068 21175416 21142766 21155994 21224016 21347448 
3485.540 21522464 21741952 21999036 22287772 22602088 22930402 23256526 
3488.915 23557452 23806840 23983150 24074818 24085664 24037516 23962204 
3492.290 23896512 23870188 23899820 23986022 24116832 24272862 24436722 
3495.666 24595694 24746836 24891090 25031860 25169970 25302236 25421348 
3499.041 25519516 25591656 25637520 25660868 25671598 25679264 25693066 
3502.416 25718320 25755500 25800482 25846540 25883754 25903262 25898674 
3505.791 25868800 25817062 25753846 25691440 25643444 25618126 25618810 
3509.167 25640540 25673504 25704946 25723264 25719700 25692232 25640850 
3512.542 25568986 25478400 25368862 25238468 25084252 24904206 24703534 
3515.917 24490884 24283524 24098746 23955374 23862170 23819026 23811280 
3519.292 23814424 23797790 23735186 23610488 23422984 23187472 22930016 
3522.667 22677984 22455416 22274402 22138250 22043066 21982692 21953112 
3526.043 21953154 21978674 22021392 22063056 22079470 22046672 21950764 
3529.418 21793154 21598280 21401592 21243786 21153920 21142094 21194580 
3532.793 21282090 21367374 21422054 21431506 21397856 21335570 21262224 
3536.168 21192542 21134128 21086162 21045426 21009436 20978306 20954298 
3539.544 20941464 20940866 20951922 20970478 20991886 21011048 21022708 
3542.919 21020926 20999870 20954878 20885354 20797124 20704348 20624296 
3546.294 20575064 20565836 20593760 20642302 20688718 20711668 20699584 
3549.669 20653408 20586240 20514288 20448518 20387856 20321582 20232032 
3553.045 20108238 19950782 19774576 19605620 19470388 19387740 19361258 
3556.420 19381660 19431308 19491948 19552130 19607672 19660840 19714388 
3559.795 19769258 19824630 19878340 19931824 19990468 20060964 20148822 
3563.170 20251418 20358114 20449294 20506870 20517780 20482730 20412588 
3566.546 20328188 20248554 20188542 20150792 20130036 20115750 20099656 
3569.921 20076490 20046368 20011802 19975312 19936770 19894984 19847912 
3573.296 19795430 19738260 19678678 19614880 19543636 19457378 19350944 
3576.671 19223374 19082698 18944162 18828396 18752688 18729892 18761462 
3580.047 18842268 18961280 19107480 19271032 19443416 19616346 19779360 
3583.422 19920068 20026182 20090348 20111218 20093588 20047790 19980922 
3586.797 19895978 19787786 19648878 19473106 19263362 19034084 18809234 
3590.172 18613972 18469478 18382988 18348008 18345414 18353056 18352628 
3593.548 18336660 18307914 18279766 18265830 18279488 18325454 18401096 
3596.923 18497500 18602138 18700654 18782072 18834914 18854454 18837304 
3600.298 18787552 18711828 18622444 18531714 18452920 18396450 18369680 
3603.673 18375280 18413018 18478198 18562858 18654314 18738666 18799338 
3607.049 18826042 18812106 18763082 18693238 18623858 18576124 18566506 
3610.424 18599610 18671222 18767920 18875430 18983580 19089220 19196716 
3613.799 19312606 19440176 19576762 19708786 19817440 19882084 19888376 
3617.174 19831316 19718166 19566030 19397120 19232916 19089320 18977384 
3620.550 18900512 18859802 18854906 18886566 18954306 19055726 19183670 
3623.925 19324176 19458044 19563866 19625330 19633538 19593812 19521228 
3627.300 19440356 19373580 19337822 19337592 19365116 19403970 19439424 
3630.675 19463928 19483930 19515264 19580726 19697752 19871620 20090542 
3634.051 20326262 20542682 20706834 20799282 20820472 20790394 20742116 
3637.426 20711776 20726854 20797270 20917056 21064748 21212974 21336316 
3640.801 21421672 21466454 21480916 21481312 21487336 21512450 21568532 
3644.176 21660982 21793738 21967682 22182972 22433262 22706946 22981972 
3647.552 23231730 23426638 23544448 23575536 23528948 23427856 23306614 
3650.927 23198238 23128626 23107990 23134122 23191826 23264038 23332338 
3654.302 23384814 23411982 23409418 23373788 23304954 23206112 23087698 
3657.677 22967052 22864824 22799710 22782550 22809164 22861376 22910900 
3661.052 22927206 22888138 22788006 22637634 22465826 22307524 22197702 
3664.428 22160980 22209822 22338978 22531362 22758942 22990434 23196864 
3667.803 23354300 23449254 23481202 23459240 23401986 23332756 23275842 
3671.178 23254216 23288502 23397484 23597766 23899908 24303640 24788930 
3674.553 25312212 25805486 26187748 26379006 26323772 26002152 25440214 
3677.929 24698744 23863036 23017784 22234808 21561996 21024568 20626894 
3681.304 20363736 20224824 20196090 20257432 20380090 20525166 20650384 
3684.679 20715042 20694750 20582912 20393502 20155078 19900918 19660588 
3688.054 19453376 19284854 19153532 19049524 18963438 18885246 18808650 
3691.430 18728074 18644386 18563780 18500604 18472690 18500112 18591552 
3694.805 18743092 18933334 19125876 19279452 19361300 19354530 19266784 
3698.180 19124340 18962902 18818796 18715962 18662218 18651872 18668446 
3701.555 18695566 18719722 18737174 18750662 18768374 18798502 18850496 
3704.931 18926104 19024962 19137524 19249370 19340496 19391870 19388298 
3708.306 19325912 19211902 19068272 18921634 18799224 18719948 18690162 
3711.681 18701920 18739440 18783064 18816498 18830764 18823498 18796682 
3715.056 18754664 18699562 18635480 18566026 18500420 18449996 18427594 
3718.432 18443940 18502290 18597184 18715170 18837058 18944024 19022572 
3721.807 19067960 19082908 19077518 19062390 19048004 19039360 19035956 
3725.182 19032926 19022900 18998254 18953866 18889728 18810206 18724796 
3728.557 18647362 18592032 18571316 18593590 18663134 18777716 18931108 
3731.933 19110452 19302124 19488612 19652378 19778010 19855336 19880448 
3735.308 19861340 19814034 19763086 19731050 19736352 19783648 19866440 
3738.683 19963802 20052542 20109568 20122324 20088780 20019842 19932820 
3742.058 19847656 19779296 19738038 19724260 19735338 19761988 19794926 
3745.434 19823228 19839220 19835114 19807886 19757902 19691570 19615796 
3748.809 19541382 19475884 19424076 19385708 19357516 19333592 19310670 
3752.184 19290258 19277262 19279864 19305998 19358320 19437720 19534650 
3755.559 19637902 19730100 19793734 19812024 19771344 19664620 19497008 
3758.935 19283878 19055220 18848712 18705064 18657046 18719820 18885994 
3762.310 19126128 19393612 19641518 19830958 19943960 19984392 19975714 
3765.685 19947076 19925380 19921110 19929850 19934548 19917134 19865966 
3769.060 19785342 19693192 19613924 19569020 19567856 19601340 19647102 
3772.436 19675796 19663132 19597320 19483666 19341646 19196062 19068672 
3775.811 18970364 18900012 18846478 18796476 18741650 18682634 18630318 
3779.186 18600528 18607840 18659998 18753848 18873834 19000576 19110498 
3782.561 19187996 19224554 19223706 19196348 19158198 19124228 19105096 
3785.937 19103088 19112500 19122548 19120922 19098472 19052398 18989806 
3789.312 18924908 18876514 18862908 18897068 18980922 19106990 19257634 
3792.687 19409728 19540760 19631392 19671030 19656736 19594848 19497954 
3796.062 19382970 19267452 19168208 19096560 19061178 19063090 19101796 
3799.438 19172738 19271080 19391750 19529662 19678320 19828562 19968528 
3802.813 20083668 20161090 20191838 20171940 20107508 20008348 19890284 
3806.188 19765814 19644896 19533532 19434652 19350308 19288796 19261232 
3809.563 19281550 19359468 19497706 19684670 19897516 20103670 20270388 
3812.938 20370016 20390502 20334874 20222052 20081826 19946054 19843530 
3816.314 19792420 19797226 19847980 19924862 19999592 20043736 20035510 
3819.689 19962466 19827922 19649810 19457704 19286966 19169746 19127704 
3823.064 19167536 19279652 19442308 19624256 19793442 19921514 19988680 
3826.439 19984784 19910310 19775118 19599100 19405724 19222592 19077680 
3829.815 18993702 18986340 19061264 19211966 19421164 19664354 19911886 
3833.190 20135726 20310282 20418414 20451078 20410556 20307252 20158642 
3836.565 19986984 19813624 19656320 19526652 19428744 19359254 19312266 
3839.940 19280328 19259450 19247706 19247550 19261428 19292302 19340838 
3843.316 19406642 19485868 19576714 19673900 19772022 19862436 19932886 
3846.691 19968404 19955298 19883106 19752578 19575202 19375994 19186180 
3850.066 19038656 18958718 18958896 19034066 19166826 19329330 19493564 
3853.441 19636670 19746748 19822616 19870202 19897246 19912018 19916834 
3856.817 19912728 19898794 19876190 19847886 19819192 19794106 19773160 
3860.192 19751820 19722446 19674560 19604006 19510138 19402140 19293214 
3863.567 19200062 19134992 19105780 19111532 19146560 19200902 19266270 
3866.942 19334768 19403286 19467802 19525074 19570562 19599590 19608392 
3870.318 19597600 19572664 19543442 19521608 19518588 19540618 19587710 
3873.693 19651438 19719726 19774006 19798810 19781266 19715512 19603220 
3877.068 19455434 19289040 19125742 18985942 18887056 18839750 18846120 
3880.443 18901770 18996184 19117548 19253908 19393700 19527806 19647250 
3883.819 19744854 19813192 19850162 19856274 19838550 19807528 19775458 
3887.194 19753154 19747262 19759750 19788920 19829182 19876888 19925386 
3890.569 19968810 20000116 20011206 19995548 19952218 19888522 19820114 
3893.944 19766832 19749698 19777994 19848474 19940134 20022936 20065392 
3897.320 20049190 19972086 19853546 19726880 19627374 19580264 19593010 
3900.695 19653612 19736854 19811748 19852654 19845426 19788086 19688600 
3904.070 19561748 19424668 19296724 19196504 19141940 19148884 19224168 
3907.445 19362588 19545060 19738466 19905340 20010020 20031360 19965926 
3910.821 19829688 19652390 19469434 19310310 19196654 19135690 19124930 
3914.196 19154436 19211494 19282604 19357672 19426462 19483324 19526156 
3917.571 19557574 19584014 19614132 19656084 19713808 19784552 19859924 
3920.946 19928868 19981666 20010946 20016298 19999822 19966900 19919896 
3924.322 19860784 19789158 19706730 19617574 19531292 19458818 19411852 
3927.697 19396204 19412276 19451782 19502628 19551246 19585914 19597142 
3931.072 19582814 19541474 19475348 19390098 19294428 19200316 19122664 
3934.447 19076758 19074878 19120596 19212478 19339608 19489334 19648874 
3937.823 19808604 19962572 20105898 20231308 20326508 20376158 20365174 
3941.198 20284816 20139428 19945784 19731900 19528556 19361660 19244560 
3944.573 19178980 19157536 19169526 19209546 19278274 19379290 19516582 
3947.948 19683950 19867120 20041094 20183478 20278108 20326406 20345046 
3951.323 20361836 20401948 20479576 20588764 20706204 20796770 20829144 
3954.699 20784336 20665778 20493746 20302328 20125340 19989046 19906056 
3958.074 19877038 19895516 19952212 20038518 20146888 20266840 20384174 
3961.449 20479626 20532462 20528188 20465712 20359112 20236806 20132686 
3964.824 20075862 20080028 20141626 20239408 20343862 20429334 20481300 
3968.200 20500420 20499452 20495156 20499376 20511848 20520596 20506846 
3971.575 20454874 20357484 20222386 20070220 19925756 19812832 19744512 
3974.950 19720262 19730382 19760756 19799266 19841650 19890710 19953516 
3978.325 20035540 20134926 20242742 20343254 20423644 20475634 20502538 
3981.701 20516102 20533938 20569140 20626652 20698740 20767236 20810104 
3985.076 20809678 20759678 20666090 20546022 20420588 20306360 20210158 
3988.451 20127442 20045776 19950324 19832390 19692906 19543906 19405176 
3991.826 19297456 19236924 19233630 19286386 19390136 19536078 19715392 
3995.202 19921550 20147332 20383512 20616568 20826920 20995524 21104782 
3998.577 21146214 21124086 21054740 20964858 20884348 
##END=
