##TITLE=Bambu-Lab_PLA_White_Filament_r4_ATR-Corrected
##JCAMP-DX=5.01  $$ Nicolet v. 1
##DATATYPE=INFRARED SPECTRUM
##ORIGIN=Curtin University
##OWNER=Nicolet
##LONGDATE=2024/07/03
##TIME=09:37:48
##SPECTROMETER/DATA SYSTEM=Nicolet iS50
##DATA PROCESSING=
Ratio against background
%Transmittance->Absorbance
ATR Correction
Truncated
ElementMultiply or ElementDivide
##COMMENTS=
Number of sample scans: 32
Collection length: 47.27 sec
Sample gain: 1.0
Background collected on: Wed Jul 03 09:35:13 2024 (GMT+08:00);
Number of background scans: 32
Background gain: 1.0
Sample spacing:  1.000
Number of scan points: 16672
Resolution points: 8192
Number of FFT points: 65536
Apodization: N-B strong;
Phase correction: Mertz;
Laser frequency: 15798.3 cm-1
Number of rejected sample scans: 0
Number of rejected background scans: 0
Bench serial number: AUP1200105;
##RESOLUTION=4.000
##XUNITS=1/CM
##YUNITS=ABSORBANCE
##FIRSTX=400.163452
##LASTX=4000.187744
##FIRSTY=0.060920
##MAXX=4000.187744
##MINX=400.163452
##MAXY=1.031924
##MINY=-0.032269
##XFACTOR=1.000000
##YFACTOR=1.000000E-008
##NPOINTS=7468
##DELTAX=0.482125
##ZPD=8192
##XYDATA=(X++(Y..Y))
400.163 6091988 6026722 5928993 5802368 5654397 5495875 5337726 5190195 
404.020 5062353 4961651 4892844 4856474 4847767 4856918 4871088 4877729 
407.877 4867819 4837883 4789779 4728576 4659864 4587404 4512457 4434393 
411.734 4352361 4266540 4178560 4090501 4003583 3917116 3828575 3734929 
415.591 3634634 3529257 3423864 3325766 3242433 3178907 3136458 3112450 
419.448 3101682 3098393 3097886 3097059 3094020 3087089 3074152 3052727 
423.305 3020955 2978898 2929442 2878094 2831713 2796356 2775356 2768014 
427.162 2769926 2774297 2774216 2764765 2744398 2715222 2682157 2651516 
431.019 2629407 2620278 2626069 2645343 2674055 2705636 2732400 2747258 
434.876 2745490 2726094 2692242 2650379 2608519 2573934 2551237 2541215 
438.733 2540960 2545021 2547433 2543538 2531507 2512602 2490547 2470053 
442.590 2455277 2448501 2449667 2456480 2465399 2472750 2475927 2473973 
446.447 2467714 2459111 2450274 2442384 2435063 2426317 2413326 2393650 
450.304 2366583 2333995 2300279 2271243 2252371 2246931 2254740 2272085 
454.161 2292828 2310399 2319913 2319588 2311051 2298358 2286193 2277882 
458.017 2274181 2273097 2271000 2264250 2251015 2232115 2210874 2191903 
461.874 2179369 2175337 2178955 2186304 2192546 2192699 2183619 2164992 
465.731 2139341 2111083 2085166 2065484 2053940 2050144 2051917 2056166 
469.588 2059849 2060694 2057455 2049676 2037372 2020658 1999733 1974966 
473.445 1947322 1918562 1891298 1868491 1852889 1846172 1848496 1858230 
477.302 1872309 1886880 1898184 1903235 1900423 1889607 1872016 1849816 
481.159 1825596 1801955 1781106 1764618 1753382 1747629 1747052 1750947 
485.016 1758369 1768228 1779391 1790638 1800786 1808679 1813360 1814136 
488.873 1810832 1803773 1793811 1782094 1769846 1758059 1747337 1737849 
492.730 1729455 1721935 1715229 1709402 1705164 1703152 1703858 1707390 
496.587 1713301 1720612 1728044 1734291 1738422 1740109 1739771 1738462 
500.444 1737573 1738454 1742001 1748358 1756835 1766074 1774365 1780103 
504.301 1782196 1780295 1774871 1766939 1757855 1748860 1740880 1734310 
508.158 1729084 1724746 1720658 1716123 1710549 1703490 1694677 1683978 
512.015 1671391 1656985 1640890 1623325 1604672 1585626 1567241 1550949 
515.871 1538403 1531098 1529930 1534776 1544276 1555992 1566929 1574252 
519.728 1576179 1572405 1564228 1554064 1544679 1538229 1535637 1536335 
523.585 1538608 1540242 1539372 1534889 1527189 1517494 1507540 1498952 
527.442 1492818 1489499 1488716 1489815 1492052 1494826 1497769 1500678 
531.299 1503483 1506105 1508476 1510496 1512107 1513240 1513801 1513602 
535.156 1512308 1509457 1504553 1497164 1487178 1474893 1461165 1447355 
539.013 1435218 1426627 1423286 1426296 1435921 1451390 1470898 1491902 
542.870 1511474 1526921 1536262 1538581 1534165 1524360 1511242 1497084 
546.727 1483976 1473403 1466168 1462350 1461463 1462647 1464833 1466882 
550.584 1467696 1466349 1462272 1455351 1446102 1435676 1425660 1417786 
554.441 1413446 1413314 1417111 1423580 1431061 1437821 1442650 1445271 
558.298 1446391 1447381 1449834 1454903 1463025 1473738 1485919 1498156 
562.155 1509128 1517875 1523884 1526961 1527152 1524607 1519737 1513288 
566.012 1506489 1501004 1498652 1500949 1508669 1521460 1537911 1555838 
569.869 1572893 1587201 1597772 1604644 1608640 1610949 1612634 1614322 
573.725 1616094 1617671 1618688 1618958 1618659 1618281 1618459 1619733 
577.582 1622356 1626198 1630824 1635610 1639993 1643620 1646528 1649077 
581.439 1651970 1655964 1661793 1669920 1680452 1693182 1707603 1723124 
585.296 1739216 1755493 1771790 1787964 1803945 1819424 1833850 1846430 
589.153 1856274 1862602 1865006 1863651 1859361 1853630 1848302 1845255 
593.010 1845935 1850924 1859720 1870747 1881701 1890147 1894146 1892836 
596.867 1886685 1877335 1867113 1858316 1852607 1850581 1851814 1855180 
600.724 1859418 1863642 1867672 1872004 1877575 1885394 1896159 1910089 
604.581 1926833 1945689 1965693 1985840 2005226 2023171 2039346 2053782 
608.438 2066967 2079684 2092834 2107092 2122672 2139200 2155838 2171693 
612.295 2186287 2199950 2213946 2230160 2250546 2276355 2307589 2342778 
616.152 2379300 2414043 2444278 2468379 2486202 2499005 2508955 2518437 
620.009 2529392 2542900 2559080 2577271 2596469 2615722 2634440 2652532 
623.866 2670274 2688118 2706446 2725347 2744563 2763636 2782060 2799527 
627.723 2816110 2832275 2848769 2866342 2885549 2906501 2928869 2951963 
631.579 2974939 2997050 3017798 3036924 3054404 3070313 3084722 3097706 
635.436 3109371 3119972 3129917 3139729 3149985 3161089 3173228 3186290 
639.293 3199967 3213867 3227730 3241470 3255272 3269492 3284565 3300864 
643.150 3318582 3337621 3357610 3377869 3397562 3415821 3431969 3445713 
647.007 3457305 3467498 3477466 3488444 3501472 3517126 3535407 3555861 
650.864 3577761 3600409 3623259 3646021 3668541 3690723 3712418 3733468 
654.721 3753742 3773306 3792454 3811591 3831116 3851180 3871623 3891950 
658.578 3911542 3929873 3946713 3962153 3976507 3990165 4003434 4016523 
662.435 4029692 4043404 4058477 4075916 4096720 4121398 4149624 4180180 
666.292 4211125 4240368 4266240 4288020 4306118 4321894 4337144 4353524 
670.149 4372066 4392981 4415716 4439309 4462697 4485022 4505814 4524945 
674.006 4542598 4559118 4574946 4590502 4606141 4622052 4638232 4654450 
677.863 4670326 4685450 4699592 4712771 4725279 4737637 4750492 4764427 
681.720 4779875 4797134 4816409 4837810 4861347 4886817 4913632 4940824 
685.577 4967063 4990947 5011367 5027859 5040787 5051319 5061097 5071824 
689.433 5084795 5100663 5119392 5140487 5163308 5187421 5212782 5239709 
693.290 5268712 5300310 5334690 5371683 5410718 5450935 5491366 5531076 
697.147 5569258 5605213 5638322 5667872 5693063 5712913 5726422 5732737 
701.004 5731408 5722642 5707436 5687478 5664900 5641870 5620143 5600723 
704.861 5583739 5568579 5554208 5539546 5523805 5506614 5487961 5467963 
708.718 5446683 5423962 5399418 5372643 5343255 5311122 5276379 5239370 
712.575 5200534 5160299 5119100 5077384 5035642 4994383 4954002 4914551 
716.432 4875481 4835580 4792971 4745384 4690613 4626927 4553509 4470642 
720.289 4379726 4283062 4183600 4084473 3988680 3898769 3816601 3743245 
724.146 3679027 3623703 3576736 3537545 3505804 3481553 3465168 3457226 
728.003 3458260 3468624 3488357 3517278 3555105 3601674 3657025 3721407 
731.860 3795106 3878317 3970882 4072227 4181350 4296934 4417471 4541360 
735.717 4666960 4792583 4916585 5037376 5153657 5264595 5369982 5470185 
739.574 5566007 5658317 5747798 5834667 5918791 5999810 6077532 6152149 
743.431 6224327 6295062 6365355 6435837 6506662 6577535 6648049 6718070 
747.287 6787986 6858728 6931514 7007302 7086417 7168195 7251121 7333132 
751.144 7412178 7486599 7555414 7618120 7674500 7724189 7766402 7799901 
755.001 7823086 7834320 7832115 7815336 7783250 7735522 7672259 7594009 
758.858 7501913 7397679 7283434 7161475 7033884 6902130 6766984 6628635 
762.715 6487044 6342473 6195873 6048932 5903860 5762842 5627458 5498289 
766.572 5374841 5255894 5140061 5026343 4914583 4805416 4700058 4599815 
770.429 4505624 4417781 4335868 4258887 4185529 4114347 4043906 3972943 
774.286 3900424 3825747 3748878 3670487 3591900 3514896 3441285 3372425 
778.143 3308798 3249862 3194167 3139740 3084675 3027563 2967836 2905770 
782.000 2842259 2778442 2715326 2653518 2593114 2533812 2475073 2416383 
785.857 2357502 2298581 2240267 2183546 2129616 2079565 2034108 1993440 
789.714 1957058 1924017 1893126 1863315 1833877 1804624 1775756 1747635 
793.571 1720479 1694203 1668406 1642553 1616363 1590019 1564333 1540504 
797.428 1519865 1503379 1491380 1483464 1478687 1475957 1474373 1473409 
801.285 1472916 1472844 1472972 1472726 1471334 1468045 1462520 1455188 
805.141 1447211 1440205 1435735 1434681 1436962 1441447 1446387 1449961 
808.998 1450876 1448758 1444193 1438405 1432840 1428689 1426596 1426552 
812.855 1428064 1430317 1432411 1433479 1432880 1430195 1425432 1419101 
816.712 1412208 1406204 1402600 1402603 1406675 1414309 1424095 1434111 
820.569 1442533 1448200 1450980 1451804 1452281 1454123 1458558 1465894 
824.426 1475461 1485847 1495417 1502767 1507196 1508810 1508498 1507624 
828.283 1507697 1509958 1515172 1523463 1534411 1547243 1561091 1575359 
832.140 1589959 1605424 1622797 1643287 1668029 1697581 1731735 1769615 
835.997 1809866 1851162 1892612 1934070 1976179 2020201 2067598 2119690 
839.854 2177205 2240165 2307892 2379147 2452409 2526144 2599029 2670071 
843.711 2738698 2804655 2867961 2928626 2986524 3041195 3091810 3137270 
847.568 3176414 3208348 3232816 3250454 3262870 3272630 3283008 3297691 
851.425 3320459 3354878 3404155 3470885 3557028 3663785 3791555 3939898 
855.282 4107587 4292728 4492979 4705685 4928135 5157595 5391342 5626619 
859.139 5860620 6090468 6313441 6527100 6729637 6919972 7097773 7263262 
862.995 7416793 7558509 7688068 7804514 7906512 7992758 8062323 8115026 
866.852 8151469 8172866 8180754 8176567 8161404 8135797 8099768 8052820 
870.709 7993997 7921979 7835128 7731716 7610199 7469672 7310243 7133321 
874.566 6941586 6738666 6528521 6314822 6100460 5887322 5676460 5468463 
878.423 5263883 5063579 4868748 4680817 4501153 4330881 4170860 4021845 
882.280 3884686 3760597 3651050 3557578 3481304 3422612 3380815 3354241 
886.137 3340458 3336737 3340416 3349170 3361139 3374951 3389680 3404848 
889.994 3420506 3437132 3455600 3476749 3501083 3528359 3557433 3586468 
893.851 3613312 3636127 3653891 3666594 3675161 3681032 3685658 3690120 
897.708 3694974 3700453 3706712 3714235 3723858 3736836 3754470 3777874 
901.565 3807713 3844168 3887093 3936107 3990823 4050848 4115732 4184864 
905.422 4257306 4331844 4407078 4481530 4553758 4622421 4686186 4743676 
909.279 4793341 4833526 4862591 4879109 4882147 4871396 4847307 4810999 
913.136 4764096 4708585 4646583 4580163 4511180 4441209 4371449 4302701 
916.993 4235435 4169894 4106259 4044753 3985688 3929507 3876621 3827283 
920.849 3781478 3738855 3698813 3660623 3623630 3587444 3551994 3517561 
924.706 3484628 3453765 3425477 3400020 3377507 3357838 3340830 3326264 
928.563 3314021 3304007 3296232 3290657 3287229 3285823 3286260 3288345 
932.420 3291867 3296623 3302360 3308752 3315378 3321801 3327655 3332824 
936.277 3337538 3342430 3348381 3356335 3367048 3380878 3397788 3417427 
940.134 3439404 3463564 3490050 3519279 3551707 3587520 3626411 3667622 
943.991 3710147 3753156 3796382 3840384 3886427 3936236 3991413 4053129 
947.848 4121801 4197157 4278569 4365334 4457052 4553645 4655245 4761954 
951.705 4873577 4989488 5108693 5230009 5352319 5474668 5596272 5716394 
955.562 5834159 5948446 6057921 6161339 6257765 6347026 6429811 6507704 
959.419 6582865 6657649 6734122 6813636 6896570 6982290 7069247 7155273 
963.276 7237781 7314147 7381765 7438173 7480970 7507766 7516142 7503766 
967.133 7468623 7409345 7325633 7218504 7090366 6944852 6786336 6619408 
970.990 6448291 6276472 6106533 5940173 5778448 5622023 5471429 5327199 
974.847 5189951 5060497 4939712 4828601 4728104 4638961 4561520 4495603 
978.703 4440380 4394598 4356716 4325337 4299401 4278380 4262143 4250781 
982.560 4244295 4242405 4244608 4250262 4258935 4270661 4286007 4305963 
986.417 4331568 4363631 4402407 4447570 4498221 4553271 4611644 4672442 
990.274 4734894 4798222 4861476 4923343 4982290 5036735 5085264 5127025 
994.131 5161778 5190036 5212876 5231835 5248635 5264982 5282400 5302039 
997.988 5324620 5350421 5379342 5411113 5445504 5482567 5522642 5566435 
1001.845 5614727 5668301 5727647 5793072 5864715 5942839 6027959 6120949 
1005.702 6222942 6335113 6458426 6593494 6740550 6899664 7070838 7254260 
1009.559 7450279 7659282 7881521 8117054 8365645 8626999 8900955 9187641 
1013.416 9487525 9801209 10129196 10471610 10828062 11197778 11579782 
1016.791 11973173 12377215 12791276 13214557 13645916 14083520 14525083 
1020.166 14968032 15409921 15848613 16282554 16710618 17131976 17545976 
1023.540 17952096 18350138 18740424 19123920 19502362 19878070 20253762 
1026.916 20632408 21017244 21411808 21820094 22246618 22696116 23173148 
1030.291 23681484 24223512 24799984 25410006 26051388 26721156 27415962 
1033.666 28132418 28867078 29616300 30376044 31141588 31907502 32667628 
1037.041 33415174 34142852 34843092 35508416 36131840 36707220 37229716 
1040.417 37695844 38103564 38451952 38740892 38970824 39142700 39257788 
1043.792 39317840 39325032 39281908 39191268 39056184 38879976 38666560 
1047.167 38420532 38147364 37853212 37544536 37227428 36907148 36587620 
1050.542 36271552 35960656 35656148 35359168 35071032 34793160 34526812 
1053.917 34272884 34031872 33803996 33589756 33390426 33208544 33047974 
1057.293 32913808 32811976 32748934 32731262 32765820 32859718 33020488 
1060.668 33255950 33573924 33981608 34485016 35088380 35794060 36602564 
1064.043 37512940 38523072 39630000 40829860 42117744 43487460 44931556 
1067.418 46441324 48007332 49619856 51269400 52947144 54644988 56355572 
1070.794 58072104 59788068 61497240 63193704 64871924 66527008 68154872 
1074.169 69752040 71315384 72841456 74325784 75762456 77143832 78460792 
1077.544 79703304 80861384 81925752 82888248 83741968 84480824 85099296 
1080.919 85591704 85952376 86175552 86256120 86190224 85976536 85616968 
1084.295 85117376 84487712 83741400 82893864 81961224 80958536 79899192 
1087.670 78794560 77654488 76487848 75303104 74108168 72910088 71714192 
1091.045 70523944 69341024 68165944 66999000 65840996 64693432 63558264 
1094.420 62437004 61330200 60237096 59155924 58084720 57022308 55968756 
1097.796 54925596 53895132 52879696 51880692 50898208 49931048 48977356 
1101.171 48035192 47103320 46181448 45270316 44371388 43486704 42618548 
1104.546 41769488 40942316 40140220 39366604 38624980 37918840 37251392 
1107.921 36625420 36043328 35507016 35018008 34577384 34185736 33843108 
1111.297 33548858 33301792 33100178 32941868 32824474 32745496 32702380 
1114.672 32692686 32714006 32764250 32841730 32945474 33075386 33232272 
1118.047 33417768 33633904 33882700 34165456 34482448 34832520 35213004 
1121.422 35619856 36047836 36490704 36941356 37391868 37833436 38256460 
1124.798 38650656 39005416 39310428 39556404 39735876 39843844 39878144 
1128.173 39839440 39730792 39556880 39323260 39035384 38698016 38314884 
1131.548 37888600 37420700 36912016 36362864 35773396 35143812 34474648 
1134.923 33766832 33021852 32241744 31429094 30586898 29718560 28827876 
1138.299 27919040 26996658 26065758 25131794 24200476 23277644 22369056 
1141.674 21480248 20616312 19781926 18981236 18217760 17494482 16813772 
1145.049 16177413 15586458 15041251 14541309 14085378 13671492 13297129 
1148.424 12959488 12655790 12383569 12140837 11926140 11738457 11576911 
1151.800 11440638 11328454 11238889 11170263 11120866 11089211 11074258 
1155.175 11075493 11092848 11126592 11177132 11244866 11330076 11433042 
1158.550 11554044 11693512 11852215 12031078 12231394 12454654 12702627 
1161.925 12977344 13281187 13616911 13987699 14397135 14849192 15348260 
1165.301 15899116 16507106 17178230 17919206 18737574 19641448 20639376 
1168.676 21739926 22951450 24281742 25737992 27326440 29052312 30919256 
1172.051 32928780 35079236 37364784 39774468 42291232 44891272 47543912 
1175.426 50211568 52850384 55411308 57841800 60088344 62099664 63830088 
1178.802 65243100 66313804 67030652 67395784 67424072 67141192 66581064 
1182.177 65782720 64787304 63635232 62364288 61008368 59597116 58156020 
1185.552 56706880 55268012 53854548 52478428 51148440 49870428 48647652 
1188.927 47481452 46371956 45318608 44320636 43377236 42487548 41650544 
1192.302 40864956 40129244 39441632 38800200 38203080 37648364 37134264 
1195.678 36659088 36221240 35819276 35451856 35117652 34815248 34542952 
1199.053 34298616 34079684 33883328 33706732 33547466 33403636 33274066 
1202.428 33157992 33054742 32963250 32881696 32807552 32737700 32668766 
1205.803 32597598 32521570 32438568 32346862 32244802 32130494 32001740 
1209.179 31856126 31691272 31505210 31296688 31065268 30811366 30535992 
1212.554 30240508 29926386 29595056 29247842 28885952 28510558 28122830 
1215.929 27723944 27315128 26897556 26472496 26041308 25605532 25166988 
1219.304 24727704 24289866 23855584 23426606 23004172 22588896 22180934 
1222.680 21780108 21386314 20999598 20620340 20249086 19886424 19532718 
1226.055 19188078 18852388 18525510 18207460 17898572 17599540 17311174 
1229.430 17034260 16769262 16516232 16274831 16044509 15824707 15614994 
1232.805 15415150 15225059 15044560 14873259 14710483 14555362 14406891 
1236.181 14264119 14126323 13993059 13864090 13739364 13618949 13502903 
1239.556 13391383 13284555 13182734 13086188 12995154 12909688 12829652 
1242.931 12754720 12684488 12618652 12557152 12500201 12448237 12401696 
1246.306 12360787 12325369 12294919 12268612 12245657 12225495 12208091 
1249.682 12193940 12183941 12179216 12180782 12189295 12204975 12227521 
1253.057 12256341 12290630 12329629 12372728 12419653 12470438 12525468 
1256.432 12585309 12650573 12721662 12798600 12880763 12966971 13055530 
1259.807 13144484 13231975 13316499 13397062 13473301 13545248 13613184 
1263.183 13677318 13737731 13794112 13845859 13892102 13931723 13963534 
1266.558 13986267 13998641 13999489 13987778 13962781 13924031 13871430 
1269.933 13805114 13725422 13632746 13527501 13409956 13280368 13138850 
1273.308 12985466 12820251 12643291 12454698 12254832 12044339 11824223 
1276.684 11595903 11361081 11121588 10879105 10634940 10389946 10144497 
1280.059 9898710 9652663 9406741 9161732 8918999 8680310 8447771 8223518 
1283.916 8009599 7807814 7619589 7445873 7287230 7143838 7015627 6902492 
1287.774 6804459 6721885 6655437 6605939 6574079 6560065 6563390 6582702 
1291.631 6616018 6660948 6715132 6776454 6843191 6913911 6987294 7061928 
1295.489 7136162 7208223 7276404 7339290 7396053 7446490 7490930 7530109 
1299.346 7564853 7595846 7623516 7647998 7669136 7686631 7700165 7709506 
1303.203 7714674 7715985 7714169 7710200 7705208 7700125 7695512 7691268 
1307.061 7686737 7680844 7672463 7660892 7646093 7628766 7610127 7591525 
1310.918 7573957 7557796 7542764 7528101 7513042 7497173 7480686 7464250 
1314.776 7448874 7435357 7424070 7414750 7406684 7398969 7390995 7382609 
1318.633 7374266 7366763 7360953 7357380 7356123 7356728 7358517 7360814 
1322.490 7363245 7365938 7369466 7374559 7381978 7392237 7405526 7421740 
1326.348 7440639 7462030 7485927 7512562 7542347 7575826 7613560 7655937 
1330.205 7703326 7755916 7813772 7876788 7944705 8016998 8093000 8171906 
1334.063 8253025 8335878 8420378 8506900 8596161 8689028 8786236 8888249 
1337.920 8995114 9106486 9221891 9340961 9463722 9590530 9722155 9859341 
1341.778 10002670 10152292 10307844 10468715 10634313 10804365 10979127 
1345.153 11159340 11345975 11539844 11741333 11950134 12165361 12385763 
1348.528 12610027 12837042 13065900 13295871 13526081 13755333 13982022 
1351.903 14204073 14419271 14625421 14820637 15003461 15172881 15328281 
1355.279 15469331 15595862 15707824 15805133 15887755 15955593 16008659 
1358.654 16047175 16071786 16083631 16084525 16076721 16062780 16045086 
1362.029 16025570 16005401 15984952 15963821 15941048 15915154 15884377 
1365.404 15846546 15799034 15738831 15662624 15567027 15449110 15306753 
1368.780 15139174 14947224 14733575 14502889 14261715 14018509 13783342 
1372.155 13567519 13383026 13241722 13154404 13129734 13173428 13287507 
1375.530 13470052 13715285 14013985 14354120 14721781 15101957 15479651 
1378.905 15840529 16171847 16462816 16704807 16891262 17017462 17080258 
1382.281 17077980 17010372 16878658 16685610 16435413 16133451 15786000 
1385.656 15399730 14981392 14537390 14073570 13595036 13106117 12610418 
1389.031 12110994 11610503 11111303 10615534 10125128 9641745 9166934 
1392.406 8702166 8249085 7809712 7386572 6982565 6600747 6243943 5914343 
1396.264 5613149 5340440 5095292 4875953 4680192 4505595 4349813 4210724 
1400.121 4086423 3975205 3875421 3785484 3703781 3628793 3559185 3493993 
1403.979 3432627 3374926 3321012 3271207 3225736 3184706 3148026 3115473 
1407.836 3086693 3061391 3039241 3020009 3003363 2989061 2976842 2966640 
1411.693 2958577 2953047 2950544 2951585 2956342 2964598 2975604 2988199 
1415.551 3001100 3013193 3023797 3032845 3040750 3048320 3056414 3065783 
1419.408 3076850 3089784 3104571 3121277 3140057 3161424 3186021 3214701 
1423.266 3248237 3287304 3332341 3383657 3441432 3505930 3577419 3656261 
1427.123 3742721 3836828 3938272 4046397 4160271 4278946 4401747 4528361 
1430.980 4659021 4794320 4935118 5082260 5236519 5398686 5569606 5750580 
1434.838 5943404 6150571 6375156 6620672 6890739 7188917 7518453 7882166 
1438.695 8282343 8720600 9197751 9713600 10266836 10854936 11474089 12119272 
1442.553 12784287 13461810 14143653 14821069 15485278 16128024 16742033 
1445.928 17321296 17861014 18357490 18807910 19210268 19563498 19867588 
1449.303 20123682 20333772 20500318 20625734 20711934 20760194 20771128 
1452.678 20744958 20681492 20580224 20440174 20259930 20037766 19772210 
1456.054 19462574 19109560 18715454 18283764 17818764 17324730 16805584 
1459.429 16264816 15705827 15132247 14548101 13957821 13365880 12776543 
1462.804 12193493 11619940 11058585 10511919 9982174 9471329 8980972 8512183 
1466.662 8065621 7641685 7240654 6862992 6509118 6179466 5873971 5592012 
1470.519 5332131 5092262 4869796 4662068 4466676 4281836 4106487 3940426 
1474.376 3784124 3638491 3504596 3383272 3274826 3178876 3094385 3019809 
1478.234 2953448 2893777 2839665 2790505 2745989 2705983 2670217 2638125 
1482.091 2608841 2581433 2554991 2528921 2503018 2477390 2452374 2428323 
1485.949 2405486 2384012 2363856 2344980 2327329 2310863 2295616 2281493 
1489.806 2268339 2255881 2243702 2231314 2218204 2203880 2187950 2170150 
1493.664 2150471 2129138 2106725 2084043 2062087 2041853 2024113 2009283 
1497.521 1997327 1987842 1980133 1973429 1966976 1960182 1952636 1944132 
1501.378 1934595 1924222 1913392 1902768 1893071 1885180 1879618 1876567 
1505.236 1875629 1875927 1876265 1875530 1873016 1868635 1862929 1856819 
1509.093 1851323 1847119 1844395 1842801 1841644 1840140 1837626 1833816 
1512.951 1828756 1822760 1816302 1809907 1804065 1799273 1795953 1794351 
1516.808 1794441 1795812 1797598 1798706 1797964 1794495 1787961 1778727 
1520.666 1767641 1755830 1744335 1733822 1724471 1716165 1708710 1702058 
1524.523 1696435 1692176 1689455 1688122 1687499 1686604 1684427 1680374 
1528.380 1674453 1667392 1660353 1654485 1650473 1648347 1647451 1646737 
1532.238 1645174 1642121 1637576 1632003 1626156 1620749 1616192 1612514 
1536.095 1609464 1606726 1604006 1601300 1598738 1596571 1594978 1593968 
1539.953 1593322 1592698 1591622 1589688 1586612 1582268 1576749 1570322 
1543.810 1563413 1556528 1550120 1544558 1540009 1536427 1533597 1531259 
1547.667 1529171 1527218 1525415 1523853 1522605 1521660 1520935 1520289 
1551.525 1519626 1518899 1518155 1517479 1516924 1516484 1516054 1515507 
1555.382 1514828 1514038 1513320 1512776 1512427 1512072 1511331 1509765 
1559.240 1507099 1503407 1499099 1494820 1491269 1488836 1487560 1487109 
1563.097 1486938 1486587 1485901 1485045 1484379 1484253 1484689 1485257 
1566.955 1485190 1483587 1479833 1473846 1466215 1458033 1450649 1445211 
1570.812 1442391 1442265 1444393 1447997 1452300 1456696 1460802 1464457 
1574.669 1467598 1470196 1472182 1473476 1474028 1473907 1473258 1472330 
1578.527 1471390 1470658 1470257 1470278 1470657 1471390 1472411 1473706 
1582.384 1475286 1477176 1479379 1481899 1484630 1487394 1489913 1491865 
1586.242 1492919 1492922 1491860 1490023 1487895 1486120 1485312 1485946 
1590.099 1488221 1492065 1497113 1502933 1508974 1514862 1520354 1525396 
1593.957 1530102 1534723 1539569 1545002 1551282 1558549 1566748 1575596 
1597.814 1584602 1593147 1600620 1606526 1610639 1612997 1613939 1614007 
1601.671 1613803 1613952 1614932 1617125 1620689 1625714 1632107 1639648 
1605.529 1648032 1656902 1665843 1674545 1682789 1690493 1697759 1704822 
1609.386 1711934 1719357 1727221 1735524 1744040 1752446 1760300 1767150 
1613.244 1772677 1776728 1779475 1781340 1783074 1785594 1789873 1796721 
1617.101 1806607 1819498 1834820 1851513 1868171 1883353 1895801 1904706 
1620.958 1909935 1911994 1911944 1911137 1910777 1911687 1914046 1917435 
1624.816 1921041 1924057 1925978 1926904 1927492 1928761 1931721 1936984 
1628.673 1944524 1953722 1963576 1973076 1981648 1989349 1996887 2005448 
1632.531 2016262 2030242 2047668 2068096 2090388 2113022 2134465 2153417 
1636.388 2169115 2181469 2190878 2198072 2203741 2208265 2211497 2212781 
1640.246 2210999 2204982 2193970 2177811 2157294 2133955 2109887 2087153 
1644.103 2067396 2051463 2039321 2030203 2022993 2016605 2010381 2004138 
1647.960 1998172 1992972 1988977 1986327 1984929 1984391 1984256 1984161 
1651.818 1983953 1983665 1983506 1983786 1984714 1986527 1989276 1993035 
1655.675 1997885 2003861 2010969 2019143 2028108 2037462 2046677 2055184 
1659.533 2062678 2069107 2074832 2080532 2087125 2095400 2105796 2118275 
1663.390 2132216 2146645 2160470 2172873 2183465 2192436 2200390 2208097 
1667.248 2216260 2225260 2235108 2245574 2256309 2267029 2277704 2288444 
1671.105 2299505 2311059 2323228 2335949 2349086 2362415 2375754 2388895 
1674.962 2401662 2413841 2425287 2435938 2445877 2455461 2465240 2475837 
1678.820 2487909 2501929 2518138 2536594 2557107 2579460 2603374 2628562 
1682.677 2654622 2681064 2707321 2732873 2757380 2780882 2803772 2826762 
1686.535 2850678 2876247 2903870 2933671 2965377 2998581 3032846 3067851 
1690.392 3103423 3139586 3176448 3214210 3253059 3293229 3334862 3378016 
1694.250 3422689 3468766 3516134 3564696 3614578 3666121 3719863 3776491 
1698.107 3836553 3900475 3968401 4040363 4116387 4196663 4281703 4372131 
1701.964 4468660 4571756 4681451 4797383 4918843 5045142 5175831 5310885 
1705.822 5450898 5596779 5749640 5910518 6080192 6259180 6447783 6646158 
1709.679 6854480 7072976 7301929 7541719 7792746 8055560 8330707 8618714 
1713.537 8920015 9234815 9563067 9904506 10258625 10624923 11002914 11392166 
1717.394 11792315 12202922 12623540 13053824 13493663 13943535 14404604 
1720.769 14878775 15368368 15875903 16403653 16953412 17526584 18124236 
1724.145 18747494 19397736 20076692 20786292 21528542 22305412 23118676 
1727.520 23970098 24861432 25794334 26770476 27791128 28857210 29969602 
1730.895 31129330 32338380 33600004 34918832 36300444 37750660 39274692 
1734.270 40876796 42560284 44328292 46184360 48132948 50178980 52326800 
1737.646 54578692 56933768 59387296 61931260 64555312 67247704 69995608 
1741.021 72784304 75595624 78406712 81189672 83913072 86544432 89053208 
1744.396 91412680 93600464 95597312 97385936 98950232 100276232 101353896 
1747.771 102179096 102754320 103088000 103192376 103081488 102769360 
1750.664 102269552 101594840 100757464 99768224 98636072 97367592 95967368 
1754.040 94439336 92788432 91022096 89150784 87187336 85145864 83040336 
1757.415 80884128 78689840 76470216 74238328 72007568 69791136 67600928 
1760.790 65446912 63337016 61277736 59274912 57334440 55462116 53663040 
1764.165 51940644 50295796 48726860 47230088 45800944 44435428 43130828 
1767.541 41885760 40699660 39571472 38498960 37477920 36502568 35566136 
1770.916 34661756 33783324 32925948 32085990 31260812 30448384 29646794 
1774.291 28854016 28067654 27285158 26503854 25721336 24935898 24146644 
1777.666 23353950 22559198 21764650 20972950 20186662 19407948 18638384 
1781.042 17879110 17131146 16395618 15674065 14968604 14281732 13616186 
1784.417 12974705 12359652 11773023 11216282 10690244 10195273 9731083 
1787.792 9296931 8891585 8513388 8160609 7831392 7524057 7237308 6970145 
1791.649 6721753 6491507 6278698 6082479 5901815 5735400 5581691 5439061 
1795.507 5305737 5180129 5060902 4947346 4839258 4737088 4641442 4552877 
1799.364 4471380 4396286 4326280 4259760 4195297 4131966 4069592 4008443 
1803.222 3949049 3891718 3836320 3782458 3729627 3677700 3627104 3578763 
1807.079 3533696 3492657 3455493 3421226 3388088 3354220 3318161 3279409 
1810.937 3238449 3196527 3155074 3115295 3077658 3041893 3007218 2972777 
1814.794 2937978 2902888 2868226 2835277 2805581 2780457 2760822 2746821 
1818.651 2737810 2732415 2728896 2725362 2720215 2712230 2700676 2685258 
1822.509 2665738 2642077 2614097 2581822 2545585 2506282 2465375 2424792 
1826.366 2386460 2351967 2322109 2296810 2275264 2256294 2238770 2221796 
1830.224 2204848 2187608 2169570 2149987 2127793 2101864 2071360 2036179 
1834.081 1996994 1955341 1913121 1872458 1835094 1802284 1774722 1752732 
1837.938 1736268 1725046 1718383 1715185 1713784 1712060 1707698 1698597 
1841.796 1683323 1661562 1634194 1603337 1571872 1543000 1519418 1503032 
1845.653 1494241 1492189 1494816 1499290 1502794 1502893 1498274 1488835 
1849.511 1475690 1460806 1446384 1434405 1425912 1420818 1418058 1415866 
1853.368 1412234 1405838 1396064 1383428 1369362 1355710 1344285 1336284 
1857.226 1332014 1330946 1331767 1333039 1333473 1332215 1328983 1324026 
1861.083 1317750 1310637 1302957 1294860 1286415 1277527 1268152 1258114 
1864.940 1247107 1234607 1219956 1202740 1182933 1161312 1139586 1120202 
1868.798 1105802 1098754 1100256 1110037 1126172 1145487 1164112 1178394 
1872.655 1185510 1184140 1174480 1158197 1137866 1116533 1097116 1082047 
1876.513 1072868 1070245 1073854 1082415 1094033 1106259 1116724 1123395 
1880.370 1125123 1121829 1114439 1104644 1094219 1084574 1076082 1068422 
1884.228 1060612 1051876 1041972 1031691 1022500 1015958 1012983 1013393 
1888.085 1015749 1018080 1018764 1017497 1015753 1016183 1021726 1034107 
1891.942 1052598 1073852 1092555 1102974 1100863 1084899 1057317 1023168 
1895.800 988845 960289 941251 932482 931968 935824 939644 940010 935270 
1900.139 926129 915189 906434 903970 911004 928879 956468 990188 1024870 
1904.479 1054651 1074750 1082608 1078244 1064330 1044929 1024070 1004293 
1908.336 986022 967501 945751 917866 882357 839970 793575 747790 707739 
1912.676 678132 662091 660795 673070 696015 725373 756619 785458 808729 
1917.016 824749 833382 835620 833300 828244 822196 816313 811429 808156 
1921.355 806508 806132 805794 803461 796682 783196 761855 733259 699537 
1925.695 663889 629384 597942 570244 546090 526013 512070 508320 519704 
1930.034 549901 598675 660501 724643 778095 809101 811242 785628 740304 
1934.374 687188 637755 598988 571882 552287 534121 513076 489436 467973 
1938.714 455993 459820 481598 517794 560095 598117 622688 628249 613914 
1943.053 582601 539767 491550 444114 402871 373184 359542 365473 391897 
1947.393 437238 497531 567461 642403 719695 798276 877582 954674 1022797 
1951.732 1071105 1086384 1058039 981964 863490 717792 565701 428624 322434 
1956.072 253640 219172 209130 212023 219750 230448 248541 281034 332399 
1960.412 400441 474869 538901 574587 568012 514858 422073 306773 192238 
1964.751 102465 56145 63354 123108 224925 351510 482522 599817 690735 750473 
1969.573 782387 796472 805795 822943 855875 905640 966990 1029572 1083575 
1973.913 1122594 1148442 1170278 1203332 1263517 1362257 1500380 1667343 
1977.770 1841659 1997574 2112171 2171647 2172977 2123089 2034533 1922020 
1981.627 1799301 1678024 1566981 1472020 1396292 1340209 1300922 1273600 
1985.485 1251186 1226798 1194324 1149983 1093599 1027793 957835 891083 
1989.342 835583 799547 790324 812464 866596 947811 1044794 1141751 1219705 
1993.682 1262631 1260369 1212997 1131170 1033702 942227 875540 843775 846812 
1998.021 874061 908966 933718 934853 905967 848942 772032 687119 606122 
2002.361 538365 489125 459184 445706 444292 450080 459692 472116 489053 
2006.701 513304 548327 594826 650763 709191 761246 796974 808800 792456 
2011.040 748851 682138 599408 508191 416256 330426 257187 202450 171115 
2015.380 165630 185693 227209 283705 347163 410240 468014 517969 558528 
2019.719 588629 605287 605269 586023 547999 496119 439638 388808 352953 
2024.059 336125 338468 356689 388833 436452 506441 607120 744204 913957 
2028.399 1101634 1282705 1429294 1519290 1543663 1509313 1436645 1351786 
2032.256 1278137 1229296 1206372 1201105 1201998 1200834 1197961 1200972 
2036.114 1222547 1273336 1357562 1470039 1596750 1716808 1807837 1849082 
2039.971 1826520 1735721 1583209 1386454 1170820 964199 791358 667824 597890 
2044.311 574482 584034 612874 653923 709470 789972 907771 1069093 1267002 
2048.650 1478978 1672082 1812328 1875839 1856167 1764795 1626459 1470880 
2052.508 1325385 1209068 1130381 1087299 1070971 1069189 1071639 1071331 
2056.365 1065701 1054627 1039212 1019772 996016 967167 933645 897185 861335 
2060.705 830652 809701 801606 807157 824656 849978 877514 901458 917120 
2065.044 922491 918399 908904 899959 897845 906883 927964 957787 989844 
2069.384 1015971 1029685 1027600 1011373 986668 961514 943641 937844 944476 
2073.723 959944 977763 991535 997104 994005 985856 979470 982550 1001847 
2078.063 1040971 1099486 1172405 1251054 1324262 1380685 1410393 1407259 
2081.920 1369739 1301862 1212187 1112497 1015238 931783 869726 832217 817415 
2086.260 819564 830135 839798 840167 825244 792227 742135 679205 610427 
2090.600 543989 487997 448844 430357 432943 454249 489591 533352 580059 
2094.939 625106 665412 699253 726009 745947 759754 768655 773929 776547 
2099.279 776782 774273 767587 755748 738521 718026 698747 687157 690165 
2103.618 712805 756273 817038 887054 956104 1014224 1054713 1075450 1079172 
2107.958 1071921 1060759 1051403 1047133 1048249 1052938 1058760 1063524 
2111.815 1065714 1064668 1059614 1049572 1033116 1008936 976621 937343 
2115.673 893923 850419 810878 778268 753443 734930 719207 702178 680326 
2120.012 651855 617424 579659 542233 508353 479539 454876 431164 404089 
2124.352 369802 326624 275952 222016 170502 126253 91211 63327 36624 3463 
2129.174 -42944 -105822 -183302 -268524 -351933 -423678 -476540 -507178 
2133.031 -516113 -506310 -481339 -444153 -397173 -343254 -287114 -235369 
2136.889 -195492 -173556 -171212 -184538 -205617 -225337 -238336 -246799 
2140.746 -261412 -298463 -374346 -498551 -668641 -867915 -1069058 -1240499 
2144.604 -1355128 -1397437 -1367675 -1281093 -1163710 -1044936 -951131 
2147.979 -899948 -898148 -942490 -1022508 -1124293 -1234795 -1344086 
2151.354 -1448238 -1548956 -1653044 -1770510 -1911503 -2083136 -2286677 
2154.729 -2514800 -2751022 -2970030 -3140093 -3226880 -3199252 -3036912 
2158.104 -2738571 -2326849 -1848875 -1365616 -936768 -604967 -388434 -279775 
2161.962 -254816 -281071 -328178 -373712 -406045 -423749 -431062 -432943 
2165.819 -431597 -423991 -404544 -367590 -311810 -242200 -169538 -107428 
2169.677 -68008 -57568 -74283 -108622 -146463 -174141 -182700 -171502 
2173.534 -147614 -123170 -111461 -120540 -151537 -197755 -247654 -289042 
2177.392 -314440 -322313 -317752 -308569 -302225 -302141 -306348 -308641 
2181.249 -301282 -278713 -239954 -188583 -131216 -74064 -20383 31027 84402 
2185.589 144872 215577 295878 381295 464670 538306 595561 631540 643532 
2189.928 629978 591142 528842 447689 355475 263251 183334 127430 102861 
2194.268 111617 149492 207339 274148 339557 395436 437045 462065 470085 
2198.607 462056 439873 407659 371351 338494 316886 312579 327866 360682 
2202.947 404869 452367 495380 528347 548864 557149 554867 544063 526418 
2207.287 503328 477029 450931 429944 419459 424249 446719 486119 538489 
2211.626 597457 655291 704685 739702 756404 753959 734122 701905 664436 
2215.966 630092 606319 598454 608010 632970 668567 709148 750274 789374 
2220.305 826585 862586 898067 931740 960813 981940 992646 992972 986100 
2224.645 976991 970977 971657 979422 992013 1005357 1015307 1019376 1017090 
2228.985 1010004 1000497 990852 983026 978355 978141 984201 998140 1021044 
2233.324 1052198 1088419 1124257 1152968 1168020 1165138 1143136 1104384 
2237.182 1054240 999411 946941 902689 870638 852851 849224 858266 877247 
2241.521 903241 933324 965584 998821 1032798 1067327 1102063 1135615 1165714 
2245.861 1189643 1205156 1211067 1207686 1196620 1180017 1159903 1137780 
2249.718 1114935 1092742 1073417 1060278 1056923 1066231 1089211 1124061 
2253.576 1166584 1211578 1254485 1293266 1328563 1363372 1400795 1441996 
2257.433 1484636 1523012 1549028 1555274 1536989 1494378 1432783 1361425 
2261.291 1291638 1233700 1195269 1179687 1186397 1211385 1248887 1292372 
2265.148 1336335 1376454 1410254 1436985 1456843 1470855 1480352 1486458 
2269.005 1490346 1493327 1496943 1503233 1514302 1531904 1556689 1587688 
2272.863 1622108 1655910 1684719 1705168 1715798 1717604 1713970 1709192 
2276.720 1707643 1712043 1722856 1738268 1754949 1769150 1778205 1781312 
2280.578 1779942 1777279 1777454 1784004 1798842 1821678 1849854 1879029 
2284.435 1904382 1921810 1928839 1925548 1914068 1898151 1882169 1869866 
2288.292 1863570 1863770 1869039 1876630 1883242 1885835 1882387 1872183 
2292.150 1855925 1835384 1812881 1790667 1770755 1754243 1741781 1733200 
2296.007 1727999 1725381 1724342 1723844 1722726 1720058 1715181 1708062 
2299.865 1699235 1689777 1680960 1673799 1668589 1664867 1661391 1656719 
2303.722 1649888 1640819 1630490 1620623 1613145 1609506 1610324 1615298 
2307.580 1623647 1634533 1647494 1662366 1679208 1697639 1716720 1734776 
2311.437 1749936 1760754 1766790 1768827 1768681 1768573 1770448 1775485 
2315.294 1784061 1795961 1810656 1827697 1846530 1866508 1886702 1906250 
2319.152 1924933 1943854 1965631 1993915 2031885 2080312 2135705 2189829 
2323.009 2230902 2246264 2226073 2166142 2069434 1945529 1808513 1673617 
2326.867 1554071 1458530 1389991 1346139 1320977 1307412 1299316 1292602 
2330.724 1285807 1279174 1273516 1269656 1267641 1267089 1267319 1267777 
2334.582 1268101 1268183 1267818 1266693 1264313 1260308 1254492 1246971 
2338.439 1238154 1228659 1218879 1209126 1199638 1190539 1182119 1174663 
2342.296 1168451 1163628 1160176 1157823 1156522 1156390 1157878 1161511 
2346.154 1167592 1175713 1184490 1191918 1195595 1193581 1185101 1170846 
2350.011 1152950 1134396 1118176 1106678 1100965 1100789 1104845 1111282 
2353.869 1118117 1123796 1127173 1127775 1125370 1120170 1112402 1102430 
2357.726 1090559 1077026 1061895 1045330 1027451 1008651 989610 971157 
2361.583 954382 940099 928616 919815 912908 906977 901148 895024 888748 
2365.923 882959 878458 875845 875280 876376 878430 880595 882453 884058 
2370.263 886036 889275 894717 902858 913627 926226 939418 951840 962314 
2374.602 970174 975431 978720 981056 983560 987131 992223 998851 1006574 
2378.942 1014761 1022785 1030168 1036654 1042170 1046741 1050532 1053735 
2382.799 1056732 1060169 1064820 1071300 1079900 1090109 1100546 1109103 
2386.657 1113419 1111686 1103131 1088624 1070396 1051643 1035485 1024274 
2390.514 1018985 1019063 1023005 1029038 1035850 1043098 1051214 1061153 
2394.372 1073502 1088093 1103743 1118527 1130333 1137722 1140247 1138790 
2398.229 1135059 1130924 1127728 1125946 1124966 1123528 1120336 1114738 
2402.086 1106950 1098122 1089886 1083796 1080964 1081744 1085841 1092848 
2405.944 1102250 1114019 1128291 1145168 1164329 1184664 1204437 1221499 
2409.801 1233724 1239668 1238809 1231765 1220038 1205720 1191059 1178100 
2413.659 1168470 1163114 1162279 1165359 1171111 1177772 1183440 1186608 
2417.516 1186586 1183695 1179247 1175000 1172673 1173215 1176530 1181623 
2421.374 1186856 1190745 1192256 1191162 1187818 1182816 1176683 1169589 
2425.231 1161462 1152527 1143353 1135226 1129859 1128864 1133113 1142342 
2429.088 1154993 1168667 1180721 1189148 1193009 1192667 1189309 1184573 
2432.946 1179917 1176140 1173527 1171729 1170460 1169623 1169479 1170682 
2436.803 1173869 1179695 1188259 1199303 1212085 1225658 1239034 1251468 
2440.661 1262344 1271565 1279095 1285055 1289315 1291667 1291578 1288595 
2444.518 1282414 1273279 1262042 1250155 1239362 1231421 1227578 1228313 
2448.375 1233470 1242152 1253128 1265087 1276624 1286516 1293436 1296305 
2452.233 1294126 1286541 1273936 1257519 1239371 1221852 1207176 1196881 
2456.090 1191339 1190083 1191773 1195021 1198599 1201833 1204474 1206524 
2459.948 1208063 1208909 1208940 1207940 1206122 1204090 1202634 1202390 
2463.805 1203641 1205891 1208052 1208709 1206599 1201191 1192773 1182476 
2467.663 1171779 1162295 1155064 1150518 1148609 1148991 1151267 1155116 
2471.520 1160184 1165825 1171112 1174596 1174983 1171292 1163498 1152692 
2475.377 1140880 1130475 1123598 1121246 1123140 1127747 1132920 1136609 
2479.235 1137760 1136520 1134333 1133158 1135098 1141293 1151805 1165523 
2483.092 1180412 1194343 1205502 1213004 1216953 1218238 1218283 1218444 
2486.950 1219497 1221542 1223939 1225693 1225856 1224066 1220657 1216663 
2490.807 1213427 1211975 1212636 1214582 1216154 1215412 1210876 1202160 
2494.665 1190333 1177575 1166544 1159405 1157171 1159309 1164066 1169160 
2498.522 1172415 1172759 1170231 1166069 1162191 1160807 1163653 1172088 
2502.379 1186387 1206075 1229549 1254304 1277160 1294890 1304800 1305656 
2506.237 1298058 1284499 1268727 1254606 1245365 1242511 1245979 1254495 
2510.094 1266329 1280012 1294586 1309437 1323672 1335967 1344299 1346656 
2513.952 1341720 1329791 1313035 1294926 1279520 1269947 1267566 1271969 
2517.809 1281184 1292827 1304754 1315723 1325109 1332403 1336817 1337056 
2521.667 1331899 1320676 1304341 1285346 1267125 1253173 1245603 1244547 
2525.524 1247975 1252657 1255369 1253999 1248115 1238891 1228207 1217808 
2529.381 1208711 1201060 1194398 1188362 1182925 1178445 1175150 1172965 
2533.239 1170906 1167778 1162340 1154253 1144542 1135379 1129542 1129494 
2537.096 1136333 1149606 1167262 1186458 1204312 1218730 1228731 1234335 
2540.954 1236374 1235987 1234560 1233304 1233580 1236567 1243049 1253183 
2544.811 1266042 1279863 1292043 1300175 1302530 1298883 1290614 1280506 
2548.668 1271796 1267372 1268705 1275646 1286282 1297762 1307134 1312318 
2552.526 1312720 1309270 1304227 1300236 1299582 1303424 1311552 1322451 
2556.383 1333912 1343690 1350204 1352655 1351340 1347141 1341112 1334300 
2560.241 1327460 1321065 1315441 1311042 1308257 1307601 1309316 1313524 
2564.098 1319952 1328257 1337891 1348165 1358297 1367307 1373935 1376924 
2567.956 1375235 1368834 1358864 1347977 1339914 1338778 1348012 1369194 
2571.813 1401571 1441789 1484784 1524648 1556059 1575543 1582153 1577656 
2575.670 1565948 1552159 1541292 1537088 1540951 1551866 1566537 1580504 
2579.528 1589477 1590701 1583827 1571028 1556412 1544603 1539349 1542343 
2583.385 1552741 1567649 1583268 1596115 1604111 1607182 1606656 1604835 
2587.243 1603751 1604581 1607246 1610738 1613684 1614820 1613501 1609892 
2591.100 1604731 1599142 1594396 1591591 1591644 1595182 1602312 1612803 
2594.958 1625698 1639637 1652796 1663448 1670254 1672616 1670839 1666152 
2598.815 1660370 1655505 1653163 1654371 1659206 1666861 1675953 1684787 
2602.672 1691813 1696031 1697037 1695039 1690631 1684593 1677588 1670169 
2606.530 1662854 1656316 1651407 1649230 1650754 1656463 1665980 1678013 
2610.387 1690428 1700855 1707353 1708968 1706032 1700108 1693408 1688262 
2614.245 1686473 1688938 1695608 1705571 1717466 1729673 1740619 1748989 
2618.102 1753892 1755079 1752952 1748683 1743963 1740572 1740045 1743117 
2621.959 1749666 1758688 1768737 1778438 1786703 1793117 1797829 1801473 
2625.817 1804649 1808031 1812129 1817327 1823675 1831212 1839479 1847695 
2629.674 1854790 1859639 1861548 1860462 1857063 1852591 1848303 1845060 
2633.532 1842941 1841283 1839057 1835464 1830502 1825167 1821098 1820189 
2637.389 1823673 1831777 1843340 1856205 1867893 1876183 1879664 1878007 
2641.247 1871936 1862883 1852662 1843061 1835691 1831514 1830860 1833242 
2645.104 1837458 1841801 1844640 1844709 1841685 1836147 1829341 1822765 
2648.961 1817533 1813993 1811710 1809765 1807150 1803356 1798535 1793434 
2652.819 1788851 1785399 1783009 1780984 1778315 1774091 1767873 1759919 
2656.676 1750979 1741957 1733540 1725925 1718727 1711286 1702779 1692606 
2660.534 1680515 1666553 1650994 1634117 1616288 1597695 1578624 1559228 
2664.391 1539801 1520736 1502455 1485522 1470562 1458247 1449168 1443621 
2668.249 1441340 1441511 1442721 1443277 1441683 1437097 1429516 1419998 
2672.106 1410109 1401544 1395469 1392170 1391005 1390717 1389973 1387864 
2675.963 1384274 1379875 1375869 1373523 1373662 1376442 1381270 1386873 
2679.821 1391867 1394912 1395046 1391809 1385253 1375924 1364597 1352358 
2683.678 1340377 1329886 1322064 1317803 1317599 1321382 1328434 1337461 
2687.536 1346862 1354879 1360123 1361737 1359691 1354678 1347897 1340770 
2691.393 1334561 1330145 1327821 1327445 1328477 1330286 1332194 1333444 
2695.250 1333493 1331780 1327871 1321720 1313633 1304586 1295924 1289258 
2699.108 1285998 1286924 1292020 1300321 1310227 1319901 1327778 1332878 
2702.965 1334873 1334133 1331281 1326942 1321550 1315368 1308486 1301076 
2706.823 1293392 1286086 1279785 1275241 1272864 1272864 1274987 1278682 
2710.680 1283158 1287628 1291399 1294136 1295829 1296832 1297781 1299393 
2714.538 1302225 1306567 1312267 1318642 1324828 1329861 1332947 1333794 
2718.395 1332437 1329320 1325164 1320587 1316028 1311712 1307487 1303023 
2722.252 1298019 1292248 1285754 1278921 1272405 1267147 1263976 1263597 
2726.110 1266240 1271641 1279054 1287365 1295377 1302196 1307299 1310694 
2729.967 1312718 1313992 1314974 1316003 1317123 1318262 1319309 1320201 
2733.825 1320993 1321885 1322879 1323982 1324968 1325568 1325489 1324623 
2737.682 1323086 1321090 1318946 1316911 1315134 1313658 1312429 1311466 
2741.540 1310815 1310614 1311083 1312361 1314623 1317851 1321999 1326811 
2745.397 1331854 1336486 1339895 1341189 1339639 1334755 1326610 1315820 
2749.254 1303416 1290787 1279104 1269298 1261819 1256770 1254060 1253616 
2753.112 1255587 1260241 1267996 1279038 1293046 1309193 1326013 1341824 
2756.969 1354706 1363203 1366362 1363920 1356337 1344804 1330753 1315969 
2760.827 1302013 1290273 1281610 1276487 1274740 1275860 1278849 1282673 
2764.684 1286230 1288630 1289309 1288200 1285728 1282765 1280365 1279486 
2768.542 1280784 1284271 1289364 1295117 1300455 1304737 1307795 1310149 
2772.399 1312763 1316632 1322333 1329922 1338704 1347582 1355423 1361378 
2776.256 1365075 1366625 1366369 1364726 1361900 1357965 1352986 1347223 
2780.114 1341142 1335506 1331088 1328524 1328018 1329357 1331965 1335217 
2783.971 1338451 1341360 1343720 1345595 1347209 1348805 1350869 1354063 
2787.829 1359126 1366667 1376819 1389208 1402623 1415379 1425783 1432571 
2791.686 1435495 1435312 1433697 1432587 1433668 1437896 1445274 1455102 
2795.543 1466227 1477488 1488042 1497286 1504948 1510866 1514948 1517397 
2799.401 1518738 1519911 1522202 1526899 1534888 1546189 1559987 1574676 
2803.258 1588402 1599687 1607691 1612647 1615505 1617563 1619961 1623330 
2807.116 1627756 1632900 1638216 1643411 1648438 1653674 1659583 1666664 
2810.973 1675183 1685179 1696473 1708726 1721617 1734827 1748127 1761386 
2814.831 1774490 1787504 1800563 1813759 1827284 1841307 1855839 1871012 
2818.688 1886923 1903761 1921794 1941344 1962527 1985289 2009317 2034109 
2822.545 2059132 2084055 2109011 2134369 2160961 2189483 2220508 2254164 
2826.403 2290111 2327742 2366361 2405435 2444736 2484406 2524982 2567193 
2830.260 2611819 2659599 2710904 2765922 2824142 2884763 2946752 3009079 
2834.118 3071142 3133025 3195586 3260149 3328251 3401002 3478654 3560639 
2837.975 3645620 3732297 3819732 3907996 3998063 4091698 4190625 4296096 
2841.833 4408699 4528248 4654418 4787065 4926789 5074798 5232737 5401900 
2845.690 5582614 5773856 5972960 6175969 6377975 6573412 6756411 6920961 
2849.547 7061121 7171212 7246445 7283450 7281004 7240323 7164991 7060549 
2853.405 6933472 6790372 6636908 6477542 6315423 6152649 5990700 5831025 
2857.262 5675009 5524179 5379931 5243350 5114941 4994739 4882451 4777555 
2861.120 4679593 4588356 4503803 4426069 4355247 4291325 4234101 4183185 
2864.977 4138337 4099388 4066481 4040076 4020878 4009613 4006854 4012886 
2868.834 4027628 4050704 4081356 4118787 4161828 4209356 4259839 4311817 
2872.692 4363687 4414242 4462802 4509324 4554483 4599408 4645163 4692404 
2876.549 4740985 4789906 4837595 4882273 4922526 4957466 4987025 5011705 
2880.407 5032323 5049691 5064433 5076824 5087082 5095254 5101638 5106642 
2884.264 5110889 5115019 5119659 5125304 5132418 5141325 5152280 5165472 
2888.122 5181103 5199414 5220677 5245393 5274058 5307302 5345595 5389199 
2891.979 5437885 5491031 5547521 5606210 5666038 5726134 5786107 5845946 
2895.836 5905771 5965937 6026703 6088334 6151012 6214810 6279722 6345696 
2899.694 6412535 6480086 6548343 6617520 6688247 6761440 6837925 6918312 
2903.551 7002476 7089685 7178581 7267749 7356131 7443673 7531445 7621393 
2907.409 7716113 7817993 7928833 8049632 8180488 8320889 8470201 8627926 
2911.266 8793824 8968172 9151375 9344090 9546809 9759997 9983723 10217679 
2915.124 10460951 10711925 10968044 11225964 11481377 11729353 11964407 
2918.499 12181039 12374015 12538885 12672526 12773523 12842374 12881383 
2921.874 12894088 12884831 12857623 12815830 12761644 12696403 12620771 
2925.249 12535501 12441605 12340716 12234851 12126318 12017026 11908701 
2928.625 11802562 11699556 11600398 11505865 11416495 11332847 11255321 
2932.000 11184235 11119961 11063121 11014605 10975479 10946704 10928965 
2935.375 10922434 10926653 10940892 10964287 10995986 11035345 11081671 
2938.750 11133976 11191007 11250992 11311961 11372039 11429467 11482769 
2942.125 11530474 11570632 11600596 11617202 11616895 11596662 11554551 
2945.501 11490288 11405322 11302387 11184838 11055907 10918195 10773554 
2948.876 10623035 10467494 10307624 10144372 9978826 9812281 9646020 9481417 
2952.733 9319763 9162414 9010406 8864468 8724645 8590364 8460418 8333406 
2956.591 8208215 8084275 7961876 7841889 7725474 7613706 7507052 7405357 
2960.448 7307957 7213890 7122247 7032455 6944178 6857540 6773013 6691339 
2964.306 6613351 6540016 6472154 6410029 6353395 6301176 6251686 6203139 
2968.163 6153955 6103382 6051709 6000237 5950851 5905630 5866200 5833703 
2972.021 5808422 5790205 5778422 5772281 5770910 5773452 5779088 5787200 
2975.878 5797470 5810126 5825624 5844793 5868296 5896590 5929695 5967614 
2979.735 6010271 6058366 6113036 6176212 6249678 6334974 6432544 6541901 
2983.593 6661708 6790527 6927284 7071884 7225033 7388036 7561854 7746652 
2987.450 7941188 8142914 8348248 8553397 8754651 8948956 9134042 9308217 
2991.308 9470098 9618404 9751697 9868558 9967357 10046671 10105349 10142811 
2995.165 10158928 10154423 10130755 10090084 10034946 9968159 9891995 
2998.540 9808227 9717625 9620180 9515109 9401564 9278775 9146664 9005911 
3002.398 8857886 8704422 8547302 8387900 8226939 8064349 7899583 7731922 
3006.255 7560911 7386730 7210286 7032973 6856615 6682747 6512578 6346684 
3010.113 6185339 6028479 5876224 5728863 5586863 5450580 5320272 5195652 
3013.970 5076147 4960947 4849356 4740789 4635022 4531831 4430923 4331714 
3017.827 4233447 4135369 4037075 3938856 3841792 3747405 3657411 3573044 
3021.685 3494680 3421918 3353715 3288987 3227022 3167828 3112089 3060634 
3025.542 3014148 2972535 2934849 2899417 2864240 2827596 2788469 2746606 
3029.400 2702889 2658589 2615325 2574589 2537540 2504697 2476080 2451023 
3033.257 2428368 2406569 2384102 2359666 2332688 2303302 2272747 2242824 
3037.115 2215517 2192229 2173624 2158925 2146465 2133766 2118607 2099536 
3040.972 2076296 2050115 2023123 1997724 1976016 1958951 1946396 1936878 
3044.829 1928474 1919094 1907286 1892414 1874918 1855862 1836824 1819277 
3048.687 1804317 1792365 1783237 1776093 1769798 1763121 1755275 1745859 
3052.544 1735263 1724459 1714779 1707383 1703153 1702202 1703947 1707323 
3056.402 1711326 1715177 1718680 1722050 1725863 1730201 1734807 1738624 
3060.259 1740460 1739059 1733836 1725106 1714145 1702841 1693375 1687504 
3064.116 1686423 1690441 1699213 1711651 1726204 1740906 1753668 1762440 
3067.974 1765693 1762798 1754482 1742651 1730147 1719939 1714241 1713882 
3071.831 1718058 1724669 1731179 1735381 1736293 1734192 1730439 1726541 
3075.689 1723570 1721517 1719288 1715241 1707950 1696639 1681875 1665238 
3079.546 1648971 1635035 1624701 1618115 1614266 1611408 1607815 1602112 
3083.404 1593957 1583898 1573288 1563742 1556633 1552398 1550571 1549696 
3087.261 1548024 1544074 1537277 1528388 1519165 1511927 1508529 1509489 
3091.118 1513774 1518703 1521064 1517933 1507920 1491613 1471656 1451684 
3094.976 1435492 1425537 1422597 1425463 1431637 1438083 1442312 1442931 
3098.833 1439782 1433769 1426560 1419723 1414628 1411909 1411609 1413044 
3102.691 1415134 1416579 1416145 1412945 1406721 1397854 1387404 1376734 
3106.548 1367215 1359816 1354910 1352281 1351305 1351119 1351141 1350966 
3110.406 1350561 1350042 1349751 1349898 1350826 1352754 1356016 1360696 
3114.263 1366598 1373054 1378939 1382750 1383246 1379600 1372072 1361975 
3118.120 1351521 1343142 1338945 1339935 1345800 1354937 1364912 1373073 
3121.978 1377433 1376977 1371943 1363614 1354071 1345414 1339463 1337275 
3125.835 1339092 1344225 1351370 1359050 1365886 1370912 1373783 1374937 
3129.693 1375128 1375256 1376118 1377985 1380545 1383127 1384913 1385084 
3133.550 1383441 1380129 1375851 1371362 1367597 1365005 1363850 1363829 
3137.407 1364574 1365498 1366191 1366191 1365297 1363195 1359758 1354806 
3141.265 1348445 1340988 1333099 1325796 1320185 1317169 1317424 1320961 
3145.122 1327213 1335057 1343230 1350406 1355762 1358940 1360180 1359946 
3148.980 1359090 1358055 1357198 1356394 1355368 1353719 1351195 1347710 
3152.837 1343591 1339365 1335750 1333464 1333035 1334685 1338362 1343625 
3156.695 1349945 1356596 1363090 1369068 1374594 1379752 1384900 1390156 
3160.552 1395393 1400071 1403438 1404446 1402310 1396585 1387385 1375462 
3164.409 1362128 1348940 1337464 1328866 1323847 1322226 1323370 1325977 
3168.267 1328755 1330473 1330580 1329192 1327199 1325894 1326584 1330075 
3172.124 1336273 1344129 1351913 1357714 1360098 1358573 1353765 1347213 
3175.982 1340841 1336199 1334201 1334723 1337083 1340264 1343519 1346489 
3179.839 1349427 1352526 1355838 1358673 1359911 1358137 1352337 1342233 
3183.697 1328814 1314083 1300573 1290885 1286894 1289454 1298121 1311439 
3187.554 1327375 1343647 1358273 1369885 1377947 1382692 1385133 1386656 
3191.411 1388798 1392736 1398929 1406963 1415491 1422675 1426653 1425992 
3195.269 1420239 1409981 1396822 1382752 1369951 1359982 1353875 1351639 
3199.126 1352902 1356596 1361768 1367424 1372900 1377756 1381703 1384547 
3202.984 1386042 1385682 1383049 1377585 1369171 1358105 1345568 1333307 
3206.841 1323564 1318431 1319488 1327004 1340052 1356411 1373164 1387528 
3210.698 1397460 1402290 1402834 1401185 1399955 1401487 1407183 1417011 
3214.556 1429403 1441703 1451015 1454947 1452603 1444883 1434416 1424818 
3218.413 1419538 1420613 1428088 1439586 1451024 1457894 1456786 1446456 
3222.271 1428379 1406265 1384979 1368888 1360808 1361077 1368013 1378427 
3226.128 1389029 1397248 1401809 1402742 1401007 1397856 1394693 1392578 
3229.986 1392527 1395307 1401354 1410712 1422539 1435129 1446251 1453361 
3233.843 1454715 1449594 1438971 1424805 1409802 1396431 1386307 1379776 
3237.700 1376212 1374358 1373024 1371430 1369553 1367806 1366849 1367107 
3241.558 1368655 1371028 1373510 1375157 1375351 1373764 1370745 1367073 
3245.415 1364051 1362940 1364859 1370210 1378638 1388872 1399078 1407418 
3249.273 1412313 1412892 1409175 1401813 1391774 1379914 1366921 1353403 
3253.130 1339893 1327327 1317022 1310393 1308704 1312403 1321080 1333299 
3256.988 1347059 1360400 1372001 1381340 1388773 1394955 1400594 1405895 
3260.845 1410566 1413863 1415175 1414183 1411051 1406433 1401301 1396451 
3264.702 1392583 1390046 1388951 1389353 1391175 1394223 1398113 1402158 
3268.560 1405449 1407013 1406039 1402099 1395236 1385987 1375159 1363573 
3272.417 1352029 1341183 1331681 1324278 1319688 1318656 1321698 1328761 
3276.275 1339213 1351641 1364260 1375250 1383184 1387435 1388374 1387185 
3280.132 1385534 1384980 1386699 1390833 1396637 1402630 1407044 1408327 
3283.990 1405578 1398817 1389021 1377662 1366466 1357036 1350563 1347605 
3287.847 1348352 1352565 1359770 1369201 1379966 1391032 1401641 1411295 
3291.704 1420203 1429103 1439141 1451322 1466031 1482345 1498213 1510678 
3295.562 1516914 1514873 1504366 1487057 1466180 1445665 1428998 1418311 
3299.419 1414081 1415060 1419165 1424045 1427810 1429289 1428316 1425076 
3303.277 1420089 1413940 1407159 1400199 1393581 1387669 1382795 1378848 
3307.134 1375664 1372822 1370123 1367611 1365686 1364955 1365929 1368708 
3310.991 1372805 1377082 1380451 1381892 1381296 1379191 1376776 1375336 
3314.849 1375791 1378209 1381836 1385399 1387564 1387510 1385204 1381387 
3318.706 1377270 1373950 1372173 1371884 1372438 1372804 1372126 1369936 
3322.564 1366490 1362520 1359272 1357802 1358944 1363100 1370238 1379804 
3326.421 1391164 1403353 1415356 1425972 1433941 1438059 1437443 1431812 
3330.279 1421746 1408579 1394451 1381558 1371793 1366118 1364509 1365877 
3334.136 1368617 1371180 1372438 1372067 1370302 1367542 1364001 1359365 
3337.993 1352841 1343592 1331125 1315808 1299059 1282955 1269852 1261514 
3341.851 1258703 1261085 1267356 1275774 1284911 1293827 1302310 1310538 
3345.708 1318814 1327049 1334838 1341309 1345734 1347551 1346950 1344557 
3349.566 1341435 1338783 1337564 1338451 1341726 1347377 1354993 1363844 
3353.423 1372900 1380468 1384873 1384298 1377539 1364504 1346507 1326104 
3357.281 1306809 1292113 1284576 1285064 1292502 1304075 1316091 1325122 
3361.138 1328830 1326795 1320432 1312527 1306307 1304245 1307581 1315710 
3364.995 1326687 1337713 1346211 1350343 1349760 1345281 1338716 1331937 
3368.853 1326406 1322664 1320251 1318175 1315208 1310640 1304527 1297714 
3372.710 1291529 1287328 1285934 1287471 1291163 1295826 1300175 1303317 
3376.568 1304835 1305021 1304541 1304287 1304993 1307337 1311782 1318557 
3380.425 1327684 1338815 1351070 1363001 1372720 1378425 1378757 1373533 
3384.282 1363781 1351570 1339425 1329541 1323074 1319820 1318661 1317852 
3388.140 1316216 1313401 1310042 1307486 1306890 1308810 1312601 1317028 
3391.997 1320560 1322177 1321968 1320806 1319995 1320614 1322833 1325802 
3395.855 1328113 1328461 1326367 1322443 1318179 1315344 1315121 1317569 
3399.712 1321586 1325445 1327634 1327447 1325338 1322626 1320868 1320885 
3403.570 1322551 1324514 1325031 1322555 1316641 1307981 1298374 1289972 
3407.427 1284506 1282683 1284277 1288219 1293278 1298578 1303993 1309832 
3411.284 1316620 1324584 1333338 1341707 1348161 1351285 1350312 1345376 
3415.142 1337631 1328959 1321518 1316999 1316374 1319370 1324687 1330325 
3418.999 1334010 1333832 1328921 1319595 1307420 1294866 1284733 1279367 
3422.857 1280096 1286820 1298078 1311526 1324429 1334566 1340652 1342765 
3426.714 1342072 1340519 1340054 1342077 1346988 1354091 1361781 1368062 
3430.572 1371111 1369709 1363636 1353650 1341194 1328069 1316033 1306347 
3434.429 1299804 1296497 1296139 1298193 1302004 1307160 1313467 1320925 
3438.286 1329685 1339895 1351385 1363581 1375379 1385213 1391506 1392910 
3442.144 1388823 1379716 1367256 1353724 1341754 1333456 1329888 1330869 
3446.001 1335099 1340470 1345036 1347495 1347430 1345589 1343356 1342379 
3449.859 1344020 1349018 1357305 1368215 1380571 1393104 1404615 1414235 
3453.716 1421456 1426241 1428913 1430048 1430352 1430575 1431352 1433113 
3457.573 1436274 1441217 1448116 1457182 1468103 1480162 1492156 1502300 
3461.431 1508973 1510921 1507922 1500994 1492256 1484385 1479804 1480091 
3465.288 1485352 1494535 1505658 1516657 1526035 1533176 1538289 1542241 
3469.146 1545800 1549615 1554047 1559293 1565831 1574428 1586097 1601607 
3473.003 1620880 1642766 1664918 1684168 1697582 1703058 1700173 1690216 
3476.861 1675902 1660653 1647731 1639571 1637631 1642275 1653318 1670055 
3480.718 1691662 1717150 1745321 1774486 1802684 1827974 1848567 1863454 
3484.575 1872478 1876443 1876784 1875138 1872976 1871352 1870686 1871133 
3488.433 1872713 1875500 1880125 1887445 1898466 1914048 1934439 1959092 
3492.290 1986487 2014387 2040189 2061636 2077248 2086808 2091557 2093771 
3496.148 2096280 2101679 2111625 2126382 2144941 2165246 2184902 2201683 
3500.005 2214175 2221789 2224766 2223872 2219963 2213946 2206597 2198645 
3503.863 2190927 2184291 2179621 2177564 2178524 2182288 2188305 2195667 
3507.720 2203373 2210480 2216269 2220172 2221810 2220770 2216897 2209990 
3511.577 2200130 2187612 2173062 2157257 2141061 2125227 2110323 2096433 
3515.435 2083413 2070674 2057519 2043169 2027188 2009797 1991873 1975044 
3519.292 1961224 1952256 1949228 1951928 1958647 1966562 1972458 1973485 
3523.150 1968327 1957221 1942199 1926204 1912110 1901963 1896097 1893280 
3527.007 1890948 1886143 1876247 1859783 1836642 1808315 1777454 1747537 
3530.865 1722208 1704566 1696587 1698416 1708116 1721939 1735021 1742482 
3534.722 1740718 1728695 1708177 1683569 1660568 1644649 1639590 1646152 
3538.579 1662173 1683085 1703352 1718030 1723768 1719601 1706748 1688103 
3542.437 1667153 1647256 1630976 1619735 1613939 1613078 1616122 1621661 
3546.294 1628329 1634714 1639640 1642085 1641239 1636435 1627376 1614155 
3550.152 1597438 1578697 1559954 1543679 1532359 1527836 1530826 1540748 
3554.009 1555574 1572584 1588909 1602360 1611898 1617748 1621255 1624083 
3557.866 1627674 1632542 1638268 1643424 1646233 1645133 1639287 1628992 
3561.724 1615630 1601335 1588767 1580276 1577472 1580894 1589878 1602707 
3565.581 1616985 1630278 1640506 1646640 1648666 1647647 1645181 1642762 
3569.439 1641502 1641436 1641933 1641940 1640487 1637348 1633095 1628962 
3573.296 1626513 1626637 1629358 1633707 1637997 1640720 1640906 1639007 
3577.154 1636378 1634861 1635980 1640047 1646140 1652211 1656030 1656265 
3581.011 1652771 1646913 1640778 1636069 1633254 1631159 1627358 1619021 
3584.868 1604322 1583176 1557719 1531576 1508669 1491964 1482540 1479306 
3588.726 1479517 1480016 1478041 1472392 1463343 1452707 1442945 1436773 
3592.583 1436101 1441892 1453742 1469887 1487385 1502664 1512187 1513485 
3596.441 1505675 1490103 1470124 1450192 1434671 1426645 1427029 1434177 
3600.298 1444927 1455319 1462078 1463502 1459650 1452268 1443847 1437075 
3604.156 1434050 1436050 1443390 1455459 1470849 1487391 1502357 1512695 
3608.013 1515915 1510589 1497173 1477803 1456306 1436918 1423274 1417391 
3611.870 1419138 1426598 1436766 1446551 1453934 1458286 1460451 1462290 
3615.728 1465882 1472947 1484320 1499847 1518466 1538532 1558061 1575345 
3619.585 1588891 1597936 1602293 1602555 1599617 1594593 1588646 1582673 
3623.443 1577440 1573526 1571747 1572817 1577503 1586146 1598639 1614002 
3627.300 1630681 1646881 1660997 1672080 1680007 1685566 1689704 1693334 
3631.157 1696939 1700387 1703302 1705304 1706406 1707168 1708356 1710823 
3635.015 1714812 1719922 1724961 1728393 1728781 1725525 1718918 1710372 
3638.872 1702055 1696199 1694681 1698197 1706384 1717903 1730902 1743710 
3642.730 1755399 1765982 1776641 1788855 1803979 1822713 1844399 1867364 
3646.587 1889178 1907368 1920206 1926859 1927848 1924602 1919031 1913091 
3650.445 1908545 1906545 1907874 1912865 1921312 1932615 1945834 1959915 
3654.302 1973743 1986841 1999219 2011283 2023633 2036281 2048320 2057810 
3658.159 2062255 2059285 2047964 2029123 2005749 1982225 1963254 1952459 
3662.017 1951463 1959435 1973282 1988757 2001397 2007709 2005649 1994932 
3665.874 1976931 1954132 1929831 1907506 1890503 1881085 1880188 1887115 
3669.732 1899125 1912358 1922542 1925971 1920733 1906886 1886610 1863548 
3673.589 1841666 1824546 1814454 1812217 1817024 1826834 1838730 1849483 
3677.447 1856061 1855725 1846845 1828703 1802311 1769863 1735022 1701732 
3681.304 1673815 1654016 1643312 1641099 1645135 1652478 1660242 1666270 
3685.161 1669658 1670457 1669355 1666932 1663188 1657134 1647128 1631503 
3689.019 1609407 1581665 1551020 1521768 1498772 1486228 1486348 1498791 
3692.876 1520576 1546904 1572464 1592855 1605439 1609408 1605697 1595715 
3696.734 1580993 1562310 1540149 1515116 1488521 1462839 1441410 1427620 
3700.591 1423799 1430281 1445081 1464305 1483128 1497450 1504816 1505098 
3704.448 1500128 1492952 1486554 1482906 1482653 1485312 1489844 1495469 
3708.306 1502100 1510245 1520676 1533716 1548684 1563856 1577121 1586355 
3712.163 1590622 1590195 1586662 1582060 1578077 1575324 1572956 1569083 
3716.021 1561803 1549747 1533536 1515222 1498322 1486716 1483377 1489577 
3719.878 1504436 1525086 1547337 1566634 1578964 1581572 1573619 1555962 
3723.736 1531214 1503252 1476532 1455426 1443396 1442175 1451718 1470035 
3727.593 1493931 1519720 1544159 1565079 1581564 1593836 1602705 1609229 
3731.450 1614206 1618124 1621418 1624539 1627997 1632393 1637890 1644127 
3735.308 1650153 1654679 1656456 1654856 1650192 1643636 1636742 1630810 
3739.165 1626453 1623121 1619613 1614302 1606073 1594562 1580733 1566576 
3743.023 1554570 1547094 1545866 1551500 1563488 1580266 1599720 1619356 
3746.880 1637069 1651075 1660357 1664686 1664636 1661375 1656329 1650819 
3750.738 1645608 1640747 1635597 1629165 1620534 1609301 1595843 1581467 
3754.595 1568042 1557692 1552277 1553104 1560441 1573535 1590682 1609394 
3758.452 1627069 1641178 1650045 1652874 1650028 1642889 1633294 1623155 
3762.310 1613947 1606272 1600107 1594683 1589170 1582912 1575684 1567723 
3766.167 1559546 1551645 1544296 1537576 1531446 1525908 1521339 1518231 
3770.025 1517366 1519086 1523227 1529034 1535184 1540288 1543501 1544859 
3773.882 1545220 1546200 1549213 1554942 1562781 1570914 1576559 1577228 
3777.740 1571338 1559091 1542683 1525577 1511743 1504402 1505315 1514294 
3781.597 1529522 1548159 1567283 1584453 1598198 1607808 1613445 1615487 
3785.454 1614578 1611490 1607376 1603615 1601817 1603516 1609690 1620303 
3789.312 1634114 1648880 1661724 1669966 1671676 1666229 1654320 1637727 
3793.169 1618985 1600533 1584313 1571542 1562551 1556986 1553946 1552214 
3797.027 1550823 1548798 1545616 1540858 1534777 1527667 1520275 1513542 
3800.884 1508638 1506681 1508652 1514996 1525514 1539278 1554585 1569440 
3804.741 1581882 1590420 1594581 1594821 1592692 1590004 1588524 1589221 
3808.599 1591971 1595740 1599039 1600529 1599622 1596701 1593116 1590423 
3812.456 1590216 1592866 1597839 1603310 1606856 1606102 1599387 1586327 
3816.314 1567954 1546427 1524666 1505520 1491349 1483635 1482891 1488415 
3820.171 1498794 1511911 1525440 1537044 1545073 1548655 1547994 1544545 
3824.029 1540418 1538054 1539758 1546630 1558493 1573637 1589209 1601918 
3827.886 1608919 1608610 1601191 1588366 1573104 1558455 1546980 1539911 
3831.743 1537029 1536992 1537980 1538456 1537546 1535278 1532432 1529701 
3835.601 1527547 1525571 1522890 1518411 1511635 1502907 1493792 1486498 
3839.458 1483348 1485755 1493875 1506043 1519615 1531469 1539049 1541079 
3843.316 1537828 1530965 1522777 1515191 1509442 1505426 1502349 1498963 
3847.173 1494508 1488817 1482881 1478049 1475803 1477030 1481681 1488713 
3851.031 1496572 1503429 1507816 1508893 1506635 1501516 1494437 1486288 
3854.888 1477854 1469649 1461959 1454834 1448442 1442977 1438813 1436402 
3858.745 1436362 1439082 1444615 1452535 1461929 1471674 1480661 1488398 
3862.603 1495169 1502032 1510343 1521228 1534662 1549379 1562783 1571951 
3866.460 1574255 1568787 1556528 1540373 1524333 1512184 1506564 1508123 
3870.318 1515660 1526862 1539129 1550480 1559957 1567365 1572949 1576590 
3874.175 1577849 1576102 1570829 1562250 1551596 1540758 1531759 1526012 
3878.032 1523790 1524252 1525712 1526511 1525663 1523258 1520321 1518264 
3881.890 1518103 1519823 1522283 1523667 1522155 1516708 1507806 1497291 
3885.747 1488086 1483179 1484857 1493838 1509280 1528990 1550022 1569578 
3889.605 1585330 1595948 1601012 1600794 1595916 1587302 1575886 1562725 
3893.462 1549027 1536109 1525375 1517947 1514345 1514663 1518146 1523701 
3897.320 1530091 1536262 1541587 1545858 1549126 1551482 1552900 1553379 
3901.177 1552723 1551062 1548788 1546500 1544969 1544794 1546133 1548622 
3905.034 1551660 1554319 1555870 1555826 1554163 1551128 1547034 1542246 
3908.892 1536960 1531530 1526216 1521358 1517389 1514490 1512676 1511515 
3912.749 1510577 1509154 1507024 1504122 1501128 1498735 1497807 1498764 
3916.607 1501632 1505889 1510461 1514288 1516334 1515957 1513026 1507892 
3920.464 1501329 1494266 1487726 1482233 1477919 1474260 1470245 1464696 
3924.322 1456824 1446550 1434898 1423886 1416073 1413728 1418336 1429900 
3928.179 1446810 1466299 1484980 1499872 1508962 1511644 1508912 1502724 
3932.036 1495824 1490737 1489514 1493206 1501568 1513390 1526650 1539059 
3935.894 1548604 1554176 1555867 1554991 1553760 1554635 1559474 1568911 
3939.751 1582105 1596740 1609601 1617522 1618023 1610099 1594342 1572636 
3943.609 1547987 1523296 1501160 1483070 1469762 1460962 1456196 1455068 
3947.466 1457501 1463866 1474548 1489403 1507563 1527076 1545407 1559953 
3951.323 1568969 1572107 1570779 1567666 1565743 1567335 1573185 1582223 
3955.181 1591846 1598998 1601111 1596980 1587236 1573694 1559130 1545967 
3959.038 1535964 1529771 1527204 1527311 1529139 1531589 1533961 1536081 
3962.896 1538123 1540788 1545229 1552427 1562982 1576549 1591513 1605090 
3966.753 1614358 1616917 1611938 1600827 1586650 1573491 1564817 1562405 
3970.611 1565688 1572092 1578032 1580349 1577300 1569322 1558459 1547515 
3974.468 1539213 1535161 1535719 1540199 1547563 1556605 1566341 1575934 
3978.325 1584346 1590471 1593139 1591655 1586139 1577839 1568899 1561581 
3982.183 1557803 1558058 1561562 1566133 1569320 1569097 1564756 1557284 
3986.040 1549104 1543495 1543588 1551519 1567546 1590005 1615594 1640153 
3989.898 1659555 1670862 1673026 1667046 1655724 1642731 1631578 1624630 
3993.755 1622556 1624488 1628358 1631868 1633429 1632503 1629826 1626988 
3997.613 1626008 1628504 1635574 1647287 1663018 1681456 1700932 
##END=
