##TITLE=Bambu-Lab_ABS_White_Filament_r1_ATR-Corrected
##JCAMP-DX=5.01  $$ Nicolet v. 1
##DATATYPE=INFRARED SPECTRUM
##ORIGIN=Curtin University
##OWNER=Nicolet
##LONGDATE=2024/07/03
##TIME=13:29:08
##SPECTROMETER/DATA SYSTEM=Nicolet iS50
##DATA PROCESSING=
Ratio against background
%Transmittance->Absorbance
ATR Correction
Truncated
ElementMultiply or ElementDivide
##COMMENTS=
Number of sample scans: 32
Collection length: 47.27 sec
Sample gain: 1.0
Background collected on: Wed Jul 03 13:21:29 2024 (GMT+08:00);
Number of background scans: 32
Background gain: 1.0
Sample spacing:  1.000
Number of scan points: 16672
Resolution points: 8192
Number of FFT points: 65536
Apodization: N-B strong;
Phase correction: Mertz;
Laser frequency: 15798.3 cm-1
Number of rejected sample scans: 0
Number of rejected background scans: 0
Bench serial number: AUP1200105;
##RESOLUTION=4.000
##XUNITS=1/CM
##YUNITS=ABSORBANCE
##FIRSTX=400.163452
##LASTX=4000.187744
##FIRSTY=0.013445
##MAXX=4000.187744
##MINX=400.163452
##MAXY=0.425642
##MINY=-0.021973
##XFACTOR=1.000000
##YFACTOR=1.000000E-009
##NPOINTS=7468
##DELTAX=0.482125
##ZPD=8192
##XYDATA=(X++(Y..Y))
400.163 13444634 13322510 13223519 13146338 13111087 13147616 13283670 
403.538 13530397 13877120 14293161 14739563 15179632 15587748 15948506 
406.913 16253076 16490813 16645646 16697923 16632849 16449079 16166478 
410.288 15822910 15466617 15141836 14877228 14680157 14540685 14442117 
413.663 14373617 14336968 14348199 14428066 14592494 14841177 15155678 
417.038 15501589 15838526 16130760 16356980 16514301 16618403 16699571 
420.412 16795792 16944466 17173594 17491248 17880228 18295862 18673648 
423.787 18945394 19060010 19001140 18797894 18519586 18258672 18103544 
427.162 18112502 18296776 18620090 19011998 19393002 19697278 19890322 
430.537 19971424 19966476 19912014 19842216 19778424 19730646 19698286 
433.912 19677822 19664442 19652416 19632224 19588428 19499658 19343980 
437.286 19105138 18780790 18387788 17963410 17560414 17238026 17048460 
440.661 17024548 17166476 17437916 17767482 18062924 18232112 18208170 
444.036 17970156 17552582 17038782 16541105 16170932 16009003 16084669 
447.411 16371166 16796966 17269684 17702008 18032526 18234104 18310972 
450.786 18286492 18191604 18053236 17891808 17721804 17555996 17407996 
454.161 17292178 17221174 17202120 17233932 17307906 17408800 17519432 
457.535 17623258 17708002 17766684 17799636 17813938 17822900 17842484 
460.910 17886954 17962684 18064164 18172122 18259060 18296338 18265684 
464.285 18166894 18020950 17865134 17743134 17691750 17730162 17854006 
467.660 18037816 18242022 18424950 18552792 18606766 18584940 18500242 
471.035 18375010 18236020 18108192 18012572 17962872 17966020 18021698 
474.409 18124208 18262816 18423728 18589464 18740670 18855980 18914982 
477.784 18901382 18807538 18638070 18411524 18157228 17909778 17700776 
481.159 17551776 17470036 17449862 17477062 17536052 17614198 17704456 
484.534 17802638 17903882 17999628 18078018 18126994 18141112 18125236 
487.909 18096060 18077692 18094462 18162336 18284550 18450344 18639638 
491.284 18828764 18996670 19126924 19207864 19230772 19189132 19080448 
494.658 18910152 18695522 18467904 18269026 18143730 18129082 18244716 
498.033 18487480 18831688 19235442 19650490 20032202 20347272 20577752 
501.408 20722306 20793716 20816382 20820984 20839664 20899514 21017268 
504.783 21195326 21421346 21671270 21916364 22130180 22296478 22411878 
508.158 22485862 22536316 22585182 22653160 22757512 22911062 23122482 
511.532 23395950 23730526 24118480 24545692 24992690 25439882 25872408 
514.907 26286318 26690640 27105666 27557618 28070990 28660642 29328048 
518.282 30060892 30837070 31630832 32419778 33189158 33934592 34659732 
521.657 35373624 36085312 36800168 37516404 38225356 38912552 39562164 
525.032 40160988 40701996 41186796 41625108 42032128 42424600 42816708 
528.406 43218188 43632940 44060756 44498480 44942444 45389520 45837988 
531.781 46287420 46740084 47200632 47676932 48178324 48714396 49290780 
535.156 49907224 50555676 51221684 51886624 52531884 53141036 53701160 
538.531 54201852 54634212 54990800 55268232 55470968 55615556 55729872 
541.906 55849376 56007000 56222628 56494536 56798280 57092900 57334284 
545.281 57489148 57546368 57519192 57438336 57339512 57249704 57177764 
548.655 57113828 57035372 56918824 56749904 56529904 56274860 56009716 
552.030 55758680 55537876 55350084 55186076 55028076 54856740 54657220 
555.405 54423460 54160212 53880560 53602584 53343900 53116560 52923132 
558.780 52756680 52603456 52447944 52280140 52098628 51911992 51735208 
562.155 51582676 51461448 51366860 51281808 51181944 51042232 50844600 
565.529 50581276 50255352 49877284 49461008 49020284 48568960 48122012 
568.904 47697844 47317544 47001712 46763888 46603868 46503620 46427968 
572.279 46331328 46168276 45905060 45528624 45049584 44499324 43921228 
575.654 43360024 42850816 42412496 42045420 41734288 41454652 41180440 
579.029 40890780 40574240 40229288 39862376 39483208 39101200 38721976 
582.404 38347896 37979072 37616400 37263504 36927296 36615768 36335848 
585.778 36089524 35873816 35680864 35501024 35326480 35153272 34982044 
589.153 34816572 34661036 34518240 34388416 34269856 34160576 34059972 
592.528 33968560 33888532 33821628 33768824 33729776 33703540 33688692 
595.903 33683828 33686328 33691404 33691572 33677432 33640524 33576480 
599.278 33487462 33382334 33273828 33173594 33087478 33012990 32940958 
602.652 32859754 32761540 32646898 32525200 32412212 32323268 32267764 
606.027 32245424 32246910 32257010 32260746 32247518 32213126 32159302 
609.402 32091494 32016426 31941906 31876374 31829708 31812352 31833190 
612.777 31895746 31996116 32122582 32258798 32389924 32508500 32618176 
616.152 32733460 32873984 33057238 33290644 33567572 33866824 34158344 
619.527 34409180 34591336 34685904 34685288 34592136 34417592 34179200 
622.901 33899104 33602592 33315770 33062662 32861356 32720652 32638692 
626.276 32603428 32596156 32596328 32586616 32556880 32505996 32440264 
629.651 32371756 32312792 32273046 32255660 32255896 32261840 32257330 
633.026 32226584 32159526 32055370 31924270 31785176 31660772 31570916 
636.401 31526916 31528146 31563848 31617124 31671986 31719298 31759814 
639.775 31803754 31866570 31963338 32103452 32287552 32507330 32747616 
643.150 32990284 33217988 33416868 33578156 33699232 33782868 33836376 
646.525 33870864 33899220 33934020 33986628 34065220 34174708 34316308 
649.900 34488528 34686720 34904076 35131300 35357600 35571600 35763824 
653.275 35928892 36067520 36187396 36301540 36425428 36573200 36754372 
656.650 36972432 37224644 37503984 37802044 38111280 38426452 38745508 
660.024 39069044 39399700 39741132 40097660 40472396 40866612 41278428 
663.399 41702992 42132908 42560440 42979984 43389964 43793252 44195820 
666.774 44603768 45020624 45445228 45872512 46295872 46710576 47116628 
670.149 47519212 47926852 48347560 48785228 49237848 49698172 50157100 
673.524 50607860 51049180 51486200 51928260 52385208 52863796 53365140 
676.898 53886488 54423968 54977140 55552436 56163764 56830524 57572696 
680.273 58405188 59334168 60355392 61456760 62623420 63844228 65117376 
683.648 66453620 67875848 69416744 71113688 73004656 75126584 77515112 
687.023 80209232 83256240 86717312 90673608 95229248 100515040 106690392 
690.398 113945544 122502400 132611912 144545680 158579280 174965088 
693.290 193893184 215442912 239524048 265812896 293689536 322190400 
696.183 350002560 375534016 397094592 413179168 422786816 425641984 
699.076 422213056 413521984 400847264 385453312 368417600 350564288 
701.969 332472832 314521344 296942112 279867200 263366096 247469152 
704.861 232182512 217496256 203390688 189841360 176825504 164327712 
707.754 152345488 140891376 129991648 119682088 110000800 100980912 92645808 
711.129 85004832 78053608 71775952 66147400 61137856 56713524 52837764 
714.504 49471412 46572808 44099108 42007720 40258244 38812788 37636564 
717.878 36696040 35957856 35387104 34948288 34606500 34330224 34093984 
721.253 33880208 33679864 33491292 33318222 33167970 33049140 32970742 
724.628 32940854 32967146 33056024 33212230 33438250 33733392 34093036 
728.003 34508388 34967672 35457696 35966700 36487948 37022328 37579912 
731.378 38179468 38845228 39602104 40470664 41461996 42575976 43801028 
734.752 45117164 46499912 47924300 49367128 50808648 52231436 53620352 
738.127 54961536 56243968 57460604 58610884 59702152 60749872 61776404 
741.502 62808968 63875928 65004820 66219880 67540952 68983536 70558272 
744.877 72271376 74125032 76117672 78245528 80503392 82887072 85394528 
748.252 88027464 90791416 93694952 96747136 99955808 103324000 106848600 
751.627 110519280 114319112 118225848 122212928 126250088 130302488 
754.519 134328864 138279376 142094784 145708320 149048896 152047424 
757.412 154642240 156783024 158431504 159559392 160144720 160169264 
760.305 159619696 158490992 156792432 154553472 151825408 148678560 
763.197 145193952 141453600 137530368 133481400 129346800 125153232 
766.090 120919928 116666288 112416920 108204088 104065968 100042448 96169248 
769.465 92472560 88964616 85643352 82493688 79492688 76614448 73836920 
772.840 71145480 68534392 66005500 63565336 61220112 58972736 56821356 
776.214 54760104 52781680 50880592 49054656 47305828 45637884 44053748 
779.589 42553320 41131928 39781152 38491440 37254072 36063576 34918176 
782.964 33818924 32768276 31768374 30820202 29924142 29080836 28291856 
786.339 27560332 26890112 26284824 25745750 25270542 24852912 24482450 
789.714 24146202 23830008 23521050 23209480 22890132 22562694 22231338 
793.089 21902962 21584222 21279750 20990494 20713694 20445008 20180738 
796.463 19920744 19668964 19433130 19221574 19040522 18891008 18768890 
799.838 18664974 18568764 18471110 18366058 18251500 18128262 17998674 
803.213 17865586 17731764 17600544 17476864 17366676 17276998 17213798 
806.588 17180386 17176186 17196678 17234670 17281256 17327212 17363602 
809.963 17381670 17373222 17331592 17253316 17139990 16999330 16844910 
813.337 16693059 16559619 16455723 16385239 16344914 16326077 16318334 
816.712 16312420 16301407 16281441 16249126 16200809 16131731 16037688 
820.087 15916957 15772987 15615119 15458183 15319071 15213174 15150245 
823.462 15131909 15150908 15192633 15237795 15266992 15264231 15221457 
826.837 15140569 15034328 14923760 14834139 14787864 14799440 14870615 
830.212 14990788 15140060 15295957 15440264 15564053 15668992 15765509 
833.586 15866762 15984898 16126990 16295495 16490044 16711492 16963250 
836.961 17251656 17582818 17959204 18375962 18820520 19273974 19714554 
840.336 20121888 20480450 20780898 21020772 21202994 21335794 21430492 
843.711 21500876 21560032 21618210 21679024 21738210 21783682 21798596 
847.086 21766370 21676098 21526062 21324428 21086576 20830440 20571458 
850.460 20319778 20079718 19851772 19634760 19428522 19233628 19050458 
853.835 18876908 18707824 18535348 18351800 18152418 17938354 17716044 
857.210 17496090 17289240 17103044 16939544 16795876 16665325 16541429 
860.585 16420171 16301770 16190683 16093878 16019115 15972264 15955573 
863.960 15967287 16000919 16046597 16092561 16127372 16142674 16134840 
867.335 16105654 16061794 16011667 15963014 15919596 15880546 15841415 
870.709 15797149 15744954 15687464 15632382 15590976 15573456 15586459 
874.084 15629731 15696788 15777154 15860153 15938196 16009025 16075414 
877.459 16143698 16220557 16310897 16416518 16535500 16663315 16793764 
880.834 16919750 17034602 17131696 17205940 17253832 17275194 17273286 
884.209 17255468 17232132 17215236 17215682 17241878 17297352 17380884 
887.583 17486580 17605990 17729556 17849392 17960576 18062450 18158898 
890.958 18257386 18367790 18500460 18663988 18863488 19099418 19368072 
894.333 19662078 19973422 20294950 20624040 20962880 21319550 21706288 
897.708 22137770 22628718 23192336 23839534 24579340 25420744 26373376 
901.083 27448298 28656716 30007568 31504478 33142790 34908620 36779132 
904.458 38725748 40717252 42723696 44717772 46674992 48571712 50382876 
907.832 52079292 53628220 54993908 56140696 57036252 57654388 57977584 
911.207 57997480 57716356 57147156 56313512 55248784 53993888 52593692 
914.582 51091984 49527028 47927708 46312844 44692892 43074228 41463416 
917.957 39871572 38315260 36815392 35393264 34066508 32845222 31731226 
921.332 30718150 29794772 28948134 28166044 27438558 26759140 26123858 
924.706 25531098 24981444 24477860 24024564 23627258 23290316 23015756 
928.081 22801036 22639090 22518996 22428142 22354370 22289326 22229034 
931.456 22174426 22130324 22103532 22101054 22128742 22189646 22283908 
934.831 22408580 22557876 22724014 22899036 23075866 23249968 23420560 
938.206 23590320 23764688 23949748 24149924 24366582 24597284 24836348 
941.581 25076966 25312964 25541032 25761450 25977520 26195192 26420492 
944.955 26659448 26916688 27196186 27501444 27836608 28205996 28614136 
948.330 29064728 29560098 30100644 30685204 31312094 31980668 32692560 
951.705 33452660 34268668 35151356 36113084 37167276 38327400 39607528 
955.080 41022476 42588128 44321496 46239660 48357980 50687672 53232668 
958.455 55987052 58933192 62040888 65268740 68566072 71876976 75143520 
961.829 78309912 81324752 84141936 86720232 89021456 91008944 92647184 
965.204 93902976 94747592 95161320 95136080 94678536 93809624 92563248 
968.579 90983024 89118424 87021088 84742224 82330568 79832112 77289304 
971.954 74740960 72221640 69760408 67380216 65097220 62920892 60855316 
975.329 58901080 57057712 55325324 53705804 52202448 50819180 49559296 
978.703 48424024 47412052 46519648 45740680 45067316 44489904 43997456 
982.078 43577396 43216344 42900956 42620252 42367012 42139264 41939960 
985.453 41776384 41657204 41590224 41579312 41624072 41719100 41856012 
988.828 42024440 42213932 42413712 42613276 42800868 42963104 43085772 
992.203 43155012 43159696 43093736 42957656 42758800 42509680 42226268 
995.578 41924836 41620856 41327920 41058768 40825192 40639312 40512464 
998.952 40453612 40466120 40546200 40680944 40849236 41024460 41178776 
1002.327 41287316 41332896 41307956 41214468 41062496 40867408 40645820 
1005.702 40413568 40183672 39965924 39767040 39591664 39442544 39321112 
1009.077 39227568 39160532 39117204 39093556 39085224 39088476 39101360 
1012.452 39124388 39160772 39215900 39295928 39406196 39550160 39728544 
1015.826 39939424 40179152 40444404 40733656 41048012 41391848 41772036 
1019.201 42196392 42672088 43205248 43800192 44461124 45192472 46000900 
1022.576 46894648 47882808 48972356 50164828 51452100 52814132 54217324 
1025.951 55615880 56954256 58171984 59208344 60008088 60525112 60725760 
1029.326 60590028 60112976 59303720 58186312 56797896 55188148 53417104 
1032.702 51550804 49656984 47799020 46030252 44389980 42901148 41572060 
1036.077 40398752 39371144 38477132 37706252 37051120 36506784 36067592 
1039.452 35725492 35468900 35282820 35151484 35061640 35003792 34973716 
1042.827 34971156 34996396 35048328 35121156 35204932 35285960 35350740 
1046.203 35388512 35394472 35370836 35326640 35275756 35234096 35216376 
1049.578 35234140 35293252 35394384 35533076 35701776 35891292 36093600 
1052.953 36302768 36516196 36734352 36959948 37197092 37449560 37721124 
1056.328 38014928 38334244 38682544 39063452 39480160 39934824 40427016 
1059.704 40953832 41509700 42086572 42676100 43269868 43860736 44443284 
1063.079 45013520 45569312 46109232 46632676 47138960 47627020 48093836 
1066.454 48534128 48939228 49297896 49596940 49823332 49966572 50019648 
1069.829 49981172 49854048 49644560 49361040 49012068 48606036 48151372 
1073.205 47657172 47133928 46593424 46047916 45508672 44984280 44479824 
1076.580 43996620 43533260 43087012 42656036 42240108 41841124 41462064 
1079.955 41105364 40771836 40458932 40161552 39872560 39584636 39292612 
1083.330 38994352 38691480 38388916 38092712 37809228 37543732 37299784 
1086.706 37079732 36885340 36718512 36580612 36472392 36391920 36334416 
1090.081 36291996 36255188 36215216 36166104 36106876 36040832 35973868 
1093.456 35912708 35860524 35817204 35777988 35736384 35686356 35625000 
1096.831 35553416 35476240 35399676 35329152 35267792 35215508 35169804 
1100.207 35127340 35084444 35038372 34986632 34926468 34853844 34763744 
1103.582 34650704 34510180 34340124 34141424 33918040 33676012 33421752 
1106.957 33160516 32895830 32628198 32355688 32074340 31778668 31463020 
1110.332 31122082 30752382 30353198 29926650 29477720 29013478 28541122 
1113.708 28066754 27594802 27127446 26665030 26207772 25756186 25312008 
1117.083 24877798 24456426 24050910 23662814 23293690 22944214 22615138 
1120.458 22307536 22022062 21758502 21515182 21288980 21075470 20870462 
1123.833 20670916 20476370 20289500 20115016 19959288 19827996 19725928 
1127.208 19654540 19612776 19596846 19601100 19619436 19646162 19677426 
1130.584 19711676 19749960 19795346 19851854 19923216 20011688 20118006 
1133.959 20241250 20380924 20537326 20713358 20914168 21146538 21416608 
1137.334 21728386 22082074 22474894 22901222 23356508 23838488 24349294 
1140.709 24895286 25484984 26127170 26827692 27587948 28405322 29274634 
1144.085 30191270 31153838 32166380 33238384 34383356 35616064 36949736 
1147.460 38393876 39953260 41627476 43412504 45300864 47282060 49340836 
1150.835 51455860 53598372 55730708 57808992 59785688 61614976 63258528 
1154.210 64688900 65892644 66868828 67627128 68184016 68559752 68776472 
1157.586 68857856 68829640 68719488 68556488 68368152 68177808 68001128 
1160.961 67844736 67707272 67582040 67460352 67335304 67202920 67062052 
1164.336 66912340 66751652 66574948 66374412 66140676 65866260 65547020 
1167.711 65184212 64782768 64351140 63898256 63432364 62960228 62487728 
1171.087 62021004 61566656 61132172 60725776 60354684 60024744 59739196 
1174.462 59499588 59305752 59156844 59052408 58992524 58977360 59006860 
1177.837 59079776 59192612 59338308 59506172 59681508 59846028 59979180 
1181.212 60060080 60069980 59994136 59823928 59557348 59198896 58758832 
1184.588 58251584 57694064 57104348 56500224 55897908 55312140 54754772 
1187.963 54235628 53762056 53339300 52970852 52658388 52401864 52198908 
1191.338 52044880 51933640 51857528 51809140 51782272 51772984 51779384 
1194.713 51800380 51835108 51880272 51929792 51975308 52007080 52016712 
1198.089 51998996 51953084 51882112 51791984 51688880 51577532 51459892 
1201.464 51335536 51202612 51059744 50906596 50745148 50578792 50411896 
1204.839 50248096 50090320 49939096 49793904 49652228 49510744 49364912 
1208.214 49210048 49041580 48856376 48652928 48432860 48200320 47961404 
1211.590 47723508 47493016 47274524 47069924 46877940 46695284 46517328 
1214.965 46339256 46157444 45970324 45778420 45584800 45394524 45213932 
1218.340 45048984 44904096 44781152 44679324 44595108 44524564 44464476 
1221.715 44414116 44376128 44355040 44356372 44384084 44439348 44519892 
1225.091 44620984 44737648 44866300 45006868 45162116 45336728 45535536 
1228.466 45760968 46012072 46284392 46570992 46864180 47156960 47444296 
1231.841 47723012 47991916 48250356 48497916 48733620 48955640 49160592 
1235.216 49344028 49500256 49623116 49706380 49745508 49737860 49683616 
1238.592 49585772 49449284 49279900 49083660 48865244 48629196 48379576 
1241.967 48121060 47859088 47600112 47350644 47116520 46901752 46708792 
1245.342 46537848 46387772 46254972 46134832 46021192 45906096 45781556 
1248.717 45640208 45477620 45293668 45093520 44885956 44681912 44491336 
1252.093 44320220 44169636 44035800 43912028 43792328 43673100 43554596 
1255.468 43441308 43338716 43251960 43182640 43129008 43085232 43044052 
1258.843 42998856 42944920 42880632 42807448 42727800 42644660 42560636 
1262.218 42477064 42394836 42314720 42237932 42166528 42102840 42048700 
1265.594 42005156 41971488 41944896 41921672 41896744 41865084 41822860 
1268.969 41768136 41701024 41624288 41542504 41461800 41388612 41328644 
1272.344 41286020 41262452 41257076 41267056 41287596 41313276 41338596 
1275.719 41358508 41368484 41365112 41344980 41305632 41245080 41162820 
1279.094 41060000 40940372 40809304 40673236 40538292 40408112 40282828 
1282.470 40159084 40030608 39890404 39733408 39557884 39367256 39169188 
1285.845 38974516 38794660 38640576 38520792 38441332 38405892 38415960 
1289.220 38471196 38568852 38703584 38867080 39048804 39237076 39421128 
1292.595 39592900 39748460 39888188 40015436 40135456 40252996 40371640 
1295.971 40493292 40618236 40746560 40878352 41014524 41156544 41306288 
1299.346 41465000 41633416 41812048 42000512 42198312 42403968 42615272 
1302.721 42828564 43038712 43240172 43427176 43596008 43744816 43874872 
1306.096 43989124 44092904 44191184 44288368 44387920 44492000 44601784 
1309.472 44717988 44840632 44969472 45102464 45237312 45370292 45497448 
1312.847 45615784 45722680 45817244 45898332 45964700 46013768 46041160 
1316.222 46042768 46015660 45959956 45880692 45787244 45691644 45605828 
1319.597 45537984 45490980 45460940 45439636 45416920 45384708 45339568 
1322.973 45283856 45224312 45169412 45126192 45097660 45082016 45073800 
1326.348 45065772 45051484 45028152 44995944 44958320 44920240 44886316 
1329.723 44859884 44841856 44830952 44824024 44817040 44805320 44785516 
1333.098 44755240 44715340 44669764 44625880 44593608 44583852 44606072 
1336.474 44667072 44769504 44911744 45089112 45295460 45524504 45770780 
1339.849 46030224 46300016 46578312 46864532 47158676 47462040 47776328 
1343.224 48102428 48439800 48784932 49131168 49469920 49792128 50091492 
1346.599 50365172 50615004 50846168 51065156 51277004 51483884 51684656 
1349.975 51876284 52055416 52220760 52373724 52517556 52656208 52792120 
1353.350 52924756 53050620 53164500 53261856 53340052 53400196 53447280 
1356.725 53487596 53527480 53570488 53616412 53660448 53694976 53710660 
1360.100 53699752 53657076 53582220 53478820 53353420 53214288 53068160 
1363.476 52919640 52769560 52616012 52455516 52284672 52101908 51907776 
1366.851 51704900 51496068 51283196 51066016 50841688 50606228 50355344 
1370.226 50086400 49798784 49494620 49176488 48847352 48508344 48158508 
1373.601 47795424 47415260 47014044 46589664 46140832 45668520 45174672 
1376.977 44661724 44131772 43586320 43025300 42448588 41856064 41249780 
1380.352 40635328 40022572 39424984 38858216 38336472 37869968 37461608 
1383.727 37107432 36797492 36519384 36261736 36016936 35782060 35557160 
1387.102 35343588 35141296 34947320 34756676 34563912 34365040 34159220 
1390.478 33948012 33734000 33518124 33298322 33067968 32817908 32538988 
1393.853 32225228 31875480 31494584 31092944 30683030 30277488 29887072 
1397.228 29518316 29174798 28856122 28560082 28283356 28022354 27773424 
1400.603 27534432 27303964 27081960 26869460 26668348 26481528 26312460 
1403.979 26165458 26045198 25956062 25901858 25884740 25904216 25958282 
1407.354 26042934 26154618 26291386 26454240 26647820 26879212 27156306 
1410.729 27486350 27873884 28319956 28822398 29376188 29974442 30607836 
1414.104 31264666 31929922 32584954 33208326 33777212 34270408 34671268 
1417.479 34969780 35164500 35261552 35273888 35218600 35115556 34985112 
1420.855 34847088 34721392 34626484 34580312 34598812 34695880 34882740 
1424.230 35168020 35558396 36060064 36679728 37424316 38301040 39314712 
1427.605 40466648 41752820 43164444 44689256 46313376 48024456 49812040 
1430.980 51667916 53584512 55553500 57565764 59611276 61681540 63771500 
1434.356 65880104 68010184 70166592 72353856 74574280 76828104 79114520 
1437.731 81434704 83794584 86206792 88690376 91269368 93970584 96821664 
1441.106 99848456 103074536 106519744 110199552 114123216 118293336 
1443.999 122704112 127341840 132187008 137218400 142417280 147774272 
1446.892 153294592 159001760 164935552 171142304 177655728 184466096 
1449.785 191483856 198504160 205184480 211047168 215518352 218002000 
1452.678 217979504 215107648 209289040 200695344 189740480 177016304 
1455.572 163210480 149021088 135082256 121908632 109862640 99149656 89835200 
1458.947 81877104 75162208 69541312 64852624 60938536 57653828 54870600 
1462.322 52479572 50392340 48540476 46873636 45356568 43965064 42681572 
1465.697 41493276 40390456 39366752 38419076 37547656 36753716 36037796 
1469.073 35396936 34823260 34304116 33822712 33360622 32900580 32428362 
1472.448 31934962 31417328 30878936 30328258 29777398 29240118 28729888 
1475.823 28257454 27831346 27457032 27138508 26878900 26681724 26551522 
1479.198 26493832 26515192 26623754 26829926 27147728 27594636 28192326 
1482.573 28964642 29935946 31128888 32563202 34255868 36223724 38487228 
1485.949 41077244 44041772 47455744 51427340 56100564 61649040 68255464 
1489.324 76074696 85183688 95521832 106837336 118653960 130276144 140841872 
1492.699 149426768 155182816 157486864 156056608 151005984 142818560 
1495.592 132250728 120192792 107528176 95020064 83246904 72583560 63219532 
1498.968 55197084 48455660 42872900 38296696 34569172 31542152 29085378 
1502.343 27091684 25475094 24167422 23113054 22263084 21571710 20995886 
1505.718 20496496 20041778 19610192 19192090 18788852 18409452 18066252 
1509.093 17770796 17530506 17346764 17214540 17123108 17057998 17003746 
1512.469 16947052 16878948 16795994 16700031 16596092 16490715 16388834 
1515.844 16293444 16205933 16126668 16057253 16000008 15958346 15934438 
1519.219 15927795 15934395 15948068 15961384 15968820 15967889 15960393 
1522.594 15950464 15942641 15939208 15939699 15940757 15937777 15927490 
1525.969 15909426 15886685 15865639 15854375 15860779 15890781 15947264 
1529.345 16028909 16130811 16245207 16363744 16478315 16584126 16680127 
1532.720 16769217 16857176 16950096 17052412 17166024 17289378 17418884 
1536.095 17551734 17686362 17823758 17965922 18114906 18270292 18427958 
1539.470 18581190 18721954 18843352 18942046 19018536 19077414 19125602 
1542.846 19170664 19219700 19278238 19349454 19434524 19531772 19637580 
1546.221 19746264 19851862 19948976 20034750 20109008 20174014 20233240 
1549.596 20289538 20343544 20393820 20436606 20468182 20484936 20485730 
1552.971 20470664 20440892 20398248 20345660 20286190 20225090 20168898 
1556.347 20124784 20098656 20093662 20108710 20139030 20178412 20222334 
1559.722 20270068 20325874 20396684 20489666 20607944 20749412 20905890 
1563.097 21064898 21212864 21336668 21425412 21471030 21467044 21410200 
1566.472 21299930 21140446 20941208 20716626 20483256 20256250 20045880 
1569.848 19856070 19685580 19531574 19394168 19279148 19197776 19163304 
1573.223 19186764 19272016 19414636 19604822 19831760 20090892 20388896 
1576.598 20744654 21186494 21746540 22453774 23327280 24372450 25577554 
1579.973 26912166 28326610 29752734 31107542 32300156 33242200 33858796 
1583.349 34101216 33953732 33437490 32606762 31540684 30330708 29069622 
1586.724 27840706 26711872 25732946 24935828 24335652 23932726 23716134 
1590.099 23667168 23762810 23981528 24305896 24726108 25240556 25855502 
1593.474 26584032 27444022 28457536 29649318 31046152 32674164 34556300 
1596.850 36706272 39123536 41786572 44648564 47633348 50636228 53527928 
1600.225 56162528 58390112 60071992 61095592 61388988 60929668 59747892 
1603.600 57922320 55569144 52827772 49843776 46755072 43681096 40717788 
1606.975 37936164 35384852 33091302 31065824 29304096 27789780 26498320 
1610.351 25400508 24466272 23668292 22983660 22394546 21886784 21450132 
1613.726 21075754 20756444 20485180 20255610 20062278 19899128 19760876 
1617.101 19642782 19540730 19452744 19378600 19319970 19278844 19256890 
1620.476 19253570 19265980 19288496 19315606 19342232 19366496 19389554 
1623.852 19415498 19449696 19496922 19560340 19641022 19737768 19849546 
1627.227 19975932 20117784 20278618 20464516 20683076 20943544 21256232 
1630.602 21630670 22075042 22594330 23188604 23851672 24570076 25323314 
1633.977 26084970 26824424 27508810 28106460 28589932 28938018 29136930 
1637.353 29181912 29075346 28826492 28449964 27963984 27389808 26750084 
1640.728 26066978 25360972 24649408 23945968 23260584 22600698 21972212 
1644.103 21380344 20830592 20328332 19878096 19483202 19144832 18862060 
1647.478 18632236 18451036 18312920 18211904 18141442 18094714 18064226 
1650.854 18042746 18023554 18000978 17972328 17937594 17900088 17865704 
1654.229 17840628 17830818 17839614 17867136 17910594 17965498 18025898 
1657.604 18087346 18146688 18202746 18256012 18308466 18361460 18416800 
1660.979 18475444 18539656 18611200 18693694 18790664 18904672 19035678 
1664.354 19180544 19333048 19484422 19625930 19750520 19853970 19935344 
1667.730 19995466 20035736 20056308 20056698 20035592 19993880 19936212 
1671.105 19871230 19810936 19767004 19747648 19754538 19781996 19818644 
1674.480 19850920 19867758 19863836 19841478 19808428 19776046 19754152 
1677.855 19749088 19762476 19792790 19835064 19884628 19936902 19987954 
1681.231 20033362 20068832 20089650 20092200 20074800 20039724 19992020 
1684.606 19939404 19889518 19847924 19816638 19794518 19778066 19763732 
1687.981 19748520 19732322 19716860 19706160 19704710 19717232 19746800 
1691.356 19794166 19857684 19932766 20012562 20089578 20157124 20211674 
1694.732 20253036 20286224 20318908 20360506 20418882 20500132 20607518 
1698.107 20742058 20903964 21093332 21310206 21553702 21821610 22109332 
1701.482 22411208 22722384 23039970 23365140 23702922 24061570 24450410 
1704.857 24878162 25351818 25877008 26457696 27098798 27804928 28582032 
1708.233 29434568 30365678 31375964 32464274 33627436 34863972 36174060 
1711.608 37560468 39028816 40587192 42244996 44013152 45903260 47926804 
1714.983 50094332 52412968 54885824 57508616 60271540 63159048 66153056 
1718.358 69235792 72392512 75611184 78882784 82198856 85548576 88918552 
1721.734 92290744 95643480 98952248 102191360 105333768 108352208 111219024 
1725.109 113908152 116393008 118650760 120661416 122409024 123882096 
1728.002 125071648 125970320 126572280 126872528 126868144 126558256 
1730.895 125945880 125036272 123836272 122352528 120589984 118554208 
1733.788 116252056 113694448 110900024 107893392 104704536 101365056 
1736.681 97906000 94355712 90739928 87083472 83411904 79752008 76131072 
1740.056 72575432 69108280 65748260 62509024 59399372 56424576 53587040 
1743.432 50887248 48324120 45896380 43602636 41442432 39416348 37525660 
1746.807 35770992 34152244 32667312 31312398 30083108 28974840 27982644 
1750.182 27101778 26324436 25640234 25033774 24488258 23985022 23508810 
1753.557 23047846 22597208 22156108 21727352 21314336 20919856 20544974 
1756.933 20190038 19855216 19540910 19249090 18981718 18740276 18524584 
1760.308 18332496 18160006 18002274 17854524 17713056 17575124 17440842 
1763.683 17311114 17187792 17072734 16967190 16871416 16783550 16700130 
1767.058 16617093 16530668 16438818 16342079 16243145 16146500 16056340 
1770.434 15975246 15903156 15837627 15774284 15709529 15641566 15572009 
1773.809 15504460 15444437 15397881 15368583 15357931 15363603 15381343 
1777.184 15403058 15420095 15422655 15402427 15352907 15271665 15160973 
1780.559 15027017 14880018 14730619 14588147 14458138 14341746 14236133 
1783.935 14136622 14038332 13938975 13838672 13741581 13651859 13574626 
1787.310 13511521 13461041 13419036 13379178 13334717 13280884 13216103 
1790.685 13143630 13069975 13005160 12960054 12943733 12962559 13017648 
1794.060 13105229 13218142 13346135 13479296 13607767 13725663 13830244 
1797.436 13922886 14008613 14095243 14192119 14306972 14445104 14606911 
1800.811 14787437 14977776 15166189 15341160 15494513 15621826 15723310 
1804.186 15802411 15863437 15909791 15942613 15961282 15963467 15946524 
1807.561 15908666 15849581 15769804 15671398 15556138 15427071 15286883 
1810.937 15138388 14983112 14821727 14652950 14474510 14284822 14086452 
1814.312 13886739 13700555 13546928 13446670 13416025 13461589 13577492 
1817.687 13746968 13945693 14149782 14341508 14512748 14663282 14797330 
1821.062 14917263 15019313 15093185 15123891 15096923 15004984 14849207 
1824.438 14642573 14404485 14158832 13926607 13723693 13557608 13428785 
1827.813 13331011 13253772 13183582 13106583 13008781 12879260 12711416 
1831.188 12505367 12267584 12011443 11753031 11510034 11295761 11117911 
1834.563 10976921 10867624 10781954 10711845 10653790 10608107 10578687 
1837.938 10570850 10585721 10620048 10663163 10700861 10717632 10701835 
1841.314 10648622 10560570 10445024 10313538 10175198 10037678 9903572 
1844.689 9776348 9658916 9556848 9476153 9422600 9396762 9393332 9400244 
1848.546 9404305 9392752 9360233 9310460 9254460 9206623 9179362 9176972 
1852.404 9195441 9221369 9238987 9233500 9197806 9132571 9049523 8965262 
1856.261 8899930 8872261 8896217 8978811 9119174 9308035 9529759 9764066 
1860.119 9991324 10192788 10357054 10478384 10558725 10604849 10628547 
1863.494 10643372 10664272 10706529 10782934 10901978 11062778 11254664 
1866.869 11456603 11642501 11790104 11888559 11947738 11994441 12068647 
1870.244 12207684 12432593 12737215 13088673 13433966 13718052 13899280 
1873.620 13964492 13929931 13835022 13726234 13643630 13607886 13619855 
1876.995 13664966 13725029 13786077 13844053 13901494 13963525 14027873 
1880.370 14085094 14117298 14106838 14041565 13922404 13762724 13585797 
1883.745 13416051 13274995 13173996 13117512 13101631 13119522 13162322 
1887.121 13220141 13280023 13327730 13347733 13328620 13265787 13166588 
1890.496 13047810 12933191 12844563 12795947 12787298 12805335 12825418 
1893.871 12823649 12779867 12688946 12557307 12405790 12258431 12138513 
1897.246 12056693 12010374 11980242 11936181 11843199 11674145 11415926 
1900.622 11077679 10688864 10293145 9936132 9653390 9459184 9344719 9282967 
1904.479 9243267 9202526 9157489 9122901 9125399 9186800 9308689 9463905 
1908.336 9601443 9657423 9580121 9345539 8971994 8512846 8046177 7650106 
1912.194 7384800 7276504 7318369 7473807 7692334 7917749 8101307 8202562 
1916.051 8195714 8068633 7827629 7498295 7126881 6769607 6484518 6312859 
1919.909 6269580 6337893 6476091 6630677 6758341 6835359 6869060 6887166 
1923.766 6927968 7021510 7178976 7387451 7619840 7841778 8028114 8163967 
1927.624 8246952 8277918 8255142 8169749 8010025 7767828 7451040 7084531 
1931.481 6712644 6383629 6141647 6007261 5977920 6023294 6100841 6165840 
1935.338 6187983 6155021 6077585 5977692 5888036 5835841 5845505 5932344 
1939.196 6107569 6375058 6737816 7185404 7699843 8243886 8769692 9217086 
1943.053 9531582 9669550 9613574 9374365 8992258 8523924 8037264 7592549 
1946.911 7243743 7028597 6974049 7096652 7402349 7880259 8498694 9197313 
1950.768 9898419 10508739 10947757 11163699 11156230 10969180 10687547 
1954.143 10401152 10186416 10072568 10045744 10044614 9999008 9838973 
1957.519 9532877 9082082 8527935 7922254 7319392 6751026 6229868 5744945 
1961.376 5285628 4845029 4436271 4081286 3816962 3676609 3690976 3872283 
1965.233 4220104 4706995 5290624 5900656 6455597 6861187 7039318 6935827 
1969.091 6550412 5932925 5202885 4511506 4030941 3895298 4187849 4889891 
1972.948 5910839 7099163 8309722 9447638 10524751 11646130 12987752 14700739 
1976.806 16842012 19291448 21767612 23880438 25263234 25683124 25114722 
1980.181 23718234 21782154 19620482 17503066 15601534 13988321 12649284 
1983.556 11541045 10616696 9855689 9253124 8811240 8502262 8270124 8022123 
1987.414 7668567 7139309 6424592 5572359 4689473 3910902 3376243 3191869 
1991.271 3416891 4036941 4975942 6092263 7206634 8119718 8660205 8703751 
1995.128 8216028 7240287 5900799 4355146 2769352 1273374 -40976 -1128964 
1998.986 -1959358 -2511374 -2749476 -2649112 -2201192 -1450869 -498437 
2002.361 497051 1367274 1970182 2249044 2250451 2130663 2105002 2396134 
2006.219 3151493 4389060 5967060 7618663 9004772 9817300 9845778 9048192 
2010.076 7549276 5623561 3604482 1815004 472432 -347726 -719804 -809024 
2013.933 -802751 -814612 -860026 -833148 -584087 24919 1030739 2350980 
2017.791 3778381 5075272 6020519 6513376 6575946 6348256 6018047 5759187 
2021.648 5666847 5743793 5903289 6021785 5974481 5693314 5174225 4494006 
2025.506 3779818 3186049 2846241 2837822 3148751 3677773 4242142 4642439 
2029.363 4699578 4336538 3582513 2584859 1533991 621829 -39793 -429114 
2033.220 -620621 -717186 -816209 -943418 -1062519 -1084126 -927646 -538709 
2037.078 70735 848525 1697725 2522268 3221845 3711449 3919499 3806420 
2040.935 3376250 2702969 1918548 1211018 760699 699626 1056877 1750588 
2044.793 2607684 3440774 4105261 4562075 4877362 5196117 5664105 6369148 
2048.650 7289324 8313466 9274142 10022298 10469182 10603741 10472454 
2052.025 10153644 9724790 9254980 8795161 8393271 8089252 7917962 7892819 
2055.883 8007725 8222465 8485928 8742706 8959732 9127649 9262866 9387618 
2059.740 9518374 9647138 9754308 9810442 9800238 9726204 9609934 9471379 
2063.598 9318963 9132029 8880445 8533214 8096315 7617313 7188798 6913895 
2067.455 6877957 7104254 7546860 8095156 8611506 8962134 9060321 8872760 
2071.313 8423466 7772682 7002558 6196572 5439444 4807828 4373154 4187483 
2075.170 4279642 4639881 5228375 5976118 6810666 7666642 8501306 9285775 
2079.027 10001563 10617504 11093906 11375861 11419135 11200067 10736465 
2082.403 10078566 9304464 8493876 7713239 7004872 6393771 5897748 5540818 
2086.260 5353300 5366430 5593716 6014507 6564673 7146393 7642399 7948071 
2090.117 7988888 7743323 7234250 6529145 5718233 4904328 4183360 3641590 
2093.975 3338150 3301726 3518118 3935661 4465373 5008906 5476895 5814342 
2097.832 6009812 6095736 6126819 6163309 6242965 6377740 6548908 6724535 
2101.690 6870175 6967125 7012950 7022915 7017010 7013348 7016994 7022397 
2105.547 7012897 6971191 6882701 6748747 6581486 6411715 6275803 6212303 
2109.405 6244966 6377739 6585872 6826558 7044716 7196804 7259745 7238964 
2113.262 7159745 7052548 6932114 6788704 6585036 6280672 5848265 5302789 
2117.119 4703312 4145252 3724879 3509807 3504052 3646974 3826729 3920871 
2120.977 3834257 3534497 3054669 2484544 1931500 1489444 1207261 1081883 
2124.834 1063099 1075324 1033613 869180 530045 -4299 -729350 -1609385 
2128.692 -2585621 -3576379 -4492729 -5250282 -5792360 -6088959 -6148989 
2132.067 -5998935 -5679984 -5226774 -4671509 -4047025 -3406828 -2823373 
2135.442 -2387355 -2177100 -2233943 -2528079 -2963022 -3393513 -3676029 
2138.817 -3709255 -3478644 -3045158 -2533415 -2069213 -1748892 -1597918 
2142.193 -1594380 -1676662 -1799440 -1941678 -2129534 -2398376 -2772070 
2145.568 -3226971 -3695381 -4071436 -4258037 -4194396 -3886885 -3403613 
2148.943 -2860248 -2385015 -2100100 -2102562 -2469568 -3253928 -4499927 
2152.318 -6221688 -8404470 -10966665 -13761422 -16559353 -19077370 -20987110 
2155.694 -21972956 -21751332 -20146778 -17111578 -12809712 -7602872 -2047422 
2159.069 3223746 7618469 10756166 12501677 12974622 12447963 11278758 
2162.444 9809551 8338882 7077620 6163249 5640002 5487862 5615088 5901165 
2166.302 6214403 6450536 6543220 6483564 6290445 6001893 5632105 5176059 
2170.159 4602902 3897096 3079492 2242257 1525260 1097934 1083473 1524040 
2174.016 2333992 3329130 4270524 4946668 5229144 5104651 4641210 3942828 
2177.874 3086244 2102160 976076 -283221 -1615954 -2858751 -3789774 -4168437 
2181.731 -3840550 -2787103 -1158832 780004 2722077 4421694 5743890 6688358 
2185.589 7341136 7827035 8240533 8628287 8969247 9213923 9298398 9177269 
2189.446 8818847 8220100 7388781 6359916 5194676 3998410 2895428 2030638 
2193.303 1515628 1410479 1691726 2269944 3008468 3769872 4451068 5008880 
2197.161 5450187 5825075 6185907 6581138 7034688 7564674 8167966 8843204 
2201.018 9565320 10294930 10963201 11493148 11804567 11858670 11657530 
2204.394 11260120 10756240 10243910 9793065 9434877 9157790 8930121 8715542 
2208.251 8498337 8280863 8080027 7907933 7766726 7642606 7524355 7410202 
2212.108 7324741 7307722 7407290 7650168 8030861 8499363 8977626 9374944 
2215.966 9615371 9650321 9469111 9090704 8561026 7937065 7292127 6696434 
2219.823 6227644 5948425 5898412 6075421 6440748 6916041 7415001 7865495 
2223.681 8236358 8542841 8843824 9214098 9722833 10411262 11288769 12338577 
2227.538 13541369 14885898 16385298 18072746 19993600 22186124 24677734 
2230.913 27470514 30546424 33861584 37351460 40925928 44476756 47874600 
2234.289 50993012 53713840 55952672 57663140 58840464 59510428 59717448 
2237.664 59504080 58911068 57966896 56702680 55150680 53352360 51346080 
2241.039 49165724 46825320 44327684 41666664 38855868 35938852 33006962 
2244.414 30183048 27603510 25376686 23559914 22136330 21032194 20136250 
2247.790 19348088 18602814 17892328 17251226 16733933 16378023 16184922 
2251.165 16107557 16071722 15996275 15827203 15548782 15183869 14776478 
2254.540 14371433 13992682 13645364 13318707 13010809 12734389 12527320 
2257.915 12435209 12496521 12719645 13074294 13495186 13899342 14207160 
2261.291 14366337 14354418 14184845 13891356 13520282 13118256 12734462 
2264.666 12412279 12197502 12123947 12212045 12454030 12815109 13233425 
2268.041 13640970 13979477 14218856 14360803 14433989 14477741 14524415 
2271.416 14584933 14651209 14701163 14716053 14689053 14631686 14567107 
2274.792 14519792 14504357 14520897 14556194 14594951 14626832 14653748 
2278.167 14687187 14742556 14830680 14954501 15106462 15279917 15469826 
2281.542 15681580 15924586 16209107 16532894 16879548 17214606 17495064 
2284.917 17677608 17733524 17652612 17448774 17154462 16815792 16483495 
2288.292 16206728 16023245 15958173 16014423 16176349 16407344 16658559 
2291.668 16875572 17012222 17036586 16940008 16733969 16448827 16124247 
2295.043 15800714 15512611 15285492 15130866 15047895 15023620 15034501 
2298.418 15051417 15045991 14997949 14902087 14771152 14633685 14525340 
2301.793 14478629 14511847 14624427 14795694 14995260 15190297 15356841 
2305.169 15483684 15572732 15633108 15677596 15716046 15756143 15803019 
2308.544 15860869 15932191 16018318 16114132 16211471 16297808 16364411 
2311.919 16408393 16439538 16474357 16533736 16632421 16774118 16948338 
2315.294 17136078 17316514 17475422 17608644 17722792 17828864 17939764 
2318.670 18066438 18221816 18423930 18698520 19074136 19569058 20175618 
2322.045 20845698 21488504 21985116 22214488 22088128 21573542 20706458 
2325.420 19583336 18337238 17108868 16017452 15138395 14496082 14067984 
2328.795 13803043 13640917 13532571 13448290 13378923 13329097 13306024 
2332.171 13311671 13341752 13383754 13424751 13453780 13466747 13465138 
2335.546 13456000 13449757 13457477 13489442 13553365 13651154 13778360 
2338.921 13923079 14066142 14185700 14262933 14285927 14253941 14176936 
2342.296 14071969 13956112 13842578 13736173 13634064 13529009 13414950 
2345.672 13290773 13162784 13039717 12931891 12843097 12770104 12702919 
2349.047 12628617 12538210 12430832 12314353 12204067 12115903 12059798 
2352.422 12035457 12030982 12026662 12003166 11945957 11853050 11733277 
2355.797 11604307 11484385 11388899 11321894 11280294 11253688 11230548 
2359.173 11202102 11163450 11113241 11050758 10973153 10874010 10745495 
2362.548 10581987 10383162 10157565 9920615 9692718 9493486 9336838 9229030 
2366.405 9168020 9146388 9153871 9180984 9220146 9265578 9312297 9355869 
2370.263 9393592 9424834 9453946 9487827 9535766 9604433 9694403 9798151 
2374.120 9901950 9988485 10044148 10062481 10046954 10009238 9964512 9924061 
2377.978 9892822 9866983 9837869 9796329 9738693 9670050 9602978 9554037 
2381.835 9536776 9557427 9610835 9682521 9753201 9804934 9827417 9820708 
2385.692 9794445 9764342 9746599 9751362 9779923 9823273 9866801 9892447 
2389.550 9886530 9841918 9760672 9652372 9529645 9405204 9288086 9180770 
2393.407 9083902 8995083 8915759 8851530 8812573 8811625 8860640 8965503 
2397.265 9124181 9325588 9551251 9778655 9986056 10153838 10268466 10322100 
2401.122 10312843 10242431 10120000 9957911 9776576 9599860 9455574 9370571 
2404.979 9365616 9450567 9620670 9854693 10120585 10378512 10590828 10728537 
2408.837 10777615 10738560 10626088 10463575 10279727 10101159 9952399 
2412.212 9850392 9806931 9824306 9896258 10007649 10136624 10257908 10351934 
2416.070 10407599 10429893 10436825 10453713 10503053 10594018 10715387 
2419.445 10837466 10921772 10934400 10859586 10709533 10519079 10336930 
2422.820 10207265 10154817 10175081 10238825 10302029 10324933 10283646 
2426.195 10181063 10041920 9904526 9803873 9764409 9791605 9875190 9996681 
2430.053 10135629 10277414 10414475 10542084 10657876 10756300 10830260 
2433.428 10871667 10875534 10841588 10776496 10690190 10596764 10508609 
2436.803 10438038 10393129 10380585 10404420 10465394 10561900 10688907 
2440.178 10837625 10997448 11155888 11300759 11420268 11503839 11545306 
2443.554 11543819 11504758 11443822 11381882 11343343 11349428 11412948 
2446.929 11532553 11693947 11872649 12042835 12180944 12274790 12320399 
2450.304 12323314 12288937 12222429 12125164 11998785 11847224 11682392 
2453.679 11523770 11396831 11323530 11317861 11379042 11491003 11626630 
2457.055 11755330 11851987 11903722 11910754 11886643 11848186 11812354 
2460.430 11787057 11770491 11750531 11712177 11641396 11533883 11397716 
2463.805 11254665 11134511 11068203 11077547 11170270 11334382 11543024 
2467.180 11760055 11951332 12093672 12179669 12218618 12230772 12238540 
2470.556 12258562 12294578 12338557 12370544 12367900 12310222 12187626 
2473.931 12001996 11770491 11522119 11294676 11128115 11056667 11100195 
2477.306 11259269 11511689 11817148 12125298 12387455 12567900 12653069 
2480.681 12650126 12583798 12485757 12384859 12300652 12242630 12213963 
2484.057 12218331 12262416 12357150 12511245 12726176 12988335 13271432 
2487.432 13537850 13751674 13884858 13928226 13887484 13781298 13632551 
2490.807 13460624 13275952 13083057 12882178 12676579 12473866 12286654 
2494.182 12126563 12002285 11913326 11852096 11804804 11759256 11708084 
2497.558 11652377 11598830 11557141 11534519 11535740 11559897 11606088 
2500.933 11673318 11764119 11881612 12024982 12186789 12348512 12482544 
2504.308 12559482 12556273 12465492 12301039 12096159 11896114 11746909 
2507.683 11681732 11713039 11829808 12004129 12199308 12384335 12539335 
2511.059 12660919 12758062 12845479 12934957 13028606 13115217 13175228 
2514.434 13184161 13124114 12988815 12790814 12559379 12337178 12168659 
2517.809 12091616 12122784 12253376 12447513 12651386 12805443 12863072 
2521.184 12803159 12639347 12415237 12192777 12033156 11980931 12050354 
2524.560 12226711 12472801 12743839 13002512 13226015 13407775 13552332 
2527.935 13667108 13755132 13813670 13839046 13829038 13791856 13741585 
2531.310 13695461 13664945 13650134 13636504 13599754 13514467 13365491 
2534.685 13153587 12898980 12634307 12399849 12229084 12144630 12152380 
2538.061 12243030 12394030 12576669 12759662 12914231 13019392 13064544 
2541.436 13052111 12995956 12917540 12839354 12780409 12749237 12745001 
2544.811 12759614 12783017 12808307 12835398 12869840 12918556 12987276 
2548.186 13076098 13180942 13293955 13409927 13524928 13639468 13752693 
2551.562 13861264 13956613 14026479 14058425 14044117 13983526 13884692 
2554.937 13760545 13624794 13487294 13353272 13224789 13105790 13003048 
2558.312 12929433 12898248 12920666 12998438 13123103 13275823 13434888 
2561.687 13580714 13700746 13791176 13854907 13896471 13917751 13916756 
2565.063 13889253 13832823 13751411 13657321 13570952 13514519 13507841 
2568.438 13560510 13670149 13822247 13995456 14165564 14312984 14426042 
2571.813 14500998 14542569 14558074 14555363 14540207 14516059 14485420 
2575.188 14451571 14420132 14398190 14394227 14413094 14455324 14514361 
2578.563 14580343 14640982 14687018 14714358 14724993 14723325 14714895 
2581.939 14699444 14674101 14632103 14568845 14485358 14391355 14300272 
2585.314 14229462 14190380 14186083 14211123 14254835 14306031 14359940 
2588.689 14417604 14486679 14574640 14684984 14813993 14951672 15084720 
2592.064 15204427 15307033 15396452 15480764 15568601 15665105 15771067 
2595.440 15883096 15997529 16110884 16222017 16329532 16431687 16525408 
2598.815 16607553 16677145 16737146 16794204 16855654 16923600 16992542 
2602.190 17047942 17070450 17044018 16963630 16839346 16695233 16560897 
2605.565 16462348 16411252 16403163 16420832 16442016 16452681 16450811 
2608.941 16447628 16462946 16513720 16609181 16744187 16904730 17072288 
2612.316 17233252 17381644 17520166 17654974 17791342 17927774 18055998 
2615.691 18163054 18236692 18267890 18254952 18201476 18116334 18010810 
2619.066 17897142 17788646 17699166 17640870 17622420 17646392 17706720 
2622.442 17789230 17876182 17950280 18000568 18026044 18035722 18045218 
2625.817 18070980 18126462 18218746 18346722 18505812 18687462 18884000 
2629.192 19086922 19289692 19483968 19661232 19812512 19931388 20012512 
2632.567 20055414 20062278 20039674 19994404 19935444 19872026 19812668 
2635.943 19766358 19739846 19737320 19759248 19800740 19855588 19914904 
2639.318 19971308 20020170 20059432 20089900 20112890 20128766 20136538 
2642.693 20134330 20120982 20095950 20061100 20019466 19974512 19929634 
2646.068 19886528 19846344 19810882 19783966 19769898 19773054 19796474 
2649.444 19838660 19893540 19950768 19998992 20029174 20036574 20023852 
2652.819 19998874 19972010 19953538 19949290 19958464 19975424 19991320 
2656.194 19996470 19983620 19949716 19894836 19822558 19736546 19639308 
2659.569 19531644 19413018 19281816 19137486 18980486 18813322 18639484 
2662.945 18462744 18286592 18113360 17944846 17783016 17630476 17490818 
2666.320 17368338 17267444 17191272 17140194 17111622 17100892 17101294 
2669.695 17106894 17112408 17115676 17116882 17118266 17122520 17132082 
2673.070 17147488 17166310 17185414 17199572 17204830 17197768 17178372 
2676.446 17149516 17115432 17081788 17054434 17037782 17034002 17044276 
2679.821 17067704 17103308 17149830 17205564 17268988 17336944 17405924 
2683.196 17471496 17528338 17571394 17596580 17601010 17584116 17547068 
2686.571 17492932 17427118 17357036 17290460 17235524 17198018 17179580 
2689.947 17177504 17185738 17194790 17196516 17185474 17160670 17124814 
2693.322 17083422 17040474 16998326 16955894 16909914 16858208 16801322 
2696.697 16744779 16698096 16672615 16677679 16718116 16792134 16891948 
2700.072 17006058 17121126 17225070 17308170 17363956 17389046 17383420 
2703.448 17351796 17302160 17245594 17195742 17163246 17155022 17170728 
2706.823 17204180 17243382 17277406 17298054 17304050 17300752 17296998 
2710.198 17301354 17318376 17347254 17381066 17410692 17428748 17431480 
2713.573 17421714 17406100 17393492 17390194 17397480 17412078 17426404 
2716.948 17432236 17423452 17399216 17363276 17323940 17291992 17275766 
2720.324 17279378 17301832 17335276 17368726 17390750 17392368 17370448 
2723.699 17328564 17276494 17227800 17195576 17191012 17218982 17278400 
2727.074 17362320 17459850 17558610 17645488 17710552 17746730 17751424 
2730.449 17727192 17680454 17622494 17564880 17518552 17490858 17483010 
2733.825 17489308 17499932 17502744 17487526 17449128 17389552 17318182 
2737.200 17249002 17198110 17178314 17197356 17254800 17342570 17446310 
2740.575 17549818 17636318 17695378 17722190 17719218 17695490 17662346 
2743.950 17630940 17608572 17597172 17593984 17593752 17590284 17579982 
2747.326 17562652 17540882 17518828 17501382 17490956 17489124 17496906 
2750.701 17514310 17543094 17585122 17642058 17713918 17798308 17889026 
2754.076 17978116 18056402 18116648 18153744 18167488 18162226 18146024 
2757.451 18128790 18119994 18125852 18148974 18185840 18228192 18265458 
2760.827 18288060 18289766 18270198 18235288 18195352 18162184 18144898 
2764.202 18149090 18174666 18218574 18274876 18339942 18409504 18481974 
2767.577 18556336 18630078 18701890 18769352 18831712 18888594 18941490 
2770.952 18990204 19033064 19065206 19080746 19073518 19042106 18990054 
2774.328 18928176 18870200 18830144 18819310 18842384 18898550 18981842 
2777.703 19085178 19201086 19323500 19446248 19562308 19663444 19741484 
2781.078 19789866 19806882 19796916 19769330 19737888 19714308 19708912 
2784.453 19726952 19769572 19835098 19921196 20024226 20139030 20258858 
2787.829 20374422 20475846 20555322 20609820 20644314 20668476 20695842 
2791.204 20737708 20799438 20877944 20964390 21047288 21116570 21168536 
2794.579 21206578 21237568 21271112 21313620 21367934 21432264 21503412 
2797.954 21579300 21658524 21742878 21834914 21936526 22047812 22166992 
2801.330 22290194 22413540 22533258 22645922 22748892 22839220 22915666 
2804.705 22976896 23024506 23061524 23093062 23123660 23156256 23193038 
2808.080 23233528 23278396 23329726 23391802 23470886 23573450 23703784 
2811.455 23860862 24040438 24234168 24434740 24636938 24841228 25052472 
2814.831 25278584 25527094 25802706 26105252 26429812 26766778 27106238 
2818.206 27438550 27757692 28062108 28355042 28642684 28934606 29241246 
2821.581 29571618 29932752 30328332 30760710 31231294 31743012 32300464 
2824.956 32910842 33581852 34319020 35124520 35995148 36923436 37898428 
2828.332 38910412 39951832 41019572 42114600 43241268 44404536 45608416 
2831.707 46856072 48147068 49480584 50854236 52265812 53712916 55194316 
2835.082 56709640 58260032 59847104 61474068 63143788 64858720 66618972 
2838.457 68422360 70264808 72140736 74042904 75965712 77902160 79846192 
2841.833 81793208 83740168 85687184 87638712 89603744 91591824 93612192 
2845.208 95665616 97740784 99811984 101836616 103759616 105519008 107053752 
2848.583 108312176 109258352 109877800 110178144 110187904 109952680 
2851.476 109526856 108966616 108322576 107634456 106928128 106216408 
2854.369 105503976 104790872 104077568 103365872 102660936 101965656 
2857.262 101280888 100600824 99914128 99207576 98469848 97694584 96884424 
2860.637 96049136 95204008 94365448 93546584 92755080 91992152 91253720 
2864.013 90533680 89826240 89127456 88438544 87764536 87113616 86495904 
2867.388 85920856 85394536 84918608 84489520 84098472 83733944 83384880 
2870.763 83043616 82706816 82379848 82071248 81794552 81564152 81391232 
2874.138 81284352 81244608 81269648 81351488 81482192 81654464 81866088 
2877.514 82120280 82426112 82796512 83244024 83777600 84397744 85097408 
2880.889 85863528 86679888 87533056 88416192 89329536 90279560 91274704 
2884.264 92321304 93420912 94569280 95756680 96972136 98204856 99447032 
2887.639 100693944 101943592 103197280 104458416 105733368 107029640 
2890.532 108356128 109719864 111122624 112559768 114019472 115485280 
2893.426 116940848 118374920 119783736 121174816 122561696 123962168 
2896.319 125392424 126863864 128383208 129952280 131570368 133235560 
2899.212 134946080 136699184 138490928 140314976 142166224 144039904 
2902.105 145937440 147865392 149837168 151868624 153974784 156168768 
2904.998 158455216 160833744 163296928 165834320 168433936 171087184 
2907.891 173786912 176533760 179332112 182191360 185121872 188131056 
2910.784 191220080 194379024 197589616 200824944 204054448 207248464 
2913.677 210381168 213429712 216373040 219185584 221838560 224299024 
2916.570 226536144 228526704 230261088 231745376 232997376 234038704 
2919.463 234885888 235544944 236009968 236269280 236312944 236142176 
2922.356 235773440 235237248 234569808 233805744 232969072 232071824 
2925.249 231114176 230092624 229005296 227856464 226657040 225421984 
2928.142 224162896 222886400 221591072 220268352 218908064 217500336 
2931.035 216039824 214526224 212964304 211360448 209723520 208059904 
2933.928 206376384 204678016 202967904 201247008 199513024 197762048 
2936.822 195988016 194184528 192344080 190462448 188535312 186561056 
2939.715 184540656 182478144 180381824 178263776 176140032 174027360 
2942.608 171939632 169883888 167858448 165853408 163853248 161841312 
2945.501 159806912 157748176 155672448 153596128 151539088 149520096 
2948.394 147549488 145630288 143753616 141903712 140059328 138197728 
2951.287 136300464 134355616 132361160 130325032 128263536 126197920 
2954.180 124147952 122127128 120139104 118174704 116216568 114245768 
2957.073 112245072 110209544 108145368 106071104 104010752 101988192 
2959.966 100020664 98115592 96269736 94472856 92713248 90979960 89268480 
2963.341 87580488 85922648 84303872 82733024 81217088 79759960 78363152 
2966.717 77024808 75742272 74511368 73328512 72190376 71095288 70042768 
2970.092 69034496 68073672 67165848 66317468 65535464 64825660 64192528 
2973.467 63636592 63153064 62732348 62360260 62017844 61686152 61347520 
2976.842 60989740 60604248 60187632 59740216 59263272 58758560 58228800 
2980.218 57677920 57113372 56546840 55993156 55466660 54980016 54537724 
2983.593 54137500 53768592 53416984 53068972 52715476 52355276 51995880 
2986.968 51648924 51328536 51045904 50807624 50613168 50456668 50330632 
2990.343 50226800 50142516 50080756 50051636 50071968 50161032 50338988 
2993.719 50618504 51006368 51499868 52087900 52756472 53492936 54288928 
2997.094 55143360 56059888 57042928 58092244 59194924 60326472 61449224 
3000.469 62518628 63489252 64322956 64992376 65485232 65802620 65955220 
3003.844 65961508 65839448 65606596 65276244 64858168 64360468 63790508 
3007.219 63159772 62483976 61783568 61083720 60407944 59777304 59206552 
3010.595 58702660 58268876 57907692 57626180 57438800 57369040 57446232 
3013.970 57700432 58157208 58833024 59735880 60866444 62221948 63798376 
3017.345 65593236 67605960 69833544 72270912 74908752 77733584 80729216 
3020.720 83877728 87157320 90541144 93992152 97459648 100877984 104169464 
3024.096 107246232 110022584 112417528 114364760 115813952 116735640 
3026.989 117117408 116965112 116298040 115149224 113560432 111582144 
3029.882 109268912 106679240 103873480 100911712 97852312 94748544 91647520 
3033.257 88585944 85590632 82678616 79859952 77142424 74533952 72045768 
3036.632 69690080 67477128 65411776 63488552 61695172 60012440 58422896 
3040.008 56914596 55485520 54142248 52897904 51765332 50753832 49866028 
3043.383 49097308 48438960 47883216 47421956 47050836 46765316 46562680 
3046.758 46437572 46386048 46406148 46499572 46672760 46935304 47298600 
3050.133 47770856 48355672 49049708 49843948 50724732 51678192 52690396 
3053.509 53751308 54852304 55988832 57156716 58351132 59565420 60788392 
3056.884 62002876 63187188 64314304 65357560 66290632 67093164 67750584 
3060.259 68254296 68599536 68781552 68796232 68637512 68300800 67784632 
3063.634 67095996 66248172 65263072 64167576 62990636 61760020 60502092 
3067.010 59239340 57993116 56781300 55620152 54520660 53488432 52524836 
3070.385 51623912 50779128 49983540 49235376 48538296 47902456 47344056 
3073.760 46880224 46527148 46295548 46188360 46201720 46323236 46536404 
3077.135 46825272 47178392 47590788 48065716 48609496 49228292 49919372 
3080.510 50666980 51439212 52190456 52868092 53421280 53808552 54002664 
3083.886 53991532 53773800 53355744 52744372 51947524 50973712 49836316 
3087.261 48557212 47167448 45707776 44221640 42750856 41328220 39974368 
3090.636 38697044 37494680 36359852 35285584 34269552 33314798 32430782 
3094.011 31629988 30926152 30331330 29853082 29493860 29250678 29115250 
3097.387 29075318 29112462 29206586 29334206 29471538 29597376 29695114 
3100.762 29756030 29777570 29766646 29733130 29688046 29640216 29592580 
3104.137 29543770 29486226 29412676 29313244 29181920 29012078 28799720 
3107.512 28540640 28231476 27870662 27458216 26998058 26498090 25967896 
3110.888 25418738 24861336 24307044 23766344 23250666 22774578 22351050 
3114.263 21992654 21705758 21488880 21332276 21219472 21131186 21049592 
3117.638 20962940 20865676 20758834 20646830 20534692 20426936 20326924 
3121.013 20236856 20160622 20102112 20064160 20046364 20044838 20049504 
3124.389 20048190 20027640 19978190 19895406 19780232 19638652 19479592 
3127.764 19313250 19150134 19000230 18875638 18787808 18747278 18760260 
3131.139 18826364 18935630 19068400 19199014 19299778 19347290 19328256 
3134.514 19242222 19102548 18933670 18764758 18623208 18529984 18493736 
3137.890 18509228 18561610 18627930 18684776 18714538 18708554 18669648 
3141.265 18609636 18547490 18502214 18490596 18521616 18595620 18704708 
3144.640 18834436 18966436 19083692 19172660 19226558 19245894 19238482 
3148.015 19214664 19185974 19158656 19132382 19101976 19059068 18996668 
3151.391 18913508 18814440 18710908 18615182 18538390 18484140 18451056 
3154.766 18431524 18418130 18405364 18393448 18385550 18388570 18408662 
3158.141 18449968 18513248 18596808 18695678 18802126 18904680 18989116 
3161.516 19039912 19044512 18999292 18912406 18805738 18709032 18653002 
3164.892 18659142 18731510 18856544 19006190 19147708 19253634 19310206 
3168.267 19317298 19285528 19228086 19156150 19074500 18984308 18886322 
3171.642 18785114 18690384 18614166 18565312 18546608 18553366 18576550 
3175.017 18607412 18642548 18684952 18739740 18810020 18890246 18965164 
3178.393 19013098 19015020 18962904 18862392 18736436 18614936 18524284 
3181.768 18481150 18486088 18527042 18585860 18646620 18702590 18756654 
3185.143 18817790 18894896 18990538 19097668 19201198 19281418 19320006 
3188.518 19304928 19234778 19117792 18973024 18825552 18704410 18636718 
3191.894 18643180 18732402 18899936 19125252 19377386 19620304 19819848 
3195.269 19952462 20007680 19990390 19917766 19814388 19707550 19622288 
3198.644 19578168 19586494 19650300 19762090 19906946 20063584 20209418 
3202.019 20323662 20392508 20413238 20391000 20338594 20271956 20205620 
3205.395 20150802 20114064 20098552 20104378 20129178 20168760 20216764 
3208.770 20263380 20299006 20312524 20297446 20251166 20177134 20083328 
3212.145 19980106 19878588 19788278 19716952 19669908 19649310 19655174 
3215.520 19683082 19726340 19776532 19824574 19864308 19893996 19916446 
3218.896 19934902 19952274 19967492 19975354 19968276 19940846 19893158 
3222.271 19832896 19774026 19730954 19714298 19726130 19758228 19797164 
3225.646 19829172 19845468 19846810 19839800 19836364 19845620 19871150 
3229.021 19908624 19950126 19986754 20012970 20028336 20035888 20039744 
3232.396 20039804 20031820 20007312 19958240 19879590 19773636 19652008 
3235.772 19530680 19428786 19362202 19339968 19362860 19422960 19506690 
3239.147 19598064 19683592 19753800 19805628 19842664 19874046 19910774 
3242.522 19963422 20040282 20143438 20270728 20414640 20565158 20709514 
3245.897 20835478 20930822 20985134 20990982 20945824 20851828 20718490 
3249.273 20559888 20393068 20235282 20099860 19995770 19926726 19892636 
3252.648 19893728 19930234 20004254 20117886 20269736 20453048 20653286 
3256.023 20851760 21026654 21159450 21238178 21261372 21236792 21179434 
3259.398 21108138 21038802 20984900 20952918 20943184 20953080 20977680 
3262.774 21011390 21050926 21092010 21131568 21164556 21186128 21190462 
3266.149 21174262 21137838 21087784 21034198 20991364 20971604 20983380 
3269.524 21026606 21094692 21174238 21250732 21311296 21348112 21359400 
3272.899 21348898 21323200 21291766 21264070 21250680 21261518 21303872 
3276.275 21380832 21489780 21618616 21751354 21868928 21957082 22010182 
3279.650 22034496 22045020 22060184 22097100 22162734 22258106 22374832 
3283.025 22503976 22640240 22782526 22932500 23091044 23253860 23409654 
3286.400 23542260 23638498 23692902 23712546 23716578 23730580 23778054 
3289.776 23874410 24021908 24210384 24423670 24645262 24862286 25069746 
3293.151 25267748 25459830 25649664 25839904 26033114 26232082 26440918 
3296.526 26662756 26898042 27143230 27388648 27618572 27816954 27969488 
3299.901 28064660 28098648 28070856 27982266 27835210 27630348 27367456 
3303.277 27049438 26682330 26276636 25848638 25417974 25005698 24632758 
3306.652 24315968 24066674 23887102 23770900 23703040 23662358 23626010 
3310.027 23575494 23500996 23402726 23288940 23171558 23060728 22959468 
3313.402 22862980 22760004 22639820 22495742 22329434 22151716 21977654 
3316.778 21822526 21697046 21604460 21541980 21502254 21478140 21464738 
3320.153 21461604 21471308 21497208 21543784 21613052 21704694 21814136 
3323.528 21933120 22048572 22143258 22199384 22199134 22132638 21999212 
3326.903 21811034 21589482 21364314 21166198 21019082 20938074 20924656 
3330.279 20970000 21056564 21164774 21276828 21380854 21472144 21551582 
3333.654 21623424 21691922 21755956 21808796 21838312 21830924 21777292 
3337.029 21676738 21541930 21395984 21268866 21188080 21172054 21222498 
3340.404 21325962 21456206 21583682 21684906 21744800 21762440 21745788 
3343.780 21707094 21657026 21601324 21541102 21474680 21401042 21323334 
3347.155 21249324 21188008 21148852 21136812 21150552 21183438 21225228 
3350.530 21264664 21293526 21308420 21312390 21312750 21321450 21348644 
3353.905 21401328 21478390 21571950 21666782 21743362 21785202 21781782 
3357.281 21733202 21649038 21546452 21443838 21355210 21285762 21231432 
3360.656 21180818 21120132 21038300 20932382 20808132 20679112 20564078 
3364.031 20481686 20447770 20470260 20550876 20681970 20849990 21036866 
3367.406 21222678 21388190 21518430 21603974 21642526 21638372 21601124 
3370.781 21543012 21476044 21410196 21351470 21301228 21256538 21212284 
3374.157 21162690 21104236 21036120 20960732 20884186 20813522 20754534 
3377.532 20710168 20679644 20660684 20648984 20645120 20652948 20680770 
3380.907 20737116 20829154 20958166 21115758 21287170 21452620 21594470 
3384.282 21699506 21762804 21786280 21776406 21740106 21682508 21605876 
3387.658 21512024 21405286 21293622 21190138 21110668 21068322 21070864 
3391.033 21114546 21188452 21273670 21350360 21404038 21427270 21423242 
3394.408 21401182 21372950 21348024 21330508 21317896 21302882 21278840 
3397.783 21241090 21191790 21136080 21083216 21038560 21003722 20972872 
3401.159 20937212 20887830 20822880 20749120 20682768 20642928 20648714 
3404.534 20709746 20823658 20975600 21145112 21308626 21449296 21558174 
3407.909 21633976 21680578 21701870 21698520 21667998 21606056 21510958 
3411.284 21384884 21236418 21076804 20919572 20775038 20649406 20542898 
3414.660 20452998 20375358 20305838 20241814 20183738 20134368 20099108 
3418.035 20085526 20101564 20152854 20240680 20358978 20495008 20631318 
3421.410 20750900 20843040 20906352 20950814 20991724 21044616 21117542 
3424.785 21207186 21297658 21369276 21402576 21388310 21331076 21246870 
3428.161 21159416 21090960 21057164 21061738 21098358 21154468 21216362 
3431.536 21271240 21314022 21342746 21360738 21372396 21383706 21400098 
3434.911 21425618 21461300 21506122 21555456 21602380 21639614 21661020 
3438.286 21664758 21651840 21627244 21595938 21561960 21526238 21487384 
3441.662 21444816 21399002 21355602 21324804 21318300 21345242 21409358 
3445.037 21505680 21619290 21728308 21808972 21839028 21805804 21706508 
3448.412 21550510 21355422 21143386 20933172 20737994 20560874 20397980 
3451.787 20240738 20084978 19933242 19798526 19699724 19656092 19680756 
3455.163 19773976 19922450 20103124 20289324 20460624 20605738 20722334 
3458.538 20814332 20884400 20930782 20945554 20919874 20848608 20737092 
3461.913 20601718 20467012 20358446 20295220 20283388 20315762 20377580 
3465.288 20450594 20521068 20581784 20632390 20673340 20704752 20720330 
3468.664 20710160 20664100 20574672 20441988 20276182 20094962 19919774 
3472.039 19772880 19671764 19627168 19640968 19707596 19815534 19950340 
3475.414 20097212 20245540 20390068 20528694 20662698 20789392 20901172 
3478.789 20982952 21015434 20979768 20866464 20677024 20429804 20152980 
3482.165 19880574 19642856 19460868 19344784 19294148 19305004 19370126 
3485.540 19483580 19637438 19820028 20014392 20197478 20345380 20436050 
3488.915 20458092 20410650 20306474 20166068 20014500 19874510 19766020 
3492.290 19703340 19694220 19739736 19832996 19959482 20097038 20219508 
3495.666 20301994 20328036 20293504 20207416 20090308 19966952 19858134 
3499.041 19777832 19728994 19706574 19702238 19709064 19722238 19740116 
3502.416 19762468 19786470 19808006 19821552 19823810 19816892 19805970 
3505.791 19801986 19812478 19841450 19884322 19931212 19968220 19983802 
3509.167 19973120 19940046 19896716 19858678 19844084 19866020 19932878 
3512.542 20043740 20191080 20359358 20527108 20669424 20763630 20793750 
3515.917 20755394 20659632 20533258 20413244 20338202 20338508 20427308 
3519.292 20597090 20819658 21054732 21260100 21401782 21462690 21443972 
3522.667 21364296 21250274 21132208 21032110 20961350 20918634 20891062 
3526.043 20859694 20805102 20713780 20581926 20416758 20237470 20068696 
3529.418 19935430 19857236 19843832 19891460 19986036 20106486 20230780 
3532.793 20340994 20424320 20474448 20489702 20470780 20419088 20339136 
3536.168 20240522 20138328 20052144 20002630 20005000 20061176 20159304 
3539.544 20274696 20376696 20442114 20460118 20438884 20402546 20380700 
3542.919 20396676 20457510 20552272 20653730 20728914 20751970 20711096 
3546.294 20613050 20477832 20331508 20196474 20088572 20013044 19968114 
3549.669 19951646 19961264 19996392 20056438 20137362 20230480 20322430 
3553.045 20397474 20442356 20447634 20408404 20326314 20208050 20063976 
3556.420 19910208 19766206 19653926 19592600 19593104 19652124 19751174 
3559.795 19858496 19939574 19963902 19918198 19808060 19656180 19493634 
3563.170 19350070 19244494 19183734 19162770 19172776 19204914 19254882 
3566.546 19320182 19396030 19472616 19533790 19559894 19535238 19453448 
3569.921 19321098 19154712 18976922 18807490 18660302 18538484 18441082 
3573.296 18364622 18306952 18268682 18250894 18250242 18258456 18261276 
3576.671 18242636 18192572 18107838 17997540 17877028 17765606 17678630 
3580.047 17623190 17599646 17601294 17621068 17652606 17692198 17738404 
3583.422 17789786 17840944 17886108 17918792 17936344 17941158 17941888 
3586.797 17952476 17985186 18049654 18145650 18264418 18388636 18497614 
3590.172 18572682 18603226 18589112 18542474 18484988 18440858 18431404 
3593.548 18466528 18544198 18649244 18758790 18850284 18907558 18926134 
3596.923 18912266 18878734 18840604 18808740 18787126 18775638 18771518 
3600.298 18773428 18781858 18798380 18822394 18847020 18859812 18844814 
3603.673 18788730 18684050 18535238 18358966 18177956 18019518 17906376 
3607.049 17855098 17874532 17966882 18127230 18345584 18605532 18884236 
3610.424 19154948 19391378 19571322 19683478 19729858 19724978 19691484 
3613.799 19653254 19628228 19623328 19637470 19661678 19685532 19702474 
3617.174 19709592 19710886 19712660 19721480 19743536 19781626 19836488 
3620.550 19905094 19982834 20063146 20138382 20200872 20246846 20274472 
3623.925 20287994 20294586 20302638 20319452 20349048 20390458 20439790 
3627.300 20490234 20534602 20566198 20580502 20575072 20552464 20519006 
3630.675 20487488 20474242 20495610 20562092 20673102 20813420 20955128 
3634.051 21064062 21109692 21076852 20971014 20819132 20662338 20543364 
3637.426 20494200 20526344 20628476 20769484 20909808 21010098 21043190 
3640.801 20999162 20888006 20734284 20573324 20441924 20372368 20384480 
3644.176 20483310 20656430 20877946 21113020 21325416 21485108 21572342 
3647.552 21579972 21512498 21385462 21218944 21037090 20866354 20731374 
3650.927 20654332 20648968 20717524 20848134 21016444 21187140 21330046 
3654.302 21420478 21451780 21431410 21378992 21314652 21251776 21191088 
3657.677 21121672 21026816 20894354 20721584 20519552 20309140 20114304 
3661.052 19954688 19840868 19773210 19744604 19742658 19755456 19770964 
3664.428 19777254 19763012 19719998 19645364 19547480 19444160 19364924 
3667.803 19340288 19392408 19524646 19718962 19936002 20127642 20249754 
3671.178 20279514 20217498 20090904 19940386 19805734 19711842 19663166 
3674.553 19640108 19609650 19536902 19396944 19182874 18909846 18607582 
3677.929 18314660 18066950 17893544 17810828 17821918 17917594 18078790 
3681.304 18276074 18475526 18639998 18736878 18743776 18652880 18476386 
3684.679 18243188 17992308 17763874 17586902 17474480 17420204 17405440 
3688.054 17406972 17408508 17406582 17411082 17437828 17500674 17602488 
3691.430 17731288 17863594 17973434 18041852 18062770 18044336 18007822 
3694.805 17972664 17955944 17961382 17985398 18019326 18056738 18094278 
3698.180 18136040 18186494 18246008 18308642 18362360 18393276 18391208 
3701.555 18351798 18280872 18187718 18083256 17974432 17865956 17760190 
3704.931 17663710 17587442 17547032 17557134 17624978 17743012 17890894 
3708.306 18037714 18154632 18222742 18241520 18225614 18200256 18186454 
3711.681 18194290 18216680 18230988 18211212 18137546 18006874 17833000 
3715.056 17644040 17473346 17347802 17282842 17278614 17322308 17395278 
3718.432 17477488 17550750 17602484 17622580 17606424 17552498 17467278 
3721.807 17364718 17267742 17203782 17200276 17275200 17434086 17663390 
3725.182 17936712 18218264 18472464 18668690 18791532 18835944 18809516 
3728.557 18725342 18601032 18454078 18301726 18162474 18055568 17996894 
3731.933 17999972 18068444 18196224 18363448 18543494 18703836 18816532 
3735.308 18862032 18835416 18744926 18613842 18468956 18341456 18253888 
3738.683 18222672 18252208 18337262 18464704 18617510 18775886 18923032 
3742.058 19043630 19128762 19172886 19175984 19139922 19070332 18973616 
3745.434 18856666 18726890 18592948 18464758 18353492 18269208 18220946 
3748.809 18212234 18239702 18294690 18365654 18439776 18511408 18580796 
3752.184 18655992 18747558 18864434 19007144 19167268 19329840 19477108 
3755.559 19595586 19682238 19743596 19794382 19846950 19906212 19963724 
3758.935 19999696 19987888 19910248 19762608 19561848 19341642 19144360 
3762.310 19007204 18951120 18976000 19063588 19183886 19307122 19411088 
3765.685 19484654 19526546 19539404 19524726 19482128 19410842 19314522 
3769.060 19204796 19101232 19025960 18996924 19020082 19085978 19171990 
3772.436 19251206 19302234 19316844 19300968 19273952 19255536 19261664 
3775.811 19296400 19352796 19415410 19469560 19503328 19512784 19497538 
3779.186 19457832 19392138 19297418 19172254 19021854 18860400 18712988 
3782.561 18607762 18570328 18614152 18736860 18918456 19127782 19330834 
3785.937 19498808 19613516 19669848 19673116 19634342 19566222 19480426 
3789.312 19385214 19288584 19196636 19118520 19063262 19040140 19055274 
3792.687 19111340 19204296 19323604 19453126 19573914 19668014 19722182 
3796.062 19730926 19699570 19639944 19571138 19509574 19469136 19455432 
3799.438 19468346 19501392 19548458 19604590 19667360 19735246 19805452 
3802.813 19871974 19924492 19950612 19940126 19888434 19801124 19690578 
3806.188 19574522 19469672 19386630 19326414 19282910 19246156 19209010 
3809.563 19173778 19150918 19158832 19216056 19332958 19505746 19713104 
3812.938 19921050 20088152 20179584 20173822 20072872 19898974 19691662 
3816.314 19494942 19347324 19270566 19268392 19328802 19431216 19554406 
3819.689 19684676 19814730 19944702 20073046 20195284 20300510 20373198 
3823.064 20399364 20373594 20301388 20200952 20096774 20012076 19963280 
3826.439 19951810 19965232 19984302 19986052 19955832 19888374 19790092 
3829.815 19675866 19564060 19469566 19400740 19359898 19343708 19347044 
3833.190 19367206 19405108 19466158 19557170 19683442 19845634 20035664 
3836.565 20235156 20420176 20564330 20645964 20652804 20587794 20466362 
3839.940 20313870 20157622 20018990 19909446 19827442 19763458 19705518 
3843.316 19645500 19584954 19535736 19514210 19537542 19613858 19738038 
3846.691 19894370 20057464 20204744 20319934 20401472 20459024 20510390 
3850.066 20571074 20648430 20735886 20815098 20861252 20853526 20782460 
3853.441 20655156 20494736 20331318 20193732 20099422 20049056 20030488 
3856.817 20023034 20007818 19974362 19924726 19872102 19837322 19839024 
3860.192 19890164 19992964 20139688 20311968 20487288 20640256 20745198 
3863.567 20780190 20730546 20590550 20369124 20088440 19784018 19496032 
3866.942 19262840 19110624 19050144 19073388 19158742 19276276 19398650 
3870.318 19504584 19585250 19640894 19680070 19714844 19756374 19814926 
3873.693 19897650 20007284 20144106 20302020 20471948 20640376 20794554 
3877.068 20921082 21012656 21066268 21082552 21063440 21011524 20927322 
3880.443 20811990 20669564 20509800 20348060 20205432 20101704 20053032 
3883.819 20065418 20133936 20242468 20369660 20491424 20587412 20643544 
3887.194 20652622 20613720 20531518 20412392 20266252 20102222 19932428 
3890.569 19767826 19621066 19504022 19426870 19397836 19420330 19489154 
3893.944 19595586 19721630 19848890 19961170 20049192 20111766 20157892 
3897.320 20198936 20244692 20297260 20350756 20393284 20414636 20412582 
3900.695 20396140 20384402 20399086 20454474 20550180 20668566 20780178 
3904.070 20854764 20871878 20829790 20746694 20653362 20581496 20556000 
3907.445 20584744 20660154 20763636 20872258 20966232 21030720 21057186 
3910.821 21042336 20986546 20893744 20773104 20637352 20504600 20389274 
3914.196 20302934 20248338 20217884 20199502 20182292 20162062 20144846 
3917.571 20145090 20179230 20258830 20383924 20541124 20708498 20858440 
3920.946 20969108 21028114 21032544 20990264 20915476 20821856 20723874 
3924.322 20633902 20562076 20516032 20501832 20520936 20570864 20642790 
3927.697 20725410 20803838 20865024 20900136 20906258 20888526 20857340 
3931.072 20826408 20809584 20814506 20842248 20884246 20926780 20953360 
3934.447 20953552 20925632 20878832 20828852 20794180 20784842 20801514 
3937.823 20832590 20862480 20875472 20867720 20846888 20831204 20838510 
3941.198 20879790 20951086 21034170 21103792 21137190 21123768 21069334 
3944.573 20989880 20908562 20840588 20791256 20754360 20718112 20671668 
3947.948 20612764 20545506 20481416 20428962 20392390 20369184 20355906 
3951.323 20350842 20359816 20392248 20460866 20570198 20714832 20876748 
3954.699 21032218 21159088 21246320 21296686 21325160 21352182 21394350 
3958.074 21457370 21535684 21614016 21675762 21706040 21699116 21656306 
3961.449 21585312 21495160 21397950 21304042 21224078 21168290 21142144 
3964.824 21144316 21165906 21190428 21198060 21172828 21110602 21019618 
3968.200 20923290 20850770 20829876 20875142 20986718 21145340 21320934 
3971.575 21476598 21582078 21617750 21580118 21478764 21338866 21188414 
3974.950 21058464 20970756 20939170 20964376 21036672 21138334 21250566 
3978.325 21355228 21439628 21494422 21513848 21493622 21431596 21328692 
3981.701 21192646 21039354 20892714 20780242 20724250 20735308 20806628 
3985.076 20914848 21027648 21113072 21151190 21140378 21096662 21050260 
3988.451 21032878 21068464 21167878 21322992 21513898 21709556 21879700 
3991.826 21997670 22047076 22021738 21929668 21788802 21625408 21469892 
3995.202 21349864 21284896 21284380 21345398 21455094 21595268 21746350 
3998.577 21889700 22011088 22099230 22148470 22157586 
##END=
