##TITLE=Bambu-Lab_PLA-CF_Blue_Filament_r4_ATR-Corrected
##JCAMP-DX=5.01  $$ Nicolet v. 1
##DATATYPE=INFRARED SPECTRUM
##ORIGIN=Curtin University
##OWNER=Nicolet
##LONGDATE=2024/07/10
##TIME=14:34:31
##SPECTROMETER/DATA SYSTEM=Nicolet iS50
##DATA PROCESSING=
Ratio against background
%Transmittance->Absorbance
ATR Correction
Truncated
ElementMultiply or ElementDivide
##COMMENTS=
Number of sample scans: 32
Collection length: 47.28 sec
Sample gain: 1.0
Background collected on: Wed Jul 10 14:29:39 2024 (GMT+08:00);
Number of background scans: 32
Background gain: 1.0
Sample spacing:  1.000
Number of scan points: 16672
Resolution points: 8192
Number of FFT points: 65536
Apodization: N-B strong;
Phase correction: Mertz;
Laser frequency: 15798.3 cm-1
Number of rejected sample scans: 0
Number of rejected background scans: 0
Bench serial number: AUP1200105;
##RESOLUTION=4.000
##XUNITS=1/CM
##YUNITS=ABSORBANCE
##FIRSTX=400.163452
##LASTX=4000.187744
##FIRSTY=0.094279
##MAXX=4000.187744
##MINX=400.163452
##MAXY=1.090048
##MINY=-0.004399
##XFACTOR=1.000000
##YFACTOR=1.000000E-008
##NPOINTS=7468
##DELTAX=0.482125
##ZPD=8192
##XYDATA=(X++(Y..Y))
400.163 9427863 9409289 9370724 9306071 9211175 9087265 8940209 8779821 
404.020 8617840 8465848 8333115 8225311 8143624 8085015 8043008 8009287 
407.877 7975305 7933988 7880664 7813531 7733187 7641952 7542855 7438935 
411.734 7332793 7226744 7123127 7024764 6935070 6857741 6795938 6751383 
415.591 6723524 6709221 6703068 6698528 6689218 6670512 6640371 6599690 
419.448 6551745 6501323 6453701 6413834 6385630 6371616 6372340 6386101 
423.305 6408804 6434332 6455383 6465057 6458384 6433929 6394138 6345062 
427.162 6294548 6250190 6217454 6198677 6193051 6197598 6208412 6221780 
431.019 6234679 6244656 6249261 6245523 6230567 6201941 6158760 6102710 
434.876 6038245 5972001 5911170 5861847 5827353 5807568 5799055 5796300 
438.733 5793193 5784695 5767872 5742503 5710868 5677253 5646917 5625146 
442.590 5616120 5621998 5642359 5674091 5711833 5748992 5778999 5796697 
446.447 5799256 5786715 5761632 5728387 5691930 5656866 5626499 5602653 
450.304 5585665 5574846 5568980 5566824 5567305 5569732 5573517 5577994 
454.161 5582125 5584370 5582797 5575524 5561182 5539587 5511935 5480821 
458.017 5449598 5421549 5398926 5382444 5371007 5362284 5353419 5342021 
461.874 5326929 5308497 5288429 5269025 5253088 5242577 5238345 5240065 
465.731 5246417 5255431 5264872 5272672 5277171 5277453 5273359 5265553 
469.588 5255237 5243878 5232820 5222952 5214483 5207035 5199645 5191222 
473.445 5180737 5167608 5151885 5134417 5116833 5101417 5090748 5087156 
477.302 5092070 5105408 5125284 5148207 5169670 5185315 5191973 5188553 
481.159 5176284 5158246 5138436 5120545 5107018 5098629 5094548 5093024 
485.016 5092075 5090195 5086647 5081522 5075476 5069538 5064866 5062675 
488.873 5064161 5070337 5081826 5098601 5119726 5143464 5167396 5188969 
492.730 5205915 5216769 5220984 5218859 5211831 5201804 5190973 5181665 
496.587 5175936 5175303 5180338 5190528 5204208 5219040 5232589 5243112 
500.444 5250061 5254239 5257351 5261212 5266841 5273897 5280622 5284571 
504.301 5283519 5276555 5264588 5250346 5237560 5229885 5229719 5237545 
508.158 5251767 5269287 5286420 5299955 5307884 5309900 5307214 5302234 
512.015 5297817 5296601 5300318 5309433 5322904 5338501 5353205 5363978 
515.871 5368510 5365830 5356516 5342585 5326810 5312020 5300229 5292240 
519.728 5287505 5284516 5281361 5276466 5269015 5259255 5248298 5237795 
523.585 5229398 5224244 5222594 5223592 5225631 5226442 5223636 5215342 
527.442 5200754 5180412 5156229 5131134 5108441 5091153 5081233 5079294 
531.299 5084461 5094701 5107236 5119195 5128038 5132060 5130504 5123802 
535.156 5113457 5101828 5091677 5085541 5084978 5089988 5098782 5108123 
539.013 5114194 5113806 5105494 5090215 5071146 5052870 5039878 5035264 
542.870 5039825 5051978 5068514 5085772 5100751 5111826 5118714 5121947 
546.727 5122075 5119231 5112976 5102776 5088598 5071434 5053356 5037071 
550.584 5025124 5019101 5019115 5023877 5031173 5038694 5044704 5048544 
554.441 5050609 5052119 5054603 5059358 5067321 5078595 5092466 5107486 
558.298 5121667 5132933 5139556 5140761 5137003 5130022 5122411 5116868 
562.155 5115378 5118658 5125973 5135654 5145764 5155007 5163136 5170925 
566.012 5179615 5190187 5202726 5216270 5229129 5239575 5246494 5249829 
569.869 5250511 5250088 5250101 5251690 5255333 5260984 5268268 5276732 
573.725 5285861 5295097 5303723 5311004 5316376 5319779 5321808 5323711 
577.582 5326999 5332925 5342008 5353872 5367398 5381225 5394235 5405926 
581.439 5416331 5425726 5434205 5441488 5447039 5450523 5452255 5453492 
585.296 5456191 5462437 5473589 5489742 5509550 5530710 5550771 5567952 
589.153 5581669 5592476 5601571 5610144 5618773 5627375 5635361 5642163 
593.010 5647590 5651980 5655931 5660086 5664724 5669867 5675380 5681429 
596.867 5688596 5697843 5710103 5725779 5744368 5764444 5784023 5801224 
600.724 5814872 5824862 5832046 5837841 5843639 5850433 5858632 5868260 
604.581 5879233 5891639 5905837 5922273 5941288 5962965 5987005 6012962 
608.438 6040391 6068986 6098613 6129158 6160324 6191568 6222103 6251073 
612.295 6277793 6301895 6323346 6342408 6359482 6375106 6389969 6405069 
616.152 6421694 6441334 6465331 6494487 6528692 6566853 6607091 6647218 
620.009 6685298 6720127 6751254 6778957 6803785 6826354 6847156 6866732 
623.866 6885853 6905721 6927842 6953726 6984327 7019596 7058261 7098049 
627.723 7136229 7170351 7198883 7221567 7239321 7253820 7266910 7280154 
631.579 7294433 7310011 7326732 7344377 7362896 7382627 7404130 7428033 
635.436 7454687 7483943 7515000 7546547 7577023 7605090 7629933 7651586 
639.293 7670838 7688942 7707105 7726100 7745881 7765735 7784530 7801349 
643.150 7815900 7828778 7841345 7855315 7872143 7892579 7916452 7942805 
647.007 7970314 7997709 8024174 8049445 8073619 8096967 8119564 8141218 
650.864 8161460 8179766 8195761 8209406 8221064 8231466 8241543 8252278 
654.721 8264521 8278837 8295368 8313803 8333387 8353102 8371860 8388883 
658.578 8403826 8416925 8428824 8440360 8452186 8464584 8477324 8489865 
662.435 8501590 8512085 8521315 8529653 8537662 8545976 8554989 8564885 
666.292 8575585 8586837 8598278 8609481 8619979 8629338 8637211 8643566 
670.149 8648729 8653470 8658738 8665461 8674105 8684524 8695882 8707011 
674.006 8716821 8724695 8730751 8735742 8740672 8746382 8753209 8760937 
677.863 8768985 8776879 8784550 8792545 8801763 8813148 8827177 8843590 
681.720 8861370 8879065 8895195 8908754 8919443 8927681 8934407 8940773 
685.577 8947854 8956462 8967087 8979860 8994544 9010545 9026862 9042247 
689.433 9055369 9065151 9071112 9073565 9073655 9073105 9073795 9077299 
693.290 9084415 9095094 9108440 9123074 9137532 9150743 9162194 9172057 
697.147 9181029 9190118 9200220 9211948 9225361 9240017 9254999 9269173 
701.004 9281387 9290697 9296464 9298467 9296741 9291607 9283513 9273028 
704.861 9260812 9247563 9233984 9220713 9208142 9196366 9185079 9173588 
708.718 9160952 9146104 9128007 9105869 9079192 9047920 9012537 8974067 
712.575 8934107 8894584 8857427 8824130 8795311 8770321 8747214 8723036 
716.432 8694302 8657666 8610503 8551264 8479413 8395376 8300170 8195259 
720.289 8082469 7964036 7842712 7721700 7604372 7493897 7392741 7302392 
724.146 7223314 7155214 7097456 7049539 7011280 6982841 6964412 6955899 
728.003 6956666 6965580 6981304 7002749 7029529 7062252 7102392 7151927 
731.860 7212776 7286187 7372314 7470067 7577248 7690990 7808202 7926111 
735.717 8042601 8156312 8266591 8373190 8475959 8574694 8668975 8758445 
739.574 8843005 8923171 9000102 9075481 9151096 9228217 9307135 9386916 
743.431 9465683 9541155 9611417 9675647 9734348 9789290 9842853 9897394 
747.287 9954534 10014892 10078167 10143591 10210384 10278115 10346711 
750.662 10416181 10486165 10555519 10622175 10683281 10735655 10776388 
754.037 10803281 10815168 10811830 10793824 10762069 10717516 10660912 
757.412 10592707 10513102 10422152 10319934 10206687 10082961 9949680 
760.787 9808189 9660259 9507953 9353541 9199240 9047022 8898397 8754271 
764.644 8614816 8479620 8347823 8218489 8090942 7965125 7841679 7721892 
768.501 7607283 7499164 7398059 7303506 7214033 7127587 7042092 6956043 
772.358 6868901 6781091 6693601 6607471 6523280 6440862 6359369 6277690 
776.214 6194936 6110930 6026341 5942619 5861559 5784800 5713359 5647422 
780.071 5586276 5528587 5472611 5416626 5359156 5299185 5236239 5170382 
783.928 5102160 5032451 4962285 4892683 4824519 4758376 4694592 4633293 
787.785 4574444 4517969 4463806 4411924 4362378 4315306 4270969 4229757 
791.642 4192117 4158513 4129170 4104024 4082569 4063969 4047151 4031147 
795.499 4015266 3999310 3983502 3968425 3954730 3942987 3933485 3926285 
799.356 3921250 3918144 3916703 3916571 3917294 3918292 3918861 3918243 
803.213 3915993 3911959 3906363 3899770 3892864 3886246 3880224 3874822 
807.070 3869825 3865014 3860345 3856005 3852402 3849952 3848870 3849021 
810.927 3849879 3850716 3850835 3849858 3847851 3845313 3842941 3841379 
814.784 3840895 3841303 3842060 3842494 3842120 3840905 3839319 3838198 
818.641 3838453 3840780 3845439 3852275 3860909 3870989 3882371 3895196 
822.498 3909625 3925642 3942711 3959728 3975217 3987778 3996523 4001488 
826.355 4003612 4004527 4005900 4008976 4014168 4021046 4028694 4036196 
830.212 4043132 4049801 4057081 4066068 4077604 4091934 4108619 4126802 
834.068 4145646 4164709 4184194 4204926 4228078 4254863 4286239 4322789 
837.925 4364772 4412308 4465512 4524588 4589681 4660789 4737504 4819014 
841.782 4904060 4991181 5078793 5165405 5249665 5330318 5406170 5476112 
845.639 5539168 5594686 5642502 5683065 5717429 5747148 5774044 5800006 
849.496 5826841 5856269 5889996 5929836 5977863 6036428 6108040 6195165 
853.353 6299903 6423774 6567413 6730558 6912057 7109990 7321813 7544573 
857.210 7774967 8009551 8244773 8477274 8704019 8922614 9131423 9329613 
861.067 9517001 9693692 9859676 10014413 10156702 10284743 10396563 10490555 
864.924 10565899 10622965 10663097 10688274 10700466 10701107 10690729 
868.299 10668994 10635024 10587916 10527146 10452846 10365687 10266601 
871.674 10156415 10035551 9903967 9761379 9607552 9442664 9267564 9083737 
875.531 8893134 8697913 8500038 8301151 8102466 7904880 7709107 7515929 
879.387 7326268 7141292 6962357 6790974 6628714 6477169 6337899 6212344 
883.244 6101777 6007091 5928700 5866417 5819359 5786127 5764974 5754045 
887.101 5751643 5756364 5767040 5782761 5802609 5825630 5850767 5876873 
890.958 5902781 5927423 5949780 5968963 5984168 5994777 6000433 6001213 
894.815 5997709 5991018 5982560 5973825 5965986 5959673 5954925 5951293 
898.672 5948117 5944845 5941197 5937264 5933335 5929736 5926697 5924280 
902.529 5922442 5921243 5920825 5921522 5923604 5927219 5932212 5938116 
906.386 5944232 5949910 5954654 5958210 5960536 5961610 5961339 5959533 
910.243 5955982 5950669 5943942 5936510 5929335 5923331 5919073 5916557 
914.100 5915243 5914251 5912643 5909781 5905470 5899938 5893695 5887295 
917.957 5881159 5875551 5870532 5866046 5861964 5858052 5853900 5848890 
921.814 5842234 5833123 5820942 5805487 5787112 5766693 5745523 5725046 
925.671 5706595 5691180 5679432 5671552 5667295 5666098 5667137 5669385 
929.528 5671760 5673231 5672989 5670575 5665984 5659668 5652496 5645554 
933.385 5640033 5636967 5637074 5640627 5647361 5656594 5667364 5678622 
937.241 5689607 5699928 5709682 5719397 5729779 5741551 5755216 5771032 
941.098 5789113 5809600 5832750 5859026 5888878 5922568 5959922 6000256 
944.955 6042455 6085344 6128004 6170127 6212128 6255027 6300115 6348617 
948.812 6401331 6458521 6519817 6584445 6651238 6718825 6785726 6850318 
952.669 6910994 6966201 7014590 7055059 7086725 7108841 7120687 7121414 
956.526 7110074 7085799 7047903 6996169 6930935 6853124 6764135 6665776 
960.383 6560173 6449727 6337141 6225348 6117342 6015903 5923265 5840936 
964.240 5769553 5709094 5659058 5618853 5587971 5566056 5552758 5547543 
968.097 5549495 5557316 5569391 5584033 5599789 5615503 5630490 5644434 
971.954 5657334 5669390 5680957 5692539 5704730 5718127 5733248 5750394 
975.811 5769687 5791034 5814320 5839504 5866653 5895921 5927385 5960920 
979.668 5996145 6032530 6069536 6106915 6144734 6183382 6223320 6264749 
983.525 6307447 6350732 6393662 6435407 6475620 6514584 6553188 6592564 
987.382 6633687 6677136 6722829 6770349 6819191 6869109 6920338 6973497 
991.239 7029426 7088817 7151952 7218593 7288040 7359379 7431738 7504476 
995.095 7577307 7650317 7723857 7798408 7874487 7952630 8033286 8116885 
998.952 8203815 8294489 8389323 8488685 8592930 8702250 8816607 8935696 
1002.809 9059002 9185968 9316182 9449635 9586856 9728897 9877217 10033391 
1006.666 10198855 10374716 10561702 10760210 10970495 11192714 11427085 
1010.041 11673862 11933247 12205482 12490789 12789452 13101871 13428478 
1013.416 13769674 14125533 14495666 14879222 15274887 15681203 16096902 
1016.791 16521008 16953010 17392610 17839434 18292746 18751138 19212640 
1020.166 19674850 20135304 20591802 21042716 21487200 21925258 22357636 
1023.540 22785758 23211346 23636204 24061910 24489652 24920326 25354812 
1026.916 25794428 26241458 26699262 27172128 27664822 28181738 28726206 
1030.291 29300076 29903668 30536150 31196016 31881490 32590606 33320952 
1033.666 34069228 34830956 35600368 36370788 37135176 37886648 38618876 
1037.041 39325880 40001900 40640948 41236924 41783924 42276804 42711860 
1040.417 43086976 43401612 43656220 43851668 43988824 44068644 44092288 
1043.792 44061628 43979452 43849452 43675928 43463584 43217184 42941652 
1047.167 42642184 42324312 41993864 41656720 41318276 40983172 40654948 
1050.542 40336132 40028476 39733208 39451216 39183088 38929116 38689144 
1053.917 38462716 38249344 38048792 37861492 37688828 37533372 37398892 
1057.293 37290332 37213804 37176504 37186308 37251484 37379984 37578716 
1060.668 37853072 38206644 38641332 39157896 39756412 40436780 41198572 
1064.043 42040764 42960968 43954960 45016384 46137212 47308460 48521216 
1067.418 49767420 51040244 52333908 53643416 54964088 56291592 57621968 
1070.794 58951984 60279072 61601184 62916036 64220740 65511436 66783828 
1074.169 68033768 69258168 70455328 71624416 72764432 73872928 74944848 
1077.544 75972416 76945824 77854576 78688568 79438976 80098200 80659544 
1080.919 81116560 81463120 81693680 81804136 81792520 81659552 81408408 
1084.295 81044224 80573704 80004648 79345568 78605776 77795104 76923928 
1087.670 76002576 75041208 74049200 73035008 72005712 70966872 69922472 
1091.045 68875096 67826376 66777724 65730892 64688520 63653912 62630600 
1094.420 61621292 60627116 59647124 58678628 57718008 56762124 55809180 
1097.796 54859460 53914976 52978744 52053492 51140980 50241476 49354160 
1101.171 48477824 47611736 46756348 45913408 45085628 44276156 43487828 
1104.546 42722856 41982676 41268276 40580564 39920824 39290948 38693540 
1107.921 38131620 37608292 37126332 36687852 36294036 35945060 35640176 
1111.297 35377844 35155936 34972064 34823664 34708200 34623352 34566964 
1114.672 34537156 34532328 34551180 34592816 34656744 34742888 34851556 
1118.047 34983224 35138392 35317440 35520296 35746500 35995012 36264364 
1121.422 36552520 36856896 37174312 37500784 37831360 38159920 38479124 
1124.798 38780508 39054748 39292240 39483892 39621972 39700940 39718060 
1128.173 39673412 39569528 39410540 39201076 38945136 38645468 38303204 
1131.548 37918188 37489416 37015788 36496688 35932316 35323744 34672888 
1134.923 33982100 33254000 32491254 31696448 30872160 30021172 29146638 
1138.299 28252428 27343166 26424318 25501970 24582526 23672356 22777288 
1141.674 21902480 21052172 20229960 19438844 18681478 17960372 17277974 
1145.049 16636527 16037954 15483601 14974074 14509119 14087678 13707966 
1148.424 13367762 13064580 12795860 12559175 12352214 12172849 12019121 
1151.800 11889223 11781529 11694573 11627129 11578243 11547226 11533739 
1155.175 11537725 11559359 11598955 11656819 11733112 11827809 11940698 
1158.550 12071542 12220266 12387202 12573361 12780529 13011213 13268547 
1161.925 13555978 13877095 14235324 14633960 15076178 15565279 16104911 
1165.301 16699401 17353880 18074370 18867646 19740986 20701772 21757144 
1168.676 22913584 24176774 25551456 27041420 28649550 30377572 32225788 
1172.051 34192388 36272564 38457648 40734400 43084384 45483908 47904272 
1175.426 50312412 52671720 54943228 57087024 59063880 60837280 62375312 
1178.802 63652504 64650928 65361108 65782084 65921276 65793876 65422048 
1182.177 64833504 64059804 63134056 62088812 60954188 59756840 58519380 
1185.552 57260764 55996692 54740356 53502868 52293508 51119740 49987288 
1188.927 48900108 47860668 46870164 45928944 45036852 44193564 43398692 
1192.302 42651852 41952544 41300000 40693032 40129916 39608332 39125488 
1195.678 38678440 38264348 37880820 37526124 37199248 36899684 36627196 
1199.053 36381364 36161344 35965696 35792344 35638844 35502432 35380388 
1202.428 35270088 35169064 35074960 34985528 34898632 34812252 34724400 
1205.803 34633140 34536524 34432460 34318776 34193192 34053500 33897732 
1209.179 33724276 33531934 33319858 33087430 32834182 32559854 32264364 
1212.554 31948054 31611780 31256938 30885414 30499342 30100856 29691956 
1215.929 29274338 28849464 28418576 27982816 27543352 27101370 26658174 
1219.304 26215140 25773722 25335396 24901520 24473260 24051504 23636800 
1222.680 23229482 22829760 22437826 22054114 21679204 21313764 20958384 
1226.055 20613446 20278942 19954564 19639724 19333844 19036466 18747460 
1229.430 18467028 18195630 17933934 17682596 17442120 17212826 16994676 
1232.805 16787326 16590162 16402343 16223031 16051529 15887447 15730742 
1236.181 15581657 15440454 15307273 15181871 15063465 14951000 14843209 
1239.556 14739156 14638452 14541398 14448909 14362183 14282213 14209528 
1242.931 14143832 14084201 14029248 13977684 13928598 13881736 13837495 
1246.306 13796765 13760546 13729705 13704792 13685986 13673216 13666224 
1249.682 13664745 13668546 13677347 13690786 13708432 13729824 13754582 
1253.057 13782527 13813812 13848840 13888180 13932344 13981615 14035924 
1256.432 14094825 14157680 14223763 14292529 14363562 14436670 14511670 
1259.807 14588264 14665946 14743836 14820878 14895852 14967525 15034831 
1263.183 15096873 15152930 15202463 15244986 15280114 15307513 15326908 
1266.558 15337996 15340474 15333940 15317897 15291739 15254852 15206662 
1269.933 15146768 15074933 14991066 14895123 14787073 14666852 14534394 
1273.308 14389782 14233299 14065613 13887577 13700217 13504551 13301390 
1276.684 13091330 12874818 12652245 12424131 12191159 11954282 11714597 
1280.059 11473349 11231814 10991354 10753363 10519279 10290510 10068447 
1283.434 9854312 9649246 9454343 9270760 9099788 8942918 8801722 8677600 
1287.292 8571570 8484025 8414691 8362751 8326993 8306202 8299337 8305642 
1291.149 8324593 8355763 8398584 8452205 8515356 8586434 8663560 8744650 
1295.006 8827610 8910348 8990901 9067582 9139045 9204400 9263264 9315702 
1298.864 9362121 9403152 9439427 9471596 9500216 9525851 9548956 9569940 
1302.721 9589002 9606032 9620551 9631864 9639237 9642216 9640895 9635930 
1306.579 9628513 9619952 9611348 9603283 9595713 9588131 9579924 9570652 
1310.436 9560356 9549534 9538959 9529348 9521035 9513900 9507390 9500710 
1314.293 9493251 9484677 9475098 9464985 9454997 9445748 9437727 9431244 
1318.151 9426462 9423445 9422234 9422811 9425047 9428675 9433248 9438299 
1322.008 9443447 9448550 9453750 9459632 9466915 9476420 9488846 9504654 
1325.866 9523983 9546822 9573003 9602509 9635502 9672360 9713698 9760167 
1329.723 9812317 9870436 9934512 10004108 10078588 10157163 10239077 
1333.098 10323793 10410998 10500656 10592915 10688093 10786495 10888490 
1336.474 10994404 11104527 11219084 11338137 11461581 11589119 11720293 
1339.849 11854647 11991837 12131776 12274709 12421186 12571868 12727486 
1343.224 12888533 13055336 13227953 13406277 13590129 13779294 13973537 
1346.599 14172621 14376184 14583807 14794903 15008864 15224844 15441874 
1349.975 15658702 15873779 16085309 16291344 16489969 16679519 16858742 
1353.350 17026792 17183198 17327752 17460248 17580486 17688140 17782796 
1356.725 17864052 17931598 17985340 18025552 18052940 18068754 18074622 
1360.100 18072612 18064798 18053130 18039030 18023392 18006382 17987592 
1363.476 17966136 17940820 17910172 17872476 17825720 17767676 17695830 
1366.851 17607642 17500652 17372804 17222752 17050166 16856122 16643530 
1370.226 16417313 16184691 15955056 15739475 15550047 15398929 15297271 
1373.601 15254399 15276890 15368135 15528041 15752879 16035502 16365531 
1376.977 16729948 17113700 17500716 17875084 18222240 18530030 18789270 
1380.352 18993854 19140198 19226598 19252456 19217854 19123262 18969770 
1383.727 18759168 18494182 18178626 17817394 17416394 16982378 16522545 
1387.102 16044058 15553372 15055738 14554855 14052925 13550976 13049558 
1390.478 12549315 12051480 11558031 11071710 10595633 10133209 9687755 
1393.853 9262443 8860098 8483132 8133305 7811564 7517910 7251429 7010447 
1397.710 6792792 6596135 6418305 6257452 6112091 5981019 5863172 5757493 
1401.568 5662795 5577868 5501549 5432864 5371052 5315628 5266269 5222594 
1405.425 5184071 5149900 5119040 5090439 5063176 5036705 5010994 4986395 
1409.282 4963542 4943057 4925314 4910258 4897546 4886493 4876483 4867147 
1413.140 4858402 4850586 4844240 4839967 4838193 4839115 4842637 4848461 
1416.997 4856217 4865549 4876199 4887960 4900678 4914148 4928143 4942470 
1420.855 4957024 4971872 4987358 5004015 5022542 5043649 5067974 5096018 
1424.712 5128147 5164583 5205495 5250960 5300999 5355450 5414064 5476480 
1428.570 5542458 5612055 5685805 5764785 5850423 5944317 6047823 6161888 
1432.427 6287026 6423475 6571694 6732682 6908285 7101205 7314781 7552541 
1436.284 7817825 8113498 8441851 8804820 9204042 9640920 10116536 10631256 
1440.142 11184411 11774023 12396785 13048102 13722248 14412530 15111472 
1443.517 15810820 16502036 17176670 17827098 18446944 19031344 19576750 
1446.892 20080446 20540226 20954252 21321150 21640448 21912816 22140008 
1450.268 22324350 22468122 22572952 22639588 22667904 22657358 22607234 
1453.643 22516846 22385364 22211776 21994894 21733828 21428474 21080162 
1457.018 20691798 20267568 19812160 19330086 18825246 18300990 17760578 
1460.393 17207604 16646206 16080871 15515938 14955145 14401382 13856946 
1463.769 13323882 12804489 12301469 11817686 11355697 10917259 10502987 
1467.144 10112560 9745073 9399628 9075604 8772720 8490621 8228215 7983146 
1471.001 7751580 7528396 7308085 7085883 6858899 6626946 6392722 6161175 
1474.859 5938486 5730723 5542724 5377239 5234689 5113483 5010719 4923011 
1478.716 4847314 4781320 4723526 4673037 4629235 4591391 4558594 4529738 
1482.573 4503806 4479975 4457797 4437266 4418666 4402410 4388944 4378544 
1486.431 4371220 4366730 4364454 4363537 4362889 4361389 4358077 4352338 
1490.288 4344089 4333720 4322000 4309788 4297861 4286657 4276282 4266584 
1494.146 4257276 4248128 4239011 4229885 4220710 4211366 4201648 4191278 
1498.003 4180083 4168088 4155573 4143069 4131161 4120376 4111037 4103171 
1501.861 4096651 4091252 4086844 4083409 4081043 4079768 4079478 4079735 
1505.718 4079852 4079038 4076678 4072567 4067034 4061003 4055632 4052126 
1509.575 4051355 4053612 4058618 4065602 4073517 4081330 4088232 4093690 
1513.433 4097487 4099530 4099767 4098204 4094902 4090054 4084100 4077635 
1517.290 4071369 4065832 4061110 4056865 4052357 4046667 4039034 4029240 
1521.148 4017629 4005145 3992971 3982137 3973215 3966084 3960070 3954105 
1525.005 3947106 3938247 3927200 3914109 3899628 3884684 3870335 3857568 
1528.863 3847114 3839372 3834300 3831501 3830226 3829670 3829101 3828118 
1532.720 3826654 3824947 3823395 3822228 3821426 3820579 3819096 3816367 
1536.577 3812018 3806102 3799055 3791540 3784264 3777664 3771859 3766616 
1540.435 3761591 3756520 3751343 3746335 3741940 3738651 3736754 3736260 
1544.292 3736848 3737934 3738846 3738951 3737778 3735156 3731166 3726166 
1548.150 3720669 3715267 3710517 3706816 3704393 3703227 3703168 3703972 
1552.007 3705498 3707632 3710377 3713721 3717533 3721560 3725295 3728198 
1555.865 3729719 3729545 3727675 3724479 3720625 3716966 3714357 3713454 
1559.722 3714591 3717673 3722274 3727714 3733162 3737913 3741391 3743377 
1563.579 3743947 3743519 3742652 3741947 3741796 3742317 3743234 3744025 
1567.437 3744052 3742772 3739882 3735447 3729904 3723920 3718261 3713632 
1571.294 3710479 3709038 3709274 3710939 3713739 3717404 3721710 3726558 
1575.152 3731921 3737727 3743829 3749929 3755569 3760246 3763516 3765158 
1579.009 3765302 3764383 3763149 3762389 3762856 3764973 3768872 3774258 
1582.866 3780633 3787322 3793732 3799352 3803921 3807360 3809823 3811625 
1586.724 3813245 3815104 3817553 3820748 3824551 3828572 3832322 3835384 
1590.581 3837633 3839293 3840952 3843370 3847195 3852690 3859617 3867274 
1594.439 3874695 3880958 3885547 3888405 3889960 3890967 3892164 3894022 
1598.296 3896710 3899997 3903415 3906504 3908916 3910531 3911496 3912101 
1602.154 3912767 3913951 3915965 3919082 3923387 3928807 3935130 3942065 
1606.011 3949330 3956724 3964211 3971906 3980001 3988670 3997993 4007831 
1609.868 4017878 4027773 4037167 4045881 4053847 4061196 4068039 4074422 
1613.726 4080292 4085502 4089916 4093502 4096484 4099211 4102274 4106206 
1617.583 4111436 4118222 4126563 4136235 4146880 4157942 4168818 4178806 
1621.441 4187261 4193542 4197368 4198661 4197796 4195394 4192298 4189372 
1625.298 4187381 4186903 4188328 4191806 4197339 4204718 4213504 4222948 
1629.156 4232123 4239991 4245656 4248592 4248839 4246995 4244094 4241373 
1633.013 4239909 4240379 4242947 4247298 4252812 4258784 4264563 4269656 
1636.870 4273700 4276353 4277192 4275805 4271765 4264861 4255185 4243226 
1640.728 4229859 4216176 4203335 4192422 4184290 4179509 4178357 4180738 
1644.585 4186285 4194252 4203629 4213259 4222022 4228984 4233656 4235967 
1648.443 4236314 4235414 4234171 4233587 4234471 4237530 4243121 4251346 
1652.300 4261899 4274062 4286880 4299275 4310346 4319531 4326783 4332459 
1656.157 4337259 4341985 4347372 4353935 4361930 4371327 4381885 4393303 
1660.015 4405214 4417144 4428661 4439364 4448946 4457348 4464877 4472228 
1663.872 4480393 4490416 4503193 4519184 4538227 4559582 4582108 4604487 
1667.730 4625625 4644757 4661664 4676607 4690150 4703023 4715815 4728929 
1671.587 4742561 4756745 4771485 4786844 4802983 4820041 4838119 4857048 
1675.445 4876471 4895857 4914656 4932596 4949764 4966598 4983809 5002111 
1679.302 5021832 5042797 5064327 5085428 5105217 5123242 5139808 5155884 
1683.159 5172886 5192201 5214749 5240599 5269100 5299109 5329459 5359337 
1687.017 5388561 5417453 5446633 5476727 5508133 5540956 5575159 5610614 
1690.874 5647443 5685894 5726416 5769345 5814829 5862659 5912418 5963441 
1694.732 6015288 6067710 6121001 6175916 6233560 6295223 6362107 6435071 
1698.589 6514428 6599738 6689822 6783023 6877473 6971732 7065192 7158349 
1702.447 7252786 7350618 7454196 7565363 7685221 7813904 7950888 8095272 
1706.304 8246317 8403730 8567772 8739096 8918580 9106899 9304468 9511285 
1710.161 9727070 9951444 10183934 10424168 10671819 10926507 11187845 
1713.537 11455368 11728497 12006616 12289067 12575258 12864701 13157056 
1716.912 13452168 13750139 14051200 14355654 14663880 14976281 15293379 
1720.287 15615992 15945314 16282944 16631040 16991952 17368286 17762756 
1723.662 18178042 18616884 19082298 19577562 20106568 20673762 21284292 
1727.038 21943894 22658650 23434604 24277462 25192230 26183256 27254472 
1730.413 28410190 29656050 30999752 32451254 34022044 35723476 37564656 
1733.788 39550488 41680812 43951036 46354428 48884644 51537912 54313128 
1737.163 57210272 60227172 63356144 66581720 69880336 73221984 76573312 
1740.539 79900280 83169928 86350496 89410840 92320520 95050744 97576288 
1743.914 99876952 101937912 103748464 105299840 106584344 107595864 
1746.807 108332232 108797848 109004768 108970976 108717072 108261776 
1749.700 107619920 106802080 105817248 104675128 103388200 101970840 
1752.593 100437256 98799032 97063824 95236208 93319896 91320568 89247360 
1755.968 87113032 84932088 82718816 80485424 78241552 75995144 73753824 
1759.344 71525856 69320880 67149248 65021264 62946308 60932452 58986228 
1762.719 57112796 55315976 53597944 51958900 50396972 48908336 47488012 
1766.094 46130888 44832568 43590156 42401992 41267260 40184916 39152988 
1769.469 38168232 37226200 36321812 35449852 34605400 33784064 32981754 
1772.844 32194752 31419510 30652914 29892442 29136482 28384200 27635360 
1776.220 26889824 26147192 25406372 24665684 23923256 23177710 22428728 
1779.595 21677550 20926904 20180670 19443094 18718166 18008908 17317424 
1782.970 16644894 15992174 15360077 14749770 14162713 13600533 13064794 
1786.345 12556836 12077534 11627458 11206637 10814597 10450199 10111500 
1789.721 9795983 9500821 9223392 8961701 8714716 8482344 8265014 8063155 
1793.578 7876768 7705006 7546192 7398250 7259079 7127001 7000959 6880618 
1797.436 6766161 6658038 6556711 6462487 6375414 6295181 6221176 6152541 
1801.293 6088263 6027382 5969114 5913051 5859046 5807286 5757963 5711148 
1805.150 5666680 5624185 5583247 5543485 5504769 5467162 5430891 5396106 
1809.008 5362871 5331007 5300210 5270146 5240374 5210289 5178944 5145037 
1812.865 5106935 5063143 5012852 4956522 4896290 4835804 4779846 4733170 
1816.723 4699467 4680343 4674843 4679682 4690060 4700732 4707193 4706391 
1820.580 4697076 4679586 4655492 4627034 4596587 4566149 4537141 4510072 
1824.438 4484654 4459904 4434522 4407427 4378018 4346592 4314145 4282109 
1828.295 4251828 4224245 4199368 4176599 4154624 4132146 4108103 4082054 
1832.152 4054181 4025281 3996274 3968137 3941484 3916345 3892331 3868567 
1836.010 3844237 3818789 3792431 3766214 3741850 3721277 3705958 3696205 
1839.867 3690994 3687919 3684051 3676743 3664564 3647728 3627910 3607710 
1843.725 3589364 3574207 3562098 3551852 3541875 3531108 3519595 3508538 
1847.582 3499728 3494814 3494427 3497873 3503310 3508296 3510658 3509055 
1851.439 3503330 3494309 3483220 3471408 3459631 3448055 3436332 3423855 
1855.297 3410102 3394883 3378364 3361082 3343783 3327215 3311867 3297861 
1859.154 3284935 3272587 3260364 3248218 3236762 3227176 3221038 3219619 
1863.012 3223330 3231431 3241883 3252052 3259442 3262510 3261120 3256381 
1866.869 3250043 3243593 3237500 3231024 3222522 3210363 3193869 3173748 
1870.727 3152347 3132686 3117736 3109464 3108337 3113368 3122600 3133837 
1874.584 3145101 3154944 3162370 3166782 3167694 3164945 3158858 3150440 
1878.441 3141274 3133321 3128153 3126788 3129085 3134064 3140470 3147178 
1882.299 3153843 3160882 3169008 3178812 3190160 3202008 3212649 3220378 
1886.156 3224074 3223631 3219903 3214305 3207911 3201215 3193612 3183805 
1890.014 3170297 3151973 3128542 3100844 3070484 3039660 3010848 2986533 
1893.871 2969004 2960364 2961879 2973909 2995221 3022967 3052728 3079346 
1897.729 3097839 3104536 3097983 3079296 3051981 3021006 2991874 2969365 
1901.586 2956966 2956324 2967096 2987418 3014139 3043283 3070722 3092640 
1905.443 3106066 3109684 3103762 3090676 3073917 3057705 3045922 3040964 
1909.301 3043104 3050581 3059789 3066559 3067405 3060634 3047136 3030314 
1913.158 3015176 3007160 3010133 3025600 3051917 3084697 3118045 3145994 
1917.016 3164010 3169980 3164130 3148844 3127459 3103527 3079816 3058409 
1920.873 3040251 3025130 3011622 2997258 2978300 2951178 2913159 2864147 
1924.730 2807423 2749977 2700971 2669501 2662004 2679994 2719509 2772214 
1928.588 2827846 2876999 2913163 2933637 2938305 2928365 2904752 2867859 
1932.445 2818476 2759203 2695385 2635340 2587931 2560298 2554960 2569046 
1936.303 2595315 2625192 2652146 2674535 2695462 2721074 2756830 2804304 
1940.160 2859515 2913783 2956341 2978245 2974985 2947532 2901490 2844780 
1944.018 2785437 2730313 2684245 2650789 2632328 2629507 2640693 2660767 
1947.875 2682129 2696060 2695727 2679320 2650749 2619281 2595520 2588149 
1951.732 2599777 2626621 2659722 2689505 2708732 2715650 2713606 2708550 
1955.590 2705827 2707698 2712475 2716223 2715124 2707776 2696031 2683846 
1959.447 2675200 2671677 2671872 2672093 2668653 2659926 2646890 2632710 
1963.305 2620845 2613591 2611267 2613452 2619606 2630591 2647591 2671270 
1967.162 2698781 2723817 2736576 2728128 2693328 2634805 2562895 2493747 
1971.020 2443387 2423864 2438284 2482684 2548258 2626682 2714914 2816574 
1974.877 2939893 3093982 3281314 3494906 3715712 3916231 4067521 4147264 
1978.734 4146466 4072386 3944289 3789195 3633662 3499652 3399549 3336195 
1982.592 3302857 3286888 3273261 3250469 3212477 3161337 3105388 3056415 
1986.449 3024712 3016542 3030770 3060107 3092560 3115578 3119531 3100652 
1990.307 3062561 3015540 2974081 2953678 2965657 3014059 3093105 3187590 
1994.164 3276128 3336770 3353097 3320636 3247583 3153851 3064221 3001480 
1998.021 2977647 2991284 3026598 3060213 3067019 3029550 2941694 2810349 
2001.879 2652023 2487432 2335753 2211490 2122441 2071245 2056705 2075324 
2005.736 2121508 2187128 2261125 2331264 2385460 2415263 2417896 2396285 
2009.594 2358003 2312861 2269854 2236568 2217592 2216174 2232895 2267572 
2013.451 2316573 2373824 2429643 2473773 2496197 2491572 2461030 2412753 
2017.309 2360642 2321223 2309789 2336907 2405913 2512362 2643978 2782252 
2021.166 2904283 2986836 3010530 2965544 2855044 2696887 2520782 2361821 
2025.023 2251987 2211746 2244658 2338253 2468063 2606885 2731740 2830501 
2028.881 2900583 2946869 2975536 2990806 2993653 2984993 2969290 2956988 
2032.738 2962418 2998929 3069865 3164463 3256325 3311038 3297603 3201103 
2036.596 3029342 2813274 2597029 2424889 2327271 2312079 2363933 2451014 
2040.453 2537038 2593880 2608834 2587910 2550258 2520397 2518679 2556078 
2044.311 2631765 2736856 2859585 2991014 3126933 3267588 3413880 3562731 
2048.168 3704039 3821747 3896916 3914465 3868191 3763245 3614869 3444881 
2052.025 3276705 3131214 3023146 2959493 2938516 2951468 2984961 3024730 
2055.883 3059058 3080817 3087754 3082029 3067579 3048863 3029140 3010365 
2059.740 2992882 2976913 2962188 2949392 2938957 2931398 2926561 2923545 
2063.598 2920703 2916193 2908316 2896056 2879071 2857981 2834464 2811471 
2067.455 2793244 2785096 2792532 2820298 2870763 2942924 3032074 3130324 
2071.313 3227951 3315428 3384541 3430128 3449345 3442367 3411371 3360768 
2075.170 3296849 3227856 3163195 3112096 3081473 3074289 3088397 3116953 
2079.027 3150511 3179926 3198990 3206074 3203667 3196528 3188965 3182857 
2082.885 3176674 3166436 3148144 3119847 3083090 3042838 3005685 2977703 
2086.742 2962553 2960658 2969332 2984846 3003016 3020846 3036211 3047675 
2090.600 3053750 3053186 3045097 3030246 3011055 2991845 2977324 2971222 
2094.457 2974451 2984825 2997565 3007356 3010460 3005968 2996081 2984652 
2098.314 2975317 2970124 2968636 2968736 2967901 2964361 2957958 2949704 
2102.172 2940792 2931811 2921778 2909042 2892070 2870971 2847903 2827190 
2106.029 2813567 2810872 2820183 2839719 2864873 2890342 2911695 2927007 
2109.887 2937002 2944597 2953280 2965398 2980899 2997306 3010503 3016276 
2113.744 3012007 2997697 2975892 2950926 2926832 2906243 2889108 2872960 
2117.602 2854122 2829338 2797262 2759395 2719350 2681538 2649474 2624369 
2121.459 2604920 2588121 2570796 2551240 2529371 2506392 2483199 2459162 
2125.316 2431202 2394737 2345464 2281663 2205439 2122585 2040851 1966796 
2129.174 1903575 1849713 1800665 1751406 1699863 1648923 1606556 1582752 
2133.031 1585920 1618917 1676818 1748407 1819103 1875977 1910788 1921776 
2136.889 1911578 1885512 1847915 1801981 1749412 1692101 1633089 1576432 
2140.746 1525718 1482599 1444799 1407207 1363519 1309101 1244246 1174292 
2144.604 1108379 1056319 1025049 1016214 1026149 1047398 1071813 1092768 
2148.461 1107332 1115089 1116189 1110089 1094160 1063925 1014899 944218 
2152.318 851493 739843 613763 478579 337663 193255 46883 -98319 -235509 
2156.658 -351256 -426744 -439939 -372069 -215838 18672 303773 601028 874596 
2160.998 1100340 1271651 1396998 1493444 1578597 1663536 1749773 1829237 
2164.855 1888150 1914955 1904961 1864473 1809419 1760886 1738551 1754936 
2168.712 1811140 1898220 1998831 2093529 2164554 2201234 2201200 2171247 
2172.570 2125071 2079633 2051240 2050620 2079529 2129714 2183266 2217886 
2176.427 2212782 2155957 2047456 1900837 1739361 1590143 1477474 1417007 
2180.285 1413287 1461488 1550432 1668185 1804719 1953276 2108743 2264947 
2184.142 2412396 2539276 2633057 2684337 2690101 2655673 2593454 2520896 
2188.000 2455280 2411120 2396678 2413783 2458405 2522098 2594313 2663649 
2191.857 2719979 2755048 2764449 2747650 2708717 2655278 2597491 2545771 
2195.714 2508672 2491385 2494614 2515325 2547273 2583630 2618047 2646400 
2199.572 2667085 2681425 2691558 2700167 2708802 2716961 2722135 2720463 
2203.429 2707555 2679915 2635806 2575631 2502670 2422493 2342730 2272620 
2207.287 2222035 2200161 2213699 2264828 2349688 2457798 2573461 2678663 
2211.144 2757000 2798166 2799878 2768717 2717481 2661326 2613403 2581943 
2215.001 2569140 2572873 2588856 2613495 2645141 2684138 2730999 2785134 
2218.859 2842987 2898816 2945440 2976491 2988149 2979567 2953061 2912754 
2222.716 2863100 2808286 2751964 2697454 2648754 2610730 2589162 2589995 
2226.574 2617490 2673749 2757003 2861705 2978768 3096869 3204191 3290615 
2230.431 3349441 3378924 3381951 3365355 3337959 3308133 3281794 3261688 
2234.289 3247190 3235954 3224908 3212494 3198722 3184929 3172879 3163391 
2238.146 3155899 3148656 3139642 3128026 3115035 3104155 3100330 3108535 
2242.003 3131861 3170653 3221780 3279474 3336357 3385335 3420567 3438633 
2245.861 3438430 3421345 3390251 3349289 3302926 3255903 3212426 3175978 
2249.718 3148526 3130624 3120954 3117041 3116068 3116003 3116401 3118956 
2253.576 3126932 3143848 3171993 3210818 3256650 3303017 3342696 3369805 
2257.433 3381401 3378376 3364337 3344246 3321958 3299372 3275938 3250370 
2261.291 3222112 3193291 3168826 3155597 3160118 3186067 3232715 3294664 
2265.148 3363489 3430220 3487814 3532659 3564815 3586811 3601782 3612052 
2269.005 3618239 3619640 3614831 3602926 3584191 3560356 3534488 3510575 
2272.863 3492906 3485867 3492983 3516279 3555606 3608209 3668834 3730820 
2276.720 3787541 3834223 3869001 3893166 3910255 3924492 3939028 3955215 
2280.578 3972190 3988089 4001287 4011486 4020099 4029755 4043167 4062135 
2284.435 4086470 4114228 4142053 4166193 4183284 4190978 4188234 4175344 
2288.292 4153676 4125608 4094035 4062302 4033417 4009910 3993225 3983697 
2292.150 3980685 3982883 3988433 3995537 4002255 4006753 4007357 4002903 
2296.007 3992974 3978267 3960524 3942158 3925626 3912534 3903326 3897221 
2299.865 3892770 3888942 3885446 3883343 3884363 3890197 3901443 3917146 
2303.722 3934986 3952002 3965483 3974060 3977769 3978005 3976650 3975628 
2307.580 3976260 3979446 3985713 3995478 4008870 4025663 4044610 4063759 
2311.437 4080334 4091916 4096799 4095123 4088608 4080302 4073646 4071636 
2315.294 4076070 4087395 4105087 4127796 4153967 4181956 4210429 4238736 
2319.152 4267142 4297428 4332413 4375373 4428338 4490417 4556525 4617209 
2323.009 4660381 4674062 4649768 4584843 4483552 4355910 4215650 4077030 
2326.867 3952219 3849219 3771153 3716722 3681653 3660552 3648249 3640752 
2330.724 3635486 3630834 3625932 3620379 3614095 3607488 3601391 3596896 
2334.582 3594985 3596321 3600920 3608392 3617953 3628754 3639930 3650533 
2338.439 3659622 3666122 3669087 3668011 3663075 3655331 3646467 3638243 
2342.296 3632011 3628085 3625726 3623366 3619283 3612195 3601716 3588544 
2346.154 3574008 3559791 3547380 3537713 3531166 3527654 3526703 3527708 
2350.011 3529722 3531792 3532936 3532387 3529860 3525751 3521083 3517285 
2353.869 3515633 3516918 3520997 3526791 3532465 3535961 3535431 3529792 
2357.726 3518790 3503112 3484099 3463480 3442954 3423887 3406966 3392104 
2361.583 3378531 3364946 3350023 3332799 3313104 3291682 3270086 3250241 
2365.441 3233926 3222330 3215706 3213456 3214362 3217032 3220262 3223339 
2369.298 3226108 3228839 3232008 3236103 3241366 3247766 3254827 3261849 
2373.156 3267982 3272576 3275383 3276869 3278209 3280979 3286814 3296836 
2377.013 3311208 3329043 3348524 3367569 3384238 3397192 3405941 3410575 
2380.871 3411373 3408712 3402796 3394015 3383216 3371843 3361942 3355678 
2384.728 3354733 3359623 3369594 3382723 3396569 3409016 3418869 3426053 
2388.585 3431391 3436002 3440551 3445100 3448948 3451150 3451002 3448454 
2392.443 3444421 3440354 3437940 3438428 3442401 3449466 3458702 3468852 
2396.300 3478645 3487245 3494106 3499114 3502489 3504548 3505598 3505867 
2400.158 3505354 3503788 3500567 3494943 3486189 3473885 3458433 3441225 
2404.015 3424596 3411791 3405939 3409775 3424493 3449396 3481783 3517443 
2407.873 3551453 3579434 3598322 3606998 3606381 3598887 3587662 3575756 
2411.730 3565533 3558399 3554925 3555032 3558183 3563685 3570464 3577154 
2415.587 3581984 3583270 3579520 3570283 3556246 3539288 3522210 3507904 
2419.445 3498815 3496222 3500077 3509101 3521131 3533764 3544569 3551842 
2423.302 3554434 3552226 3545929 3537063 3527704 3519970 3515649 3515616 
2427.160 3519691 3526761 3535222 3543538 3550759 3556784 3562178 3567699 
2431.017 3573789 3580240 3586143 3590222 3591176 3588317 3581579 3571459 
2434.875 3558666 3544008 3527878 3510568 3492428 3474141 3456785 3441795 
2438.732 3430716 3424833 3424884 3430930 3442274 3457777 3475904 3495120 
2442.589 3513870 3530914 3545405 3557074 3566050 3572920 3578350 3582928 
2446.447 3587005 3590714 3593904 3596567 3598987 3601568 3604954 3609737 
2450.304 3616125 3624061 3633026 3642314 3651153 3658859 3664692 3668064 
2454.162 3668431 3665457 3659332 3650721 3640770 3630722 3621538 3613363 
2458.019 3605631 3597324 3587606 3576554 3565500 3556716 3552685 3555058 
2461.876 3563732 3576796 3590913 3602716 3609711 3611422 3609155 3605350 
2465.734 3602355 3601395 3602216 3603335 3602974 3599973 3594215 3586669 
2469.591 3578724 3571401 3565040 3559101 3553015 3546674 3540973 3537640 
2473.449 3538424 3544281 3554445 3566563 3577102 3582633 3581040 3572296 
2477.306 3558618 3543868 3532296 3527509 3531472 3544062 3563156 3585404 
2481.164 3606644 3623091 3631825 3631730 3623545 3609876 3594587 3581762 
2485.021 3574627 3574623 3581217 3592037 3603885 3613931 3620710 3624421 
2488.878 3626589 3629314 3634171 3641385 3649850 3657463 3662048 3662261 
2492.736 3658075 3650751 3642296 3634882 3629994 3628242 3629431 3632971 
2496.593 3638130 3644642 3652380 3661483 3671651 3682296 3692053 3699141 
2500.451 3701749 3698442 3688857 3673713 3655118 3636091 3620043 3610346 
2504.308 3609317 3617870 3635387 3659722 3687703 3715850 3740771 3760075 
2508.166 3772239 3777119 3775393 3768509 3758206 3746246 3734059 3722816 
2512.023 3713283 3706020 3701349 3699629 3701054 3705763 3713447 3723549 
2515.880 3734897 3746165 3755875 3762810 3766380 3766384 3763141 3757045 
2519.738 3748330 3736942 3722664 3705472 3685864 3665172 3645556 3629738 
2523.595 3620087 3618350 3624859 3638437 3656571 3676056 3693612 3706665 
2527.453 3713844 3715306 3712626 3708273 3705044 3705222 3710004 3719011 
2531.310 3730365 3741350 3749147 3751979 3749523 3743193 3735644 3729830 
2535.167 3727873 3730606 3737062 3745423 3753580 3760121 3764873 3768739 
2539.025 3773059 3779043 3786763 3795296 3802909 3807831 3809033 3806556 
2542.882 3801583 3795832 3791004 3788190 3787555 3788604 3790386 3791951 
2546.740 3792573 3791790 3789319 3784759 3777847 3768407 3756920 3744520 
2550.597 3733087 3725095 3722817 3727894 3740572 3759425 3781571 3803037 
2554.455 3819575 3827760 3825371 3812272 3790360 3763142 3735203 3711246 
2558.312 3695286 3689830 3695706 3711817 3735752 3764229 3793795 3821464 
2562.169 3845107 3863665 3877115 3886050 3891672 3895044 3897123 3898490 
2566.027 3899213 3899224 3898310 3896487 3893993 3891394 3889278 3888263 
2569.884 3888639 3890559 3893785 3898238 3903867 3910636 3918599 3927422 
2573.742 3936425 3944584 3950713 3953883 3954023 3951978 3949507 3948849 
2577.599 3952038 3960123 3972900 3988766 4005118 4019094 4028273 4031206 
2581.457 4027730 4018978 4006780 3993499 3981296 3971776 3965732 3963233 
2585.314 3963574 3965759 3968788 3972068 3975588 3979749 3985244 3992606 
2589.171 4001777 4011973 4021827 4029880 4035087 4037307 4037471 4037340 
2593.029 4038822 4043518 4051887 4063343 4076371 4089015 4099665 4107404 
2596.886 4112137 4114471 4115244 4115276 4115004 4114526 4113787 4112890 
2600.744 4111971 4111643 4112424 4114947 4119511 4126141 4134636 4144531 
2604.601 4155404 4166678 4177669 4187562 4195418 4200406 4202000 4200409 
2608.458 4196665 4192651 4190617 4192774 4200217 4212716 4228429 4244300 
2612.316 4256819 4263079 4261663 4253099 4239721 4225018 4212597 4205234 
2616.173 4204211 4209231 4218717 4230540 4242627 4253523 4262423 4269118 
2620.031 4273833 4276918 4278949 4280603 4282806 4286544 4292466 4300756 
2623.888 4310701 4320948 4329891 4336034 4338791 4338621 4336805 4335025 
2627.746 4334581 4336091 4339203 4343084 4346912 4350516 4354455 4360008 
2631.603 4368234 4379626 4393498 4408092 4421107 4430470 4435055 4435087 
2635.460 4432004 4427777 4424311 4422758 4423277 4425348 4427974 4430374 
2639.318 4432364 4434257 4436739 4440533 4446001 4452900 4460620 4468143 
2643.175 4474412 4478607 4480289 4479393 4476410 4472049 4467196 4462667 
2647.033 4458913 4456050 4453633 4451015 4447264 4441860 4434611 4426009 
2650.890 4416975 4408851 4402698 4399271 4398563 4399939 4402318 4404397 
2654.748 4405033 4403447 4399265 4392576 4383754 4373202 4361367 4348660 
2658.605 4335271 4321386 4307179 4292692 4278056 4263370 4248626 4233879 
2662.462 4219127 4204428 4189853 4175576 4161854 4148998 4137255 4126855 
2666.320 4117797 4109936 4102997 4096642 4090632 4084887 4079533 4074929 
2670.177 4071404 4069344 4068905 4069942 4072043 4074538 4076659 4077660 
2674.035 4077001 4074423 4070007 4064196 4057702 4051354 4045949 4042141 
2677.892 4040223 4040225 4041843 4044602 4047959 4051419 4054658 4057502 
2681.750 4059962 4062146 4064230 4066451 4068986 4071983 4075385 4078891 
2685.607 4081936 4083820 4083862 4081544 4076798 4069949 4061788 4053237 
2689.464 4045126 4038009 4032080 4027211 4023197 4019810 4017022 4014833 
2693.322 4013178 4011819 4010236 4007822 4004168 3999274 3993732 3988650 
2697.179 3985350 3984815 3987441 3992667 3999266 4005626 4010276 4012316 
2701.037 4011624 4008895 4005183 4001729 3999412 3998661 3999551 4001766 
2704.894 4004928 4008619 4012459 4016190 4019420 4021723 4022672 4021864 
2708.751 4019098 4014473 4008406 4001613 3995040 3989619 3986137 3984967 
2712.609 3986103 3989071 3993036 3997131 4000651 4003112 4004492 4005082 
2716.466 4005272 4005461 4005688 4005774 4005349 4004111 4001876 3998773 
2720.324 3995212 3991770 3988981 3987225 3986719 3987611 3989894 3993626 
2724.181 3998701 4004956 4011866 4018611 4024321 4028210 4029886 4029533 
2728.039 4027897 4026056 4025009 4025337 4027030 4029445 4031729 4033031 
2731.896 4032984 4031841 4030267 4029217 4029459 4031369 4034827 4039345 
2735.753 4044333 4049464 4054549 4059768 4065269 4070989 4076476 4080904 
2739.611 4083135 4082284 4077938 4070451 4061044 4051437 4043520 4038900 
2743.468 4038472 4042257 4049383 4058535 4068226 4077159 4084532 4089902 
2747.326 4093238 4094616 4094119 4091736 4087590 4081858 4075031 4067882 
2751.183 4061229 4055886 4052351 4050684 4050564 4051367 4052472 4053343 
2755.041 4053712 4053468 4052713 4051494 4049964 4048215 4046457 4044971 
2758.898 4044155 4044456 4046108 4049208 4053435 4058240 4062916 4066777 
2762.755 4069211 4069997 4069125 4067050 4064386 4061947 4060590 4060957 
2766.613 4063315 4067456 4072660 4077848 4081936 4084214 4084592 4083727 
2770.470 4082833 4083221 4085765 4090599 4096936 4103466 4108696 4111664 
2774.328 4112179 4110924 4109098 4108033 4108642 4111240 4115582 4121162 
2778.185 4127535 4134539 4142223 4150699 4159771 4168817 4176885 4182970 
2782.042 4186338 4187055 4185861 4184066 4183120 4184121 4187587 4193328 
2785.900 4200705 4209022 4217647 4226313 4234850 4243188 4251100 4258305 
2789.757 4264460 4269525 4273711 4277611 4281828 4286860 4292739 4298907 
2793.615 4304540 4308947 4311695 4313149 4314258 4316288 4320422 4327274 
2797.472 4336866 4348460 4361030 4373538 4385252 4395895 4405550 4414584 
2801.330 4423323 4432093 4441109 4450590 4460671 4471653 4483546 4496369 
2805.187 4509582 4522550 4534367 4544218 4551563 4556382 4559145 4560729 
2809.044 4562178 4564546 4568664 4574890 4583353 4593772 4605578 4618126 
2812.902 4630716 4642848 4654238 4664964 4675415 4686159 4697790 4710763 
2816.759 4725275 4741297 4758550 4776867 4796098 4816317 4837782 4860646 
2820.617 4884845 4910020 4935412 4960029 4982944 5003591 5021861 5038189 
2824.474 5053471 5068682 5084698 5102011 5120582 5140156 5160229 5180486 
2828.332 5200862 5221795 5243901 5268055 5294893 5324831 5357940 5394098 
2832.189 5432965 5474447 5518608 5565715 5616265 5670678 5729403 5792882 
2836.046 5861696 5936802 6019687 6112345 6217108 6336239 6471601 6624467 
2839.904 6795485 6984918 7193202 7421267 7670896 7944739 8246028 8578292 
2843.761 8944743 9347822 9789006 10268207 10783413 11330052 11900340 
2847.136 12482773 13061868 13618760 14132211 14580469 14943403 15204577 
2850.512 15352884 15383649 15298700 15105873 14817894 14451024 14023474 
2853.887 13554031 13060528 12558781 12061647 11578916 11117107 10680256 
2857.262 10270568 9889232 9536920 9213974 8920374 8655388 8417369 8203884 
2861.120 8011969 7838749 7681922 7540258 7413562 7302496 7207803 7130095 
2864.977 7069218 7024132 6993048 6973803 6963946 6961309 6963917 6970143 
2868.834 6978734 6988885 7000236 7013012 7027975 7046439 7069933 7100028 
2872.692 7137830 7183719 7237226 7297054 7361151 7427273 7493177 7557192 
2876.549 7618262 7676084 7731022 7783819 7835282 7886124 7936583 7986419 
2880.407 8035026 8081468 8124663 8163643 8197674 8226551 8250566 8270644 
2884.264 8288167 8304849 8322400 8342203 8365135 8391491 8420971 8453098 
2888.122 8487443 8523969 8563039 8605442 8652071 8703399 8759429 8819372 
2891.979 8881800 8945186 9007940 9069099 9128375 9186172 9243404 9301277 
2895.836 9360898 9423227 9488904 9558180 9630943 9706799 9785009 9864795 
2899.694 9945407 10026415 10107853 10190433 10275396 10364378 10459060 
2903.069 10560743 10670152 10787431 10912297 11044538 11184343 11332885 
2906.444 11492131 11664881 11854279 12063444 12295143 12551537 12834486 
2909.820 13145946 13488075 13863616 14275570 14726727 15218741 15751435 
2913.195 16322018 16924796 17551240 18190626 18830722 19458622 20061394 
2916.570 20626794 21143432 21601210 21991580 22307868 22545656 22703048 
2919.945 22780902 22782714 22714100 22582214 22394980 22160296 21885402 
2923.321 21576540 21238988 20877204 20495186 20096780 19685884 19266750 
2926.696 18843538 18420452 18001210 17589178 17187012 16797026 16421066 
2930.071 16060981 15718488 15395254 15092593 14811306 14551499 14312454 
2933.446 14093098 13892047 13708077 13540605 13389470 13255088 13138022 
2936.822 13038613 12956949 12892652 12844995 12813038 12795623 12791325 
2940.197 12798257 12813886 12834872 12857337 12877049 12889887 12892529 
2943.572 12882571 12858705 12820600 12768529 12703091 12624951 12534735 
2946.947 12433027 12320468 12197929 12066495 11927512 11782467 11633164 
2950.323 11481360 11329027 11178025 11030161 10886926 10749234 10617558 
2953.698 10491636 10370755 10253992 10140595 10030079 9922629 9818843 
2957.073 9719621 9625749 9537655 9455073 9376936 9301701 9227645 9153293 
2960.930 9077878 9001462 8924889 8849514 8776518 8706626 8639723 8574870 
2964.788 8510743 8445938 8379654 8312095 8244477 8178758 8117243 8061965 
2968.645 8014261 7974367 7941534 7914331 7890910 7869431 7848558 7827492 
2972.503 7806088 7784586 7763488 7743352 7724581 7707638 7692941 7681337 
2976.360 7674084 7672889 7679639 7696022 7722991 7760276 7806639 7859748 
2980.218 7917239 7977105 8038845 8103420 8173138 8251375 8341252 8445211 
2984.075 8564449 8698710 8846843 9006988 9177341 9356166 9542055 9733464 
2987.932 9928813 10126109 10323109 10517492 10707007 10889474 11062723 
2991.308 11224421 11371913 11502416 11613318 11702490 11769046 11813498 
2994.683 11837699 11844473 11836758 11816934 11786319 11744782 11691412 
2998.058 11624753 11543736 11448205 11339077 11218286 11088280 10951383 
3001.433 10809497 10663613 10514127 10360942 10203945 10043368 9879914 
3004.809 9714665 9549037 9384202 9221225 9060676 8902859 8747964 8596114 
3008.666 8447529 8302498 8161346 8024297 7891443 7762810 7638347 7518004 
3012.523 7401716 7289474 7181113 7076402 6975020 6876611 6780813 6687360 
3016.381 6595897 6506058 6417240 6328895 6240457 6151757 6063290 5976153 
3020.238 5892018 5812632 5739187 5672201 5611099 5554740 5501719 5451189 
3024.096 5403023 5357864 5316715 5280231 5248116 5219109 5190997 5161577 
3027.953 5129235 5093510 5055114 5015665 4976704 4939371 4903879 4869825 
3031.811 4836582 4804097 4772996 4744716 4720714 4702097 4688757 4679426 
3035.668 4672020 4664268 4654524 4642254 4628074 4613287 4599320 4587206 
3039.525 4577204 4568921 4561637 4554893 4548482 4542766 4538145 4534931 
3043.383 4533040 4531787 4530322 4527689 4523332 4517187 4509778 4501990 
3047.240 4494847 4489145 4485425 4483669 4483406 4483822 4483852 4482563 
3051.098 4479141 4473387 4465768 4457332 4449479 4443538 4440379 4440159 
3054.955 4442053 4444691 4446408 4446010 4442867 4437138 4429751 4421743 
3058.813 4414111 4407367 4401638 4396809 4392721 4389577 4387710 4387656 
3062.670 4389721 4393769 4399255 4405299 4410967 4415703 4419515 4422837 
3066.527 4426336 4430404 4435125 4439867 4443656 4445374 4444263 4440230 
3070.385 4433786 4425910 4417801 4410467 4404185 4398868 4393928 4388682 
3074.242 4382696 4375868 4368816 4362552 4358255 4356958 4359242 4364719 
3078.100 4372252 4380093 4386144 4388845 4387423 4382288 4375000 4367784 
3081.957 4362907 4361860 4364948 4371130 4378390 4384481 4387553 4386845 
3085.814 4382692 4376383 4369585 4363684 4359357 4356486 4354386 4352211 
3089.672 4349316 4345606 4341409 4337410 4334352 4332838 4333207 4335544 
3093.529 4339703 4345250 4351528 4357503 4361953 4363607 4361478 4355427 
3097.387 4345983 4334840 4323992 4315547 4310789 4309954 4311961 4315018 
3101.244 4316984 4316328 4312595 4306822 4300964 4297513 4298573 4305114 
3105.102 4316553 4330855 4344949 4355488 4359854 4356681 4346212 4330401 
3108.959 4312035 4294283 4279718 4269777 4264620 4263195 4263739 4264506 
3112.816 4264293 4262772 4260462 4258374 4257671 4259085 4262750 4268065 
3116.674 4273926 4279149 4282658 4283886 4282895 4280165 4276539 4272804 
3120.531 4269805 4267796 4266823 4266607 4266700 4266782 4266725 4266754 
3124.389 4267477 4269567 4273655 4280001 4288219 4297359 4305904 4312345 
3128.246 4315363 4314422 4309887 4303005 4295469 4289097 4285004 4283640 
3132.104 4284417 4286202 4287686 4288003 4287109 4285754 4285137 4286472 
3135.961 4290315 4296316 4303176 4309255 4313041 4314068 4312832 4310885 
3139.818 4310065 4311769 4316179 4322332 4328152 4331567 4331211 4327113 
3143.676 4320692 4314302 4310221 4309872 4313146 4318680 4324313 4328150 
3147.533 4329126 4327496 4324551 4321920 4320707 4321207 4322536 4323036 
3151.391 4321209 4316071 4307656 4297072 4285828 4275821 4268291 4264081 
3155.248 4263330 4265643 4270276 4276312 4282566 4287873 4291172 4291838 
3159.105 4289869 4286052 4281889 4279107 4279187 4282779 4289539 4298128 
3162.963 4306503 4312860 4315832 4315158 4311434 4305923 4300118 4295285 
3166.820 4292345 4291808 4293847 4298562 4305683 4314940 4325643 4336868 
3170.678 4347535 4356741 4363846 4368925 4372518 4375537 4378710 4382393 
3174.535 4386338 4389817 4391949 4392030 4389959 4386214 4381576 4377078 
3178.393 4373351 4370742 4369187 4368534 4368685 4369859 4372382 4376548 
3182.250 4382217 4388704 4394770 4398996 4400141 4397692 4391985 4384152 
3186.107 4375761 4368512 4363725 4362096 4363727 4368398 4375482 4384182 
3189.965 4393648 4402921 4410910 4416707 4419722 4419941 4417889 4414625 
3193.822 4411195 4408398 4406342 4404515 4402077 4398324 4393074 4387012 
3197.680 4381343 4377641 4376933 4379584 4385014 4392032 4399239 4405594 
3201.537 4410539 4414138 4416730 4418809 4420602 4422407 4424443 4427213 
3205.395 4431344 4437449 4445618 4455172 4464696 4472172 4475753 4474285 
3209.252 4467886 4457852 4446377 4435842 4428117 4424290 4424493 4428189 
3213.109 4434601 4443060 4452895 4463394 4473609 4482201 4487571 4488266 
3216.967 4483480 4473354 4459109 4442879 4427197 4414693 4407460 4406766 
3220.824 4413032 4425732 4443395 4463854 4484487 4502582 4515940 4523335 
3224.682 4524839 4521642 4515916 4509934 4505608 4503907 4504790 4507605 
3228.539 4511338 4515139 4518509 4521207 4523086 4523827 4522955 4520080 
3232.396 4515324 4509571 4504447 4502098 4504263 4511951 4524601 4540322 
3236.254 4556127 4568792 4575666 4575439 4568240 4555697 4540292 4524872 
3240.111 4512021 4503480 4500060 4501328 4506067 4512450 4518424 4522437 
3243.969 4523542 4521794 4518115 4513856 4510362 4508423 4507993 4508196 
3247.826 4507665 4505034 4499335 4490378 4478708 4465456 4451923 4439311 
3251.684 4428529 4420248 4414676 4411928 4411748 4413770 4417294 4421398 
3255.541 4425079 4427539 4428372 4427802 4426632 4426051 4427319 4431494 
3259.398 4438802 4448888 4460470 4471923 4481540 4488013 4490797 4490255 
3263.256 4487504 4484227 4481887 4481544 4483434 4486955 4491125 4494972 
3267.113 4498160 4501160 4505176 4511777 4521991 4535923 4552263 4568577 
3270.971 4581830 4589211 4589026 4581181 4567107 4549627 4532009 4517491 
3274.828 4508513 4506645 4512115 4524297 4541629 4562040 4582998 4602046 
3278.686 4617017 4626304 4629061 4625476 4616287 4602851 4586763 4569617 
3282.543 4552916 4538144 4526682 4519810 4518543 4523261 4533454 4547605 
3286.400 4563426 4578309 4590014 4597402 4600687 4601474 4602183 4605277 
3290.258 4612437 4623868 4638376 4653658 4666994 4676232 4680435 4680184 
3294.115 4677284 4674280 4673418 4676246 4682730 4691676 4700850 4707984 
3297.973 4711123 4709553 4703611 4694618 4684199 4673677 4663592 4653652 
3301.830 4642874 4630216 4615229 4598431 4581426 4566532 4556054 4551508 
3305.688 4553019 4559043 4566912 4573312 4575473 4571851 4562526 4549260 
3309.545 4534792 4522131 4513611 4510397 4512345 4518131 4525980 4533990 
3313.402 4540847 4545951 4549400 4551898 4554272 4557383 4561755 4567601 
3317.260 4574596 4581910 4588432 4592823 4593739 4590523 4583287 4573197 
3321.117 4562311 4553114 4547902 4548063 4553597 4563167 4574435 4584854 
3324.975 4592422 4596318 4596882 4595512 4593948 4593589 4595108 4598119 
3328.832 4601643 4604393 4605254 4603768 4600049 4594801 4588960 4583618 
3332.689 4579621 4577639 4577936 4580536 4584905 4590290 4595482 4599261 
3336.547 4600645 4599073 4594658 4588084 4580436 4572774 4565819 4559832 
3340.404 4554631 4549944 4545437 4541204 4537540 4534858 4533374 4532988 
3344.262 4533025 4532741 4531244 4528226 4523916 4519237 4515507 4513949 
3348.119 4515435 4520022 4527151 4535817 4544692 4552791 4559621 4565181 
3351.977 4570077 4575090 4580987 4588227 4596640 4605581 4613873 4620193 
3355.834 4623451 4623082 4619177 4612665 4604819 4597040 4590396 4585255 
3359.691 4581296 4577669 4573408 4567883 4561011 4553414 4546021 4539823 
3363.549 4535449 4533099 4532565 4533548 4536003 4540391 4547450 4557826 
3367.406 4571658 4588121 4605361 4620868 4632118 4637322 4635922 4628839 
3371.264 4617927 4605572 4593733 4583655 4575639 4569293 4563996 4559158 
3375.121 4554537 4550054 4545431 4540229 4533539 4524595 4512914 4499095 
3378.979 4484604 4471969 4464006 4463027 4470222 4485262 4506305 4530407 
3382.836 4554276 4574999 4590525 4600041 4603948 4603643 4600989 4597963 
3386.693 4596140 4596308 4598364 4601405 4603947 4604568 4602326 4597070 
3390.551 4589449 4580795 4572289 4564859 4558575 4552974 4547197 4540804 
3394.408 4534143 4528372 4525292 4526654 4533412 4545429 4561281 4578661 
3398.266 4595095 4608630 4618104 4623442 4625109 4623905 4620421 4615007 
3402.123 4607787 4598916 4588727 4578001 4567681 4558916 4552535 4548967 
3405.980 4548179 4549697 4552645 4556189 4559547 4562264 4564308 4566014 
3409.838 4567917 4570533 4574034 4578108 4581880 4584218 4583980 4580708 
3413.695 4574870 4567665 4560971 4556493 4555246 4557137 4560862 4564564 
3417.553 4566353 4565000 4560401 4553451 4545659 4538624 4533504 4531034 
3421.410 4531358 4534486 4540245 4548473 4558656 4569850 4580415 4588503 
3425.268 4592238 4590520 4583475 4572459 4559848 4548417 4540368 4536943 
3429.125 4538026 4542412 4548160 4553334 4556342 4556525 4553859 4549117 
3432.982 4543670 4538984 4536525 4537420 4542152 4550463 4561371 4573246 
3436.840 4584302 4592943 4598121 4599436 4597096 4591948 4585000 4577498 
3440.697 4570793 4566155 4564890 4568011 4575872 4587981 4602754 4617967 
3444.555 4630938 4639568 4642596 4640101 4633448 4624508 4615307 4607235 
3448.412 4600904 4596198 4592610 4589716 4587434 4586131 4586394 4588721 
3452.270 4593324 4600064 4608493 4618046 4628097 4638187 4647702 4656157 
3456.127 4662972 4667851 4670653 4671801 4671980 4671910 4672136 4672492 
3459.984 4672173 4670069 4665242 4657494 4647720 4638062 4630969 4629047 
3463.842 4633691 4644836 4660744 4678482 4694829 4706951 4713389 4714258 
3467.699 4711026 4706180 4702340 4701808 4705747 4714467 4727165 4742406 
3471.557 4758425 4773309 4785372 4793307 4796431 4794744 4789183 4781588 
3475.414 4774491 4770743 4772712 4781686 4797345 4817697 4839461 4859174 
3479.271 4874003 4882930 4886894 4888476 4890892 4896848 4907382 4921638 
3483.129 4937067 4950641 4960046 4964669 4965904 4966771 4970680 4980548 
3486.986 4997594 5021407 5049914 5080440 5110360 5137495 5160478 5178469 
3490.844 5191093 5198310 5200668 5199578 5197386 5197253 5202295 5214886 
3494.701 5235607 5263050 5293851 5323754 5348595 5365607 5373827 5374327 
3498.559 5369292 5361637 5353644 5347163 5343070 5341800 5343485 5348235 
3502.416 5355979 5366165 5377749 5389158 5398620 5404754 5406917 5405820 
3506.273 5403061 5400842 5401223 5405506 5413643 5424446 5435613 5444397 
3510.131 5448147 5444784 5433224 5413524 5386925 5355696 5322969 5292242 
3513.988 5266755 5249001 5240164 5239894 5246231 5256476 5267339 5275939 
3517.846 5280161 5278797 5271387 5258206 5239701 5216799 5190745 5163410 
3521.703 5137218 5114789 5098462 5089361 5087100 5089619 5093539 5095407 
3525.561 5092517 5083975 5070756 5055398 5040990 5029986 5023462 5020790 
3529.418 5019965 5018669 5014871 5007929 4998314 4987681 4977905 4970665 
3533.275 4966930 4966701 4969289 4973439 4977553 4979915 4978633 4972147 
3537.133 4959341 4940044 4915335 4887512 4859747 4835551 4817607 4807213 
3540.990 4804067 4806452 4811938 4818321 4824221 4829384 4834342 4839847 
3544.848 4845984 4852085 4856589 4857661 4854054 4845544 4833236 4819265 
3548.705 4806103 4795620 4788628 4784728 4782478 4780203 4776470 4770795 
3552.563 4763442 4755311 4747433 4740463 4734732 4730127 4726445 4723867 
3556.420 4722927 4724394 4728850 4736347 4745924 4755746 4763579 4767398 
3560.277 4766037 4759614 4749502 4737771 4726340 4716746 4709108 4702905 
3564.135 4697029 4690689 4683738 4677030 4672060 4670318 4672764 4679401 
3567.992 4689282 4701053 4713171 4724829 4735746 4746107 4756044 4765142 
3571.850 4772179 4775448 4772992 4763771 4747810 4726853 4703817 4682281 
3575.707 4665502 4655777 4653597 4658132 4667139 4678091 4688497 4696755 
3579.564 4702082 4704708 4705170 4704263 4702353 4699402 4695043 4688640 
3583.422 4679972 4669370 4657712 4646590 4637718 4632822 4632821 4638010 
3587.279 4647621 4660162 4673357 4684755 4691598 4691553 4682893 4664925 
3591.137 4638351 4605731 4570989 4539089 4514931 4502130 4502024 4513268 
3594.994 4531958 4552666 4570034 4580021 4580929 4573566 4560542 4545135 
3598.852 4530033 4516707 4505122 4494333 4483308 4471888 4460945 4452295 
3602.709 4448102 4449729 4457191 4468907 4482039 4493394 4500585 4502638 
3606.566 4500399 4496327 4493496 4494687 4501452 4513658 4529745 4547439 
3610.424 4564400 4579200 4591527 4602233 4612535 4623493 4635454 4647812 
3614.281 4659251 4668249 4673438 4674209 4670401 4662519 4651092 4636996 
3618.139 4621009 4604352 4588705 4576068 4568355 4566852 4571610 4581360 
3621.996 4593684 4606022 4616301 4623826 4629276 4634394 4640898 4649816 
3625.854 4660680 4671968 4681550 4687905 4690696 4691072 4691200 4693086 
3629.711 4698033 4705882 4715220 4724151 4731250 4736082 4739390 4742848 
3633.568 4747857 4755261 4764617 4774819 4784292 4792005 4797670 4802070 
3637.426 4806458 4812227 4820098 4830183 4841789 4853833 4865234 4875296 
3641.283 4883768 4891097 4898167 4906297 4916571 4930012 4946683 4965504 
3645.141 4984206 4999774 5008901 5009152 4999812 4982289 4960062 4937820 
3648.998 4920139 4910475 4910126 4918434 4932972 4950858 4969427 4986803 
3652.855 5001899 5014377 5023997 5030709 5034448 5035649 5035138 5034364 
3656.713 5034879 5037831 5043512 5051157 5059206 5065705 5069039 5068592 
3660.570 5064565 5057969 5049757 5040691 5030846 5019609 5006328 4990527 
3664.428 4972682 4954106 4936744 4922962 4914452 4912140 4915693 4923609 
3668.285 4933432 4942582 4948397 4948960 4943214 4931080 4913174 4890813 
3672.143 4865388 4838569 4811997 4787517 4766899 4751758 4743011 4740573 
3676.000 4743051 4747865 4751850 4752186 4747072 4736646 4722615 4707992 
3679.857 4696003 4689084 4688065 4692247 4699569 4707522 4713932 4717439 
3683.715 4717454 4714010 4707109 4696748 4682776 4665521 4646049 4626587 
3687.572 4609952 4598922 4595386 4599458 4609306 4621799 4633252 4640667 
3691.430 4642557 4639021 4631392 4621544 4610913 4600218 4589256 4577624 
3695.287 4565108 4552400 4540951 4533001 4530430 4534309 4544316 4558561 
3699.145 4574173 4588075 4597705 4601837 4600683 4595969 4589967 4585023 
3703.002 4582515 4582847 4585224 4588346 4590863 4592320 4593145 4594652 
3706.859 4598674 4606629 4618921 4634733 4652055 4668346 4681150 4688985 
3710.717 4691607 4689748 4684711 4677748 4669213 4658803 4645541 4628730 
3714.574 4608372 4585971 4564202 4546697 4536749 4536718 4546908 4565579 
3718.432 4589352 4613958 4635277 4650375 4658082 4658839 4654366 4647013 
3722.289 4639009 4632045 4627022 4624180 4623294 4624070 4625951 4628481 
3726.146 4631138 4633579 4635526 4637434 4639903 4644126 4651046 4661159 
3730.004 4674024 4688304 4701774 4712436 4718863 4721153 4720745 4719864 
3733.861 4720588 4723860 4728712 4732674 4732457 4725165 4709588 4686897 
3737.719 4660239 4633961 4612154 4597710 4591382 4592088 4597500 4604927 
3741.576 4612267 4618384 4623125 4627038 4630786 4634944 4639714 4644920 
3745.434 4650333 4655593 4660266 4664188 4667075 4669017 4670231 4671548 
3749.291 4673900 4678311 4685422 4695258 4707144 4719700 4731440 4741175 
3753.148 4748223 4752623 4754770 4755291 4754391 4752093 4747975 4741730 
3757.006 4733228 4722699 4710604 4697533 4683794 4669603 4654961 4640177 
3760.863 4625978 4613765 4605280 4602357 4606255 4617247 4634412 4655830 
3764.721 4678771 4700642 4719170 4733171 4742396 4747602 4749997 4750823 
3768.578 4751187 4751538 4751657 4751005 4748654 4744117 4737199 4728389 
3772.436 4718702 4709373 4701341 4695187 4690627 4686928 4683189 4678767 
3776.293 4673571 4668297 4663885 4661531 4661997 4665581 4671870 4680196 
3780.150 4689711 4699705 4709394 4718053 4724741 4728323 4727713 4722239 
3784.008 4712094 4698604 4683861 4670638 4661374 4657941 4660986 4670177 
3787.865 4684277 4701611 4720358 4738751 4754862 4766997 4773305 4772762 
3791.723 4765001 4751227 4733751 4715819 4700654 4690580 4686248 4686611 
3795.580 4689095 4690855 4689471 4683880 4674547 4663231 4652004 4642717 
3799.438 4636509 4633640 4633749 4636293 4640702 4646628 4653528 4660649 
3803.295 4666737 4670439 4670681 4667305 4661296 4654948 4651128 4652560 
3807.152 4660765 4675655 4695081 4715863 4734445 4748007 4755182 4756446 
3811.010 4753539 4749176 4745878 4745451 4748378 4753946 4760490 4765970 
3814.867 4768562 4767317 4762351 4755054 4747561 4742200 4740755 4744023 
3818.725 4751157 4760040 4767673 4771101 4768212 4758678 4743891 4727003 
3822.582 4711650 4701221 4697552 4700934 4709805 4721402 4732560 4740603 
3826.439 4743523 4740637 4732180 4719245 4703502 4686961 4671854 4660162 
3830.297 4653558 4652747 4657222 4665394 4674743 4682776 4687636 4689062 
3834.154 4688163 4687197 4688492 4693709 4702560 4713325 4723071 4728976 
3838.012 4729439 4724917 4717608 4710859 4707604 4709504 4715946 4724695 
3841.869 4732516 4736449 4735014 4728547 4718987 4709295 4702141 4699102 
3845.727 4700294 4704540 4709993 4714896 4718084 4719410 4719345 4718835 
3849.584 4718599 4718967 4719440 4719138 4716895 4711761 4703254 4691763 
3853.441 4678263 4664313 4651201 4639965 4630657 4622804 4615305 4607568 
3857.299 4599698 4593061 4589890 4592856 4604087 4624077 4651227 4681926 
3861.156 4711310 4734730 4748786 4752473 4747234 4736542 4724426 4714624 
3865.014 4709405 4709452 4713926 4721325 4730110 4739254 4748281 4757350 
3868.871 4766489 4775946 4785392 4794406 4802142 4807703 4809767 4807184 
3872.729 4798699 4783730 4762593 4736884 4709498 4684075 4664181 4652206 
3876.586 4648758 4652611 4660995 4670953 4680201 4688156 4695941 4705976 
3880.443 4720761 4741766 4768545 4798697 4828292 4852986 4869162 4874667 
3884.301 4869312 4854695 4833545 4809174 4784642 4762398 4744126 4730646 
3888.158 4722290 4718928 4720347 4726088 4735528 4747847 4761867 4776118 
3892.016 4788820 4798157 4802400 4800487 4792136 4778129 4760270 4741135 
3895.873 4723537 4710077 4702589 4701817 4707311 4717615 4730498 4743545 
3899.730 4754336 4761290 4763367 4760659 4754095 4745442 4736587 4729633 
3903.588 4726055 4726758 4731732 4740404 4751795 4764933 4778979 4793376 
3907.445 4807831 4822038 4835570 4847692 4857393 4863604 4865284 4861790 
3911.303 4853042 4839572 4822525 4803635 4784690 4767622 4753873 4744322 
3915.160 4739023 4737553 4738870 4741936 4745936 4750551 4755928 4762494 
3919.018 4770852 4781081 4792823 4805197 4816932 4826854 4833944 4837881 
3922.875 4838916 4838040 4836481 4835578 4836346 4839295 4843944 4849169 
3926.732 4852978 4853546 4849202 4839514 4825298 4808818 4793057 4780911 
3930.590 4774265 4773525 4777299 4783136 4788318 4791036 4790753 4788539 
3934.447 4786176 4785421 4787175 4791100 4795819 4799706 4801581 4801459 
3938.305 4800409 4800151 4802175 4807139 4814388 4822564 4829924 4835471 
3942.162 4839193 4842379 4846599 4853294 4862760 4874003 4884914 4892815 
3946.020 4895605 4892329 4883400 4870608 4856428 4843402 4833497 4827802 
3949.877 4826480 4828805 4833730 4839841 4845872 4850774 4853696 4854356 
3953.734 4852860 4849650 4845430 4840913 4836583 4832670 4828904 4825015 
3957.592 4820762 4816318 4812212 4809547 4809296 4812203 4818281 4826561 
3961.449 4835355 4842761 4846956 4847181 4843787 4838217 4832402 4828100 
3965.307 4826092 4825949 4825955 4824082 4818559 4809208 4797396 4786096 
3969.164 4778821 4778605 4786677 4802015 4821769 4841827 4858333 4868724 
3973.021 4872429 4870800 4866271 4861539 4858430 4857462 4857984 4858694 
3976.879 4858090 4855468 4850688 4844404 4837480 4830799 4825134 4821081 
3980.736 4819265 4820445 4825438 4834800 4848534 4865803 4884691 4902989 
3984.594 4918155 4928232 4932130 4929819 4922262 4910912 4897330 4883203 
3988.451 4869767 4858381 4850282 4846545 4848001 4855032 4867029 4882771 
3992.309 4900204 4917222 4931645 4942164 4948072 4949499 4946964 4941419 
3996.166 4933651 4924492 4914827 4905515 4897373 4891136 4887093 4884929 
4000.023 4883814 4882753 
##END=
