##TITLE=Bambu-Lab_PETG_Lime-Green_Filament_r1_ATR-Corrected
##JCAMP-DX=5.01  $$ Nicolet v. 1
##DATATYPE=INFRARED SPECTRUM
##ORIGIN=Curtin University
##OWNER=Nicolet
##LONGDATE=2024/07/03
##TIME=14:32:41
##SPECTROMETER/DATA SYSTEM=Nicolet iS50
##DATA PROCESSING=
Ratio against background
%Transmittance->Absorbance
ATR Correction
Truncated
ElementMultiply or ElementDivide
##COMMENTS=
Number of sample scans: 32
Collection length: 47.29 sec
Sample gain: 1.0
Background collected on: Wed Jul 03 14:31:13 2024 (GMT+08:00);
Number of background scans: 32
Background gain: 1.0
Sample spacing:  1.000
Number of scan points: 16672
Resolution points: 8192
Number of FFT points: 65536
Apodization: N-B strong;
Phase correction: Mertz;
Laser frequency: 15798.3 cm-1
Number of rejected sample scans: 0
Number of rejected background scans: 0
Bench serial number: AUP1200105;
##RESOLUTION=4.000
##XUNITS=1/CM
##YUNITS=ABSORBANCE
##FIRSTX=400.163452
##LASTX=4000.187744
##FIRSTY=0.036562
##MAXX=4000.187744
##MINX=400.163452
##MAXY=1.528914
##MINY=-0.023567
##XFACTOR=1.000000
##YFACTOR=1.000000E-008
##NPOINTS=7468
##DELTAX=0.482125
##ZPD=8192
##XYDATA=(X++(Y..Y))
400.163 3656214 3658229 3686615 3734741 3792156 3847380 3891159 3918611 
404.020 3929567 3927807 3918707 3907420 3897302 3889632 3884263 3880895 
407.877 3879845 3882575 3890919 3906195 3928140 3954578 3981935 4006613 
411.734 4026386 4041487 4054555 4069632 4090302 4118203 4152114 4188313 
415.591 4221787 4247949 4263898 4269128 4265075 4254202 4239012 4221337 
419.448 4202258 4182823 4164518 4149858 4142161 4144957 4161191 4192558 
423.305 4239121 4299449 4370817 4449514 4530820 4609130 4678012 4730991 
427.162 4762482 4769142 4750747 4710618 4654947 4591519 4528010 4470419 
431.019 4422031 4383283 4352293 4325838 4300754 4274532 4245886 4214856 
434.876 4182434 4150353 4120416 4094143 4072424 4055328 4042135 4031700 
438.733 4022655 4013863 4004421 3993698 3981021 3965769 3947412 3926174 
442.590 3903507 3882489 3867383 3862637 3871165 3892877 3923912 3957186 
446.447 3984227 3997822 3994375 3975268 3946362 3916067 3892520 3881051 
450.304 3882733 3894709 3911545 3927422 3937848 3940545 3935375 3923537 
454.161 3906653 3886307 3863967 3841357 3820667 3804481 3795160 3794137 
458.017 3801260 3814832 3832026 3849852 3865891 3878858 3888529 3895345 
461.874 3899955 3903006 3905074 3906814 3909105 3912743 3918025 3924353 
465.731 3930077 3933023 3931339 3924499 3913975 3903054 3895943 3896370 
469.588 3906242 3925047 3950127 3977824 4004895 4029596 4052036 4073709 
473.445 4096396 4121188 4147907 4175218 4201317 4224731 4244971 4262639 
477.302 4279112 4296037 4314818 4336427 4361358 4389725 4421234 4455182 
481.159 4490219 4524564 4556283 4584029 4607640 4628565 4649665 4674474 
485.016 4706019 4745897 4793655 4847106 4903137 4958892 5012688 5064455 
488.873 5115537 5168051 5224172 5285734 5354039 5429988 5514253 5607192 
492.730 5708528 5816973 5930006 6044065 6155330 6260630 6358388 6448954 
496.587 6534223 6616689 6698043 6778153 6854462 6922314 6975822 7009191 
500.444 7017787 6998988 6952355 6879565 6783931 6669982 6542919 6408123 
504.301 6270568 6134315 6002057 5875022 5753141 5635632 5521730 5411375 
508.158 5305545 5206204 5115760 5036295 4968805 4912767 4866163 4825974 
512.015 4788903 4752323 4714719 4675971 4637006 4599273 4564079 4532201 
515.871 4503632 4477863 4454265 4432587 4413264 4397429 4386566 4381976 
519.728 4384142 4392323 4404444 4417402 4427633 4431887 4427822 4414509 
523.585 4392511 4363681 4330766 4296862 4264792 4236686 4213675 4195740 
527.442 4181816 4170183 4158886 4146275 4131441 4114363 4095836 4077077 
531.299 4059223 4042887 4027910 4013449 3998415 3981878 3963550 3943956 
535.156 3924247 3905920 3890311 3878317 3870211 3865729 3864251 3864948 
539.013 3866842 3868787 3869440 3867337 3861149 3850067 3834182 3814683 
542.870 3793600 3773407 3756223 3743213 3734183 3727665 3721423 3713226 
546.727 3701453 3685607 3666294 3644875 3622964 3601934 3582580 3565125 
550.584 3549342 3534885 3521451 3508933 3497330 3486680 3476891 3467631 
554.441 3458319 3448148 3436152 3421381 3402901 3380090 3352809 3321470 
558.298 3287079 3251128 3215274 3181105 3149744 3121738 3097034 3075171 
562.155 3055532 3037607 3021155 3006166 2992752 2980956 2970608 2961299 
566.012 2952428 2943421 2933784 2923317 2912090 2900397 2888673 2877437 
569.869 2867120 2858043 2850330 2843851 2838189 2832653 2826406 2818620 
573.725 2808685 2796436 2782245 2767029 2752090 2738935 2728928 2723160 
577.582 2722182 2725985 2733959 2744937 2757385 2769525 2779665 2786449 
581.439 2789130 2787714 2783007 2776408 2769632 2764306 2761626 2762188 
585.296 2765960 2772447 2780978 2790988 2802223 2814864 2829515 2847068 
589.153 2868539 2894947 2927144 2965766 3011134 3063198 3121556 3185463 
593.010 3253851 3325485 3399031 3473150 3546557 3617975 3686035 3749130 
596.867 3805270 3852070 3886786 3906619 3909078 3892495 3856476 3802219 
600.724 3732573 3651771 3564880 3477082 3392891 3315566 3246811 3186848 
604.581 3134817 3089408 3049430 3014291 2984056 2959331 2940875 2929246 
608.438 2924522 2926269 2933734 2946042 2962438 2982309 3004978 3029565 
612.295 3054685 3078494 3098886 3113988 3122639 3124788 3121586 3115133 
616.152 3107908 3102192 3099496 3100394 3104645 3111487 3120078 3129857 
620.009 3140607 3152443 3165615 3180399 3197013 3215696 3236770 3260696 
623.866 3287915 3318772 3353401 3391929 3434881 3483825 3541740 3613091 
627.723 3703002 3815829 3953153 4112012 4283793 4454512 4606629 4722218 
631.579 4786765 4792502 4740237 4639147 4504533 4354449 4206200 4073500 
635.436 3964999 3884120 3829867 3798324 3784197 3782139 3787663 3797611 
639.293 3810154 3824658 3841240 3860397 3882578 3907933 3936147 3966509 
643.150 3998083 4029978 4061433 4091959 4121117 4148364 4172895 4193572 
647.007 4209198 4218802 4222092 4219659 4213028 4204408 4196277 4190940 
650.864 4190135 4194922 4205633 4222040 4243424 4268736 4296597 4325469 
654.721 4353720 4379970 4403293 4423483 4441120 4457375 4473709 4491446 
658.578 4511441 4533922 4558531 4584561 4611194 4637735 4663700 4688785 
662.435 4712836 4735769 4757692 4778927 4800125 4822207 4846196 4872958 
666.292 4902868 4935704 4970658 5006617 5042568 5077986 5113079 5148776 
670.149 5186393 5227330 5272577 5322576 5377168 5435901 5498301 5564265 
674.006 5634212 5709015 5789738 5877211 5971635 6072242 6177212 6283755 
677.863 6388432 6487545 6577617 6655763 6719979 6769270 6803693 6824262 
681.720 6832803 6831757 6823965 6812422 6800028 6789265 6782056 6779611 
685.577 6782405 6790421 6803361 6821022 6843505 6871366 6905520 6947009 
689.433 6996660 7054864 7121425 7195707 7276860 7364136 7457208 7556312 
693.290 7662198 7776040 7899254 8033360 8179928 8340552 8516866 8710382 
697.147 8922333 9153380 9403398 9671395 9955564 10253613 10563018 10881390 
701.004 11206511 11536341 11868729 12201285 12531276 12855756 13172004 
704.379 13477847 13772108 14054698 14326543 14589310 14844957 15095484 
707.754 15342782 15588722 15835448 16085806 16343723 16614661 16905870 
711.129 17226506 17587636 18001998 18483696 19047750 19709658 20484954 
714.504 21388938 22436484 23642058 25019636 26582730 28344124 30315540 
717.878 32506910 34925480 37574232 40450116 43541164 46822892 50253452 
721.253 53767872 57271980 60637332 63701068 66274612 68166224 69217088 
724.628 69340824 68549136 66948576 64710456 62029100 59086824 56033404 
728.003 52980072 50002204 47145976 44435632 41879832 39476500 37216540 
731.378 35086592 33071196 31154474 29321464 27559150 25856966 24207110 
734.752 22604556 21046968 19534514 18069738 16657215 15303104 14014466 
738.127 12798479 11661625 10609007 9643871 8767457 7978993 7275792 6653609 
741.984 6106796 5628706 5212079 4849492 4533830 4258547 4017906 3806993 
745.841 3621650 3458316 3313964 3185970 3072126 2970633 2880062 2799316 
749.698 2727563 2664113 2608380 2559770 2517650 2481303 2449992 2422911 
753.555 2399421 2379095 2361859 2347971 2337853 2331798 2329647 2330534 
757.412 2332897 2334759 2334211 2329960 2321766 2310476 2297814 2285800 
761.269 2276232 2270301 2268533 2270910 2277296 2287677 2302219 2321183 
765.126 2344692 2372529 2404182 2439054 2476751 2517272 2560954 2608104 
768.983 2658612 2711534 2765084 2816972 2864983 2907690 2944729 2976830 
772.840 3005329 3031540 3056249 3079540 3101111 3120796 3139072 3157296 
776.697 3177511 3201844 3231890 3268185 3310241 3356890 3406952 3459867 
780.554 3516037 3576814 3644107 3719915 3805980 3903622 4013826 4137386 
784.410 4275021 4427272 4594298 4775695 4970434 5177131 5394457 5621574 
788.267 5858350 6105135 6361982 6627612 6898306 7167070 7423512 7654371 
792.124 7844788 7980050 8047595 8038810 7950471 7785595 7553404 7268593 
795.981 6949801 6617538 6291918 5990569 5726990 5509730 5342285 5223691 
799.838 5149659 5113722 5108463 5126326 5160164 5203527 5250798 5297388 
803.695 5339875 5376239 5405910 5429602 5448929 5465758 5481620 5497249 
807.552 5512492 5526541 5538376 5547303 5553210 5556596 5558311 5559107 
811.409 5559277 5558555 5556250 5551645 5544503 5535323 5525386 5516473 
815.266 5510363 5508367 5511043 5518207 5529180 5543244 5559866 5578844 
819.123 5600073 5623286 5647724 5672082 5694786 5714417 5730356 5743088 
822.980 5754222 5766137 5781303 5801581 5827782 5859570 5895805 5935112 
826.837 5976459 6019465 6064437 6112043 6162883 6217133 6274437 6334050 
830.694 6395245 6457647 6521459 6587457 6656679 6730068 6808121 6890739 
834.551 6977296 7066849 7158418 7251175 7344531 7438012 7531190 7623526 
838.408 7714376 7803130 7889269 7972581 8053078 8130946 8206322 8279081 
842.264 8348695 8414218 8474425 8528047 8574066 8611967 8641881 8664555 
846.121 8681214 8693306 8702215 8709064 8714548 8719045 8722688 8725537 
849.978 8727707 8729421 8730941 8732484 8734220 8736306 8739036 8743075 
853.835 8749512 8759861 8775772 8798692 8829455 8868158 8914283 8967095 
857.692 9026258 9092364 9167159 9253443 9354611 9474016 9614419 9777740 
861.549 9965201 10177678 10416308 10682784 10979506 11309369 11675394 
864.924 12080211 12525803 13013281 13542826 14113536 14723156 15367396 
868.299 16039318 16728616 17421214 18099556 18743302 19330764 19840554 
871.674 20253358 20553456 20729922 20777246 20695562 20490338 20171752 
875.048 19753596 19252140 18684776 18068788 17420294 16753595 16080786 
878.423 15411884 14755099 14117245 13504153 12920837 12371528 11859608 
881.798 11387303 10955610 10564216 10211635 9895571 9613258 9361934 9139222 
885.655 8943243 8772681 8626470 8503509 8402296 8320687 8255955 8205025 
889.512 8164878 8133002 8107637 8087810 8073137 8063396 8058157 8056631 
893.369 8057586 8059715 8061896 8063557 8064755 8066015 8067951 8070847 
897.226 8074243 8076749 8076134 8069556 8053953 8026452 7984687 7926997 
901.083 7852530 7761285 7654012 7532144 7397751 7253305 7101587 6945484 
904.940 6787878 6631452 6478600 6331374 6191414 6059886 5937475 5824481 
908.797 5720830 5626268 5540463 5463150 5394078 5333027 5279662 5233462 
912.654 5193685 5159501 5130191 5105347 5085049 5069848 5060573 5058053 
916.510 5062719 5074431 5092392 5115306 5141695 5170256 5200071 5230719 
920.367 5262184 5294623 5328196 5362918 5398688 5435392 5473027 5511799 
924.224 5551998 5593895 5637470 5682310 5727577 5772163 5815033 5855453 
928.081 5893209 5928647 5962532 5995757 6029169 6063394 6098866 6135939 
931.938 6175035 6216719 6261728 6310753 6364383 6422897 6486321 6554494 
935.795 6627318 6704890 6787714 6876605 6972717 7077298 7191605 7316792 
939.652 7453815 7603404 7765975 7941595 8129889 8330068 8540974 8761255 
943.509 8989520 9224442 9464778 9709223 9956291 10204132 10450594 10693399 
947.366 10930451 11160287 11382303 11596876 11805282 12009302 12210917 
950.741 12411930 12613679 12816958 13021885 13227822 13433258 13635580 
954.116 13830909 14014111 14178935 14318539 14426254 14496469 14525597 
957.490 14512613 14459540 14371325 14255199 14119887 13974619 13828112 
960.865 13688011 13560358 13449579 13358532 13288724 13240531 13213341 
964.240 13205659 13215286 13239391 13274783 13318142 13366248 13416088 
967.615 13464864 13509853 13548206 13576847 13592477 13591851 13572064 
970.990 13531038 13467807 13382621 13276854 13152666 13012652 12859464 
974.364 12695532 12522969 12343613 12159123 11971149 11781482 11592237 
977.739 11405865 11225117 11052924 10892133 10745083 10613393 10497625 
981.114 10397302 10311052 10236970 10173063 10117562 10069173 10027006 
984.489 9990380 9958582 9930673 9905429 9881478 9857550 9832644 9806231 
988.346 9778134 9748573 9717987 9686951 9656259 9626913 9600230 9577829 
992.203 9561576 9553322 9554804 9567370 9591930 9628936 9678365 9739910 
996.060 9812962 9896800 9990681 10094114 10206985 10329757 10463481 10609645 
999.917 10769950 10945924 11138655 11348666 11576057 11820868 12083505 
1003.291 12365358 12669010 12998562 13359466 13758326 14202434 14699396 
1006.666 15256779 15881923 16582122 17365248 18240686 19220616 20321102 
1010.041 21562650 22969706 24568708 26384268 28434188 30722832 33234122 
1013.416 35924588 38717580 41500536 44127224 46427788 48227780 49374724 
1016.791 49766164 49369876 48228572 46447760 44172556 41562044 38768764 
1020.166 35925772 33140544 30494014 28042566 25821214 23847444 22124870 
1023.540 20646680 19398544 18361276 17512926 16830484 16291274 15873876 
1026.916 15558703 15328407 15167858 15064032 15005806 14983758 14989944 
1030.291 15017849 15062296 15119432 15186630 15262277 15345562 15436167 
1033.666 15534031 15639178 15751640 15871409 15998444 16132563 16273323 
1037.041 16419962 16571233 16725433 16880486 17033992 17183326 17325782 
1040.417 17458492 17578632 17683514 17770774 17838692 17886358 17913700 
1043.792 17921334 17910284 17881558 17835950 17773992 17696174 17603306 
1047.167 17496908 17379344 17253760 17123776 16993022 16864788 16741751 
1050.542 16625966 16519044 16422309 16336982 16264275 16205423 16161628 
1053.917 16134144 16124208 16133127 16162157 16212471 16284938 16379984 
1057.293 16497514 16637042 16797948 16979714 17182234 17405888 17651484 
1060.668 17919908 18212002 18528164 18868344 19232074 19618648 20027334 
1064.043 20457492 20908702 21380924 21874494 22390376 22930230 23496462 
1067.418 24092088 24720498 25385090 26089000 26835004 27625782 28464228 
1070.794 29353874 30299190 31305460 32378498 33524036 34747240 36052348 
1074.169 37442656 38920508 40487500 42144164 43889600 45720692 47631452 
1077.544 49612516 51651432 53733104 55840916 57957744 60066844 62152488 
1080.919 64200008 66196240 68129680 69991072 71773872 73474736 75093672 
1084.295 76633904 78101632 79505352 80855232 82162080 83436224 84686088 
1087.670 85916800 87129352 88320336 89482584 90606560 91681608 92696984 
1091.045 93641880 94504992 95273664 95933640 96469512 96866504 97111992 
1094.420 97196896 97116016 96867072 96449424 95862840 95107464 94184384 
1097.796 93096976 91851904 90459464 88932736 87286440 85535792 83695736 
1101.171 81781096 79806832 77788768 75743768 73689592 71644792 69628248 
1104.546 67659208 65757428 63943516 62238920 60665768 59245940 57999940 
1107.921 56945284 56094932 55455984 55028636 54805548 54771656 54904384 
1111.297 55174308 55546208 55980676 56436180 56871568 57248604 57534372 
1114.672 57703180 57737504 57628024 57373004 56976736 56447868 55797880 
1118.047 55039536 54186004 53250392 52245344 51183160 50075616 48934008 
1121.422 47768856 46589832 45405584 44223848 43051416 41894408 40758352 
1124.798 39648256 38568468 37522480 36512680 35540176 34604736 33704944 
1128.173 32838484 32002494 31194028 30410362 29649130 28908500 28187030 
1131.548 27483714 26797786 26128682 25475988 24839392 24218616 23613468 
1134.923 23023718 22449182 21889796 21345610 20816746 20303432 19805754 
1138.299 19323606 18856462 18403458 17963458 17535352 17118346 16712128 
1141.674 16317022 15933801 15563495 15207049 14865112 14537866 14225155 
1145.049 13926584 13641688 13370040 13111271 12864965 12630640 12407525 
1148.424 12194657 11990877 11794852 11605202 11420447 11239100 11059763 
1151.800 10881189 10702485 10523262 10343709 10164517 9986782 9811693 
1155.175 9640501 9474280 9314060 9160866 9015809 8880083 8754835 8641003 
1159.032 8539093 8449111 8370673 8303198 8246210 8199580 8163710 8139512 
1162.890 8128340 8131908 8152214 8191512 8252248 8336912 8447714 8586188 
1166.747 8752605 8945614 9161975 9396637 9642981 9893379 10139697 10373855 
1170.604 10588330 10776446 10932705 11053002 11134748 11176904 11179813 
1173.980 11144992 11074725 10971740 10838924 10679260 10495890 10292209 
1177.355 10072039 9839609 9599449 9356147 9114124 8877416 8649608 8433802 
1181.212 8232655 8048341 7882599 7736565 7610885 7505683 7420755 7355693 
1185.070 7310155 7283834 7276536 7288020 7317909 7365599 7430273 7511023 
1188.927 7606921 7717056 7840530 7976290 8123025 8279005 8442237 8610568 
1192.785 8782074 8955358 9129769 9305467 9483264 9664363 9850035 10041386 
1196.642 10239183 10443830 10655522 10874239 11099944 11332590 11572173 
1200.017 11818770 12072519 12333653 12602472 12879379 13164794 13459143 
1203.393 13762857 14076324 14399961 14734225 15079640 15436713 15806054 
1206.768 16188218 16583802 16993390 17417738 17857700 18314324 18788732 
1210.143 19282126 19795608 20330228 20887004 21466976 22071282 22701190 
1213.518 23357972 24042774 24756472 25499562 26272262 27074612 27906420 
1216.894 28767272 29656112 30570814 31507864 32462350 33428580 34401308 
1220.269 35377320 36356956 37345000 38350788 39387412 40470040 41614412 
1223.644 42835252 44145460 45555804 47074892 48709444 50464332 52342468 
1227.019 54344864 56470652 58717548 61082552 63562476 66154216 68854464 
1230.395 71658768 74560416 77549784 80613960 83737328 86902584 90091648 
1233.770 93286000 96466144 99610832 102695968 105694392 108576552 111311544 
1237.145 113868608 116217872 118330944 120181392 121745912 123006376 
1240.038 123952736 124584736 124912464 124954712 124735536 124280944 
1242.931 123616448 122766064 121753072 120600792 119333312 117975208 
1245.824 116550616 115082296 113591040 112095352 110611976 109155992 
1248.717 107741024 106378816 105078968 103848552 102692320 101613296 
1251.610 100613488 99694456 98857656 98104216 97434584 96847552 96339616 
1254.986 95904176 95531120 95206344 94911720 94625816 94324904 93984944 
1258.361 93583880 93103688 92531864 91861664 91091384 90222688 89259208 
1261.736 88205696 87068072 85853952 84573392 83238976 81865128 80466712 
1265.111 79057720 77649896 76252432 74872040 73513672 72181064 70877304 
1268.487 69604904 68365768 67160968 65990704 64854264 63750208 62676416 
1271.862 61630404 60609324 59610212 58630336 57667376 56719668 55786164 
1275.237 54866148 53958964 53063476 52178120 51300932 50430208 49564908 
1278.612 48705120 47851940 47007112 46172220 45348144 44534664 43730620 
1281.988 42934556 42145472 41363500 40590160 39828200 39081000 38351800 
1285.363 37643096 36956240 36291452 35647988 35024608 34419720 33831672 
1288.738 33258658 32698568 32148842 31606356 31067428 30528042 29983982 
1292.113 29431280 28866580 28287428 27692580 27082166 26457664 25821858 
1295.489 25178564 24532406 23888436 23251894 22627896 22021160 21435802 
1298.864 20875250 20342124 19838204 19364432 18920836 18506532 18119724 
1302.239 17757610 17416628 17092520 16780802 16477129 16177765 15879899 
1305.614 15581875 15283149 14984176 14686115 14390580 14099538 13815217 
1308.990 13540052 13276730 13027889 12795851 12582186 12387229 12209879 
1312.365 12047543 11896461 11752279 11610663 11467975 11321605 11170084 
1315.740 11012954 10850441 10683136 10511722 10336839 10159025 9978771 
1319.115 9796519 9612698 9427737 9242103 9056341 8871152 8687491 8506598 
1322.973 8329971 8159304 7996393 7843128 7701482 7573542 7461548 7367901 
1326.830 7295117 7245707 7222244 7227295 7263612 7334275 7442759 7592799 
1330.688 7788024 8031249 8323744 8664482 9049667 9472650 9924013 10392132 
1334.545 10863565 11323828 11757909 12151194 12490283 12763923 12963949 
1337.920 13085693 13128287 13094202 12988684 12818885 12593161 12320437 
1341.295 12009881 11670700 11311994 10942509 10570237 10202073 9843425 
1344.671 9498066 9168220 8854935 8558571 8279183 8016932 7772041 7544829 
1348.528 7335495 7144081 6970340 6813866 6674150 6550635 6442705 6349610 
1352.385 6270461 6204172 6149568 6105453 6070765 6044584 6026216 6015134 
1356.243 6010963 6013528 6022901 6039477 6064100 6098108 6143292 6201791 
1360.100 6275999 6368354 6481182 6616486 6775670 6959322 7166938 7396846 
1363.958 7646134 7910770 8185854 8465780 8744617 9016365 9275288 9516277 
1367.815 9735160 9929068 10096518 10237387 10352666 10443930 10512920 
1371.190 10561151 10589616 10598969 10589655 10562218 10517564 10457063 
1374.566 10382391 10295400 10197815 10091203 9976990 9856671 9732011 9605262 
1378.423 9479156 9356746 9241171 9135430 9042089 8963279 8900603 8855120 
1382.281 8827318 8817051 8823459 8845080 8879973 8925926 8980779 9042619 
1386.138 9109785 9180878 9254587 9329496 9404024 9476527 9545443 9609596 
1389.995 9668361 9721845 9770854 9816764 9861358 9906666 9954781 10007839 
1393.853 10068025 10137679 10219333 10315858 10430451 10566693 10728569 
1397.228 10920309 11146434 11411508 11720139 12076959 12486613 12953980 
1400.603 13484265 14083114 14756261 15509106 16345492 17266264 18267326 
1403.979 19337722 20457790 21598142 22719566 23774424 24709482 25470272 
1407.354 26006346 26276640 26254442 25930500 25314366 24433276 23328918 
1410.729 22052780 20660690 19207784 17744168 16312221 14945094 13666537 
1414.104 12491636 11427940 10476927 9635360 8896671 8252015 7691382 7204399 
1417.962 6781018 6412168 6090082 5808436 5562383 5348307 5163333 5005147 
1421.819 4871593 4760595 4670130 4598285 4543400 4504124 4479355 4468303 
1425.677 4470343 4485026 4512074 4551407 4603188 4667818 4745862 4837976 
1429.534 4944739 5066406 5202826 5353241 5516280 5690048 5872288 6060754 
1433.391 6253453 6448865 6645993 6844162 7042797 7241032 7437528 7630503 
1437.249 7817956 7998150 8170018 8333562 8490013 8641770 8792200 8945248 
1441.106 9105045 9275563 9460159 9661420 9880886 10118983 10375030 10647348 
1444.964 10933373 11229842 11532930 11838330 12141237 12436346 12717943 
1448.339 12980001 13216366 13421015 13588299 13713248 13791834 13821435 
1451.714 13801183 13732328 13618255 13464218 13276732 13062957 12829968 
1455.089 12584582 12333018 12080951 11833332 11594249 11366517 11151525 
1458.465 10949275 10758655 10578013 10405730 10240687 10082302 9930500 
1461.840 9785180 9645936 9511714 9380901 9251582 9121913 8990496 8856554 
1465.697 8719821 8580357 8438307 8293790 8146989 7998259 7848251 7698008 
1469.555 7548506 7400399 7253513 7106682 6957877 6804664 6644998 6477876 
1473.412 6303836 6124808 5943802 5764054 5588366 5418576 5255371 5098574 
1477.270 4947446 4801286 4659706 4522693 4390579 4263695 4142161 4025679 
1481.127 3913631 3805212 3699670 3596552 3495818 3397868 3303406 3213320 
1484.984 3128451 3049535 2976981 2910975 2851385 2797863 2750011 2707456 
1488.842 2670093 2638012 2611605 2591406 2577861 2571276 2571665 2578922 
1492.699 2593035 2614333 2643750 2682917 2734005 2799474 2881701 2982743 
1496.557 3104487 3248921 3418856 3618619 3854382 4133967 4465709 4856519 
1500.414 5309282 5820225 6376794 6956836 7529418 8057508 8502102 8827405 
1504.271 9005982 9023000 8878705 8588272 8179283 7686926 7148578 6598641 
1508.129 6065184 5568150 5119708 4725393 4385788 4098190 3857778 3658627 
1511.986 3494412 3358979 3246810 3153270 3074826 3008869 2953578 2907666 
1515.844 2870115 2840061 2816727 2799444 2787553 2780479 2777687 2778669 
1519.701 2782991 2790294 2800293 2812714 2827222 2843237 2859913 2876080 
1523.559 2890495 2902013 2909925 2914129 2915145 2913884 2911413 2908484 
1527.416 2905352 2901710 2896753 2889519 2879142 2865076 2847216 2825813 
1531.273 2801408 2774584 2746014 2716279 2685953 2655616 2625808 2597100 
1535.131 2570009 2544979 2522422 2502580 2485623 2471515 2460038 2450793 
1538.988 2443273 2437044 2431781 2427477 2424351 2422716 2422796 2424496 
1542.846 2427332 2430413 2432732 2433337 2431667 2427648 2421683 2414578 
1546.703 2407230 2400393 2394637 2390259 2387404 2386068 2386257 2387899 
1550.561 2390845 2394810 2399401 2404159 2408728 2412959 2416957 2421095 
1554.418 2425882 2431746 2438943 2447471 2457020 2467239 2477712 2488272 
1558.275 2498958 2510042 2522057 2535551 2551105 2569190 2590118 2613989 
1562.133 2640723 2670052 2701577 2734893 2769756 2806289 2845003 2886917 
1565.990 2933388 2985856 3045654 3113829 3191050 3277717 3374283 3481295 
1569.848 3599783 3731125 3876985 4039076 4218752 4416791 4633090 4866418 
1573.705 5114181 5372131 5634229 5892505 6137329 6357983 6543524 6683863 
1577.563 6770665 6798094 6763276 6666483 6511156 6303903 6054073 5773038 
1581.420 5473288 5167122 4865615 4577703 4309844 4066050 3848280 3656861 
1585.277 3490973 3349058 3228960 3128211 3044246 2974436 2916391 2868040 
1589.135 2827625 2793709 2764982 2740268 2718384 2698303 2679207 2660731 
1592.992 2642939 2626326 2611670 2599728 2591082 2585984 2584399 2586103 
1596.850 2590926 2598840 2610040 2624889 2643777 2667025 2694692 2726602 
1600.707 2762292 2801164 2842550 2885838 2930612 2976759 3024533 3074540 
1604.564 3127646 3184785 3246753 3313960 3386265 3463050 3543337 3625966 
1608.422 3709858 3794072 3877810 3960277 4040440 4116903 4187924 4251385 
1612.279 4305076 4346788 4374488 4386427 4381241 4358088 4316932 4258732 
1616.137 4185693 4101223 4009669 3915814 3824205 3738601 3661624 3594615 
1619.994 3537812 3490586 3451835 3420269 3394771 3374421 3358717 3347345 
1623.852 3340210 3337037 3337446 3340735 3346131 3352881 3360499 3368863 
1627.709 3378187 3388792 3400835 3414077 3427827 3441155 3453166 3463374 
1631.566 3471954 3479659 3487550 3496639 3507480 3520029 3533743 3547819 
1635.424 3561518 3574416 3586499 3597937 3609036 3620005 3631072 3642535 
1639.281 3654921 3668951 3685418 3704829 3727229 3751993 3777978 3803870 
1643.139 3828598 3851674 3873309 3894272 3915627 3938334 3962935 3989472 
1646.996 4017580 4046638 4075978 4105062 4133641 4161753 4189834 4218665 
1650.854 4249380 4283186 4321129 4363749 4410882 4461721 4515097 4569978 
1654.711 4625907 4683185 4742818 4806129 4874293 4947974 5027259 5111791 
1658.568 5201178 5295358 5394792 5500393 5613305 5734468 5864418 6003038 
1662.426 6149751 6303683 6463869 6629523 6800019 6974984 7154253 7337641 
1666.283 7525063 7716170 7910420 8106903 8304424 8501710 8697807 8892320 
1670.141 9085780 9279470 9475333 9675329 9881156 10093890 10314005 10541467 
1673.998 10775992 11017168 11264525 11517441 11775097 12036458 12300491 
1677.373 12566274 12833248 13101119 13369749 13638958 13908456 14177825 
1680.749 14446831 14715756 14985482 15257445 15533292 15814385 16101630 
1684.124 16395389 16695973 17004166 17321650 17651116 17995752 18358598 
1687.499 18742028 19147498 19576004 20028680 20507538 21015770 21557414 
1690.874 22136750 22757470 23422446 24134170 24895710 25711634 26588670 
1694.250 27534852 28558388 29665840 30861166 32146158 33522272 34993468 
1697.625 36568332 38260776 40088532 42070116 44221208 46552328 49068728 
1701.000 51772780 54667820 57761784 61068208 64604580 68388112 72431104 
1704.375 76737016 81299136 86101296 91119544 96323112 101673472 107121752 
1707.750 112606000 118050800 123370872 128476944 133282592 137707680 
1710.644 141679136 145128768 147994016 150222640 151781456 152663696 
1713.537 152891360 152508592 151571280 150136976 148260496 145995536 
1716.430 143399184 140534096 137466832 134261008 130970440 127634504 
1719.323 124278568 120917960 117563936 114227808 110922328 107660256 
1722.216 104452208 101304504 98219504 95197056 92236960 89340560 86510744 
1725.591 83750560 81061424 78441808 75887656 73393656 70955672 68572128 
1728.966 66244392 63975360 61767340 59619976 57529260 55488016 53487880 
1732.342 51521416 49584384 47676320 45800080 43960200 42160708 40403520 
1735.717 38687880 37010716 35368024 33756304 32173810 30621112 29100994 
1739.092 27617848 26176732 24782610 23439626 22150930 20918654 19744052 
1742.467 18627716 17569810 16570047 15627956 14742909 13914168 13140845 
1745.843 12421768 11755390 11139753 10572533 10051128 9572852 9134980 
1749.218 8734664 8368687 8033357 7724498 7437890 7169766 6917350 6679333 
1753.075 6455645 6246966 6053983 5876714 5714276 5564932 5426722 5297953 
1756.933 5177521 5065008 4960264 4862967 4772306 4687023 4605673 4527078 
1760.790 4450674 4376543 4305256 4237446 4173595 4113790 4057850 4005457 
1764.647 3956434 3910474 3867274 3826100 3786043 3745981 3705193 3663521 
1768.505 3621695 3580969 3542778 3507998 3476677 3447844 3419969 3391568 
1772.362 3361806 3330819 3299632 3269655 3242175 3217688 3195874 3175625 
1776.220 3155474 3134048 3110477 3084498 3056588 3027626 2998892 2971588 
1780.077 2946771 2925092 2906631 2890921 2877074 2863897 2850384 2835903 
1783.935 2820314 2803929 2787341 2771061 2755395 2740294 2725506 2710835 
1787.792 2696178 2681730 2667841 2654794 2642668 2631243 2620046 2608526 
1791.649 2596289 2583156 2569099 2554348 2539114 2523457 2507389 2490824 
1795.507 2473720 2456143 2438346 2420685 2403700 2387876 2373749 2361686 
1799.364 2351960 2344589 2339402 2336002 2333885 2332474 2331234 2329710 
1803.222 2327527 2324357 2320015 2314390 2307574 2299983 2292125 2284602 
1807.079 2277759 2271524 2265322 2258236 2249394 2238408 2225605 2212024 
1810.937 2199124 2188187 2179869 2173844 2169050 2164113 2157943 2150281 
1814.794 2141726 2133644 2127622 2125015 2126630 2132607 2142640 2156048 
1818.651 2171891 2189004 2205857 2220686 2231630 2237459 2237772 2233396 
1822.509 2226155 2218234 2211501 2206922 2204267 2202568 2200607 2197506 
1826.366 2193140 2187933 2182449 2176843 2170619 2162660 2151722 2136856 
1830.224 2117836 2095205 2069898 2043009 2015338 1987419 1959600 1932244 
1834.081 1905792 1880641 1857048 1834836 1813628 1793142 1773503 1755539 
1837.938 1740519 1729553 1722934 1719643 1717409 1713305 1704956 1691300 
1841.796 1673153 1652819 1633091 1616192 1602834 1592176 1582331 1571366 
1845.653 1558095 1542382 1524879 1506305 1486810 1465855 1442576 1416566 
1849.511 1388537 1360666 1336093 1317905 1308060 1306542 1311174 1318130 
1853.368 1323061 1322150 1313076 1295524 1271146 1243110 1215425 1192099 
1857.226 1176254 1169465 1171386 1179901 1191609 1202912 1210912 1214236 
1861.083 1213004 1208579 1202511 1195820 1188550 1180042 1169557 1157057 
1864.940 1143649 1131340 1122461 1118713 1120589 1127396 1137728 1149994 
1868.798 1163141 1176385 1188946 1199446 1205807 1205703 1197378 1180843 
1872.655 1158260 1133407 1110612 1092916 1081074 1073143 1065555 1054852 
1876.513 1039442 1020487 1001723 987972 983293 989481 1005355 1027245 
1880.370 1050174 1069231 1080741 1082427 1073610 1054913 1027908 995343 
1884.228 961058 929617 905580 892686 892624 904796 926361 953224 981237 
1888.567 1007202 1029291 1046900 1060044 1068741 1072860 1072226 1066955 
1892.425 1057934 1046668 1034959 1024560 1016719 1012204 1011533 1015218 
1896.282 1023790 1037338 1054740 1073447 1089415 1098024 1095669 1081087 
1900.139 1056208 1025782 996112 973066 960337 958712 966113 978916 993222 
1904.479 1006087 1015932 1022223 1025090 1024787 1021771 1016808 1011524 
1908.336 1008259 1009628 1017536 1032578 1053156 1076110 1097207 1112459 
1912.194 1119078 1115930 1103691 1084586 1061623 1038390 1018846 1006639 
1916.051 1004888 1015277 1037492 1068642 1103574 1135600 1158066 1165734 
1919.909 1156068 1129840 1090697 1044526 997972 957398 927466 910535 906227 
1924.248 911713 922354 933098 939700 940213 935433 928752 924877 928364 
1928.588 941784 964976 995049 1027426 1057687 1082686 1101499 1115265 
1932.445 1126276 1136722 1147908 1159849 1171562 1181820 1189717 1195264 
1936.303 1199420 1204237 1212383 1227015 1251180 1287167 1335531 1394347 
1940.160 1458878 1522173 1576352 1614906 1634205 1635044 1622120 1602661 
1944.018 1584214 1572385 1569498 1574819 1585641 1599223 1613801 1629466 
1947.875 1647399 1668339 1691225 1712493 1726333 1726278 1706964 1666003 
1951.732 1604873 1528937 1445734 1363309 1288290 1225137 1175500 1139654 
1955.590 1117663 1110039 1117701 1141087 1178332 1224054 1269534 1303954 
1959.447 1318456 1308974 1278683 1237391 1197596 1169793 1157478 1156259 
1963.305 1154968 1141066 1106132 1049787 979297 906395 840888 786262 738324 
1967.644 688412 629097 560175 490370 435285 410163 422906 468994 532533 
1971.984 592064 629154 635103 614445 582022 556666 555860 591390 669656 
1976.323 793395 963501 1176993 1422694 1678582 1911804 2085921 2172170 
1980.181 2159283 2057866 1898395 1721820 1567195 1460203 1407046 1394422 
1984.038 1397995 1392621 1363194 1308266 1239894 1176054 1134046 1123501 
1987.896 1145162 1191636 1251541 1312614 1363612 1395019 1399399 1372057 
1991.753 1312691 1226727 1125663 1024501 938398 877673 845278 836352 841768 
1996.093 852296 862584 871734 881211 891194 896815 887777 851964 780418 
2000.432 673114 540945 403956 285083 202715 164340 165490 191236 223500 
2004.772 246305 251022 237167 210794 179946 151938 130947 117972 111430 
2009.112 108871 106797 101288 88895 68296 41730 15620 -893 306 21870 58325 
2014.416 95881 117212 107746 61789 -15070 -107818 -198285 -272421 -325481 
2018.755 -362055 -392398 -425036 -461646 -495568 -514556 -507147 -468678 
2022.613 -404395 -327908 -255301 -200079 -167307 -153812 -151149 -149992 
2026.470 -144317 -132965 -117455 -100653 -83114 -64549 -43801 -22748 -6329 
2030.810 -3680 -23666 -71569 -146046 -236974 -327522 -397959 -430407 -414441 
2035.149 -349133 -243889 -115991 13388 124497 203713 248165 266885 278509 
2039.489 306039 369020 475074 616026 768082 898756 976644 982267 914611 
2043.828 792374 648555 520703 440389 426087 479748 590176 737602 900364 
2048.168 1058555 1197012 1305015 1376509 1409558 1406749 1374644 1323169 
2052.025 1263948 1207778 1162691 1132041 1114238 1103954 1094322 1079613 
2055.883 1056980 1026346 989521 948436 904058 856239 804301 748405 690545 
2060.222 634633 585926 549611 529741 528374 545554 579779 628904 690387 
2064.562 761632 839935 921918 1003930 1081925 1151955 1210873 1256508 
2068.419 1287934 1305467 1310314 1304267 1289504 1268613 1244265 1219273 
2072.277 1196398 1178215 1166783 1163289 1167639 1178266 1192195 1205358 
2076.134 1213599 1213707 1204342 1186884 1164893 1143136 1126123 1116624 
2079.992 1114609 1117421 1120773 1120320 1113380 1099571 1081002 1061240 
2083.849 1043995 1032075 1026473 1026794 1031686 1040022 1051089 1064800 
2087.707 1081124 1099384 1117508 1132035 1138430 1132165 1109740 1069944 
2091.564 1014518 948286 878572 814344 764603 736713 735036 760014 808081 
2095.904 872795 946281 1021447 1093375 1159923 1221096 1277973 1331084 
2099.761 1379512 1420446 1450221 1465416 1464776 1449762 1425084 1397705 
2103.618 1375339 1364565 1369372 1389979 1423126 1462497 1500376 1529102 
2107.476 1542660 1537643 1513681 1473246 1420821 1361846 1301861 1245355 
2111.333 1195654 1154488 1122419 1098733 1082007 1069818 1059291 1047342 
2115.191 1031194 1009343 981853 951071 921071 897118 884107 885265 900957 
2119.530 928206 960891 990875 1009514 1009409 985887 937912 868531 784340 
2123.870 694494 608911 536517 483441 451724 438794 438228 440855 437067 
2128.209 418591 380450 321677 245523 158240 68231 -15723 -85634 -135374 
2132.549 -161055 -161557 -138205 -95126 -38004 25935 89261 144691 186164 
2136.889 208918 209866 187823 143705 80465 3331 -81076 -165254 -242193 
2141.228 -306637 -356329 -391945 -417084 -436849 -456859 -482110 -515026 
2145.086 -555718 -601319 -645978 -682539 -703550 -703807 -681346 -640009 
2148.943 -588271 -538845 -504809 -497184 -521882 -579680 -666587 -778045 
2152.801 -911052 -1066426 -1246824 -1454086 -1683151 -1918259 -2132579 
2156.176 -2290641 -2356675 -2305383 -2130678 -1852206 -1511670 -1162438 
2159.551 -853625 -616933 -462179 -382195 -361195 -382529 -432208 -498179 
2163.408 -567069 -623854 -652027 -637769 -574926 -469183 -337516 -205333 
2167.266 -98287 -37017 -30267 -75093 -157322 -258435 -358884 -444061 -505612 
2171.605 -542395 -557648 -557292 -547015 -531685 -514274 -497204 -482388 
2175.463 -471874 -468127 -473339 -489109 -515388 -550604 -590864 -629999 
2179.320 -660452 -674411 -666074 -632947 -577513 -507213 -433525 -369004 
2183.178 -324561 -306808 -317319 -352190 -403675 -461554 -514626 -551833 
2187.035 -562400 -537829 -473050 -368018 -230112 -73658 80841 211139 297892 
2191.375 330141 307596 241330 150336 55862 -24564 -80860 -112034 -123892 
2195.714 -125162 -122806 -119322 -112266 -96755 -68398 -26861 23274 73517 
2200.054 114123 137765 142148 130243 109694 89959 79773 84525 105982 141693 
2204.876 187050 235723 280997 317158 339700 346527 338556 319601 296369 
2209.215 276787 268522 276681 302829 344463 396044 450555 501745 544791 
2213.555 577804 600810 615428 623760 628070 630358 632668 636946 645102 
2217.895 658603 678175 703638 734031 767768 803586 840279 876987 913019 
2222.234 947191 978086 1003713 1021940 1030995 1029222 1016294 992634 960082 
2226.574 921911 883017 849422 827357 822003 835849 867515 911919 960864 
2230.913 1005403 1037785 1053662 1052551 1037441 1013226 985224 957524 
2234.771 933057 913483 900229 894665 898112 910911 931690 957005 981985 
2239.110 1001661 1012463 1013424 1006388 994609 981672 969593 958516 947180 
2243.450 934219 919439 904647 893378 889298 894978 910885 935219 965156 
2247.790 997778 1031186 1064581 1097210 1127218 1151438 1165494 1166083 
2251.647 1152805 1129724 1105182 1089535 1091452 1114344 1154248 1200395 
2255.504 1238613 1256335 1247146 1213239 1164698 1116160 1081689 1070456 
2259.362 1084088 1117212 1159771 1201162 1233611 1254168 1264632 1269921 
2263.219 1275494 1285172 1300192 1319114 1338899 1356527 1369697 1377695 
2267.077 1381302 1381999 1382080 1383822 1389422 1400585 1418369 1442751 
2270.934 1472181 1503902 1534225 1559291 1576179 1583417 1581556 1572902 
2274.792 1560946 1549667 1542596 1542433 1550483 1566930 1590550 1619340 
2278.649 1650830 1682511 1712572 1740224 1765926 1791145 1817651 1846641 
2282.506 1877916 1909546 1938244 1960308 1972858 1975051 1968539 1957143 
2286.364 1945790 1939115 1939949 1948652 1962949 1978725 1991081 1995525 
2290.221 1989032 1970584 1941130 1903384 1861032 1818232 1778773 1745470 
2294.079 1719811 1701851 1690259 1682995 1677786 1672752 1666827 1659778 
2297.936 1651998 1643968 1636144 1628441 1620643 1612478 1604023 1595806 
2301.793 1588701 1583609 1581072 1580907 1582262 1583726 1583747 1581044 
2305.651 1574771 1564824 1551753 1536770 1521604 1508382 1499178 1495771 
2309.508 1499074 1508780 1523387 1540451 1557346 1572142 1584012 1593684 
2313.366 1602910 1613667 1627570 1645176 1666060 1689086 1713088 1737253 
2317.223 1761293 1785309 1809576 1834429 1860636 1889665 1923947 1966385 
2321.081 2019151 2082063 2151053 2217718 2270355 2296568 2286513 2235669 
2324.938 2146446 2027642 1892674 1756499 1632586 1530364 1454044 1402645 
2328.795 1371497 1354173 1344550 1338085 1332219 1326085 1319699 1313592 
2332.653 1308320 1304472 1302673 1303491 1307176 1313395 1321059 1328522 
2336.510 1333989 1336123 1334390 1329289 1322004 1313900 1306131 1299364 
2340.368 1293781 1289445 1286521 1285293 1286131 1289179 1294051 1299902 
2344.225 1305590 1310241 1313446 1315590 1317522 1320179 1324059 1329051 
2348.083 1334431 1339246 1342849 1345223 1347038 1349326 1353036 1358619 
2351.940 1365800 1373758 1381388 1387615 1391860 1393971 1394170 1392849 
2355.797 1390571 1387888 1385481 1383896 1383577 1384525 1386108 1387009 
2359.655 1385517 1379999 1369500 1354195 1335476 1315771 1297758 1283807 
2363.512 1275347 1272554 1274543 1279761 1286370 1292634 1297169 1298989 
2367.370 1297523 1292639 1284662 1274546 1263686 1253897 1247022 1244541 
2371.227 1247219 1254917 1266717 1280935 1295677 1309114 1319776 1326874 
2375.084 1330348 1330961 1330067 1329531 1331133 1336326 1345736 1358976 
2378.942 1374881 1391723 1407791 1421940 1433641 1443188 1451147 1458093 
2382.799 1464025 1468389 1470176 1468310 1462108 1451560 1437290 1420499 
2386.657 1402566 1384821 1368346 1354040 1342608 1334772 1331112 1331846 
2390.514 1336623 1344163 1352453 1358909 1361014 1357047 1346595 1330886 
2394.372 1312562 1295070 1281743 1274857 1274985 1280981 1290382 1300246 
2398.229 1308312 1313750 1317371 1321138 1327138 1336629 1349001 1361719 
2402.086 1371080 1373307 1366096 1349646 1326698 1302091 1281119 1268105 
2405.944 1265099 1271220 1283454 1297407 1308863 1314999 1314988 1309754 
2409.801 1301584 1293112 1286465 1282824 1282038 1282981 1283934 1283049 
2413.659 1278966 1271247 1260529 1248464 1237342 1229546 1226843 1230134 
2417.516 1238897 1251670 1266289 1280389 1292014 1299642 1302547 1300403 
2421.374 1293385 1281986 1267164 1250242 1232983 1217158 1204351 1195344 
2425.231 1189958 1187089 1185049 1182130 1177119 1169741 1160537 1150680 
2429.088 1141397 1133756 1128259 1125016 1123733 1123875 1124936 1126194 
2432.946 1126776 1125597 1121680 1114460 1103968 1091142 1077766 1066050 
2436.803 1058065 1055314 1058361 1066763 1079324 1094495 1110802 1127020 
2440.661 1142265 1155982 1167701 1176849 1182859 1185155 1183465 1177967 
2444.518 1169445 1159176 1148937 1140390 1134970 1133317 1135286 1140018 
2448.375 1146122 1152327 1157812 1162496 1166681 1170949 1175532 1180001 
2452.233 1183290 1183810 1180344 1172364 1160469 1146146 1131268 1117364 
2456.090 1105019 1093797 1082564 1070225 1056403 1041976 1028524 1018105 
2459.948 1011829 1009583 1009715 1009517 1006306 998482 986242 971601 957837 
2464.287 948214 945013 948791 958216 970639 982845 992162 996911 996619 
2468.627 992009 984450 975683 967367 961097 958146 959275 964718 973925 
2472.967 985417 997098 1006600 1011753 1011313 1005135 994394 981099 967643 
2477.306 956022 947337 941525 937632 934085 929195 921850 911676 898979 
2481.646 884944 871104 859200 850975 847806 850625 859652 874094 892306 
2485.985 911798 929722 943517 951515 953529 950836 945812 941095 938947 
2490.325 940486 945371 952407 959980 966872 972776 978190 983973 990844 
2494.665 998584 1005978 1011230 1012527 1008882 1000693 989621 978270 969412 
2499.004 965005 965976 971921 981437 992739 1003955 1013569 1020551 1024348 
2503.344 1024880 1022699 1018884 1015143 1013386 1015383 1021940 1032826 
2507.201 1046351 1060001 1071004 1077455 1078855 1076341 1072357 1069808 
2511.059 1070988 1076832 1086748 1098904 1110933 1120930 1128029 1132580 
2514.916 1136081 1140215 1146405 1155278 1166321 1178389 1189687 1198654 
2518.773 1204047 1205231 1202254 1195689 1186622 1176716 1167728 1161600 
2522.631 1159828 1163244 1171562 1183561 1197138 1210266 1221318 1229964 
2526.488 1237039 1244210 1253341 1265627 1281039 1298586 1316406 1332877 
2530.346 1347057 1358927 1369011 1377825 1385249 1390110 1390639 1385284 
2534.203 1373661 1357070 1338375 1321496 1309765 1305005 1306861 1313014 
2538.061 1320156 1325183 1326056 1322373 1314806 1304698 1293191 1280947 
2541.918 1268325 1255905 1244861 1236908 1233878 1237070 1246445 1260549 
2545.775 1276922 1292749 1306158 1316261 1323395 1328311 1331443 1332455 
2549.633 1330202 1323553 1312139 1297052 1280816 1266629 1257339 1254369 
2553.490 1257378 1264565 1273579 1282759 1291498 1300515 1310984 1323610 
2557.348 1337897 1352097 1363618 1370261 1370828 1365909 1357493 1348328 
2561.205 1341006 1337230 1337559 1341720 1349013 1358646 1369996 1382358 
2565.063 1394742 1405850 1414061 1418108 1417452 1412773 1405896 1399275 
2568.920 1395305 1395688 1400856 1409967 1421213 1432464 1441813 1447945 
2572.777 1450297 1449067 1444941 1438888 1431985 1425210 1419375 1414999 
2576.635 1412480 1411992 1413675 1417754 1424586 1434494 1447739 1464186 
2580.492 1483276 1503927 1524641 1543892 1560403 1573399 1582556 1588208 
2584.350 1590867 1591164 1589723 1586926 1583016 1578148 1572200 1565147 
2588.207 1556978 1547807 1538207 1529160 1522051 1518393 1519459 1525790 
2592.064 1536826 1550810 1565175 1577029 1583902 1584345 1578449 1567651 
2595.922 1554363 1541570 1531843 1527103 1528102 1534494 1545035 1558061 
2599.779 1571861 1585231 1597480 1608642 1619162 1629459 1639463 1648571 
2603.637 1655555 1658952 1657797 1652157 1643572 1634677 1629014 1629560 
2607.494 1638197 1654745 1677161 1701977 1725349 1744098 1756612 1762858 
2611.352 1764159 1762445 1759448 1756177 1753001 1749895 1746928 1744751 
2615.209 1744405 1747208 1753903 1764220 1776778 1789263 1799118 1804430 
2619.066 1804595 1800456 1794068 1787889 1784001 1783580 1786678 1792382 
2622.924 1799712 1807902 1816926 1827235 1839493 1853834 1869685 1885517 
2626.781 1899198 1908761 1912741 1910807 1903719 1893067 1880642 1868204 
2630.639 1856923 1847456 1840076 1834937 1832171 1831966 1834394 1839252 
2634.496 1845878 1853332 1860362 1865949 1869415 1870672 1870259 1868993 
2638.354 1867922 1867783 1868827 1870946 1873333 1875170 1875556 1874003 
2642.211 1870564 1865743 1860467 1855564 1851620 1848609 1845945 1842727 
2646.068 1838048 1831469 1823213 1814152 1805490 1798491 1793960 1792031 
2649.926 1792411 1794521 1797756 1801803 1806558 1811885 1817429 1822421 
2653.783 1825977 1827247 1825997 1822897 1819375 1817318 1818364 1823255 
2657.641 1831369 1840891 1849226 1853697 1852350 1844456 1830300 1811330 
2661.498 1789303 1765964 1742729 1720548 1700010 1681429 1664977 1650777 
2665.355 1638768 1628951 1621165 1615437 1611786 1610276 1610863 1613288 
2669.213 1616987 1621100 1624910 1627895 1630065 1631894 1634164 1637342 
2673.070 1641464 1645785 1649038 1649830 1647232 1641164 1632567 1623086 
2676.928 1614529 1608361 1605143 1604577 1605712 1607423 1608855 1609604 
2680.785 1609884 1610075 1610590 1611519 1612557 1613297 1613263 1612245 
2684.643 1610469 1608369 1606438 1605111 1604425 1604063 1603393 1601758 
2688.500 1598614 1593888 1587923 1581468 1575545 1571056 1568662 1568482 
2692.357 1570128 1572842 1575719 1577964 1579169 1579407 1579029 1578605 
2696.215 1578689 1579587 1581300 1583621 1586188 1588637 1590607 1591734 
2700.072 1591756 1590480 1587933 1584497 1580878 1578175 1577558 1580000 
2703.930 1585830 1594668 1605482 1616772 1627077 1635232 1640761 1643628 
2707.787 1644321 1643266 1640966 1637790 1634203 1630797 1628437 1628026 
2711.645 1630301 1635402 1642792 1651315 1659377 1665591 1669143 1669987 
2715.502 1668896 1666993 1665400 1664801 1665261 1666369 1667541 1668303 
2719.359 1668535 1668447 1668432 1668801 1669481 1670078 1669871 1668264 
2723.217 1665045 1660627 1656106 1652921 1652481 1655758 1662829 1672881 
2727.074 1684311 1695343 1704280 1710259 1713276 1714175 1714212 1714735 
2730.932 1716470 1719610 1723559 1727363 1730167 1731400 1731145 1729897 
2734.789 1728538 1727905 1728522 1730648 1734099 1738528 1743454 1748531 
2738.646 1753470 1758209 1762793 1767369 1772196 1777430 1783137 1789085 
2742.504 1794759 1799392 1802274 1802951 1801467 1798478 1795128 1792636 
2746.361 1791907 1793294 1796436 1800586 1804998 1809336 1813871 1819360 
2750.219 1826692 1836322 1847946 1860484 1872350 1881896 1887934 1890090 
2754.076 1888854 1885236 1880391 1875444 1871162 1868066 1866510 1866808 
2757.934 1869140 1873393 1879068 1885276 1890900 1894854 1896672 1896417 
2761.791 1894926 1893277 1892473 1892980 1894640 1896785 1898577 1899625 
2765.648 1900049 1900548 1902109 1905430 1910662 1917127 1923621 1928767 
2769.506 1931555 1931714 1929840 1927199 1925258 1925210 1927608 1932154 
2773.363 1937915 1943687 1948331 1951183 1952289 1952273 1952135 1952960 
2777.221 1955488 1960027 1966327 1973714 1981358 1988442 1994406 1998901 
2781.078 2001814 2003267 2003445 2002799 2001890 2001412 2002171 2004750 
2784.936 2009507 2016207 2024328 2032939 2041395 2049271 2056831 2064751 
2788.793 2073774 2084465 2096778 2110102 2123498 2136007 2147183 2157253 
2792.650 2166856 2176859 2187658 2199167 2210597 2220844 2229123 2235206 
2796.508 2239791 2244180 2249854 2258014 2269068 2282706 2297966 2313782 
2800.365 2329084 2343334 2356086 2367215 2376455 2383673 2388790 2392043 
2804.223 2394132 2396069 2398993 2403852 2411074 2420518 2431540 2443412 
2808.080 2455451 2467276 2478716 2489649 2499873 2508866 2516161 2521337 
2811.938 2524575 2526473 2528152 2530708 2535006 2541171 2548806 2557128 
2815.795 2565464 2573660 2582202 2592159 2604704 2620630 2640029 2662224 
2819.652 2685958 2709905 2733300 2756125 2779239 2803924 2831551 2863022 
2823.510 2898306 2936552 2976262 3015853 3054002 3090264 3124984 3159302 
2827.367 3194746 3232741 3274246 3319455 3367818 3418269 3469625 3521058 
2831.225 3572511 3624755 3679398 3738629 3804706 3879588 3964566 4060056 
2835.082 4165687 4280520 4403403 4533528 4670667 4815629 4970157 5136703 
2838.939 5317984 5516541 5734317 5972332 6230900 6509841 6809064 7128682 
2842.797 7469474 7832455 8218541 8628090 9060306 9513109 9983075 10465961 
2846.654 10956816 11450256 11940515 12421086 12884405 13321577 13722441 
2850.030 14076334 14372934 14603601 14762646 14848217 14862628 14812145 
2853.405 14706029 14555261 14371058 14163572 13941032 13709384 13472496 
2856.780 13232486 12990758 12748255 12506023 12265297 12027261 11792858 
2860.155 11562787 11337368 11117057 10902482 10694771 10495361 10305742 
2863.531 10126860 9958871 9800941 9651349 9508236 9370071 9236149 9106816 
2867.388 8983363 8867425 8760455 8663429 8576406 8498749 8429348 8366993 
2871.245 8310516 8259128 8212196 8169486 8131011 8097137 8068607 8046432 
2875.103 8031812 8025782 8029099 8041992 8064171 8095058 8134021 8180603 
2878.960 8234686 8296330 8365667 8442584 8526706 8617365 8713786 8815559 
2882.818 8922624 9035472 9154881 9281591 9415763 9556776 9702917 9851664 
2886.675 9999959 10144824 10283753 10415172 10538578 10654420 10763936 
2890.050 10868612 10969841 11068600 11165235 11259613 11351073 11438791 
2893.426 11522020 11600277 11673345 11741455 11805016 11864831 11921857 
2896.801 11977276 12032453 12088957 12148295 12211881 12280725 12355437 
2900.176 12436216 12522949 12615350 12713437 12817536 12928359 13046893 
2903.551 13174301 13311315 13458361 13615127 13780992 13954867 14135849 
2906.927 14323382 14517592 14719418 14930435 15152913 15389274 15641956 
2910.302 15913093 16204375 16516940 16851432 17207892 17585858 17984254 
2913.677 18401226 18834038 19279064 19731732 20186548 20637518 21078268 
2917.052 21502390 21903750 22276540 22615528 22916120 23174656 23388418 
2920.427 23555994 23677434 23754350 23789754 23787686 23752882 23690044 
2923.803 23603352 23496180 23370952 23229426 23073074 22903386 22722418 
2927.178 22532730 22337276 22139054 21940682 21743980 21549920 21358464 
2930.553 21169176 20981320 20794300 20607900 20422224 20237564 20054412 
2933.928 19873028 19693490 19515736 19339406 19164192 18989722 18815784 
2937.304 18642240 18469172 18296910 18125992 17957146 17791128 17628544 
2940.679 17469764 17314536 17162296 17012120 16862940 16713864 16564249 
2944.054 16413847 16262701 16110979 15958777 15806037 15652585 15498157 
2947.429 15342627 15186045 15028791 14871487 14714946 14560007 14407450 
2950.805 14257912 14111750 13969028 13829556 13692941 13558559 13425821 
2954.180 13294107 13162921 13031949 12900823 12769346 12637275 12504381 
2957.555 12370454 12235449 12099522 11963087 11826625 11690804 11556245 
2960.930 11423556 11293309 11165959 11042043 10921662 10804741 10690570 
2964.306 10577861 10464919 10349806 10230856 10107037 9978223 9845241 
2967.681 9709474 9572570 9436023 9300836 9167493 9036085 8906583 8778889 
2971.538 8653083 8529337 8407787 8288540 8171579 8056841 7944357 7834190 
2975.396 7726478 7621082 7517642 7415464 7313670 7211350 7107964 7003337 
2979.253 6897908 6792336 6687335 6583666 6481699 6381690 6283873 6188724 
2983.111 6096669 6008214 5923569 5842335 5763692 5686331 5609024 5530955 
2986.968 5452009 5372850 5294684 5218808 5146290 5077663 5012748 4951085 
2990.825 4892006 4835054 4780000 4726907 4675966 4627280 4580867 4536439 
2994.683 4493635 4452115 4411365 4371016 4330604 4289813 4248293 4206034 
2998.540 4163130 4120195 4077928 4037086 3998191 3961387 3926169 3891555 
3002.398 3856314 3819308 3779609 3737081 3692096 3645721 3599214 3553917 
3006.255 3510913 3470794 3433704 3399373 3367198 3336514 3306624 3276937 
3010.113 3246940 3216185 3184260 3150780 3115654 3078849 3040704 3001772 
3013.970 2962828 2924559 2887605 2852529 2819576 2789038 2761010 2735491 
3017.827 2712152 2690219 2668496 2645403 2619468 2589683 2556222 2520411 
3021.685 2484650 2451968 2425027 2405407 2393181 2386736 2383402 2380118 
3025.542 2374322 2364595 2350822 2334014 2315886 2298062 2281857 2267782 
3029.400 2255839 2245476 2235856 2226233 2216025 2204886 2192814 2180229 
3033.257 2167784 2156450 2147055 2140242 2136147 2134401 2134412 2135345 
3037.115 2136645 2138211 2140392 2143873 2149259 2156929 2166588 2177490 
3040.972 2188600 2198958 2208027 2216024 2224013 2233738 2247304 2266692 
3044.829 2293541 2328506 2371350 2420923 2475405 2532797 2591396 2650131 
3048.687 2708787 2767796 2827613 2888303 2948811 3006884 3059216 3102258 
3052.544 3133190 3150692 3155531 3150434 3139335 3126379 3114818 3106179 
3056.402 3100117 3094884 3088052 3077641 3062716 3043808 3022697 3001770 
3060.259 2983348 2969061 2959480 2954220 2952237 2952422 2954080 2956984 
3064.116 2961456 2968006 2976864 2987636 2999129 3009441 3016494 3018549 
3067.974 3014687 3005178 2991331 2975203 2958895 2944154 2931906 2922298 
3071.831 2914986 2909514 2905746 2904026 2904992 2909185 2916711 2926916 
3075.689 2938448 2949484 2958241 2963531 2964934 2962947 2958552 2953050 
3079.546 2947484 2942594 2938620 2935501 2932642 2929291 2924154 2915790 
3083.404 2902476 2882957 2856586 2823929 2786833 2748223 2711209 2678481 
3087.261 2651489 2630159 2613000 2598017 2583355 2568043 2552227 2536826 
3091.118 2522966 2511315 2501582 2492849 2483863 2473967 2463379 2453352 
3094.976 2445766 2442398 2444251 2451088 2461596 2473800 2485811 2496290 
3098.833 2504700 2511200 2516289 2520280 2523216 2524843 2524817 2523021 
3102.691 2519537 2514797 2509121 2502795 2495618 2487287 2477381 2465702 
3106.548 2452269 2437503 2421780 2405498 2388731 2371331 2352975 2333388 
3110.406 2312384 2290013 2266370 2241896 2217000 2192457 2169159 2148110 
3114.263 2130098 2115584 2104107 2094662 2085664 2075533 2063427 2049399 
3118.120 2034603 2020780 2009806 2002931 2000460 2001861 2006074 2012126 
3121.978 2019533 2028319 2038779 2050965 2064448 2078168 2090674 2100650 
3125.835 2107180 2110114 2109703 2106503 2100724 2092259 2080855 2066448 
3129.693 2049691 2031994 2015199 2001138 1990728 1983747 1978714 1973426 
3133.550 1965861 1954829 1940665 1924844 1909621 1897176 1888702 1884049 
3137.407 1881894 1879885 1875557 1867041 1853420 1835073 1813496 1791020 
3141.265 1770027 1752710 1740220 1732515 1728372 1725652 1722066 1715736 
3145.122 1706091 1693880 1681169 1670683 1664870 1665199 1671472 1682077 
3148.980 1694187 1704821 1711391 1712635 1708595 1700579 1690647 1680871 
3152.837 1672954 1667700 1664867 1663576 1662604 1660890 1658032 1654443 
3156.695 1651245 1649846 1651273 1655751 1662295 1669097 1673886 1674905 
3160.552 1671641 1664953 1656916 1650149 1646689 1647354 1651371 1656736 
3164.409 1660989 1662240 1659818 1654583 1648379 1643459 1641426 1642982 
3168.267 1647577 1653959 1660544 1666261 1670469 1673265 1674891 1675497 
3172.124 1674847 1672367 1667386 1659381 1648404 1635265 1621346 1608339 
3175.982 1598002 1591547 1589415 1591136 1595350 1600280 1604039 1605369 
3179.839 1603822 1600068 1595545 1591991 1590654 1592004 1595371 1599283 
3183.697 1602075 1602617 1600842 1597903 1595636 1596005 1600156 1607993 
3187.554 1618130 1628485 1637005 1642406 1644451 1643919 1642006 1639537 
3191.411 1636671 1632617 1626196 1616467 1603332 1587999 1572674 1560001 
3195.269 1552218 1550482 1554229 1561522 1569417 1575129 1576460 1572689 
3199.126 1564489 1553876 1543346 1535376 1531533 1532235 1536692 1543200 
3202.984 1549592 1554193 1555812 1554511 1551265 1547654 1545267 1545327 
3206.841 1548192 1553313 1559448 1565057 1568711 1569549 1567364 1562620 
3210.698 1556250 1549490 1543537 1539507 1538177 1540012 1545152 1553105 
3214.556 1563084 1573919 1584391 1593487 1600474 1605317 1608362 1610113 
3218.413 1610990 1610994 1609531 1605693 1598562 1587716 1573544 1557545 
3222.271 1541964 1529585 1522915 1523726 1532572 1548594 1569680 1592947 
3226.128 1615046 1633024 1644659 1649027 1646493 1638697 1628119 1617321 
3229.986 1608426 1602375 1598933 1596703 1593703 1588330 1579728 1568404 
3233.843 1556049 1544958 1537354 1534614 1536772 1542725 1550382 1557629 
3237.700 1562829 1565145 1564749 1562464 1559375 1556568 1554748 1554241 
3241.558 1555037 1556865 1559377 1562119 1564513 1566094 1566457 1565276 
3245.415 1562595 1558499 1553185 1546835 1539353 1530802 1521238 1511194 
3249.273 1501647 1494078 1489881 1490233 1495157 1503665 1513548 1522127 
3253.130 1526939 1526545 1521027 1512032 1502173 1494547 1491443 1493899 
3256.988 1501427 1512209 1523769 1533849 1540985 1545154 1547414 1549794 
3260.845 1554185 1562051 1573559 1587771 1602655 1615773 1624959 1628754 
3264.702 1626960 1620438 1610871 1600318 1590747 1583626 1579634 1578718 
3268.560 1580188 1582842 1585123 1585620 1583038 1576652 1566440 1553070 
3272.417 1537844 1522594 1509029 1498661 1492392 1490463 1492480 1497636 
3276.275 1504910 1513086 1520947 1527230 1530968 1531654 1529441 1525602 
3280.132 1522048 1521305 1525671 1536467 1553457 1574708 1597070 1616921 
3283.990 1631244 1638232 1637922 1631600 1621433 1609590 1597635 1586437 
3287.847 1576250 1567383 1560265 1555778 1554816 1558063 1565313 1575663 
3291.704 1587473 1599176 1609571 1618558 1626664 1634927 1643889 1653174 
3295.562 1661160 1665512 1663800 1654628 1638249 1616739 1593635 1572770 
3299.419 1557318 1548792 1546963 1549875 1555177 1560734 1565608 1570140 
3303.277 1575559 1583248 1593884 1607037 1621038 1633692 1642871 1647433 
3307.134 1647418 1644067 1639095 1634112 1629904 1626415 1622770 1617959 
3310.991 1611372 1603308 1594698 1587207 1582233 1580743 1582760 1587598 
3314.849 1594081 1601010 1607431 1613031 1617856 1622181 1626163 1629735 
3318.706 1632519 1633935 1633471 1631072 1627136 1622876 1619840 1619897 
3322.564 1624485 1634397 1649280 1667722 1687287 1705399 1719706 1728832 
3326.421 1732685 1732434 1730030 1727580 1726703 1728181 1731825 1736698 
3330.279 1741707 1745734 1748065 1748363 1746627 1743046 1737989 1732048 
3334.136 1726071 1721122 1718218 1717986 1720281 1724198 1728062 1730113 
3337.993 1729065 1724714 1718089 1711228 1706269 1704970 1707691 1713505 
3341.851 1720463 1726303 1729287 1728808 1725335 1720336 1715381 1711692 
3345.708 1709707 1709191 1709358 1709537 1709290 1708515 1707357 1705818 
3349.566 1703571 1700099 1694728 1687188 1677692 1667284 1657288 1649111 
3353.423 1643640 1640955 1640078 1639774 1638615 1635883 1631608 1626635 
3357.281 1622167 1619228 1618246 1618872 1620162 1621081 1620897 1619621 
3361.138 1617849 1616651 1616748 1618410 1621110 1623855 1625609 1625899 
3364.995 1625117 1624448 1625290 1628703 1634949 1643160 1651666 1658619 
3368.853 1662897 1664321 1663904 1663532 1664776 1668629 1674732 1681447 
3372.710 1686435 1687524 1683209 1673521 1659783 1644470 1630398 1620022 
3376.568 1614982 1615711 1621508 1630804 1641451 1651331 1658712 1662550 
3380.425 1662742 1660079 1656021 1652201 1650249 1651119 1655039 1661329 
3384.282 1668858 1676241 1682436 1686886 1689656 1691361 1692828 1694681 
3388.140 1697330 1700763 1704810 1709245 1713954 1719176 1725320 1732568 
3391.997 1740968 1749962 1758436 1764989 1768392 1767869 1763476 1756361 
3395.855 1748367 1741795 1738831 1740945 1748768 1761936 1779338 1799380 
3399.712 1820377 1840847 1859510 1875579 1888664 1898842 1906636 1913120 
3403.570 1919560 1927293 1937326 1950151 1965588 1983089 2001844 2021213 
3407.427 2040807 2060604 2080547 2100395 2119505 2137088 2152374 2165222 
3411.284 2176321 2187067 2199160 2214000 2231830 2251827 2272153 2290855 
3415.142 2306716 2319949 2332119 2345707 2363084 2385543 2412707 2442659 
3418.999 2472451 2499389 2521834 2539641 2554008 2566939 2580301 2595318 
3422.857 2612187 2630378 2648843 2666541 2682594 2696387 2707504 2715735 
3426.714 2721054 2724063 2725938 2728530 2733820 2743393 2757645 2775480 
3430.572 2794352 2810846 2821715 2824985 2820283 2809320 2794773 2779690 
3434.429 2766100 2754826 2745080 2735158 2723343 2708708 2691497 2673042 
3438.286 2655233 2639741 2627330 2617585 2609079 2600002 2588939 2575253 
3442.144 2559348 2542384 2525847 2510699 2497254 2484921 2472666 2459410 
3446.001 2444470 2427820 2409938 2391716 2373735 2356436 2339726 2323419 
3449.859 2307389 2291924 2277571 2265281 2255671 2249031 2244932 2242273 
3453.716 2239612 2235290 2228074 2217231 2202634 2184977 2165367 2145265 
3457.573 2126206 2109363 2095399 2084012 2074099 2063835 2051325 2034943 
3461.431 2014257 1990163 1964752 1941071 1922163 1910389 1906889 1911072 
3465.288 1921106 1934225 1947314 1957580 1962915 1962443 1956394 1946188 
3469.146 1934199 1923174 1915709 1913506 1917010 1925268 1936197 1947187 
3473.003 1956072 1961590 1963588 1962892 1960365 1956567 1951320 1943890 
3476.861 1933775 1921429 1908765 1899215 1896596 1903991 1922446 1950205 
3480.718 1982931 2014796 2040200 2055229 2058637 2052078 2038978 2023513 
3484.575 2009251 1998296 1991376 1987989 1987433 1989112 1992899 1998948 
3488.433 2007235 2017106 2027379 2036319 2042261 2044102 2041782 2036154 
3492.290 2028977 2022397 2018418 2018580 2023587 2033499 2047723 2065193 
3496.148 2084571 2104369 2123057 2139156 2151323 2158556 2160159 2156117 
3500.005 2147087 2134351 2119859 2105965 2094961 2088838 2088761 2094826 
3503.863 2106085 2120655 2136302 2150824 2162630 2171046 2176212 2179045 
3507.720 2180748 2182486 2185263 2189762 2196362 2205289 2216567 2229867 
3511.577 2244541 2259422 2273021 2283906 2290849 2293503 2292364 2288683 
3515.435 2284149 2280289 2278189 2278194 2280115 2283693 2288644 2295112 
3519.292 2303511 2314115 2326676 2340177 2352925 2362774 2367944 2367463 
3523.150 2361539 2351513 2339575 2327967 2318882 2313803 2313824 2319407 
3527.007 2330686 2347429 2368973 2394018 2420652 2446598 2469524 2487633 
3530.865 2499910 2506257 2507360 2504170 2497611 2488529 2477517 2465384 
3534.722 2453250 2442742 2435732 2433684 2437277 2446361 2459556 2475032 
3538.579 2490978 2505952 2519120 2530110 2538540 2543836 2545232 2541999 
3542.437 2534076 2522428 2509180 2497170 2488976 2486283 2488937 2495269 
3546.294 2502558 2508059 2510370 2509636 2507791 2507642 2511604 2520779 
3550.152 2534369 2549866 2563981 2573625 2576943 2574121 2566726 2557402 
3554.009 2548686 2542268 2538614 2536994 2536128 2534735 2532120 2528354 
3557.866 2523916 2519560 2515539 2511697 2507207 2501312 2493474 2483812 
3561.724 2473248 2463198 2455244 2450467 2449035 2450267 2452614 2454001 
3565.581 2452377 2446167 2434554 2417608 2396218 2372113 2347248 2323677 
3569.439 2302948 2285769 2272033 2260695 2250279 2239368 2227159 2213795 
3573.296 2200356 2188319 2179247 2173944 2172171 2172680 2173490 2172629 
3577.154 2168487 2160282 2148120 2132662 2114845 2095872 2076571 2057833 
3581.011 2040341 2024639 2011181 1999886 1990560 1982542 1975317 1968403 
3584.868 1961679 1955243 1949310 1943882 1938860 1934235 1930139 1927461 
3588.726 1927576 1932133 1942339 1958029 1977544 1997524 2013703 2022183 
3592.583 2020429 2008195 1987529 1962170 1936507 1914555 1899123 1891600 
3596.441 1892058 1899646 1912895 1929974 1948761 1967169 1983326 1995780 
3600.298 2004323 2009679 2013332 2017011 2021887 2028215 2035139 2041374 
3604.156 2045664 2047535 2047688 2047526 2048768 2052747 2059947 2069996 
3608.013 2082071 2095338 2109372 2124030 2139347 2154949 2169987 2183088 
3611.870 2193002 2198976 2201296 2201019 2199722 2198886 2199362 2201040 
3615.728 2203217 2204883 2205287 2204123 2201669 2198534 2195460 2193272 
3619.585 2192652 2194513 2199464 2207872 2219118 2231792 2243398 2251221 
3623.443 2253165 2248630 2238978 2227155 2216877 2211141 2210936 2214909 
3627.300 2219653 2220996 2215671 2202773 2184167 2164242 2148410 2141550 
3631.157 2146517 2163464 2189825 2221214 2252556 2279271 2298203 2308148 
3635.015 2309701 2304948 2296684 2287650 2279701 2273499 2268530 2263242 
3638.872 2256155 2245948 2232742 2217736 2203131 2191544 2184984 2184184 
3642.730 2188425 2195361 2201699 2203998 2199489 2186923 2166835 2141675 
3646.587 2115509 2093221 2079428 2077548 2088797 2111688 2142310 2174968 
3650.445 2203545 2222837 2229412 2222258 2202501 2172753 2136305 2096421 
3654.302 2056033 2017632 1983424 1955088 1933947 1920381 1913730 1912204 
3658.159 1913253 1914094 1912752 1908316 1901437 1893943 1888263 1886585 
3662.017 1890099 1898858 1911513 1925868 1939281 1949454 1954615 1954086 
3665.874 1948121 1937938 1925453 1912732 1901534 1893051 1887322 1883658 
3669.732 1880621 1876623 1870483 1861733 1850679 1838307 1825723 1814047 
3673.589 1803883 1795687 1789755 1786357 1785828 1788599 1794932 1804469 
3677.447 1816437 1829469 1842036 1852574 1859846 1863075 1862024 1856852 
3681.304 1847977 1835854 1821113 1804495 1786935 1769694 1754215 1742090 
3685.161 1734728 1733041 1737256 1746670 1759532 1773512 1785901 1794390 
3689.019 1797529 1794933 1787689 1777425 1766134 1755161 1745077 1735350 
3692.876 1724841 1712166 1696508 1677816 1656896 1635293 1614652 1596494 
3696.734 1581896 1571587 1566027 1565427 1569950 1579115 1591799 1605936 
3700.591 1618529 1626519 1627289 1619695 1604380 1584008 1562345 1543652 
3704.448 1531375 1527435 1532009 1543638 1559771 1577658 1594808 1609334 
3708.306 1620017 1626322 1628185 1625951 1620351 1612738 1604651 1597880 
3712.163 1593777 1593189 1595918 1600922 1606635 1611468 1614201 1614448 
3716.021 1612581 1609544 1606469 1604364 1603800 1605278 1608895 1614755 
3719.878 1622769 1632492 1643090 1653155 1661044 1665495 1666060 1663571 
3723.736 1659960 1657757 1659018 1664395 1672717 1680980 1685476 1682924 
3727.593 1671711 1652698 1628989 1605103 1585544 1573806 1571601 1578682 
3731.450 1593305 1612967 1634909 1656484 1675369 1689635 1697817 1699412 
3735.308 1695254 1687556 1679831 1675883 1678638 1689066 1705616 1724501 
3739.165 1740851 1750205 1750067 1740484 1724185 1705427 1688433 1676197 
3743.023 1669622 1667444 1667133 1666094 1662560 1656719 1649949 1644657 
3746.880 1643063 1646284 1653997 1664372 1674776 1682547 1685839 1684361 
3750.738 1679291 1673040 1668621 1668522 1674276 1686037 1702376 1720933 
3754.595 1738843 1753289 1762104 1764205 1759449 1748817 1734244 1718209 
3758.452 1703392 1692084 1685920 1685608 1690771 1700456 1713380 1728513 
3762.310 1745225 1763393 1782980 1803594 1823964 1842261 1856098 1863654 
3766.167 1864145 1858351 1848565 1837895 1829343 1824893 1824987 1828517 
3770.025 1833425 1837462 1838859 1836706 1831127 1822906 1813090 1802868 
3773.882 1793504 1786135 1782115 1782595 1788400 1799659 1815526 1834386 
3777.740 1853961 1871758 1885483 1893349 1893907 1886534 1870988 1847927 
3781.597 1818680 1785732 1752428 1722288 1698657 1683838 1678251 1680732 
3785.454 1688536 1698510 1707561 1713686 1716123 1715264 1712375 1709206 
3789.312 1707280 1707967 1712130 1720051 1731174 1744293 1757264 1767521 
3793.169 1772496 1770181 1759962 1742816 1721372 1699571 1681565 1671029 
3797.027 1670123 1679079 1696086 1717753 1739771 1758096 1769708 1773381 
3800.884 1769979 1762044 1753050 1746257 1743537 1745083 1749430 1754110 
3804.741 1756970 1756912 1754548 1751890 1751513 1755534 1764592 1777645 
3808.599 1792258 1805766 1816114 1822571 1825981 1828088 1830835 1835588 
3812.456 1842665 1851240 1859843 1866723 1870385 1869624 1863801 1852722 
3816.314 1836590 1816250 1793069 1769003 1746264 1726974 1712899 1704906 
3820.171 1703216 1707370 1716488 1729499 1745175 1762136 1778694 1793042 
3824.029 1803655 1809724 1811746 1811551 1811921 1815609 1824517 1838427 
3827.886 1855099 1870635 1880813 1882398 1874370 1858167 1837404 1816588 
3831.743 1799825 1789694 1786634 1789246 1794940 1801073 1805627 1807756 
3835.601 1807752 1806643 1805829 1806274 1808468 1812153 1816353 1819681 
3839.458 1820809 1818697 1812970 1804077 1793329 1782760 1774363 1769940 
3843.316 1770265 1774954 1782475 1790450 1796418 1798588 1796456 1790936 
3847.173 1784190 1779041 1778014 1782593 1792574 1806232 1820772 1833085 
3851.031 1840861 1843155 1840547 1834868 1828412 1823039 1819550 1817582 
3854.888 1815990 1813415 1809315 1803988 1798776 1795409 1795350 1799127 
3858.745 1806188 1815048 1823936 1831417 1836806 1840463 1843202 1845968 
3862.603 1849200 1852537 1855072 1855640 1853502 1848555 1841521 1833748 
3866.460 1826440 1820373 1815315 1810334 1804004 1795276 1783930 1770831 
3870.318 1758145 1748555 1744392 1747176 1756792 1771688 1789145 1806192 
3874.175 1820378 1830260 1835809 1838140 1838733 1839104 1840138 1841951 
3878.032 1844051 1845826 1846809 1846870 1846242 1844989 1842944 1839350 
3881.890 1833416 1824541 1813012 1800285 1788947 1782028 1782067 1790107 
3885.747 1805072 1823738 1841734 1854553 1859120 1854753 1843247 1828391 
3889.605 1814901 1806866 1806817 1814885 1829303 1846776 1863799 1877488 
3893.462 1886147 1889460 1888076 1883168 1876158 1868168 1860229 1853384 
3897.320 1848470 1846257 1847217 1851220 1857470 1864623 1870942 1874858 
3901.177 1875286 1871858 1865109 1856228 1846796 1838526 1833038 1831539 
3905.034 1834747 1842678 1854654 1869277 1884664 1898851 1910163 1917680 
3908.892 1921322 1921559 1919281 1915180 1909612 1902574 1894119 1884929 
3912.749 1876418 1870711 1870115 1875932 1887939 1903781 1919392 1930100 
3916.607 1931821 1922529 1902801 1875654 1845696 1817837 1795906 1782136 
3920.464 1776724 1778505 1785498 1795645 1807266 1819258 1831135 1842806 
3924.322 1854429 1866409 1879077 1892498 1906477 1920315 1932855 1942832 
3928.179 1948968 1950563 1947669 1940809 1931078 1919804 1908080 1896895 
3932.036 1887050 1879167 1873785 1871405 1872162 1875937 1882072 1889738 
3935.894 1897986 1905881 1912933 1918616 1922677 1924720 1924468 1921997 
3939.751 1917837 1913095 1909368 1908163 1910258 1915365 1922020 1927843 
3943.609 1930497 1928341 1921122 1909686 1895842 1881573 1868201 1856557 
3947.466 1846869 1839492 1835089 1834877 1840034 1851225 1867777 1887565 
3951.323 1907267 1923202 1932494 1933657 1927084 1914590 1898887 1882612 
3955.181 1868070 1856652 1849181 1845987 1847140 1852534 1861721 1873920 
3959.038 1887900 1902322 1916112 1928381 1938901 1947818 1955424 1962088 
3962.896 1967998 1973338 1978400 1983504 1989153 1995775 2003262 2011190 
3966.753 2018415 2023568 2025224 2022330 2014501 2002146 1986277 1968503 
3970.611 1950527 1934078 1920527 1910488 1903799 1899492 1895956 1891647 
3974.468 1885419 1877300 1868460 1860831 1856409 1856421 1860682 1867702 
3978.325 1875084 1880561 1883162 1883257 1882791 1884086 1888902 1897519 
3982.183 1908488 1919125 1926804 1929626 1927537 1922111 1915801 1911053 
3986.040 1909321 1910821 1914632 1919432 1924073 1928260 1932409 1937254 
3989.898 1943343 1950664 1958589 1966048 1972037 1975701 1976595 1974451 
3993.755 1969096 1960393 1948369 1933639 1917675 1902753 1891577 1886637 
3997.613 1889128 1898529 1912567 1927735 1940362 1947860 1949609 
##END=
