##TITLE=Bambu-Lab_PETG_Lime-Green_Filament_r3_ATR-Corrected
##JCAMP-DX=5.01  $$ Nicolet v. 1
##DATATYPE=INFRARED SPECTRUM
##ORIGIN=Curtin University
##OWNER=Nicolet
##LONGDATE=2024/07/03
##TIME=14:49:12
##SPECTROMETER/DATA SYSTEM=Nicolet iS50
##DATA PROCESSING=
Ratio against background
%Transmittance->Absorbance
ATR Correction
Truncated
ElementMultiply or ElementDivide
##COMMENTS=
Number of sample scans: 32
Collection length: 47.29 sec
Sample gain: 1.0
Background collected on: Wed Jul 03 14:47:38 2024 (GMT+08:00);
Number of background scans: 32
Background gain: 1.0
Sample spacing:  1.000
Number of scan points: 16672
Resolution points: 8192
Number of FFT points: 65536
Apodization: N-B strong;
Phase correction: Mertz;
Laser frequency: 15798.3 cm-1
Number of rejected sample scans: 0
Number of rejected background scans: 0
Bench serial number: AUP1200105;
##RESOLUTION=4.000
##XUNITS=1/CM
##YUNITS=ABSORBANCE
##FIRSTX=400.163452
##LASTX=4000.187744
##FIRSTY=0.032382
##MAXX=4000.187744
##MINX=400.163452
##MAXY=1.530688
##MINY=-0.027671
##XFACTOR=1.000000
##YFACTOR=1.000000E-008
##NPOINTS=7468
##DELTAX=0.482125
##ZPD=8192
##XYDATA=(X++(Y..Y))
400.163 3238162 3250213 3282138 3327368 3380527 3438871 3502933 3575571 
404.020 3659839 3756725 3863395 3972801 4074693 4157816 4212869 4235121 
407.877 4225956 4192843 4147238 4101721 4066391 4046435 4041243 4045622 
411.734 4052145 4054362 4049025 4037098 4022951 4012364 4010347 4019539 
415.591 4039784 4068817 4103506 4140846 4178618 4215212 4249245 4279357 
419.448 4304261 4323206 4336482 4345441 4352043 4358079 4364336 4370360 
423.305 4374753 4376152 4374121 4369785 4365489 4363851 4366617 4373799 
427.162 4383643 4393451 4400691 4404148 4404279 4402895 4402292 4404326 
431.019 4409840 4418624 4429767 4441905 4453943 4464505 4471889 4474092 
434.876 4469155 4455873 4434369 4406393 4374829 4342764 4312355 4284215 
438.733 4257462 4230594 4202677 4174255 4147471 4125256 4110052 4102619 
442.590 4101610 4104078 4106669 4106969 4104109 4098627 4091404 4082575 
446.447 4070804 4053617 4028521 3994428 3952705 3907282 3863572 3826947 
450.304 3801155 3787524 3785050 3791274 3803436 3819151 3836665 3854516 
454.161 3871064 3884270 3891977 3892606 3885758 3872526 3855255 3836845 
458.017 3819885 3806273 3797140 3793310 3795790 3805973 3825320 3854668 
461.874 3893431 3939208 3988016 4035145 4076362 4108824 4131509 4145003 
465.731 4150788 4150425 4144999 4135054 4120928 4103205 4083088 4062441 
469.588 4043506 4028541 4019320 4017069 4022327 4035070 4054809 4080652 
473.445 4111319 4145209 4180479 4215272 4247885 4277012 4301869 4322378 
477.302 4339237 4354006 4369040 4387196 4411217 4442906 4482307 4527271 
481.159 4573653 4616368 4650781 4674348 4687492 4693621 4698062 4706366 
485.016 4722577 4748243 4782330 4822249 4865344 4910189 4957224 5008483 
488.873 5066548 5133421 5209660 5294271 5385232 5480394 5578244 5678284 
492.730 5780795 5886285 5994815 6105626 6217166 6327444 6434543 6537107 
496.587 6634375 6726075 6811963 6891385 6962858 7023908 7071139 7100586 
500.444 7108249 7090898 7046750 6976130 6881679 6768098 6641435 6508051 
504.301 6373544 6241937 6115341 5994184 5877741 5764776 5654170 5545186 
508.158 5437611 5331807 5228707 5129874 5037542 4954352 4882856 4824847 
512.015 4780623 4748659 4725737 4707735 4690710 4671929 4650446 4627014 
515.871 4603385 4581329 4561786 4544516 4528287 4511466 4492808 4471863 
519.728 4449018 4425249 4401497 4378406 4356168 4334731 4314223 4295145 
523.585 4278423 4265066 4255684 4250097 4247026 4244412 4239898 4231501 
527.442 4218204 4200212 4178864 4156183 4134321 4114980 4099062 4086627 
531.299 4077078 4069496 4062987 4056918 4050887 4044587 4037613 4029338 
535.156 4018943 4005723 3989415 3970558 3950473 3931077 3914316 3901622 
539.013 3893438 3889198 3887641 3887346 3887293 3887107 3886883 3886744 
542.870 3886290 3884352 3879125 3868778 3852175 3829448 3802148 3772775 
546.727 3743958 3717661 3694615 3674387 3655860 3637978 3620281 3603156 
550.584 3587577 3574584 3564716 3557789 3552857 3548519 3543281 3535839 
554.441 3525082 3510115 3490155 3464701 3433605 3397453 3357641 3316260 
558.298 3275614 3237745 3203926 3174455 3148858 3126120 3105251 3085471 
562.155 3066298 3047458 3028752 3010066 2991535 2973702 2957657 2944824 
566.012 2936505 2933349 2934831 2939225 2943964 2946253 2943919 2935920 
569.869 2922466 2904801 2884606 2863614 2843204 2824428 2808036 2794636 
573.725 2784605 2777958 2774121 2771977 2770120 2767297 2762921 2757424 
577.582 2752108 2748713 2748660 2752547 2759746 2768667 2777279 2783775 
581.439 2787155 2787404 2785419 2782592 2780387 2780053 2782431 2787985 
585.296 2796804 2808627 2822921 2838952 2855944 2873465 2891663 2911468 
589.153 2934452 2962514 2997315 3039849 3090181 3147486 3210397 3277432 
593.010 3347267 3418878 3491335 3563637 3634490 3702348 3765582 3822678 
596.867 3872332 3913353 3944363 3963556 3968654 3957277 3927682 3879561 
600.724 3814670 3736902 3651749 3565292 3482956 3408592 3343965 3289032 
604.581 3242481 3202629 3168089 3138118 3112593 3091693 3075483 3063643 
608.438 3055366 3049576 3045164 3041379 3037957 3035227 3033919 3034923 
612.295 3038914 3046174 3056370 3068628 3081680 3094169 3104908 3113126 
616.152 3118561 3121455 3122474 3122552 3122915 3124881 3129843 3139020 
620.009 3153175 3172356 3195684 3221494 3247681 3272359 3294527 3314477 
623.866 3333814 3355057 3380849 3413448 3454342 3504553 3565199 3638171 
627.723 3726225 3832446 3958802 4104357 4263667 4426126 4576810 4698801 
631.579 4776648 4799949 4765949 4680387 4556133 4410421 4261242 4124226 
635.436 4010454 3925584 3870175 3840785 3831600 3835943 3847686 3862130 
639.293 3876468 3889728 3902371 3915660 3930923 3949005 3969978 3993228 
643.150 4017715 4042490 4066956 4091012 4114848 4138590 4162008 4184311 
647.007 4204325 4220816 4232918 4240433 4243906 4244448 4243394 4241979 
650.864 4241172 4241687 4244107 4248994 4256976 4268529 4283869 4302719 
654.721 4324323 4347647 4371650 4395656 4419464 4443309 4467589 4492555 
658.578 4518059 4543551 4568303 4591765 4613880 4635197 4656751 4679695 
662.435 4704938 4732777 4762855 4794293 4826021 4857123 4887015 4915518 
666.292 4942766 4969052 4994756 5020369 5046604 5074535 5105580 5141384 
670.149 5183477 5232946 5290108 5354469 5424808 5499537 5577107 5656355 
674.006 5736705 5818126 5900947 5985591 6072260 6160713 6250196 6339399 
677.863 6426505 6509392 6585771 6653445 6710645 6756264 6790010 6812484 
681.720 6825000 6829362 6827544 6821477 6812910 6803407 6794523 6787925 
685.577 6785448 6789062 6800649 6821774 6853399 6895688 6948009 7009034 
689.433 7077002 7150124 7226865 7306333 7388494 7474189 7565096 7663432 
693.290 7771510 7891430 8024688 8172095 8333917 8510198 8701126 8907364 
697.147 9130045 9370522 9629806 9908041 10204070 10515319 10838090 11168197 
701.004 11501627 11835095 12166268 12493728 12816620 13134307 13446154 
704.379 13751483 14049762 14340810 14624900 14902759 15175380 15443850 
707.754 15709211 15972687 16236039 16502137 16775499 17062662 17372366 
711.129 17715210 18103202 18549178 19066320 19667888 20367136 21177546 
714.504 22113066 23188292 24418486 25819250 27405834 29192194 31189790 
717.878 33406502 35845444 38504048 41373224 44436144 47666080 51022888 
721.253 54447268 57853692 61123032 64099652 66598044 68425432 69419840 
724.628 69492904 68656888 67020680 64757192 62060516 59110832 56055416 
728.003 53003400 50029100 47178380 44475564 41929344 39537388 37289980 
731.378 35172804 33169430 31263166 29438574 27682680 25985488 24340158 
734.752 22742782 21191998 19688540 18234802 16834456 15492165 14213145 
738.127 13002789 11866216 10807845 9831109 8938216 8129987 7405694 6763093 
741.984 6198198 5705363 5277536 4906659 4584389 4302779 4054978 3835615 
745.841 3640855 3468165 3315822 3182424 3066459 2966151 2879455 2804232 
749.698 2738448 2680332 2628466 2581745 2539415 2500926 2465940 2434205 
753.555 2405520 2379605 2356093 2334502 2314411 2295514 2277856 2261856 
757.412 2248253 2237812 2231112 2228182 2228478 2230940 2234348 2237693 
761.269 2240548 2243255 2246821 2252648 2262155 2276374 2295826 2320475 
765.126 2349865 2383382 2420418 2460483 2503211 2548251 2595240 2643740 
768.983 2693267 2743392 2793725 2843973 2893842 2942917 2990600 3036121 
772.840 3078580 3117101 3151067 3180283 3205088 3226326 3245265 3263397 
776.697 3282175 3302902 3326563 3353815 3385082 3420653 3460913 3506469 
780.554 3558268 3617607 3686046 3765193 3856527 3961132 4079590 4211958 
784.410 4357783 4516336 4686780 4868468 5061064 5264704 5479927 5707517 
788.267 5948138 6201811 6467313 6741510 7018853 7291071 7547275 7774530 
792.124 7958884 8086804 8146815 8131078 8036759 7866773 7629958 7340429 
795.981 7016333 6678004 6345902 6038599 5770983 5553072 5389429 5279316 
799.838 5217482 5195453 5203065 5229955 5266839 5306352 5343419 5375286 
803.695 5401133 5421590 5438161 5452652 5466692 5481382 5497046 5513273 
807.552 5529082 5543271 5554781 5563039 5568137 5570733 5571928 5572925 
811.409 5574775 5578201 5583579 5590956 5600143 5610724 5622116 5633491 
815.266 5643860 5652169 5657583 5659729 5658909 5656150 5653055 5651371 
819.123 5652625 5657658 5666512 5678475 5692402 5707159 5722007 5736825 
822.980 5752131 5768868 5788113 5810815 5837551 5868543 5903670 5942610 
826.837 5984948 6030224 6078041 6127992 6179771 6233185 6288267 6345253 
830.694 6404622 6466988 6532945 6602934 6677058 6755108 6836472 6920355 
834.551 7005814 7091912 7177897 7263184 7347557 7431050 7513959 7596752 
838.408 7679789 7763207 7846661 7929306 8009834 8086675 8158470 8224286 
842.264 8283956 8338065 8387797 8434515 8479425 8523177 8565769 8606546 
846.121 8644333 8677792 8705620 8726797 8740789 8747616 8748018 8743396 
849.978 8735742 8727375 8720540 8717015 8717792 8722951 8731867 8743612 
853.835 8757436 8773234 8791676 8814164 8842453 8878242 8922870 8977219 
857.692 9041807 9117030 9203476 9301989 9413750 9540193 9682997 9844131 
861.549 10025985 10231603 10464652 10729299 11029758 11369669 11751632 
864.924 12176795 12644953 13154669 13703805 14289580 14908579 15556183 
868.299 16225836 16908250 17590796 18257522 18889658 19466710 19968040 
871.674 20374512 20670258 20844064 20890378 20809628 20607924 20296072 
875.048 19888244 19400456 18849242 18250606 17619340 16968698 16310266 
878.423 15653962 15008143 14379667 13774063 13195643 12647733 12132815 
881.798 11652727 11208727 10801528 10431332 10097755 9799962 9536667 9306297 
885.655 9107101 8937146 8794308 8676083 8579603 8501549 8438388 8386647 
889.512 8343316 8306126 8273726 8245499 8221373 8201400 8185482 8173235 
893.369 8164103 8157487 8153002 8150556 8150294 8152356 8156591 8162240 
897.226 8167846 8171252 8169871 8161020 8142274 8111752 8068289 8011350 
901.083 7940928 7857269 7760707 7651531 7530171 7397348 7254466 7103786 
904.940 6948485 6792393 6639463 6493179 6356014 6229090 6112338 6004766 
908.797 5905087 5812226 5725637 5645342 5571741 5505253 5446136 5394380 
912.654 5349815 5312305 5281859 5258618 5242691 5233882 5231591 5234806 
916.510 5242401 5253437 5267498 5284731 5305657 5330805 5360257 5393434 
920.367 5429147 5465943 5502502 5538119 5572789 5607119 5641918 5677820 
924.224 5714966 5752973 5791073 5828508 5864724 5899665 5933745 5967632 
928.081 6002128 6037842 6075135 6114046 6154329 6195536 6237175 6278811 
931.938 6320282 6361723 6403719 6447190 6493334 6543407 6598530 6659578 
935.795 6727177 6801801 6883889 6973950 7072615 7180462 7297941 7425284 
939.652 7562382 7708939 7864619 8029143 8202456 8384698 8576091 8776826 
943.509 8986900 9205977 9433367 9667831 9907587 10150222 10392813 10632110 
947.366 10865028 11089078 11302914 11506618 11701693 11890741 12076920 
950.741 12263267 12452260 12645341 12842983 13044554 13248351 13451503 
954.116 13649800 13837594 14007992 14153306 14266011 14339809 14370815 
957.490 14358160 14304377 14214948 14097591 13961223 13815051 13667725 
960.865 13526912 13398907 13288483 13198772 13131268 13085863 13061158 
964.240 13054767 13063857 13085477 13116834 13155277 13198173 13242674 
967.615 13285597 13323458 13352768 13370398 13373886 13361675 13332941 
970.990 13287428 13225034 13145582 13048810 12934470 12802787 12654707 
974.364 12492158 12317953 12135521 11948477 11760160 11573370 11390258 
977.739 11212420 11041173 10877717 10723371 10579517 10447554 10328621 
981.114 10223503 10132372 10054838 9989928 9936257 9892051 9855330 9824015 
984.971 9795971 9769227 9742086 9713321 9682263 9648865 9613649 9577401 
988.828 9541122 9505754 9472166 9441068 9413144 9389158 9369957 9356527 
992.685 9349889 9351029 9360836 9380078 9409495 9449781 9501712 9566030 
996.542 9643396 9734219 9838583 9956162 10086329 10228289 10381364 10545183 
1000.399 10719894 10906290 11105829 11320587 11553103 11806209 12082898 
1003.774 12386194 12719215 13085213 13487974 13931920 14422436 14965956 
1007.148 15569930 16242790 16994014 17834346 18776458 19835490 21029666 
1010.523 22380004 23909074 25638214 27583244 29748752 32121656 34664436 
1013.898 37309556 39956400 42472876 44703884 46487800 47679888 48177364 
1017.273 47938772 46990448 45418296 43348952 40927308 38297132 35587648 
1020.648 32906420 30336988 27939696 25753960 23801570 22089966 20615486 
1024.022 19366314 18325154 17471414 16783156 16238463 15816444 15497877 
1027.398 15265465 15103766 14999202 14939795 14915252 14916886 14937854 
1030.773 14973144 15019538 15075392 15140173 15213998 15297134 15389714 
1034.148 15491617 15602490 15721864 15849188 15983920 16125292 16272242 
1037.523 16423306 16576548 16729634 16879956 17024718 17161136 17286462 
1040.899 17398260 17494416 17573468 17634530 17677396 17702186 17709078 
1044.274 17698020 17668588 17620236 17552746 17466848 17364606 17249480 
1047.649 17125916 16998570 16871474 16747355 16627581 16512349 16401511 
1051.024 16295303 16194870 16102359 16020724 15953065 15902105 15869859 
1054.400 15857472 15865476 15893991 15943076 16012874 16103648 16215737 
1057.775 16349539 16505454 16683786 16884766 17108406 17354410 17622138 
1061.150 17910712 18219176 18546836 18893490 19259518 19645730 20053078 
1064.525 20482324 20933912 21407958 21904656 22424688 22969584 23541782 
1067.901 24144426 24780866 25454268 26167340 26922526 27722300 28569726 
1071.276 29468716 30424100 31441236 32525470 33681660 34913780 36224880 
1074.651 37617136 39091800 40649076 42287608 44003956 45792036 47642984 
1078.026 49545436 51486240 53451252 55426152 57396900 59350080 61272876 
1081.402 63153492 64981352 66748000 68447616 70077704 71639104 73135720 
1084.777 74573768 75960928 77305056 78613464 79891944 81144416 82372560 
1088.152 83576128 84753256 85901064 87015792 88092944 89126504 90108328 
1091.527 91027400 91870048 92620496 93262384 93780328 94161024 94393488 
1094.903 94468744 94379000 94117400 93678360 93058824 92259328 91285160 
1098.278 90145936 88855008 87427440 85878872 84224552 82479104 80656824 
1101.653 78772160 76839920 74875488 72894584 70913456 68948968 67019176 
1105.028 65143828 63344608 61644988 60069488 58642380 57386048 56319172 
1108.404 55455112 54800684 54355388 54111116 54052508 54157280 54397352 
1111.779 54739688 55147792 55583196 56007572 56384476 56681656 56872724 
1115.154 56938416 56867172 56654884 56303840 55821244 55217588 54505076 
1118.529 53696476 52804564 51841700 50819808 49750268 48643960 47510968 
1121.905 46360636 45201500 44041436 42887728 41747124 40625784 39529036 
1125.280 38461108 37424896 36421928 35452516 34516088 33611596 32737702 
1128.655 31893134 31076542 30286508 29521360 28779218 28058090 27356136 
1132.030 26671860 26004300 25353042 24718044 24099350 23496874 22910186 
1135.406 22338534 21781012 21236796 20705392 20186778 19681350 19189718 
1138.781 18712472 18249906 17801966 17368238 16948206 16541405 16147646 
1142.156 15767026 15399806 15046307 14706643 14380664 14067994 13768117 
1145.531 13480559 13205010 12941293 12689368 12449110 12220190 12002005 
1148.906 11793648 11593949 11401616 11215269 11033533 10855086 10678722 
1152.282 10503424 10328498 10153662 9979130 9805577 9634095 9465981 9302586 
1156.139 9145129 8994688 8852123 8718143 8593418 8478590 8374322 8281267 
1159.997 8200036 8131064 8074675 8030964 7999973 7981774 7976708 7985621 
1163.854 8009970 8051917 8114069 8199235 8309801 8447245 8611644 8801417 
1167.711 9013255 9242352 9482639 9727283 9969000 10200357 10414100 10603469 
1171.569 10762475 10886344 10971759 11017115 11022464 10989336 10920289 
1174.944 10818497 10687342 10530236 10350550 10151784 9937661 9712171 
1178.319 9479494 9243824 9009143 8779087 8556839 8345244 8146867 7964066 
1182.177 7798963 7653274 7528159 7424121 7340964 7278014 7234385 7209211 
1186.034 7201874 7212035 7239519 7284100 7345243 7422044 7513221 7617231 
1189.892 7732487 7857498 7990903 8131476 8278009 8429258 8584012 8741231 
1193.749 8900188 9060738 9223263 9388712 9558248 9733055 9914045 10101731 
1197.606 10296234 10497393 10704948 10918702 11138639 11364950 11598016 
1200.982 11838373 12086580 12343261 12609001 12884316 13169652 13465340 
1204.357 13771608 14088683 14416774 14756228 15107535 15471366 15848474 
1207.732 16239671 16645712 17067290 17504946 17959268 18430802 18920358 
1211.107 19428924 19957860 20508782 21083496 21683806 22311230 22966794 
1214.483 23650872 24363122 25102580 25867904 26657406 27469214 28301146 
1217.858 29150484 30013838 30887266 31766728 32648936 33532544 34419072 
1221.233 35313480 36224108 37161964 38139500 39169384 40263424 41431924 
1224.608 42683608 44025612 45463832 47003000 48646728 50397448 52256400 
1227.984 54223584 56297912 58477384 60759072 63139044 65612352 68172912 
1231.359 70814016 73528648 76309848 79150968 82044888 84982864 87952928 
1234.734 90938768 93919184 96868800 99759456 102561936 105247000 107785760 
1238.109 110149488 112309584 114238528 115911936 117311272 118425688 
1241.002 119252680 119797016 120068696 120081352 119851720 119399944 
1243.896 118750104 117930352 116970936 115902032 114750944 113540872 
1246.789 112290776 111016432 109731936 108450880 107186272 105950128 
1249.682 104752568 103601432 102502896 101462256 100485112 99577800 98747008 
1253.057 97998608 97336112 96759344 96263776 95840680 95477536 95158968 
1256.432 94867216 94582768 94284816 93952328 93565480 93107192 92564640 
1259.807 91929952 91200040 90375456 89459176 88455552 87370232 86210296 
1263.183 84984720 83704672 82382936 81032792 79666904 78296128 76929208 
1266.558 75572824 74231992 72910800 71612720 70340784 69097464 67884696 
1269.933 66703604 65554668 64437692 63351764 62295300 61265964 60260708 
1273.308 59276116 58308880 57356192 56416028 55487388 54569896 53663360 
1276.684 52767336 51880904 51002676 50131156 49265112 48403944 47547820 
1280.059 46697440 45853876 45018212 44191432 43374408 42568132 41773740 
1283.434 40992624 40226364 39476460 38744128 38030216 37335132 36659040 
1286.809 36001928 35363760 34744304 34142968 33558492 32988650 32430178 
1290.185 31878870 31329978 30778668 30220566 29652172 29071140 28476360 
1293.560 27867844 27246622 26614514 25973990 25328102 24680332 24034602 
1296.935 23395144 22766354 22152702 21558490 20987680 20443774 19929556 
1300.310 19446876 18996410 18577484 18188006 17824576 17482788 17157742 
1303.686 16844514 16538744 16237073 15937217 15638074 15339550 15042293 
1307.061 14747483 14456552 14171137 13892981 13623822 13365427 13119482 
1310.436 12887380 12670098 12467877 12280086 12105130 11940515 11783119 
1313.811 11629596 11476733 11322019 11163668 11000829 10833371 10661601 
1317.187 10486066 10307301 10125765 9941816 9755839 9568340 9379929 9191439 
1321.044 9003756 8817920 8634973 8455942 8281897 8113912 7953152 7800866 
1324.901 7658534 7527908 7411037 7310266 7228190 7167485 7130920 7121307 
1328.759 7141573 7194894 7284756 7414843 7588592 7808627 8075969 8389395 
1332.616 8744904 9135795 9552883 9985141 10420262 10845271 11247158 11613234 
1336.474 11931743 12192472 12387330 12511006 12561277 12539092 12448358 
1339.849 12295339 12088035 11835400 11546712 11231142 10897367 10553362 
1343.224 10206215 9861959 9525376 9199987 8888122 8591145 8309815 8044579 
1347.082 7795816 7563976 7349474 7152659 6973634 6812281 6668154 6540619 
1350.939 6428753 6331502 6247530 6175463 6113917 6061724 6018075 5982601 
1354.796 5955279 5936264 5925663 5923337 5928923 5941945 5962166 5989805 
1358.654 6025850 6071985 6130470 6203845 6294595 6404962 6536707 6691067 
1362.511 6868659 7069323 7292031 7534598 7793642 8064554 8341662 8618652 
1366.369 8889086 9146887 9386774 9604672 9797649 9963962 10102838 10214390 
1370.226 10299409 10359424 10396469 10413099 10411923 10395414 10365483 
1373.601 10323288 10269266 10203353 10125303 10035295 9934066 9823117 
1376.977 9704607 9581237 9455913 9331597 9211187 9097515 8993345 8901259 
1380.834 8823584 8762107 8717938 8691335 8681765 8688048 8708702 8742134 
1384.691 8786850 8841461 8904490 8974302 9048922 9126170 9203821 9279880 
1388.549 9352767 9421451 9485543 9545051 9600330 9652049 9701147 9748853 
1392.406 9796707 9846538 9900422 9960584 10029441 10109644 10204245 10316747 
1396.264 10451112 10611639 10802703 11028530 11292932 11599395 11951283 
1399.639 12352295 12806804 13320191 13898700 14548981 15277122 16087472 
1403.014 16980994 17953686 18994818 20085614 21198208 22295622 23332820 
1406.389 24259248 25022560 25573474 25870946 25886876 25609514 25045178 
1409.765 24217380 23164396 21934850 20582752 19162416 17724162 16311213 
1413.140 14957926 13689163 12520774 11460652 10510302 9666468 8922745 
1416.515 8270889 7701874 7206664 6776596 6403725 6080943 5801935 5561265 
1420.373 5354209 5176643 5024920 4895827 4786596 4694947 4619156 4558059 
1424.230 4511058 4477924 4458766 4453879 4463718 4488859 4529920 4587498 
1428.087 4661997 4753441 4861368 4984801 5122343 5272363 5433212 5603384 
1431.945 5781494 5966366 6156849 6351833 6550196 6750802 6952504 7154073 
1435.802 7354226 7551548 7744518 7931682 8111908 8284563 8449763 8608551 
1439.660 8762909 8915658 9070253 9230545 9400398 9583393 9782393 9999368 
1443.517 10235129 10489331 10760497 11046238 11343370 11648124 11956128 
1446.892 12262411 12561344 12846592 13111442 13349062 13553029 13717683 
1450.268 13838506 13912359 13937585 13914116 13843501 13728867 13574745 
1453.643 13386770 13171309 12935205 12685400 12428737 12171582 11919443 
1457.018 11676529 11445515 11227386 11021815 10827498 10642892 10466550 
1460.393 10297488 10135145 9979235 9829470 9685355 9546115 9410653 9277707 
1464.251 9145964 9014113 8880998 8745612 8607166 8465275 8319957 8171821 
1468.108 8021882 7871411 7721687 7573480 7426899 7281182 7134829 6985826 
1471.966 6832180 6672221 6505169 6331226 6151704 5968823 5785450 5604668 
1475.823 5429342 5261700 5102965 4953272 4811719 4676630 4546117 4418398 
1479.680 4292358 4167556 4044265 3923185 3805191 3691068 3581376 3476429 
1483.538 3376508 3281806 3192684 3109458 3032463 2961871 2897606 2839363 
1487.395 2786743 2739297 2696714 2658804 2625580 2597108 2573595 2555249 
1491.253 2542430 2535639 2535575 2543132 2559370 2585459 2622557 2671877 
1495.110 2734737 2812598 2907321 3021233 3157443 3319905 3513670 3744766 
1498.968 4019935 4345766 4727253 5165917 5657686 6190992 6745882 7294415 
1502.825 7802678 8234313 8555173 8738180 8767669 8642090 8374404 7989914 
1506.682 7522031 7006797 6477982 5963161 5482078 5046601 4661976 4328618 
1510.540 4043871 3803404 3602220 3435195 3297473 3184586 3092524 3017757 
1514.397 2957241 2908378 2869065 2837606 2812722 2793516 2779310 2769630 
1518.255 2763989 2761854 2762726 2766044 2771334 2778209 2786444 2795804 
1522.112 2806035 2816831 2827761 2838308 2848025 2856584 2863866 2869885 
1525.969 2874752 2878439 2880727 2881034 2878555 2872340 2861647 2846098 
1529.827 2825847 2801690 2774726 2746200 2717092 2687947 2658787 2629331 
1533.684 2599277 2568632 2537919 2508183 2480686 2456674 2436927 2421609 
1537.542 2410341 2402317 2396671 2392766 2390148 2388692 2388218 2388463 
1541.399 2388961 2389168 2388607 2387140 2384913 2382282 2379595 2376892 
1545.257 2373825 2369785 2364199 2356777 2347844 2338317 2329502 2322712 
1549.114 2318924 2318546 2321389 2326790 2333898 2341808 2349777 2357219 
1552.971 2363717 2369025 2373188 2376422 2379267 2382359 2386307 2391475 
1556.829 2397950 2405546 2414031 2423377 2433886 2446191 2461024 2478958 
1560.686 2500114 2524151 2550424 2578254 2607290 2637669 2669911 2704818 
1564.544 2743153 2785406 2831830 2882447 2937364 2996883 3061621 3132522 
1568.401 3210768 3297671 3394658 3503300 3625286 3762265 3915768 4086783 
1572.259 4275622 4481672 4703232 4937553 5180601 5426980 5669762 5900454 
1576.116 6109407 6286458 6421952 6507810 6538409 6511092 6426312 6287432 
1579.973 6100437 5873361 5615850 5338444 5051938 4766641 4491676 4234443 
1583.831 4000187 3791875 3610274 3454353 3321809 3209646 3114750 3034194 
1587.688 2965440 2906352 2855119 2810299 2770711 2735513 2704154 2676248 
1591.546 2651596 2629925 2610992 2594553 2580403 2568538 2559162 2552561 
1595.403 2549120 2549090 2552604 2559627 2570071 2583858 2601035 2621676 
1599.260 2645868 2673618 2704720 2738876 2775662 2814710 2855788 2898796 
1603.118 2943882 2991358 3041742 3095653 3153797 3216898 3285412 3359395 
1606.975 3438357 3521247 3606604 3692820 3778438 3862356 3943825 4022268 
1610.833 4097008 4166882 4230136 4284469 4327226 4355840 4368135 4362718 
1614.690 4339145 4298045 4241140 4171138 4091468 4005982 3918506 3832442 
1618.548 3750535 3674741 3606346 3546059 3494293 3451142 3416580 3390254 
1622.405 3371635 3359862 3353922 3352774 3355366 3360761 3368084 3376400 
1626.262 3384818 3392403 3398482 3402738 3405371 3407126 3409103 3412379 
1630.120 3417815 3425670 3435753 3447489 3460249 3473596 3487364 3501601 
1633.977 3516377 3531631 3547050 3562133 3576400 3589721 3602250 3614469 
1637.835 3627017 3640344 3654669 3669828 3685444 3701170 3716815 3732541 
1641.692 3748760 3766011 3784808 3805395 3827820 3851890 3877339 3903887 
1645.550 3931381 3959793 3989138 4019375 4050462 4082232 4114508 4147140 
1649.407 4180185 4213849 4248574 4284786 4322936 4363226 4405643 4449908 
1653.264 4495765 4543151 4592446 4644473 4700378 4761285 4828027 4900776 
1657.122 4979164 5062321 5149459 5240202 5334877 5434542 5540770 5655042 
1660.979 5778522 5911527 6053681 6203980 6361170 6524028 6691553 6863012 
1664.837 7037897 7215802 7396368 7579358 7764604 7952134 8142071 8334537 
1668.694 8529717 8727606 8928164 9131299 9336881 9544855 9755214 9968017 
1672.552 10183477 10401948 10623968 10850172 11081210 11317524 11559153 
1675.927 11805739 12056632 12311082 12568526 12828721 13091642 13357316 
1679.302 13625462 13895392 14166136 14436662 14706497 14975877 15246046 
1682.677 15518861 15796399 16080441 16372238 16672528 16981968 17301530 
1686.052 17632834 17978144 18340130 18721438 19124452 19551386 20004442 
1689.428 20486194 20999734 21548512 22136092 22765674 23440298 24163034 
1692.803 24937838 25770202 26667148 27636790 28686878 29823514 31050346 
1696.178 32369178 33781780 35292472 36910112 38648680 40525968 42560580 
1699.553 44768708 47161580 49745172 52522116 55495196 58670496 62058772 
1702.929 65674116 69530472 73637376 77996656 82600864 87433704 92471304 
1706.304 97682744 103028968 108460536 113915352 119318808 124587056 
1709.197 129632840 134370832 138720864 142607824 145960848 148715040 
1712.090 150818128 152239888 152980048 153068800 152559264 151514608 
1714.983 149997024 148062688 145763440 143151872 140285232 137224640 
1717.876 134030224 130754184 127436496 124103688 120772160 117452576 
1720.769 114154064 110885712 107656576 104473840 101342312 98264408 95241584 
1724.145 92276008 89371464 86532848 83764688 81069464 78446720 75893208 
1727.520 73404536 70976824 68608072 66298152 64047820 61856848 59722744 
1730.895 57640256 55602260 53601296 51631612 49690504 47778608 45898972 
1734.270 44055724 42252252 40490212 38769184 37087192 35441720 33830680 
1737.646 32252858 30708462 29198792 27726060 26293120 24903222 23559812 
1741.021 22266450 21026370 19842542 18717190 17651818 16647223 15703605 
1744.396 14820662 13997601 13232999 12524568 11869053 11262378 10700025 
1747.771 10177763 9692279 9241432 8824058 8439455 8086677 7763918 7468422 
1751.629 7196899 6946175 6713657 6497701 6297260 6111435 5939049 5778401 
1755.486 5627569 5484854 5349348 5220931 5100178 4987498 4882814 4785042 
1759.344 4692502 4603481 4516830 4432546 4351615 4275578 4205751 4142628 
1763.201 4085753 4033898 3985622 3939825 3895969 3853961 3813829 3775430 
1767.058 3738297 3701672 3664903 3627604 3589837 3551938 3514333 3477322 
1770.916 3441094 3405858 3371913 3339731 3309864 3282487 3257196 3232935 
1774.773 3208271 3182001 3153655 3123803 3094025 3066326 3042433 3023111 
1778.631 3007999 2995816 2984965 2974090 2962537 2950304 2937724 2925004 
1782.488 2912014 2898168 2882795 2865375 2846011 2825248 2803935 2782940 
1786.345 2762750 2743579 2725303 2707843 2691342 2676024 2662284 2650269 
1790.203 2639809 2630282 2620794 2610370 2598270 2584054 2567751 2549662 
1794.060 2530407 2510723 2491383 2473112 2456530 2441939 2429320 2418269 
1797.918 2408043 2397727 2386447 2373405 2358238 2340853 2321729 2301733 
1801.775 2282211 2264791 2251030 2241979 2237898 2237949 2240368 2242949 
1805.633 2243800 2241967 2237836 2232889 2229220 2228477 2231371 2237239 
1809.490 2244398 2250766 2254557 2254707 2250873 2243015 2230984 2214321 
1813.347 2192574 2165886 2135691 2104935 2077943 2059306 2052731 2059850 
1817.205 2079619 2108724 2142441 2176078 2206059 2230373 2248533 2260847 
1821.062 2268015 2270621 2269166 2264217 2256525 2246941 2236245 2224874 
1824.920 2212920 2200203 2186753 2172882 2159466 2147401 2137316 2128888 
1828.777 2120917 2111442 2098459 2080603 2057643 2030414 2000511 1969558 
1832.635 1938762 1908759 1879734 1851911 1825812 1802332 1782523 1767130 
1836.492 1756154 1748757 1743398 1738279 1731912 1723295 1712271 1699150 
1840.349 1684667 1669617 1654695 1640246 1626322 1612423 1597611 1580607 
1844.207 1560145 1535410 1506533 1474687 1442071 1411226 1384455 1363101 
1848.064 1347204 1335529 1326105 1316738 1305774 1292474 1277076 1260626 
1851.922 1244950 1231887 1223212 1220139 1222976 1230817 1241509 1251908 
1855.779 1258503 1258231 1249272 1231394 1206031 1175797 1143903 1113447 
1859.636 1087222 1067474 1055939 1053564 1060292 1074495 1092791 1110344 
1863.494 1121893 1123167 1112365 1090861 1063071 1034963 1012304 998662 
1867.351 994573 997455 1003046 1006947 1006272 1000291 990349 978797 968063 
1871.691 959897 955073 953712 955810 961169 969572 980212 991657 1001681 
1876.031 1007936 1008365 1002089 989418 971807 951174 929521 908380 888895 
1880.370 871905 858204 848346 842541 840097 839638 839065 836682 831857 
1884.710 825920 821948 824020 835720 858658 891443 929551 966190 994262 
1889.049 1007846 1004231 984274 952493 915772 881931 857930 848443 854990 
1893.389 875818 906374 940392 971359 993862 1004523 1002565 989418 968168 
1897.729 942353 915382 889761 867142 848353 833908 824146 819450 820046 
1902.068 826034 836934 851892 869296 887253 903361 915434 921647 921171 
1906.408 914347 902857 889158 876113 865958 859850 857626 858187 860412 
1910.747 863534 867591 873321 881128 890555 899737 906033 906743 900763 
1915.087 889343 876455 867534 867939 881084 907147 943057 983284 1021497 
1919.427 1052223 1071681 1078273 1071942 1053797 1025538 989334 947844 
1923.284 904524 862964 826644 797983 778235 767193 763868 766971 775734 
1927.624 789685 808670 831838 857703 884235 909334 931950 952654 973257 
1931.963 996156 1022707 1052101 1081001 1104406 1117118 1116292 1102607 
1935.821 1080991 1059064 1045137 1045397 1061624 1090306 1123966 1153063 
1939.678 1169229 1167903 1149953 1121361 1091514 1070198 1065073 1079258 
1943.535 1111035 1154670 1203001 1249245 1289266 1321782 1347837 1368918 
1947.393 1385803 1397464 1401603 1395431 1377099 1346276 1304673 1254962 
1951.250 1200875 1146128 1094882 1051508 1020920 1006897 1011130 1031049 
1955.108 1059510 1085263 1095929 1081734 1038622 970171 886815 802464 730083 
1959.447 677606 646562 632932 630476 633990 641317 652546 668049 685871 
1963.787 700864 706174 695964 668496 628398 585001 550451 534745 543208 
1968.126 574538 621931 674647 721643 752546 759567 738343 688082 612929 
1972.466 521385 425907 341089 279749 251161 258225 299806 372409 473410 
1976.806 601486 756175 932267 1117332 1290407 1427048 1506294 1518018 
1980.663 1466919 1372310 1262333 1167228 1110374 1103236 1143375 1217706 
1984.521 1306809 1392632 1461029 1504675 1521109 1511569 1478543 1425551 
1988.378 1356845 1279004 1200100 1129485 1075419 1043521 1035087 1046738 
1992.235 1071368 1099948 1122998 1132552 1123334 1093951 1047154 989631 
1996.093 929679 875907 833773 804250 783299 764288 740515 708949 671255 
2000.432 633961 603827 584537 572312 555516 517885 444085 326512 170640 
2004.772 -5127 -172490 -301972 -371338 -373208 -317457 -227934 -134330 
2008.629 -63945 -33529 -46262 -92316 -153358 -208378 -240409 -240766 -212020 
2012.969 -165578 -118410 -86048 -77073 -89630 -113716 -135066 -143075 
2016.826 -134670 -116942 -101546 -98725 -110139 -126648 -130787 -106193 
2020.684 -47053 35083 113212 152781 125405 19943 -151132 -356868 -558024 
2025.023 -721478 -829693 -884367 -900628 -898536 -892911 -890889 -891739 
2028.881 -893848 -899019 -914523 -948966 -1006805 -1081688 -1157233 -1211042 
2032.738 -1224157 -1189507 -1115001 -1020784 -930164 -858942 -810065 -772548 
2036.596 -729228 -663348 -566925 -442377 -301112 -157659 -25876 85602 172791 
2040.935 236108 278920 307073 328599 354421 395508 461333 554537 670064 
2045.275 795225 914649 1015100 1092065 1150104 1200973 1256878 1324561 
2049.132 1401128 1475456 1532989 1563256 1562745 1536076 1491577 1437763 
2052.990 1378948 1314386 1240076 1153236 1055878 957204 871241 812400 790291 
2057.329 805318 848226 903216 952646 982830 987511 968805 934805 896111 
2061.669 861361 836028 820938 814549 814346 818822 827933 843023 865467 
2066.009 896368 934814 978328 1022492 1062047 1091633 1107098 1106419 
2069.866 1091126 1065790 1037827 1015425 1005770 1013100 1037842 1076956 
2073.723 1125664 1178717 1232556 1285170 1335897 1383575 1425840 1457953 
2077.581 1474356 1469813 1441914 1392176 1326199 1252623 1180400 1116494 
2081.438 1064556 1024155 992341 965099 939805 916131 896470 884352 883398 
2085.778 895089 918239 948314 979027 1003289 1015183 1010841 989539 953119 
2090.117 905988 853818 802780 758650 726050 707825 705137 717141 741896 
2094.457 776915 819955 869721 925541 986526 1050995 1115215 1173680 1219630 
2098.797 1247506 1254230 1241076 1213453 1179860 1149225 1128872 1122284 
2102.654 1128911 1145192 1166264 1187476 1205876 1219666 1228133 1230380 
2106.511 1225498 1212676 1192465 1167028 1140597 1117916 1102955 1097165 
2110.369 1099051 1104738 1109741 1110625 1106430 1098301 1088582 1078803 
2114.226 1068964 1057371 1041967 1021732 998423 975718 958233 948881 946771 
2118.566 947001 941726 923071 886543 832608 767129 698741 636051 584414 
2122.906 544640 513454 486211 459268 432052 407116 388753 380698 384040 
2127.245 396032 410997 421276 419444 399203 356876 291296 204527 102141 
2131.585 -5812 -106132 -183566 -224930 -222929 -179668 -107630 -27172 40082 
2135.924 77176 78114 48397 1982 -45399 -82600 -107650 -127375 -154106 
2140.264 -198985 -267445 -356786 -457154 -556041 -643087 -713209 -768315 
2144.121 -814780 -861756 -916972 -985440 -1068390 -1163450 -1264323 -1362236 
2147.979 -1445308 -1501931 -1523131 -1506852 -1460323 -1401607 -1354896 
2151.354 -1345912 -1392794 -1500986 -1661340 -1853049 -2051085 -2235274 
2154.729 -2393892 -2525949 -2634530 -2718784 -2767112 -2753255 -2644107 
2158.104 -2412974 -2055067 -1599610 -1104179 -638801 -261135 -2799 135872 
2161.962 176434 151511 91005 16207 -63012 -145338 -232758 -326263 -422982 
2166.302 -515754 -597206 -660821 -705026 -732702 -750260 -765619 -785881 
2170.159 -815015 -853989 -899983 -948297 -993539 -1031125 -1058590 -1076071 
2174.016 -1085474 -1089468 -1089589 -1085918 -1076302 -1057739 -1028633 
2177.392 -989754 -945040 -900364 -860505 -827189 -797312 -764217 -720332 
2181.249 -663075 -597217 -536683 -500157 -505268 -560532 -660584 -785172 
2185.106 -905127 -988642 -1011960 -964549 -852094 -692851 -512289 -335271 
2188.964 -181364 -61002 23112 74997 101977 113651 119224 127170 142543 
2193.303 166273 192358 209062 200713 152956 58100 -80022 -245022 -410070 
2197.643 -545017 -623782 -632596 -573133 -462658 -327796 -198142 -97392 
2201.500 -39299 -24947 -45217 -84425 -125259 -152957 -157774 -135679 -88174 
2205.840 -20600 58966 141892 220029 287229 340062 378267 404095 421911 
2210.180 436537 452262 471868 496429 524537 553608 579552 598509 606878 
2214.519 602823 586517 560637 529541 499098 475022 461829 462476 477415 
2218.859 505487 543591 587261 631170 669042 694498 701767 687659 652613 
2223.198 601939 545046 494287 461477 455095 477467 524500 586694 652223 
2227.538 710263 754101 782046 797285 805420 812351 821709 834276 847358 
2231.878 857142 859297 851318 833110 807390 778883 753490 736689 732407 
2236.217 741919 763491 792482 822833 848253 863738 866866 858286 840689 
2240.557 818356 795391 775070 759432 749757 746683 751255 764266 786100 
2244.896 815681 850184 884833 914153 932889 937991 929019 908592 881327 
2249.236 852554 826942 807617 795798 791811 795214 806022 824219 850078 
2253.576 882983 921168 961495 1000083 1032841 1056852 1070750 1075152 
2257.433 1072107 1064781 1056401 1050196 1048521 1053528 1066599 1088198 
2261.291 1117866 1153757 1192560 1230354 1263021 1287847 1303978 1312970 
2265.148 1318383 1324324 1334142 1349392 1369389 1391874 1413985 1433868 
2269.005 1451139 1466863 1482672 1499643 1517290 1533670 1546060 1552499 
2272.863 1552821 1549424 1546286 1548145 1558128 1577169 1603287 1632459 
2276.720 1660141 1682699 1698531 1708275 1714229 1719516 1727251 1739978 
2280.578 1759450 1786574 1821093 1861755 1905673 1949119 1987570 2017270 
2284.435 2036120 2044401 2044593 2040648 2036230 2033729 2033136 2032598 
2288.292 2029103 2019934 2003572 1980333 1951657 1919774 1886217 1851744 
2292.150 1816248 1779250 1740325 1699945 1659040 1618984 1581106 1546649 
2296.007 1516514 1491698 1473303 1462720 1460933 1468195 1483445 1504381 
2299.865 1527666 1549758 1567652 1579646 1585284 1585267 1580886 1573682 
2303.722 1565072 1556381 1548789 1543474 1541283 1542599 1547073 1553925 
2307.580 1561899 1570179 1578285 1586573 1595697 1606210 1618043 1630418 
2311.437 1642045 1651631 1658401 1662502 1664828 1666664 1669319 1673737 
2315.294 1680661 1690819 1705095 1724477 1749691 1780659 1816332 1854889 
2319.152 1894643 1935001 1977131 2023830 2077870 2140093 2207325 2271662 
2323.009 2321409 2343816 2328644 2271336 2174241 2046565 1901869 1755291 
2326.867 1620286 1506294 1417534 1353472 1310033 1281695 1263200 1250649 
2330.724 1241722 1235286 1230811 1227983 1226477 1226034 1226608 1228388 
2334.582 1231601 1236108 1241432 1246718 1251043 1253904 1255542 1256711 
2338.439 1258672 1262722 1269457 1278833 1289980 1301455 1311781 1319691 
2342.296 1324413 1325724 1323959 1319968 1314897 1310052 1306701 1305734 
2346.154 1307427 1311272 1316031 1320115 1321978 1320760 1316411 1309773 
2350.011 1302274 1295466 1290321 1287279 1285997 1285858 1286169 1286732 
2353.869 1287699 1289708 1293283 1298788 1305939 1314003 1321841 1328244 
2357.726 1332250 1333196 1330840 1325300 1316946 1306325 1294140 1281294 
2361.583 1268753 1257516 1248422 1241996 1238192 1236566 1236112 1235674 
2365.441 1234117 1230696 1225162 1217921 1209923 1202414 1196546 1193248 
2369.298 1192744 1194830 1198624 1203175 1207625 1211647 1215385 1219657 
2373.156 1225427 1233499 1244179 1256998 1270756 1283979 1295089 1303062 
2377.013 1307673 1309279 1308842 1307487 1305988 1304824 1304090 1303787 
2380.871 1304027 1305210 1307848 1312501 1319132 1327125 1335097 1341385 
2384.728 1344362 1343216 1338075 1330177 1321299 1313299 1307340 1303558 
2388.585 1301016 1298128 1293196 1285190 1274023 1260912 1247693 1236829 
2392.443 1230388 1229882 1235610 1246840 1261729 1277822 1292317 1302793 
2396.300 1307630 1306486 1299992 1290055 1278907 1268721 1260802 1255583 
2400.158 1252390 1250066 1247362 1243603 1238730 1233332 1228423 1224835 
2404.015 1223210 1223738 1226402 1231116 1237783 1246277 1256187 1266724 
2407.873 1276571 1284395 1289024 1290041 1287826 1283492 1278299 1273144 
2411.730 1268141 1262700 1255679 1246528 1235310 1223410 1212841 1205838 
2415.587 1203772 1206757 1213356 1221205 1227673 1230771 1229581 1224507 
2419.445 1216649 1207427 1197828 1188315 1178759 1168892 1158486 1147752 
2423.302 1137185 1127387 1118730 1111328 1104874 1099100 1093787 1089171 
2427.160 1085828 1084476 1085496 1088760 1093181 1097302 1099106 1097045 
2431.017 1090329 1079387 1065559 1051150 1038594 1029892 1026180 1027662 
2434.875 1033682 1043192 1054973 1068064 1081504 1094421 1105452 1113074 
2438.732 1115589 1111800 1101344 1085494 1066642 1048309 1033737 1025420 
2442.589 1024160 1029135 1038167 1048815 1058969 1067638 1074740 1080920 
2446.447 1086800 1092739 1098255 1102659 1105130 1105364 1103639 1100871 
2450.304 1098052 1096234 1095900 1097371 1100616 1105816 1112957 1122098 
2454.162 1132788 1144124 1154470 1162050 1165322 1163485 1156899 1146805 
2458.019 1135037 1123249 1112363 1102388 1092435 1081408 1068549 1053850 
2461.876 1038275 1023388 1010712 1001287 995015 990719 986569 980513 971117 
2466.216 957975 941902 924836 909011 896654 889018 886346 887740 891479 
2470.556 895639 898745 899878 899112 896950 894225 891523 889127 886994 
2474.895 885199 883974 884047 886221 891168 898790 908088 917001 923292 
2479.235 924963 921331 913173 902791 893135 887008 885879 889725 896940 
2483.574 905213 912311 917120 919640 921197 923328 927445 933784 941738 
2487.914 949862 956841 961985 965924 970165 977047 988420 1005256 1026760 
2492.254 1050719 1073675 1092163 1103116 1105266 1098716 1085309 1067647 
2496.111 1048579 1030358 1014338 1000845 989695 980505 973208 968073 965837 
2500.451 966876 971251 977994 985761 992745 997873 1000995 1003323 1006933 
2504.790 1014397 1027387 1046259 1069393 1093949 1116246 1133259 1143117 
2508.648 1146159 1144036 1139432 1134819 1131683 1130043 1128671 1125658 
2512.505 1119482 1109334 1095793 1080196 1064654 1050791 1039700 1031687 
2516.363 1026490 1023488 1022556 1023770 1027908 1035746 1048120 1065230 
2520.220 1086836 1111786 1138592 1165270 1189896 1210615 1226095 1235639 
2524.077 1239360 1238159 1233615 1227445 1221289 1216249 1212587 1209982 
2527.935 1207664 1204828 1201111 1196587 1191968 1187924 1185361 1184612 
2531.792 1185923 1189084 1194052 1200618 1208569 1217441 1226479 1234501 
2535.650 1240326 1242950 1242124 1238441 1233303 1228376 1224995 1223705 
2539.507 1224090 1224816 1224563 1222327 1218319 1213603 1210282 1210367 
2543.365 1215452 1225883 1240999 1259151 1278387 1296703 1312800 1325823 
2547.222 1335342 1341251 1343675 1342673 1338636 1332075 1323810 1314790 
2551.079 1306007 1298281 1292290 1288359 1286797 1287733 1291383 1297672 
2554.937 1306508 1317241 1329161 1341182 1352333 1361818 1369315 1374791 
2558.794 1378569 1380855 1381948 1381805 1380485 1378167 1375410 1373237 
2562.652 1372799 1375069 1380436 1388093 1396304 1402384 1403853 1398977 
2566.509 1387822 1372248 1355817 1342663 1336327 1338550 1348874 1364511 
2570.366 1381700 1396715 1407519 1414083 1418638 1424437 1434471 1450210 
2574.224 1470910 1493678 1514530 1529503 1536114 1533728 1523887 1509612 
2578.081 1494537 1482107 1475206 1475638 1484411 1501445 1525717 1555077 
2581.939 1586338 1615605 1639054 1653640 1657997 1652754 1640339 1624089 
2585.796 1607478 1592897 1581529 1573235 1567303 1563100 1560634 1560429 
2589.654 1563416 1569938 1579570 1590860 1601808 1610329 1615220 1616462 
2593.511 1615054 1612591 1610597 1609780 1610123 1610693 1610433 1608611 
2597.368 1605104 1600452 1595597 1591370 1588285 1586256 1584838 1583567 
2601.226 1582261 1581104 1580820 1582197 1586032 1592669 1602091 1613863 
2605.083 1627409 1641969 1656956 1671653 1685471 1697648 1707602 1714823 
2608.941 1719159 1721030 1721226 1720771 1720763 1721872 1724334 1727903 
2612.798 1732152 1736682 1741417 1746637 1752968 1760745 1769995 1779883 
2616.656 1789132 1796139 1799704 1799489 1796277 1791794 1788148 1787154 
2620.513 1789679 1795345 1802788 1810092 1815757 1818996 1820310 1821034 
2624.370 1822932 1827527 1835605 1846923 1860502 1874786 1888130 1899072 
2628.228 1906513 1909555 1907806 1901095 1890050 1875785 1860329 1845978 
2632.085 1835070 1829228 1829049 1833800 1841895 1851218 1859960 1867214 
2635.943 1872962 1877975 1883292 1889535 1896651 1903761 1909647 1913090 
2639.800 1913538 1911210 1907120 1902708 1899202 1897332 1897020 1897481 
2643.657 1897659 1896490 1893416 1888460 1882335 1875941 1870374 1866240 
2647.515 1863780 1862729 1862551 1862756 1863060 1863613 1864826 1867192 
2651.372 1870951 1875730 1880662 1884247 1885063 1882009 1874950 1864733 
2655.230 1853145 1842341 1834360 1830382 1830464 1833552 1837812 1841224 
2659.087 1842113 1839466 1833164 1823664 1811796 1798312 1783634 1767905 
2662.945 1750972 1732593 1712723 1691560 1669631 1647761 1627034 1608552 
2666.802 1593345 1582219 1575677 1573668 1575780 1581032 1588231 1596088 
2670.659 1603346 1609190 1613269 1615598 1616787 1617483 1618502 1620393 
2674.517 1623480 1627583 1632327 1636973 1640802 1643194 1643849 1642814 
2678.374 1640463 1637293 1633771 1630175 1626452 1622412 1617794 1612554 
2682.232 1606888 1601220 1596172 1592204 1589461 1587754 1586506 1585113 
2686.089 1582998 1579899 1575833 1571152 1566280 1561668 1557749 1554760 
2689.947 1552961 1552508 1553491 1555847 1559299 1563275 1567055 1569859 
2693.804 1571135 1570511 1568086 1564222 1559551 1554824 1550801 1548280 
2697.661 1547932 1550238 1555398 1563044 1572324 1581826 1590008 1595562 
2701.519 1597734 1596740 1593612 1589902 1587099 1586165 1587148 1589247 
2705.376 1591221 1591731 1590125 1586490 1581772 1577335 1574633 1574658 
2709.234 1577732 1583426 1590962 1599138 1606989 1613760 1619057 1622935 
2713.091 1625639 1627678 1629581 1631685 1634246 1637109 1639954 1642317 
2716.948 1643804 1644269 1643913 1643154 1642523 1642449 1643051 1644137 
2720.806 1645397 1646494 1647334 1648074 1649034 1650551 1652628 1655026 
2724.663 1657287 1658917 1659733 1659990 1660311 1661512 1664252 1668790 
2728.521 1674890 1681971 1689359 1696649 1703859 1711338 1719592 1728895 
2732.378 1738975 1748938 1757547 1763345 1765384 1763176 1757241 1748831 
2736.236 1739635 1731487 1725985 1724025 1725802 1730764 1737800 1745530 
2740.093 1752701 1758400 1762359 1764762 1766216 1767273 1768331 1769334 
2743.950 1769894 1769485 1767691 1764475 1760400 1756350 1753491 1752903 
2747.808 1755437 1761539 1771285 1784447 1800528 1818661 1837664 1855954 
2751.665 1871772 1883493 1889993 1891103 1887810 1881911 1875779 1871564 
2755.523 1870723 1873509 1879096 1885837 1891865 1895538 1895972 1893081 
2759.380 1887403 1879920 1871814 1864160 1857869 1853650 1851947 1852903 
2763.238 1856313 1861677 1868188 1874951 1881197 1886300 1890176 1892964 
2767.095 1895119 1897135 1899460 1902297 1905761 1909737 1913949 1918050 
2770.952 1921639 1924223 1925416 1925013 1923164 1920305 1917193 1914547 
2774.810 1913040 1912868 1913882 1915570 1917314 1918685 1919607 1920295 
2778.667 1921302 1923067 1925927 1929809 1934496 1939672 1945159 1950958 
2782.525 1957339 1964472 1972480 1981092 1989875 1998249 2005829 2012558 
2786.382 2018773 2024963 2031746 2039377 2047659 2056058 2063849 2070514 
2790.240 2075997 2080795 2085963 2092722 2102242 2115089 2131370 2150334 
2794.097 2170919 2191750 2211517 2229047 2243576 2254591 2261937 2265812 
2797.954 2266693 2265383 2262817 2260098 2258191 2257842 2259611 2263679 
2801.812 2270083 2278713 2289485 2302221 2316761 2332737 2349574 2366494 
2805.669 2382607 2397068 2409268 2418979 2426359 2431854 2436192 2440057 
2809.527 2444103 2448759 2454348 2460974 2468705 2477323 2486621 2496140 
2813.384 2505549 2514543 2523103 2531495 2540328 2550403 2562530 2577236 
2817.241 2594733 2614746 2636600 2659440 2682443 2704972 2726718 2747702 
2821.099 2768324 2789137 2810793 2833915 2858867 2885835 2914580 2944530 
2824.956 2974976 3005248 3034972 3064271 3093932 3125195 3159591 3198413 
2828.814 3242543 3292153 3346770 3405518 3467525 3532113 3599084 3668637 
2832.671 3741338 3817728 3898367 3983555 4073646 4169156 4270997 4380404 
2836.529 4499124 4628958 4771831 4929292 5102677 5292836 5500487 5726047 
2840.386 5969931 6232425 6513870 6814547 7134808 7475067 7835938 8218097 
2844.243 8622260 9048836 9497646 9967407 10455430 10957157 11466184 11974134 
2848.101 12471062 12945850 13387078 13783552 14125456 14405057 14617313 
2851.476 14760272 14835094 14845654 14798115 14700015 14559609 14385183 
2854.851 14184389 13964079 13730110 13487266 13239488 12989853 12740774 
2858.227 12493917 12250389 12010690 11774981 11543151 11315265 11091588 
2861.602 10873122 10661219 10457586 10263857 10081293 9910368 9750698 
2864.977 9601168 9460316 9326659 9199067 9077059 8960748 8850601 8747273 
2868.834 8651100 8562241 8480397 8405013 8335638 8271850 8213471 8160686 
2872.692 8113648 8072745 8038229 8010474 7989853 7976816 7972119 7976676 
2876.549 7991373 8017032 8053971 8102050 8160322 8227371 8301428 8380705 
2880.407 8463874 8550138 8639355 8731886 8828348 8929384 9035328 9146216 
2884.264 9261823 9381786 9505646 9632874 9762786 9894608 10026962 10158480 
2888.122 10287505 10412731 10533310 10649110 10760486 10868222 10972886 
2891.497 11074819 11173642 11268610 11358797 11443472 11522530 11596540 
2894.872 11666629 11734183 11800542 11866492 11932335 11997971 12063023 
2898.247 12127399 12191480 12256243 12323235 12394328 12471393 12556060 
2901.623 12649350 12751718 12863046 12982865 13110603 13245818 13388421 
2904.998 13538650 13697107 13864590 14041920 14229958 14429398 14640686 
2908.373 14864232 15100290 15349017 15610600 15885241 16173430 16475949 
2911.748 16794118 17129744 17484928 17861744 18261590 18684626 19129262 
2915.124 19591742 20066286 20545342 21020112 21481478 21920598 22329616 
2918.499 22702050 23033094 23319610 23559876 23753340 23900356 24001870 
2921.874 24059426 24074972 24051212 23991670 23900544 23782610 23642672 
2925.249 23485268 23314008 23131434 22939078 22737824 22528428 22311978 
2928.625 22090224 21865556 21640762 21418474 21200722 20988720 20782670 
2932.000 20582150 20386222 20193852 20004206 19816780 19631482 19448640 
2935.375 19268842 19092766 18921014 18753818 18590880 18431344 18273822 
2938.750 18116778 17958804 17798976 17637010 17473338 17308732 17144228 
2942.125 16980742 16818952 16659321 16502070 16347277 16194750 16043907 
2945.501 15893951 15743652 15591909 15438032 15282083 15125145 14968979 
2948.876 14815514 14666200 14521490 14380664 14242113 14104033 13965122 
2952.251 13825263 13685277 13546836 13411480 13280103 13152519 13027419 
2955.626 12902890 12777168 12649101 12518433 12385754 12252233 12118975 
2959.002 11986816 11856052 11726414 11597148 11467264 11335715 11201359 
2962.377 11063423 10921738 10776831 10630106 10483662 10339925 10200954 
2965.752 10068116 9941489 9820080 9702098 9585556 9468701 9350544 9230956 
2969.610 9110356 8989590 8869447 8750547 8633271 8517641 8403425 8289936 
2973.467 8176355 8061582 7944714 7825215 7703341 7580342 7458216 7339353 
2977.324 7225798 7118697 7017923 6922059 6828952 6736299 6642363 6546316 
2981.182 6448547 6350031 6252171 6156201 6062859 5972311 5884372 5798617 
2985.039 5714784 5632744 5552643 5474794 5399702 5327734 5259309 5194629 
2988.897 5133629 5076036 5021242 4968471 4916930 4865845 4814836 4763791 
2992.754 4712892 4662502 4612979 4564630 4517486 4471556 4426767 4383202 
2996.612 4340971 4300282 4261223 4223691 4187206 4151027 4114211 4075968 
3000.469 4035909 3993963 3950778 3907347 3864910 3824472 3786717 3751615 
3004.326 3718568 3686401 3653607 3618845 3581019 3539437 3494263 3446101 
3008.184 3396215 3346096 3297391 3251613 3209976 3173173 3141212 3113479 
3012.041 3088604 3064758 3039948 3012182 2980092 2943015 2901535 2857083 
3015.899 2811980 2768877 2730185 2697502 2671368 2650987 2634561 2619795 
3019.756 2604445 2586989 2566948 2544749 2521548 2498537 2476564 2455679 
3023.614 2435291 2414471 2392658 2369801 2346848 2325413 2307240 2293574 
3027.471 2284835 2280248 2278191 2276747 2274168 2269362 2262206 2253177 
3031.328 2243197 2233143 2223647 2214825 2206531 2198143 2189190 2179080 
3035.186 2167599 2154938 2141773 2129373 2119444 2113604 2113285 2118950 
3039.043 2130030 2144881 2161345 2177346 2191510 2203681 2215027 2227402 
3042.901 2242910 2263051 2288588 2319433 2354835 2394110 2436985 2483405 
3046.758 2533611 2587444 2644098 2702050 2759138 2813070 2861990 2904974 
3050.615 2941980 2973756 3001371 3025700 3047039 3065076 3079093 3088165 
3054.473 3091770 3089875 3083224 3073151 3061324 3049391 3038679 3029943 
3058.330 3023143 3017649 3012484 3006695 2999702 2991680 2983573 2976906 
3062.188 2973494 2974875 2981882 2994248 3010658 3028727 3045744 3058911 
3066.045 3066118 3066330 3059762 3047692 3032281 3015785 3000263 2986975 
3069.903 2976232 2967629 2960480 2954119 2948517 2944099 2941668 2941890 
3073.760 2944829 2949800 2955356 2959944 2962190 2961602 2958669 2954609 
3077.617 2950902 2948684 2948291 2949233 2950655 2951429 2951025 2949171 
3081.475 2946011 2941586 2935501 2926867 2914367 2896978 2874324 2847104 
3085.332 2816937 2786005 2756345 2729406 2705480 2684004 2663788 2643609 
3089.190 2622572 2600321 2577065 2553367 2530062 2508028 2488254 2471651 
3093.047 2459177 2451293 2447969 2448455 2451228 2454492 2456745 2457190 
3096.905 2456371 2455802 2457847 2464617 2477424 2496209 2519397 2544458 
3100.762 2568454 2588984 2604514 2614634 2619736 2620489 2617310 2610219 
3104.619 2598785 2582398 2560682 2534064 2503701 2471342 2439139 2409041 
3108.477 2382378 2359695 2340731 2324467 2309637 2294971 2279453 2262549 
3112.334 2244267 2225039 2205703 2187139 2170177 2155371 2142848 2132430 
3116.192 2123604 2115867 2108735 2101948 2095538 2089775 2085009 2081500 
3120.049 2079428 2078815 2079703 2082031 2085777 2090794 2096750 2102938 
3123.906 2108319 2111735 2112156 2108937 2102321 2093283 2083264 2073990 
3127.764 2066756 2062107 2059804 2058953 2058228 2056661 2053524 2048711 
3131.621 2042433 2034952 2026448 2016793 2005829 1993430 1979984 1966199 
3135.479 1953128 1941729 1932467 1925175 1918902 1912450 1904635 1894983 
3139.336 1883916 1872487 1862164 1854158 1848978 1846118 1844459 1842484 
3143.194 1839040 1833654 1826692 1819085 1811972 1806019 1801384 1797530 
3147.051 1793622 1788921 1783023 1775951 1768053 1759551 1750444 1740489 
3150.908 1729463 1717548 1705597 1695209 1688214 1686018 1688846 1695495 
3154.766 1703459 1709774 1712046 1709438 1703018 1695493 1690202 1689814 
3158.623 1695327 1705399 1716948 1726010 1729062 1724118 1711250 1692482 
3162.481 1671028 1650408 1633615 1622567 1618135 1620281 1628211 1640719 
3166.338 1656268 1673077 1689170 1702752 1712576 1718152 1719966 1719239 
3170.196 1717618 1716305 1715821 1715465 1713576 1707951 1696705 1678836 
3174.053 1654801 1626580 1597410 1570918 1550532 1538571 1535771 1541359 
3177.910 1553209 1568505 1584307 1598176 1608576 1614736 1616794 1615492 
3181.768 1612047 1607897 1604780 1604383 1608051 1616524 1629473 1645513 
3185.625 1662319 1677293 1688116 1693706 1694261 1691288 1686903 1683030 
3189.483 1680728 1679784 1679096 1677092 1672562 1665151 1655383 1644307 
3193.340 1633175 1622726 1613163 1604336 1596000 1588240 1581443 1576111 
3197.198 1572663 1570972 1570533 1570534 1570439 1570236 1570462 1571782 
3201.055 1574625 1578552 1582278 1584168 1582840 1577968 1570626 1563218 
3204.912 1558492 1558737 1564665 1575321 1588185 1600107 1608444 1611664 
3208.770 1609895 1604479 1597481 1590911 1586243 1584103 1584460 1586893 
3212.627 1590824 1595747 1601253 1606965 1612432 1617264 1620902 1622826 
3216.485 1622649 1620035 1614853 1607255 1597788 1587305 1577089 1568414 
3220.342 1562445 1559787 1560582 1564151 1569535 1575579 1581344 1586215 
3224.199 1590061 1592935 1595119 1596925 1598634 1600538 1602972 1606143 
3228.057 1610159 1614857 1619720 1624151 1627295 1628490 1627293 1623539 
3231.914 1617336 1608857 1598610 1587395 1576374 1567084 1561324 1560430 
3235.772 1565031 1574600 1587274 1600484 1611486 1618411 1620812 1619707 
3239.629 1617212 1615716 1616988 1621562 1628757 1636975 1644403 1649724 
3243.487 1652460 1652923 1651929 1650336 1648623 1646833 1644607 1641423 
3247.344 1636812 1630448 1622361 1612694 1602012 1590925 1580423 1571422 
3251.201 1564673 1560384 1558208 1557230 1556251 1554203 1550706 1546270 
3255.059 1542225 1540185 1541602 1547110 1556274 1567799 1579764 1590315 
3258.916 1598107 1602592 1603998 1603164 1601249 1599267 1598061 1598111 
3262.774 1599331 1601295 1603216 1604186 1603427 1600622 1595967 1590195 
3266.631 1584377 1579368 1575507 1572411 1569118 1564487 1557785 1549153 
3270.489 1539884 1532005 1527815 1529136 1536584 1549394 1565522 1582094 
3274.346 1596292 1605723 1609098 1606261 1597990 1585852 1571637 1557287 
3278.203 1544461 1534487 1528244 1526162 1528298 1534137 1542989 1553811 
3282.061 1565429 1576699 1586565 1594334 1599662 1602736 1604171 1604858 
3285.918 1605798 1607652 1610862 1615372 1620798 1626601 1632361 1637881 
3289.776 1643093 1648109 1652851 1657240 1660815 1663155 1663961 1663245 
3293.633 1661413 1659371 1658189 1658829 1662010 1667899 1676066 1685617 
3297.490 1695238 1703845 1710498 1714940 1717525 1719248 1721270 1724598 
3301.348 1729610 1735953 1742419 1747448 1749542 1747969 1742739 1734936 
3305.205 1726090 1717729 1710940 1706023 1702602 1699989 1697486 1694728 
3309.063 1691636 1688343 1684994 1681400 1677360 1672676 1667636 1662938 
3312.920 1659760 1659346 1662576 1669605 1679537 1690806 1701500 1709642 
3316.778 1713905 1713531 1708486 1699523 1687921 1675460 1664288 1656529 
3320.635 1654087 1657945 1668038 1683001 1700442 1717501 1731635 1741171 
3324.492 1745615 1745579 1742363 1737341 1731759 1726511 1722209 1719479 
3328.350 1718970 1721451 1727281 1736241 1747380 1759183 1769951 1778454 
3332.207 1784221 1787766 1790384 1793539 1798351 1805166 1813506 1822071 
3336.065 1829375 1833871 1834528 1830728 1822526 1810536 1795878 1780164 
3339.922 1765354 1753309 1745586 1743036 1745338 1751318 1759002 1766252 
3343.780 1771116 1772527 1770304 1765196 1758427 1751375 1745253 1740622 
3347.637 1737461 1735196 1732898 1729532 1724334 1717192 1708565 1699566 
3351.494 1691677 1686225 1683883 1684496 1686941 1689578 1690788 1689513 
3355.352 1685785 1680393 1674785 1670312 1667739 1666797 1666597 1665778 
3359.209 1663169 1658218 1651115 1642658 1634020 1626122 1619733 1615189 
3363.067 1612570 1611787 1612750 1615258 1619007 1623647 1628808 1634196 
3366.924 1639935 1646319 1653822 1662840 1673329 1684714 1696069 1706298 
3370.781 1714643 1720765 1724877 1727340 1728423 1727958 1725377 1719935 
3374.639 1711345 1700163 1688006 1677238 1670349 1669150 1674176 1684163 
3378.496 1696734 1708664 1717053 1719904 1716648 1708189 1696600 1684340 
3382.354 1673937 1667204 1665106 1667418 1673009 1680030 1686384 1690278 
3386.211 1690677 1687831 1682963 1678128 1675415 1676289 1681037 1688637 
3390.069 1696966 1703799 1707599 1708024 1706231 1704484 1705193 1710007 
3393.926 1719158 1731099 1743215 1752593 1757191 1756529 1752121 1746948 
3397.783 1744667 1748458 1760044 1779305 1804310 1831870 1858655 1881902 
3401.641 1900228 1913663 1923448 1931510 1939587 1948844 1959510 1971094 
3405.498 1982625 1993291 2002736 2011406 2020229 2030576 2043652 2060168 
3409.356 2080013 2102455 2126168 2149949 2172696 2193973 2213974 2233329 
3413.213 2253070 2273945 2296552 2320869 2346369 2372272 2397473 2421017 
3417.071 2442223 2460710 2476694 2490703 2503530 2516212 2529844 2545336 
3420.928 2563371 2584321 2608117 2634266 2661997 2690214 2717752 2743429 
3424.785 2766298 2785592 2801030 2812553 2820515 2825542 2828335 2829624 
3428.643 2830034 2829957 2829579 2828830 2827686 2826115 2824299 2822587 
3432.500 2821616 2821942 2823811 2826944 2830518 2833108 2833123 2829089 
3436.358 2820250 2806651 2789187 2769248 2748366 2727679 2707719 2688430 
3440.215 2669602 2651026 2633039 2616360 2601989 2590561 2582057 2575512 
3444.073 2569337 2561686 2551374 2538111 2522721 2506782 2491850 2478716 
3447.930 2467147 2455808 2442724 2426246 2405700 2381667 2355935 2330885 
3451.787 2308771 2291045 2278065 2269126 2262797 2257455 2251601 2244071 
3455.645 2234053 2221243 2205677 2187935 2169004 2150535 2134342 2122074 
3459.502 2114953 2113179 2116078 2122071 2129171 2135226 2138363 2137136 
3463.360 2130590 2118386 2100813 2078989 2054859 2031074 2010533 1995798 
3467.217 1988393 1988343 1994197 2003581 2013761 2022825 2030086 2036114 
3471.074 2042307 2050006 2059619 2070368 2080151 2086309 2086540 2079629 
3474.932 2066016 2047568 2027285 2008271 1993176 1983635 1980011 1981663 
3478.789 1987298 1995282 2004297 2013269 2021834 2029934 2037908 2046002 
3482.647 2054367 2062770 2070778 2077770 2083243 2086949 2088913 2089295 
3486.504 2088354 2086031 2082196 2076544 2069074 2060185 2051060 2043104 
3490.362 2037901 2036319 2038429 2043119 2048550 2052797 2054418 2053106 
3494.219 2049635 2045481 2042277 2041139 2042371 2045436 2049405 2053611 
3498.076 2057900 2062907 2069631 2078943 2091104 2105432 2120424 2134268 
3501.934 2145611 2153921 2159998 2165570 2172745 2183267 2197656 2215115 
3505.791 2233547 2250241 2262743 2269623 2271045 2268620 2264932 2262706 
3509.649 2263996 2269678 2279305 2291344 2304060 2315953 2326339 2335285 
3513.506 2343455 2351485 2359671 2367576 2374372 2378792 2379922 2377337 
3517.364 2371307 2362719 2352933 2343417 2335604 2330738 2329814 2333378 
3521.221 2341635 2354313 2370682 2389724 2410410 2431852 2453611 2475521 
3525.078 2497452 2518869 2538621 2554708 2564742 2566495 2558763 2541985 
3528.936 2518535 2492254 2467896 2449798 2441123 2442882 2454131 2472138 
3532.793 2493293 2513980 2531367 2543867 2551323 2554576 2555259 2555095 
3536.651 2555610 2557936 2562611 2569683 2578796 2589354 2600513 2611210 
3540.508 2620490 2627578 2632125 2634382 2635229 2636054 2638240 2642803 
3544.365 2649925 2658673 2667460 2674218 2677224 2675687 2669677 2660221 
3548.223 2648778 2636663 2624629 2613179 2602432 2592796 2585048 2580278 
3552.080 2579372 2582534 2588739 2595891 2601320 2602571 2598277 2588591 
3555.938 2575284 2560873 2547958 2538154 2531908 2528500 2526709 2525146 
3559.795 2523078 2520351 2517143 2513754 2510244 2506410 2502046 2497034 
3563.653 2491588 2486094 2480645 2475064 2468413 2459527 2447182 2430753 
3567.510 2410563 2387754 2364114 2341539 2321434 2304616 2291372 2281572 
3571.367 2275180 2272089 2272215 2274912 2278992 2282519 2283200 2278917 
3575.225 2268214 2251006 2228121 2201557 2173607 2146328 2121390 2099513 
3579.082 2080915 2065174 2051726 2039959 2029607 2020732 2013838 2009865 
3582.940 2009955 2014820 2024498 2037885 2052756 2066177 2075280 2077979 
3586.797 2074080 2065060 2053835 2043848 2037931 2037482 2042250 2050659 
3590.655 2060638 2070440 2079159 2086928 2094350 2101930 2109513 2116097 
3594.512 2120147 2120335 2115958 2107547 2096623 2085333 2075721 2069294 
3598.369 2066612 2067421 2070827 2076024 2082346 2089431 2097293 2105859 
3602.227 2115225 2125200 2135819 2147071 2159211 2172505 2187075 2202644 
3606.084 2218461 2233350 2245614 2253662 2256243 2252664 2243042 2228082 
3609.942 2209480 2189055 2169041 2151534 2138380 2130767 2129231 2133411 
3613.799 2142228 2154229 2167824 2181776 2195357 2208529 2221730 2235433 
3617.656 2250200 2266065 2282837 2299858 2316619 2332483 2347088 2360333 
3621.514 2372232 2382744 2391908 2399576 2405490 2409431 2411203 2410511 
3625.371 2407234 2401321 2392882 2382366 2370470 2358072 2346415 2336331 
3629.229 2328623 2323673 2321393 2321458 2323487 2327251 2332604 2339559 
3633.086 2348202 2358264 2369271 2380184 2389511 2395307 2395759 2389214 
3636.944 2374889 2353318 2326559 2298232 2272739 2254497 2246882 2250862 
3640.801 2265085 2285567 2307146 2324644 2334395 2335059 2327650 2314799 
3644.658 2299790 2285035 2271883 2260235 2249480 2238968 2228834 2219813 
3648.516 2213278 2209978 2209964 2212157 2214792 2215992 2214456 2209645 
3652.373 2201900 2192018 2180783 2168798 2156664 2145018 2134794 2127145 
3656.231 2123080 2122771 2125457 2129299 2132123 2132219 2129134 2123885 
3660.088 2118708 2115927 2117041 2121709 2128100 2133188 2134306 2129863 
3663.946 2120449 2107920 2095217 2084603 2077273 2072574 2068613 2062902 
3667.803 2052993 2037456 2015897 1988796 1957679 1924567 1891933 1862594 
3671.660 1839345 1824425 1819077 1823205 1835079 1851870 1870527 1888329 
3675.518 1903710 1916420 1927052 1936220 1943824 1948865 1949614 1944404 
3679.375 1932690 1915520 1895743 1877111 1863462 1857375 1859519 1868354 
3683.233 1880810 1892999 1901201 1902623 1895867 1880966 1859293 1833218 
3687.090 1805818 1780393 1760129 1747250 1742845 1746347 1755796 1768165 
3690.948 1780168 1789156 1793595 1793372 1789486 1783694 1777689 1772439 
3694.805 1768215 1764484 1760319 1754903 1747963 1739820 1731341 1723504 
3698.662 1717189 1712866 1710686 1710488 1712259 1715953 1721767 1729852 
3702.520 1739786 1750654 1760843 1768293 1771278 1768816 1761226 1750197 
3706.377 1738272 1728330 1722670 1722112 1726012 1732285 1738175 1741023 
3710.235 1739111 1731981 1720697 1707038 1693562 1682346 1675144 1672825 
3714.092 1675567 1683022 1694385 1708662 1724600 1740792 1755895 1768537 
3717.949 1777808 1783158 1784685 1782886 1778519 1772406 1765107 1756599 
3721.807 1746667 1734739 1720664 1704767 1688394 1673751 1663706 1660954 
3725.664 1667479 1683537 1707573 1736175 1765051 1789756 1806850 1814518 
3729.522 1812866 1803515 1788814 1771273 1753042 1735571 1719847 1706696 
3733.379 1696954 1691448 1690878 1695448 1704609 1717112 1731359 1745647 
3737.237 1758702 1769658 1778175 1783739 1785773 1783535 1776336 1764049 
3741.094 1747700 1729494 1712575 1700366 1695598 1699563 1711678 1729652 
3744.951 1750367 1770688 1788407 1802555 1813256 1821336 1827686 1833008 
3748.809 1837703 1842035 1846418 1851456 1857803 1865911 1875531 1885531 
3752.666 1894125 1899187 1898852 1892376 1880085 1863690 1845769 1829229 
3756.524 1816765 1810466 1811340 1819303 1833073 1850463 1868540 1884291 
3760.381 1895032 1899107 1896312 1887830 1876194 1864366 1855008 1849709 
3764.239 1848634 1850587 1853952 1856941 1858756 1859411 1859712 1860354 
3768.096 1861653 1862825 1862508 1859272 1852524 1843071 1833173 1825839 
3771.953 1823861 1828606 1839509 1853892 1867938 1877777 1880788 1876271 
3775.811 1865514 1851315 1836859 1824831 1816559 1812070 1810238 1809355 
3779.668 1807800 1804447 1798839 1791064 1781654 1771469 1761333 1752132 
3783.526 1744690 1739629 1737417 1738197 1742056 1749149 1759439 1773055 
3787.383 1789809 1809246 1830392 1851595 1870940 1886406 1896351 1900111 
3791.240 1897838 1890683 1880350 1868591 1856944 1846605 1838081 1831488 
3795.098 1826800 1823688 1821821 1820692 1819829 1818661 1817098 1815178 
3798.955 1813563 1813094 1814699 1818888 1825714 1834415 1843754 1852218 
3802.813 1858696 1862551 1863960 1863597 1862456 1861341 1860595 1859861 
3806.670 1858349 1855026 1849150 1840619 1830109 1819227 1810014 1804423 
3810.528 1803848 1808467 1817173 1827798 1837518 1843818 1845099 1841205 
3814.385 1833477 1824341 1816456 1811957 1811521 1814588 1819267 1823256 
3818.242 1824715 1822681 1817474 1810334 1802834 1796344 1791617 1788580 
3822.100 1786757 1785741 1785570 1787024 1791206 1799272 1811797 1828235 
3825.957 1847088 1866025 1882636 1895083 1902416 1904785 1903228 1899054 
3829.815 1893492 1887454 1881132 1874539 1867547 1860078 1852338 1844622 
3833.672 1837340 1830739 1825035 1820216 1816333 1813388 1811367 1810130 
3837.530 1809547 1809338 1809411 1809882 1811228 1814195 1819530 1827606 
3841.387 1838104 1849854 1861001 1869437 1873444 1872018 1865349 1854582 
3845.244 1841650 1828432 1816822 1808173 1803400 1803072 1807409 1815976 
3849.102 1827806 1840840 1852395 1859192 1858522 1848729 1830212 1805512 
3852.959 1778836 1755279 1739344 1733859 1739289 1753821 1774129 1796355 
3856.817 1817285 1834761 1848146 1857967 1865167 1870856 1875719 1879666 
3860.674 1882255 1882761 1880862 1876632 1870771 1864352 1858411 1853737 
3864.531 1850447 1848257 1846713 1845416 1844687 1845202 1848140 1854305 
3868.389 1863892 1875881 1888158 1898002 1902816 1901121 1892887 1879671 
3872.246 1864285 1849974 1839721 1835669 1838895 1849429 1866587 1888672 
3876.104 1913649 1938896 1961540 1978877 1988821 1990629 1985180 1974711 
3879.961 1962510 1951750 1944591 1941762 1942264 1944015 1944907 1943300 
3883.819 1938790 1932106 1924443 1917222 1911339 1906902 1903752 1901396 
3887.676 1899704 1898703 1898755 1899838 1901781 1903646 1904494 1903192 
3891.533 1899268 1892997 1885315 1877527 1871160 1867387 1867044 1870524 
3895.391 1877985 1889143 1903528 1920398 1938529 1956509 1972875 1986318 
3899.248 1996172 2002367 2005465 2006171 2005216 2002886 1999000 1993072 
3903.106 1984866 1974551 1963044 1951849 1942876 1937528 1936706 1940022 
3906.963 1946324 1953858 1960858 1966052 1968875 1969249 1967526 1963745 
3910.821 1957787 1949102 1937281 1922313 1905244 1887819 1872371 1860906 
3914.678 1854513 1852945 1854734 1857677 1859704 1859867 1858390 1856558 
3918.535 1856078 1858092 1862705 1868804 1874602 1878470 1879660 1878565 
3922.393 1876851 1876398 1878785 1884483 1892932 1902684 1912177 1920212 
3926.250 1926196 1930223 1932525 1933289 1932526 1929999 1925694 1920057 
3930.108 1914025 1908874 1905683 1905035 1906862 1910535 1915131 1919807 
3933.965 1923984 1927278 1929399 1929847 1928197 1924134 1918078 1911096 
3937.823 1904985 1901589 1901968 1906094 1912399 1918428 1921779 1921063 
3941.680 1916544 1910029 1904279 1901698 1903463 1908982 1916668 1924265 
3945.537 1930463 1935273 1940033 1946896 1957544 1972245 1989663 2006994 
3949.395 2020982 2029068 2030203 2025007 2015571 2004557 1994243 1986034 
3953.252 1980128 1975838 1971944 1967307 1961092 1952873 1942851 1931381 
3957.110 1919247 1907402 1896920 1888957 1884558 1884377 1888532 1896590 
3960.967 1907569 1920183 1933174 1945491 1956577 1966484 1975690 1984832 
3964.824 1994628 2005145 2016116 2026373 2034213 2037626 2034960 2025257 
3968.682 2008847 1987579 1964446 1942947 1926327 1916822 1914979 1919749 
3972.539 1928766 1939250 1948886 1956339 1961611 1965645 1969694 1974490 
3976.397 1979979 1985058 1988071 1987552 1982886 1974739 1965017 1956040 
3980.254 1949996 1947991 1949881 1954186 1958907 1962146 1962918 1961153 
3984.112 1957719 1953711 1950061 1947079 1944576 1942260 1940251 1939283 
3987.969 1940667 1945953 1956039 1970806 1988761 2007297 2023552 2034875 
3991.826 2039938 2038659 2032253 2022646 2011966 2002062 1994377 1989825 
3995.684 1988953 1991939 1998448 2007638 2017970 2027567 2034594 2037856 
3999.541 2037230 2034043 2030533 
##END=
