##TITLE=Bambu-Lab_PLA_White_Filament_r2_ATR-Corrcted
##JCAMP-DX=5.01  $$ Nicolet v. 1
##DATATYPE=INFRARED SPECTRUM
##ORIGIN=Curtin University
##OWNER=Nicolet
##LONGDATE=2024/07/03
##TIME=09:28:06
##SPECTROMETER/DATA SYSTEM=Nicolet iS50
##DATA PROCESSING=
Ratio against background
%Transmittance->Absorbance
ATR Correction
Truncated
ElementMultiply or ElementDivide
##COMMENTS=
Number of sample scans: 32
Collection length: 47.27 sec
Sample gain: 1.0
Background collected on: Wed Jul 03 09:25:53 2024 (GMT+08:00);
Number of background scans: 32
Background gain: 1.0
Sample spacing:  1.000
Number of scan points: 16672
Resolution points: 8192
Number of FFT points: 65536
Apodization: N-B strong;
Phase correction: Mertz;
Laser frequency: 15798.3 cm-1
Number of rejected sample scans: 0
Number of rejected background scans: 0
Bench serial number: AUP1200105;
##RESOLUTION=4.000
##XUNITS=1/CM
##YUNITS=ABSORBANCE
##FIRSTX=400.163452
##LASTX=4000.187744
##FIRSTY=0.062342
##MAXX=4000.187744
##MINX=400.163452
##MAXY=1.024547
##MINY=-0.033204
##XFACTOR=1.000000
##YFACTOR=1.000000E-008
##NPOINTS=7468
##DELTAX=0.482125
##ZPD=8192
##XYDATA=(X++(Y..Y))
400.163 6234181 6140049 6031243 5909637 5778710 5644607 5514135 5393669 
404.020 5288414 5202241 5137428 5094887 5073414 5069230 5075401 5082097 
407.877 5077506 5050078 4990947 4896426 4769051 4617468 4454292 4293529 
411.734 4147640 4025525 3931523 3865371 3823130 3798348 3783595 3771904 
415.591 3757931 3738820 3714173 3685622 3655615 3626089 3597340 3567807 
419.448 3534480 3494413 3446135 3390730 3331788 3274401 3223334 3181452 
423.305 3148824 3123091 3100823 3079270 3057766 3038039 3023347 3016872 
427.162 3019890 3030820 3045244 3057134 3060563 3051545 3029115 2995529 
431.019 2955532 2915045 2879608 2852823 2835973 2827272 2822584 2816771 
434.876 2805244 2785753 2759190 2729598 2702901 2684929 2679412 2686607 
438.733 2703257 2723844 2742712 2756151 2763536 2767049 2770089 2775290 
442.590 2782952 2790869 2795322 2792930 2782329 2764830 2743633 2722104 
446.447 2701916 2682154 2659733 2631207 2594904 2552368 2508360 2469349 
450.304 2441108 2426630 2425140 2432880 2444874 2457125 2467960 2478139 
454.161 2489639 2504101 2521532 2540122 2557082 2570032 2578081 2582087 
458.017 2583875 2584900 2585213 2583207 2576419 2563016 2543062 2519027 
461.874 2495080 2475596 2463358 2458236 2458157 2459380 2458573 2454295 
465.731 2447421 2440644 2436924 2438119 2443971 2452157 2459086 2461196 
469.588 2455910 2442293 2420854 2393096 2360956 2326420 2291396 2257782 
473.445 2227342 2201537 2181049 2165563 2153758 2143743 2133796 2123188 
477.302 2112502 2103590 2098757 2099914 2107694 2121092 2137682 2154336 
481.159 2167995 2176492 2178783 2175034 2166244 2153961 2139895 2125842 
485.016 2113461 2104203 2099081 2098473 2101962 2108382 2116008 2122948 
488.873 2127538 2128654 2125916 2119678 2110936 2101133 2091939 2084981 
492.730 2081535 2082257 2086878 2094090 2102267 2109401 2113859 2114878 
496.587 2112680 2108332 2103235 2098588 2095009 2092487 2090634 2089117 
500.444 2088054 2088109 2090223 2095220 2103306 2113908 2125724 2137168 
504.301 2146818 2153762 2157635 2158485 2156432 2151529 2143790 2133376 
508.158 2120948 2107736 2095414 2085691 2079821 2078205 2080385 2085312 
512.015 2091833 2099126 2106825 2114827 2122858 2130067 2134897 2135449 
515.871 2130064 2118126 2100456 2079373 2058070 2039791 2026919 2020408 
519.728 2019706 2023145 2028567 2033980 2037932 2039634 2038815 2035524 
523.585 2029979 2022630 2014140 2005395 1997711 1992199 1989520 1989607 
527.442 1991575 1993901 1994825 1992832 1987026 1977364 1964553 1949849 
531.299 1934725 1920548 1908334 1898656 1891523 1886365 1882113 1877351 
535.156 1870573 1860597 1846923 1830092 1811733 1794340 1780760 1773492 
539.013 1773962 1782108 1796232 1813381 1830042 1842990 1850118 1850955 
542.870 1846700 1839837 1833343 1829883 1831052 1837044 1846765 1858345 
546.727 1869862 1879923 1888091 1894807 1901021 1907724 1915441 1924160 
550.584 1933361 1942483 1951158 1959451 1967703 1976183 1984749 1992638 
554.441 1998636 2001517 2000646 1996338 1990191 1984538 1981700 1983306 
558.298 1989685 1999796 2011609 2022854 2031755 2037559 2040597 2041958 
562.155 2042949 2044529 2047025 2050091 2052963 2054812 2054995 2053193 
566.012 2049444 2044010 2037334 2030078 2023140 2017736 2015245 2016992 
569.869 2023880 2036099 2052914 2072732 2093446 2112816 2128981 2140736 
573.725 2147691 2150187 2149126 2145736 2141396 2137483 2135242 2135655 
577.582 2139331 2146372 2156363 2168424 2181428 2194208 2205815 2215636 
581.439 2223462 2229340 2233495 2236220 2237852 2238755 2239449 2240557 
585.296 2242758 2246696 2252751 2261057 2271392 2283276 2296075 2309082 
589.153 2321523 2332594 2341427 2347193 2349241 2347365 2341984 2334265 
593.010 2325943 2319019 2315372 2316341 2322501 2333677 2349091 2367579 
596.867 2387821 2408440 2428024 2445150 2458499 2467082 2470557 2469436 
600.724 2465111 2459567 2454888 2452731 2453868 2458199 2464979 2473368 
604.581 2482821 2493366 2505390 2519207 2534576 2550413 2565023 2576605 
608.438 2584061 2587602 2588925 2590794 2596179 2607263 2624701 2647457 
612.295 2673179 2699111 2723012 2743885 2762134 2779297 2797361 2818014 
616.152 2842114 2869465 2898911 2928735 2957081 2982323 3003387 3019934 
620.009 3032359 3041791 3049854 3058379 3069004 3082797 3099978 3119896 
623.866 3141316 3162755 3183017 3201514 3218356 3234229 3250040 3266527 
627.723 3284010 3302320 3320925 3339131 3356348 3372226 3386663 3399768 
631.579 3411780 3422997 3433793 3444587 3455887 3468177 3481857 3497079 
635.436 3513677 3531125 3548656 3565411 3580639 3593890 3605149 3614834 
639.293 3623711 3632768 3642932 3654881 3668875 3684733 3701921 3719688 
643.150 3737391 3754630 3771330 3787693 3804026 3820548 3837309 3854241 
647.007 3871230 3888367 3905957 3924510 3944486 3966090 3989064 4012689 
650.864 4036032 4058216 4078726 4097527 4114929 4131358 4147072 4162024 
654.721 4176003 4188903 4200996 4213093 4226389 4242078 4260865 4282710 
658.578 4306816 4331980 4357139 4381815 4406289 4431321 4457671 4485538 
662.435 4514268 4542524 4568761 4591886 4611752 4629194 4645654 4662479 
666.292 4680245 4698471 4715763 4730413 4741198 4747958 4751820 4754852 
670.149 4759427 4767456 4779873 4796487 4816181 4837427 4858775 4879188 
674.006 4898181 4915718 4932008 4947283 4961747 4975509 4988731 5001680 
677.863 5014764 5028527 5043493 5060082 5078359 5098021 5118400 5138563 
681.720 5157537 5174625 5189608 5202868 5215317 5228111 5242335 5258613 
685.577 5276967 5296803 5317178 5337105 5355848 5373076 5388801 5403260 
689.433 5416686 5429259 5441157 5452652 5464313 5477012 5491882 5510057 
693.290 5532506 5559872 5592386 5629949 5672185 5718387 5767425 5817589 
697.147 5866598 5911734 5950283 5980100 6000075 6010473 6012722 6009014 
701.004 6001564 5991991 5980991 5968344 5953308 5935153 5913615 5889163 
704.861 5862901 5836301 5810819 5787556 5767025 5749093 5733083 5717901 
708.718 5702233 5684833 5664730 5641466 5615175 5586534 5556540 5526152 
712.575 5495915 5465815 5435246 5403324 5369264 5332673 5293649 5252605 
716.432 5209862 5165219 5117713 5065679 5007159 4940459 4864717 4780240 
720.289 4688493 4591813 4492893 4394326 4298269 4206296 4119464 4038464 
724.146 3963796 3895925 3835310 3782500 3738090 3702744 3677079 3661643 
728.003 3656745 3662424 3678402 3704207 3739349 3783525 3836784 3899590 
731.860 3972629 4056596 4151802 4257861 4373537 4496769 4624817 4754664 
735.717 4883332 5008294 5127666 5240351 5345979 5444806 5537482 5624858 
739.574 5707818 5787246 5863895 5938542 6011992 6085004 6158237 6232092 
743.431 6306561 6381216 6455288 6527947 6598565 6667046 6733922 6800279 
747.287 6867545 6937148 7010261 7087591 7169439 7255681 7345854 7439115 
751.144 7534070 7628714 7720335 7805707 7881496 7944716 7993222 8025891 
755.001 8042627 8043971 8030594 8002882 7960691 7903436 7830433 7741374 
758.858 7636670 7517735 7386864 7247039 7101539 6953536 6805774 6660378 
762.715 6518727 6381461 6248570 6119527 5993480 5869489 5746720 5624627 
766.572 5503076 5382368 5263216 5146643 5033874 4926106 4824332 4729112 
770.429 4640419 4557594 4479423 4404386 4331030 4258159 4185086 4111587 
774.286 4037702 3963505 3888892 3813584 3737326 3660237 3583118 3507537 
778.143 3435601 3369408 3310283 3258238 3211653 3167613 3122566 3073324 
782.000 3017910 2956097 2889336 2820250 2751814 2686451 2625546 2569249 
785.857 2516758 2466863 2418421 2370743 2323709 2277593 2232856 2189870 
789.714 2148836 2109820 2072871 2038130 2005846 1976300 1949641 1925713 
793.571 1903995 1883696 1863937 1843938 1823275 1801908 1780118 1758370 
797.428 1737143 1716837 1697749 1680141 1664423 1651103 1640817 1634093 
801.285 1631137 1631581 1634412 1638076 1640870 1641325 1638620 1632900 
805.141 1625289 1617608 1611933 1610004 1612766 1620144 1631069 1643764 
808.998 1656193 1666499 1673328 1676005 1674486 1669302 1661351 1651747 
812.855 1641707 1632383 1624783 1619534 1616828 1616345 1617349 1618868 
816.712 1620000 1620242 1619584 1618547 1617997 1618813 1621602 1626546 
820.569 1633354 1641512 1650455 1659811 1669459 1679465 1689850 1700441 
824.426 1710724 1719908 1727135 1731756 1733568 1732981 1730966 1728880 
828.283 1728191 1730125 1735418 1744163 1755815 1769315 1783427 1797069 
832.140 1809652 1821320 1832915 1845803 1861522 1881277 1905612 1934288 
835.997 1966451 2000991 2036978 2074061 2112548 2153294 2197341 2245536 
839.854 2298267 2355413 2416486 2480875 2548083 2617790 2689738 2763544 
843.711 2838494 2913439 2986860 3056993 3122080 3180465 3230706 3271591 
847.568 3302284 3322514 3332874 3335103 3332222 3328420 3328551 3337532 
851.425 3359677 3398195 3454992 3530832 3625666 3739040 3870397 4019148 
855.282 4184647 4365983 4561836 4770392 4989394 5216203 5447909 5681427 
859.139 5913562 6141162 6361300 6571572 6770321 6956689 7130552 7292177 
862.995 7441735 7579088 7703580 7814301 7910393 7991545 8058213 8111500 
866.852 8152842 8183471 8203982 8214124 8212955 8199159 8171542 8129242 
870.709 8071891 7999434 7911848 7809010 7690570 7556121 7405465 7238915 
874.566 7057447 6862830 6657451 6444203 6226180 6006476 5788005 5573304 
878.423 5364436 5163042 4970349 4787284 4614681 4453290 4303903 4167203 
882.280 4043688 3933562 3836625 3752432 3680361 3619924 3570931 3533542 
886.137 3508161 3495276 3495001 3506897 3529705 3561392 3599323 3640487 
889.994 3682026 3721393 3756787 3787196 3812446 3833093 3850259 3865299 
893.851 3879562 3894143 3909631 3926059 3942952 3959427 3974504 3987263 
897.708 3997114 4003940 4008158 4010715 4013029 4016853 4024081 4036571 
901.565 4055864 4082940 4118050 4160655 4209536 4263080 4319710 4378273 
905.422 4438293 4499982 4563961 4630737 4700092 4770685 4839863 4903970 
909.279 4958991 5001321 5028529 5039789 5035945 5019016 4991597 4956091 
913.136 4914203 4866777 4813966 4755701 4692158 4624188 4553368 4481812 
916.993 4411774 4345150 4283136 4225994 4173144 4123428 4075445 4027975 
920.849 3980252 3932155 3884189 3837347 3792859 3751900 3715348 3683585 
924.706 3656530 3633673 3614280 3597570 3582934 3569955 3558403 3548228 
928.563 3539399 3531915 3525731 3520754 3516861 3513925 3511769 3510209 
932.420 3509073 3508306 3507944 3508220 3509552 3512403 3517266 3524452 
936.277 3534139 3546263 3560629 3576974 3595000 3614394 3634889 3656232 
940.134 3678303 3701240 3725522 3752024 3781847 3816080 3855436 3899946 
943.991 3948913 4001030 4054800 4109103 4163530 4218664 4275909 4337112 
947.848 4404060 4478049 4559715 4649033 4745533 4848543 4957378 5071335 
951.705 5189633 5311239 5434900 5559156 5682532 5803756 5921910 6036450 
955.562 6147174 6254124 6357480 6457552 6554837 6650027 6744049 6837950 
959.419 6932722 7029120 7127515 7227819 7329463 7431432 7532249 7629993 
963.276 7722240 7806118 7878524 7936320 7976747 7997710 7997948 7977019 
967.133 7935184 7873133 7791857 7692616 7576968 7446940 7305000 7154011 
970.990 6997023 6836972 6676469 6517699 6362454 6212295 6068627 5932823 
974.847 5806105 5689484 5583675 5489029 5405612 5333254 5271652 5220337 
978.703 5178574 5145350 5119369 5099217 5083686 5072060 5064354 5061223 
982.560 5063793 5073100 5089698 5113311 5142863 5176704 5213116 5250758 
986.417 5289007 5328024 5368566 5411665 5458191 5508658 5563030 5620778 
990.274 5680960 5742364 5803686 5863623 5921018 5974949 6024774 6070149 
994.131 6110968 6147315 6179305 6207131 6231051 6251572 6269610 6286560 
997.988 6304271 6324845 6350274 6382105 6421168 6467449 6520284 6578585 
1001.845 6641271 6707585 6777283 6850660 6928415 7011482 7100854 7197433 
1005.702 7302095 7415661 7539008 7673061 7818735 7976836 8147926 8332249 
1009.559 8529774 8740229 8963347 9198950 9447076 9707974 9981959 10269271 
1013.416 10569941 10883722 11210184 11548899 11899614 12262398 12637565 
1016.791 13025530 13426365 13839522 14263566 14696170 15134245 15574402 
1020.166 16013376 16448334 16877076 17298036 17710198 18112980 18506154 
1023.540 18889922 19264934 19632384 19994014 20351932 20708578 21066476 
1026.916 21428304 21796914 22175392 22567186 22976062 23405932 23860546 
1030.291 24343138 24856072 25400588 25976766 26583538 27218914 27880170 
1033.666 28564116 29267278 29985922 30716032 31453186 32192316 32927626 
1037.041 33652456 34359412 35040724 35688704 36296316 36857540 37367708 
1040.417 37823392 38222348 38563188 38845204 39068252 39232848 39339976 
1043.792 39391144 39388204 39333172 39228248 39075960 38879484 38642968 
1047.167 38371812 38072512 37752308 37418596 37078160 36736752 36398656 
1050.542 36066772 35742736 35427164 35119928 34820460 34527920 34241508 
1053.917 33960740 33685772 33417510 33157780 32909236 32675358 32460312 
1057.293 32268838 32106302 31978648 31892180 31853532 31869310 31946052 
1060.668 32090088 32307690 32605142 32988796 33464888 34039048 34715524 
1064.043 35496364 36380808 37365044 38442604 39605132 40843532 42149072 
1067.418 43514168 44932716 46399844 47911520 49463792 51052344 52672048 
1070.794 54316776 55979400 57651884 59325552 60991580 62641568 64268280 
1074.169 65866112 67431136 68960640 70452096 71902032 73305144 74654032 
1077.544 75939320 77150840 78278424 79312736 80245752 81070504 81781104 
1080.919 82372320 82839808 83180272 83391384 83472064 83422208 83242736 
1084.295 82935648 82504616 81955344 81295960 80536992 79690704 78770368 
1087.670 77789232 76759912 75694080 74602296 73494104 72377760 71259984 
1091.045 70145768 69037944 67937616 66844372 65757232 64675252 63598072 
1094.420 62526160 61460632 60402996 59354772 58317244 57291280 56277216 
1097.796 55274872 54283516 53302024 52329040 51363368 50404304 49452092 
1101.171 48507820 47573404 46651104 45743100 44850992 43975772 43117952 
1104.546 42277960 41456692 40655856 39878140 39127008 38406456 37720568 
1107.921 37072996 36466856 35904584 35387984 34918280 34496320 34122532 
1111.297 33796928 33519128 33288172 33102462 32959834 32857596 32792700 
1114.672 32762042 32762646 32792034 32848388 32930678 33038700 33173070 
1118.047 33335018 33526158 33748300 34003000 34291328 34613480 34968440 
1121.422 35353740 35765320 36197508 36643144 37093764 37539904 37971364 
1124.798 38377524 38747752 39071788 39340348 39545748 39682524 39747832 
1128.173 39741612 39666164 39525568 39324728 39068524 38761136 38405864 
1131.548 38005064 37560420 37073092 36543988 35973756 35362736 34711156 
1134.923 34019220 33287490 32517218 31710636 30871018 30002592 29110294 
1138.299 28199484 27275696 26344526 25411612 24482702 23563654 22660358 
1141.674 21778624 20923824 20100812 19313590 18565186 17857734 17192454 
1145.049 16569981 15990347 15453245 14958046 14503895 14089690 13714126 
1148.424 13375728 13072900 12803955 12567192 12360809 12182953 12031702 
1151.800 11904982 11800675 11716641 11650886 11601695 11567776 11548355 
1155.175 11543232 11552653 11577213 11617640 11674628 11748691 11840145 
1158.550 11949165 12075877 12220536 12383612 12565887 12768397 12992458 
1161.925 13239589 13511531 13810338 14138541 14499207 14896083 15333596 
1165.301 15816765 16351025 16942136 17596060 18318986 19117398 19998158 
1168.676 20968504 22035952 23208060 24492010 25894222 27419872 29072600 
1172.051 30854198 32764188 34799308 36952940 39214036 41566072 43986128 
1175.426 46444268 48903636 51321264 53649892 55840380 57844616 59618388 
1178.802 61124128 62332900 63226248 63797264 64050960 64003884 63682508 
1182.177 63120616 62356060 61427324 60370876 59219372 58001112 56740172 
1185.552 55457056 54169248 52891528 51636164 50412816 49228664 48088680 
1188.927 46995988 45952468 44959048 44016048 43123324 42280320 41486220 
1192.302 40740008 40040636 39387056 38778128 38212504 37688344 37203384 
1195.678 36755008 36340556 35957800 35605232 35282160 34988440 34723980 
1199.053 34488224 34279844 34096580 33935636 33794084 33669236 33558976 
1202.428 33461634 33375614 33299134 33229808 33164820 33101060 33035380 
1205.803 32965046 32887808 32801860 32705692 32597756 32476392 32339718 
1209.179 32185838 32012870 31819188 31603602 31365330 31104210 30820670 
1212.554 30515710 30190886 29848030 29489038 29115584 28728930 28329972 
1215.929 27919396 27498018 27067032 26628304 26184336 25738004 25292278 
1219.304 24849786 24412538 23981664 23557588 23140084 22728630 22322816 
1222.680 21922488 21528028 21140236 20760216 20389112 20027816 19676858 
1226.055 19336368 19006280 18686474 18377094 18078520 17791324 17515960 
1229.430 17252586 17000822 16759904 16528836 16306786 16093372 15888759 
1232.805 15693483 15508147 15333013 15167779 15011449 14862731 14720251 
1236.181 14583009 14450572 14323129 14201236 14085498 13976337 13873747 
1239.556 13777329 13686414 13600221 13518041 13439347 13363853 13291432 
1242.931 13222218 13156471 13094573 13036966 12984014 12936009 12893052 
1246.306 12855110 12822138 12794088 12771019 12753087 12740365 12732820 
1249.682 12730172 12731984 12737775 12747306 12760703 12778524 12801628 
1253.057 12830961 12867190 12910540 12960739 13017185 13079150 13146055 
1256.432 13217594 13293645 13374053 13458462 13546087 13635746 13726014 
1259.807 13815492 13903025 13987836 14069498 14147770 14222500 14293380 
1263.183 14360012 14421856 14478301 14528702 14572336 14608338 14635704 
1266.558 14653271 14659815 14654255 14635755 14603890 14558642 14500260 
1269.933 14429119 14345637 14250040 14142434 14022774 13890913 13746653 
1273.308 13589837 13420305 13238047 13043247 12836424 12618528 12390974 
1276.684 12155472 11913886 11667912 11418813 11167331 10913675 10657854 
1280.059 10399920 10140434 9880596 9622242 9367719 9119482 8879740 8650292 
1283.916 8432415 8226978 8034565 7855698 7690897 7540646 7405425 7285635 
1287.774 7181573 7093607 7022132 6967574 6930350 6910575 6907893 6921344 
1291.631 6949339 6989851 7040660 7099649 7164940 7234913 7308103 7382996 
1295.489 7457970 7531310 7601312 7666705 7726627 7780809 7829457 7872924 
1299.346 7911581 7945619 7975121 8000171 8021126 8038715 8053919 8067871 
1303.203 8081445 8095055 8108509 8121059 8131687 8139410 8143478 8143592 
1307.061 8139873 8132791 8123018 8111354 8098655 8085691 8073079 8061246 
1310.918 8050230 8039720 8029163 8017973 8005737 7992521 7978761 7965279 
1314.776 7952977 7942441 7933839 7926831 7920720 7914703 7908185 7900956 
1318.633 7893148 7885165 7877475 7870397 7864137 7858690 7854026 7850167 
1322.490 7847158 7845179 7844314 7844738 7846618 7850285 7856258 7865244 
1326.348 7878065 7895402 7917657 7944897 7976791 8012937 8053009 8097050 
1330.205 8145404 8198622 8257082 8320778 8389099 8460922 8534982 8610261 
1334.063 8686381 8763706 8843311 8926521 9014554 9108040 9206963 9310644 
1337.920 9418079 9528237 9640359 9754150 9869710 9987538 10108346 10232980 
1341.778 10362408 10497663 10639771 10789666 10947940 11114805 11289909 
1345.153 11472457 11661401 11855659 12054366 12257048 12463513 12673791 
1348.528 12887867 13105507 13326095 13548699 13772070 13994798 14215411 
1351.903 14432365 14644025 14848650 15044311 15229066 15401006 15558454 
1355.279 15700179 15825410 15933877 16025689 16101256 16161181 16206294 
1358.654 16237593 16256317 16263844 16261654 16251142 16233543 16209783 
1362.029 16180679 16146867 16108984 16067611 16023166 15975694 15924618 
1365.404 15868548 15805350 15732257 15646170 15544060 15423293 15282039 
1368.780 15119484 14936206 14734314 14517692 14292182 14065510 13847123 
1372.155 13647783 13479008 13352367 13278556 13266464 13322273 13448575 
1375.530 13643809 13902122 14213642 14565228 14941625 15326726 15704876 
1378.905 16061908 16385800 16666920 16897846 17072944 17188150 17240670 
1382.281 17229010 17153060 17014062 16814662 16558646 16250698 15896240 
1385.656 15501328 15072516 14616734 14140946 13651739 13154878 12654886 
1389.031 12155048 11657523 11163704 10674675 10191417 9715120 9247237 
1392.406 8789527 8344146 7913641 7500884 7108936 6740698 6398450 6083579 
1396.264 5796318 5535866 5300635 5088645 4897914 4726608 4573128 4436059 
1400.121 4313988 4205475 4109081 4023383 3947083 3879010 3818015 3763002 
1403.979 3712771 3666152 3622077 3579890 3539363 3500933 3465398 3433884 
1407.836 3407381 3386587 3371700 3362340 3357658 3356437 3357293 3358954 
1411.693 3360334 3360849 3360488 3359864 3360076 3362489 3368334 3378348 
1415.551 3392518 3410047 3429581 3449506 3468475 3485672 3500993 3514944 
1419.408 3528333 3542032 3556744 3572975 3591130 3611710 3635448 3663316 
1423.266 3696349 3735428 3781103 3833413 3892060 3956524 4026370 4101358 
1427.123 4181531 4267108 4358343 4455434 4558378 4667132 4781558 4901569 
1430.980 5027114 5158075 5294343 5435835 5582690 5735563 5895862 6065849 
1434.838 6248548 6447443 6666083 6907622 7174685 7469411 7793648 8149236 
1438.695 8538143 8962394 9423577 9922437 10458317 11028954 11630427 12257405 
1442.553 12903415 13561231 14222977 14880449 15525404 16149801 16746292 
1445.928 17308496 17831272 18310778 18744456 19130918 19469816 19761736 
1449.303 20007882 20209798 20369108 20487180 20565210 20604148 20604878 
1452.678 20568252 20494950 20385236 20238728 20054354 19830538 19565772 
1456.054 19259254 18911366 18523916 18099838 17642820 17156840 16645849 
1459.429 16113928 15565369 15004738 14436767 13865907 13295969 12729785 
1462.804 12169397 11616366 11072323 10539330 10020044 9517415 9034294 
1466.179 8572964 8134917 7720916 7331102 6965338 6623354 6304719 6008767 
1470.037 5734464 5480315 5244427 5024689 4819007 4625517 4442825 4270157 
1473.894 4107247 3954424 3812272 3681433 3562315 3454912 3358644 3272458 
1477.752 3195039 3124993 3061207 3002892 2949568 2900984 2856934 2817121 
1481.609 2781157 2748542 2718715 2691147 2665264 2640481 2616168 2591823 
1485.467 2567159 2542283 2517677 2494152 2472508 2453290 2436621 2422070 
1489.324 2408957 2396509 2384276 2372053 2359982 2348090 2336203 2323766 
1493.181 2309965 2294092 2275859 2255660 2234589 2214151 2195860 2180767 
1497.039 2169227 2160912 2155031 2150597 2146787 2143026 2139011 2134705 
1500.896 2130160 2125602 2121293 2117531 2114513 2112227 2110311 2108100 
1504.754 2104734 2099526 2092256 2083362 2073929 2065351 2058857 2055132 
1508.611 2054005 2054635 2055766 2056129 2054869 2051579 2046400 2039673 
1512.469 2031846 2023260 2014173 2004813 1995447 1986403 1978000 1970406 
1516.326 1963496 1956913 1950151 1942778 1934568 1925684 1916574 1907821 
1520.183 1899971 1893267 1887628 1882613 1877565 1871849 1864987 1856865 
1524.041 1847731 1838193 1829009 1820952 1814481 1809669 1806071 1802871 
1527.898 1799092 1793998 1787252 1779046 1770079 1761161 1753118 1746429 
1531.756 1741196 1737283 1734426 1732469 1731340 1731049 1731489 1732299 
1535.613 1732922 1732682 1731058 1727864 1723330 1718061 1712757 1708016 
1539.470 1704072 1700863 1698166 1695743 1693582 1691848 1690794 1690573 
1543.328 1691133 1692081 1692840 1692881 1691723 1689242 1685450 1680500 
1547.185 1674617 1668016 1660927 1653629 1646506 1639916 1634164 1629319 
1551.043 1625282 1621864 1618897 1616471 1614907 1614697 1616226 1619481 
1554.900 1623978 1628705 1632479 1634353 1633866 1631285 1627549 1623933 
1558.758 1621706 1621758 1624388 1629311 1635779 1642903 1649730 1655511 
1562.615 1659730 1662089 1662655 1661670 1659574 1656865 1653884 1650800 
1566.472 1647516 1643817 1639603 1634983 1630434 1626623 1624231 1623633 
1570.330 1624739 1626954 1629427 1631393 1632406 1632533 1632275 1632247 
1574.187 1632934 1634471 1636628 1638915 1640920 1642465 1643706 1645011 
1578.045 1646767 1649205 1652259 1655701 1659205 1662581 1665820 1669136 
1581.902 1672824 1677111 1682072 1687573 1693266 1698726 1703473 1707120 
1585.760 1709449 1710475 1710510 1710221 1710455 1712112 1715838 1721810 
1589.617 1729585 1738224 1746572 1753655 1759086 1763153 1766718 1770816 
1593.474 1776281 1783213 1791087 1798776 1805103 1809263 1811146 1811405 
1597.332 1811273 1812048 1814807 1819971 1827346 1836148 1845363 1854034 
1601.189 1861535 1867639 1872689 1877278 1882209 1888163 1895464 1903994 
1605.047 1913169 1922077 1929814 1935768 1939868 1942636 1945043 1948124 
1608.904 1952683 1958982 1966722 1975197 1983651 1991561 1998850 2005753 
1612.761 2012720 2020094 2027896 2035869 2043549 2050540 2056636 2061954 
1616.619 2066784 2071456 2076147 2080858 2085383 2089580 2093348 2096808 
1620.476 2100219 2103871 2107951 2112543 2117613 2123108 2129060 2135543 
1624.334 2142657 2150347 2158313 2166041 2172879 2178247 2181890 2184016 
1628.191 2185275 2186685 2189342 2194278 2202243 2213568 2228241 2245833 
1632.049 2265711 2287008 2308832 2330417 2351209 2370927 2389625 2407407 
1635.906 2424306 2440097 2454103 2465372 2472919 2476019 2474482 2468726 
1639.763 2459671 2448419 2435895 2422573 2408436 2393111 2376233 2357734 
1643.621 2338081 2318174 2299218 2282371 2268467 2257862 2250472 2245894 
1647.478 2243572 2242961 2243477 2244584 2245731 2246342 2245989 2244421 
1651.336 2241729 2238329 2234927 2232303 2231123 2231796 2234505 2239098 
1655.193 2245358 2252974 2261665 2270996 2280520 2289676 2297908 2304800 
1659.051 2310158 2314208 2317425 2320518 2324147 2328767 2334465 2340917 
1662.908 2347629 2354009 2359647 2364456 2368743 2373055 2378122 2384585 
1666.765 2392775 2402706 2413986 2425902 2437638 2448444 2457815 2465601 
1670.623 2472022 2477502 2482664 2488030 2494052 2501030 2509132 2518467 
1674.480 2529049 2540850 2553643 2567118 2580781 2594131 2606811 2618750 
1678.338 2630243 2641927 2654583 2668893 2685172 2703254 2722541 2742179 
1682.195 2761398 2779794 2797479 2815079 2833510 2853726 2876345 2901527 
1686.052 2928988 2958086 2988106 3018447 3048775 3078998 3109290 3139904 
1689.910 3171107 3203071 3235851 3269331 3303395 3337880 3372735 3408123 
1693.767 3444424 3482256 3522373 3565598 3612559 3663585 3718688 3777508 
1697.625 3839528 3904303 3971551 4041167 4113368 4188432 4266764 4348676 
1701.482 4434355 4523985 4617728 4715872 4818806 4927091 5041412 5162438 
1705.340 5290783 5426945 5571207 5723636 5884186 6052781 6229461 6414468 
1709.197 6608319 6811725 7025408 7249952 7485509 7731820 7988169 8253843 
1713.054 8528285 8811537 9104379 9408189 9724633 10055147 10400570 10760790 
1716.912 11134881 11521266 11918388 12325089 12741084 13167012 13604242 
1720.287 14054571 14519703 15001054 15499546 16015732 16550203 17103784 
1723.662 17678008 18275070 18897732 19549004 20231610 20947934 21699640 
1727.038 22488104 23314500 24180080 25086326 26034910 27027444 28065514 
1730.413 29150786 30285444 31472630 32716792 34023492 35398768 36848108 
1733.788 38375460 39982848 41670804 43439708 45291112 47229028 49259692 
1737.163 51390492 53627908 55975164 58430660 60987492 63634168 66356052 
1740.539 69136328 71956568 74796104 77630952 80433240 83171920 85814544 
1743.914 88329800 90689624 92870400 94852848 96621344 98163584 99470696 
1747.289 100537976 101365176 101956080 102316928 102454744 102376248 
1750.182 102087864 101597224 100914240 100052120 99026032 97851256 96540872 
1753.557 95104304 93547544 91874928 90091352 88204120 86223856 84163752 
1756.933 82038496 79862752 77650296 75414056 73166456 70919824 68686736 
1760.308 66479628 64310336 62189268 60125100 58124472 56191964 54330272 
1763.683 52540684 50823300 49177580 47602652 46097748 44662100 43294936 
1767.058 41995008 40760060 39586608 38469872 37404144 36383424 35402040 
1770.434 34455232 33539334 32651630 31790050 30952636 30137224 29341266 
1773.809 28561586 27794698 27036950 26284832 25535210 24785744 24034924 
1777.184 23282152 22527646 21772100 21016556 20262116 19509964 18761532 
1780.559 18018676 17283824 16559842 15849888 15156923 14483456 13831364 
1783.935 13201913 12595972 12014344 11457913 10927760 10424965 9950439 
1787.310 9504554 9087072 8697066 8333067 7993294 7675995 7379584 7102892 
1791.167 6845009 6605192 6382575 6176049 5984189 5805392 5638054 5480863 
1795.025 5332986 5194080 5064052 4942955 4830530 4726206 4629041 4538015 
1798.882 4452260 4371310 4295133 4223996 4158109 4097477 4041588 3989554 
1802.740 3940229 3892530 3845608 3799015 3752663 3706768 3661733 3618086 
1806.597 3576370 3537066 3500384 3466205 3433763 3401825 3368888 3333595 
1810.454 3295258 3254119 3211336 3168523 3127129 3087834 3050230 3013031 
1814.312 2974656 2934195 2892025 2849998 2811134 2778647 2754791 2740168 
1818.169 2733312 2731230 2730238 2726980 2719214 2705963 2687358 2664158 
1822.027 2637409 2608127 2577436 2546511 2516542 2488614 2463233 2440223 
1825.884 2418530 2396581 2372763 2345940 2315719 2282601 2247479 2211358 
1829.741 2174897 2138284 2101471 2064524 2027986 1993020 1961145 1933889 
1833.599 1912086 1895573 1882975 1872078 1860200 1845067 1825247 1800634 
1837.456 1772362 1742567 1713750 1688115 1667092 1650886 1638547 1628356 
1841.314 1618249 1606487 1591981 1574580 1554827 1533810 1512794 1493025 
1845.171 1475609 1461626 1451998 1447331 1447584 1451864 1458192 1464004 
1849.029 1466670 1464450 1456954 1445541 1432594 1420654 1411351 1404617 
1852.886 1398660 1390752 1378335 1360189 1337065 1311404 1286563 1265671 
1856.743 1250578 1241598 1237670 1237135 1238487 1240717 1243291 1245916 
1860.601 1247836 1248097 1245495 1239371 1229992 1218804 1208277 1200955 
1864.458 1198852 1202661 1211535 1223446 1235603 1245205 1249969 1248444 
1868.316 1240016 1225148 1205258 1182823 1161112 1143670 1133623 1132852 
1872.173 1141240 1156706 1175469 1193226 1206085 1211678 1209373 1200205 
1876.031 1186139 1169475 1152296 1136385 1123265 1114372 1110966 1113802 
1879.888 1122542 1135515 1149740 1161643 1167974 1166818 1158233 1144045 
1883.745 1127168 1110501 1096026 1084349 1074814 1066243 1057689 1048984 
1887.603 1040682 1033732 1028838 1026039 1024698 1023830 1022677 1021111 
1891.460 1019760 1019658 1021752 1026255 1032576 1039372 1045115 1048484 
1895.318 1048586 1044953 1037220 1024897 1007383 984371 956424 925602 895394 
1899.657 870320 854630 851195 860429 880049 905620 931792 953712 968029 
1903.997 973330 969790 958439 940629 917385 889871 859486 828362 799290 
1908.336 775070 757783 747990 744750 745807 748882 752650 757282 764461 
1912.676 776263 794030 817208 843248 868142 888387 902096 910313 916654 
1917.016 926120 942936 968686 1001166 1034757 1061678 1074542 1068334 
1920.873 1041693 997064 939692 875894 811464 750388 694808 645232 601949 
1925.213 565794 538601 522975 521301 534463 560877 596081 633371 665221 
1929.552 685308 689721 678312 654182 622748 590182 561906 541720 531476 
1933.892 531447 540971 558605 582238 608905 634612 654732 664845 661807 
1938.231 645125 616874 581347 543573 508131 477679 453320 434846 422686 
1942.571 418172 423646 441434 472175 513598 560348 605206 641404 664348 
1946.911 672842 668527 654273 632462 604409 570454 532127 493857 463247 
1951.250 449568 460342 497195 553805 616542 668330 694766 689296 656343 
1955.590 609563 567014 544192 548307 575738 613385 644365 653844 634989 
1959.929 590570 531668 472713 427125 403291 404154 428074 470220 524027 
1964.269 581446 632937 668351 678736 658667 608997 538123 459768 390467 
1968.609 343419 325622 335450 363478 395609 417136 416122 386356 327532 
1972.948 246198 154833 70786 14360 5431 58530 177625 352549 560306 769216 
1977.770 948532 1077646 1152342 1183267 1190126 1191241 1197573 1209007 
1981.627 1217712 1212786 1187276 1141479 1084382 1029391 990005 974047 
1985.485 981090 1002881 1027825 1044471 1045971 1031146 1004005 970409 
1989.342 935643 902693 872018 843011 815632 790412 769169 752491 739371 
1993.682 725953 706356 674717 627533 565389 493888 422484 362280 323119 
1998.021 310892 326059 363056 411161 457004 486916 489454 458215 393119 
2002.361 301041 195048 91898 9288 -37876 -41119 -219 76257 172236 268928 
2007.183 348839 401873 427273 434017 436877 452361 491915 559185 646968 
2011.522 739714 816977 859505 855265 804058 718006 618770 531458 476931 
2015.862 465495 493201 543081 590537 610892 587567 517323 412450 295882 
2020.202 195531 134639 126006 167158 242834 328836 400355 437812 432363 
2024.541 387435 316554 239269 175500 140525 142119 179005 242451 319328 
2028.881 395680 459933 506229 534872 552716 570458 599637 649092 722286 
2033.220 815433 918274 1015767 1092410 1134862 1135124 1091814 1010037 
2037.078 899675 773959 646661 531880 441225 383964 365579 387438 446468 
2041.417 535806 645657 764541 880455 982040 1059650 1106400 1119312 1101042 
2045.757 1060218 1011781 974104 965358 997490 1071597 1175082 1283550 
2049.615 1367620 1401884 1372644 1281952 1146517 992598 849219 741168 683130 
2053.954 677564 714762 777482 846538 906479 948811 972433 981551 982402 
2058.294 980770 980345 982527 987131 993167 999350 1004446 1007776 1009159 
2062.633 1009201 1009734 1013386 1022573 1038630 1060215 1083782 1103984 
2066.491 1115984 1117562 1110520 1100242 1093957 1097452 1112708 1136008 
2070.348 1159534 1173490 1170300 1147189 1108028 1061667 1019448 991595 
2074.206 984336 998402 1029674 1070588 1112528 1147538 1169895 1176213 
2078.063 1165898 1140876 1105320 1065061 1026685 995924 976457 968569 969455 
2082.403 973878 976490 973457 964436 952117 941616 937917 943979 959425 
2086.742 980395 1000889 1014669 1016834 1005250 980044 943094 896742 843372 
2091.082 785272 725401 668125 619779 587698 578626 596314 639609 701554 
2095.421 770761 833948 880241 903890 906259 894766 880383 873761 881785 
2099.761 905544 940752 979126 1011769 1031619 1035364 1023448 999213 966829 
2104.101 930379 892807 856628 824564 800408 788532 793007 815582 854611 
2108.440 904158 955583 999053 1027025 1035773 1026362 1003510 973736 942488 
2112.780 912841 884746 856427 825906 793183 760245 731486 711245 702368 
2117.119 704260 712693 720465 720006 705255 674405 630133 579478 531458 
2121.459 494690 474709 472491 483989 501986 517781 523816 515474 491618 
2125.799 453904 405383 348455 284459 213244 134508 49143 -39616 -126632 
2130.138 -205839 -272592 -325045 -365049 -396754 -424651 -450850 -474099 
2133.996 -490011 -494307 -486032 -470100 -456954 -459114 -486119 -539695 
2137.853 -611901 -687092 -747194 -778182 -775412 -745069 -701715 -662906 
2141.710 -643580 -651985 -688705 -749365 -826783 -914583 -1006354 -1095336 
2145.568 -1171899 -1224535 -1241486 -1216436 -1151836 -1061492 -967664 
2148.943 -895691 -865980 -888501 -960896 -1072446 -1209783 -1364483 -1535989 
2152.801 -1731055 -1957108 -2216503 -2499631 -2783870 -3037245 -3225748 
2156.176 -3320447 -3304512 -3174210 -2939300 -2617237 -2232443 -1812431 
2159.551 -1387664 -989661 -649700 -392833 -234974 -177161 -205815 -293536 
2163.408 -404428 -501047 -554206 -548960 -489757 -397218 -303732 -242224 
2167.266 -238060 -301128 -424311 -586056 -757884 -912107 -1030066 -1105570 
2171.123 -1144676 -1159735 -1163461 -1162205 -1153964 -1128692 -1075326 
2174.499 -986977 -866801 -728594 -593900 -484201 -415676 -392853 -409510 
2178.356 -450668 -498476 -535606 -550007 -535505 -491967 -424297 -341454 
2182.213 -254925 -177034 -118386 -85970 -80776 -98192 -128180 -159884 
2186.071 -184118 -196247 -196203 -187979 -175409 -161174 -143998 -121182 
2189.928 -90015 -51063 -8449 29613 55208 62430 51510 27763 1112 -18129 
2194.750 -21928 -7287 24184 67112 115121 162876 207633 248837 288595 329570 
2199.572 374730 426132 484545 548623 614438 676065 726251 757826 765925 
2203.911 749098 710315 655267 591735 526335 463905 405857 352046 301214 
2208.251 253607 210712 176066 153289 145519 153532 175706 208036 245423 
2212.591 282761 316304 344257 367893 390462 417181 452850 500864 561051 
2216.930 629116 697022 755369 795937 815162 815265 804836 795546 799146 
2221.270 823388 870032 934031 1005787 1073821 1128766 1164485 1179450 
2225.127 1174832 1153637 1118342 1071288 1014110 949749 882103 817364 762391 
2229.467 723842 705919 710002 733270 770072 812495 852358 882489 898690 
2233.806 899228 885578 860748 829057 793919 758211 723554 691679 664548 
2238.146 645826 639574 650197 679878 728138 790332 859020 925139 980877 
2242.486 1020889 1043692 1050716 1045238 1030581 1009352 983211 953661 
2246.343 922433 892448 866688 847521 835335 828188 822255 813818 800424 
2250.683 782786 764384 750399 745747 753443 773225 802558 837244 873660 
2255.022 909329 943585 976372 1007741 1036496 1060773 1078122 1087151 
2258.880 1087913 1082522 1074138 1066796 1063813 1067706 1079767 1100696 
2262.737 1130419 1168252 1212706 1261135 1309692 1353789 1388711 1411046 
2266.594 1418965 1413087 1395745 1370733 1341770 1312560 1285539 1262522 
2270.452 1244048 1230126 1220313 1214026 1210724 1210577 1214265 1223416 
2274.309 1239630 1264395 1297791 1338474 1383457 1428770 1470310 1504804 
2278.167 1530331 1546797 1555278 1557816 1556833 1554937 1554498 1557998 
2282.024 1567344 1583796 1607368 1636854 1669678 1702657 1732525 1757057 
2285.882 1775129 1787065 1793991 1797472 1798831 1799040 1798678 1798284 
2289.739 1798169 1798679 1799861 1801276 1801802 1800008 1794323 1783832 
2293.596 1768294 1748459 1725696 1701613 1677681 1655090 1634730 1617475 
2297.454 1604200 1595863 1593103 1595875 1603185 1613200 1623516 1632038 
2301.311 1637534 1640009 1640640 1641247 1643398 1647839 1654176 1660981 
2305.169 1666462 1669125 1668479 1665106 1660457 1656373 1654255 1654818 
2309.026 1657871 1662628 1668274 1674343 1681209 1689761 1701129 1716096 
2312.884 1734485 1754999 1775557 1793864 1808198 1818026 1824327 1829215 
2316.741 1835146 1844098 1856934 1873383 1892472 1913601 1937108 1964785 
2320.598 1999037 2041577 2091848 2145748 2195530 2231154 2242533 2222295 
2324.456 2167929 2082432 1973841 1853391 1733255 1624156 1533472 1464404 
2328.313 1416037 1384442 1364467 1351207 1341245 1333033 1326453 1322023 
2332.171 1320081 1320315 1321708 1322929 1322865 1321101 1317870 1314058 
2336.028 1310456 1307621 1305287 1302630 1298521 1292009 1282905 1271843 
2339.885 1260142 1249521 1241401 1236600 1235024 1235875 1237945 1240172 
2343.743 1241866 1242868 1243407 1243867 1244556 1245347 1245878 1245701 
2347.600 1244453 1242078 1238805 1235049 1231229 1227589 1224246 1221218 
2351.458 1218528 1216404 1215084 1214828 1215606 1216920 1217974 1217671 
2355.315 1215291 1210548 1203931 1196569 1189742 1184390 1180815 1178210 
2359.173 1175027 1169495 1160085 1146060 1127619 1105748 1081667 1056617 
2363.030 1031206 1005689 980096 954713 930394 908718 891546 880688 877260 
2367.370 881308 891695 906529 923532 940609 956086 969059 978985 985815 
2371.709 989689 991089 990917 990515 991558 995579 1003591 1015524 1030221 
2376.049 1045539 1059075 1068831 1073831 1074359 1071766 1067795 1064060 
2379.906 1061376 1059679 1058363 1056545 1053737 1050059 1046061 1042524 
2383.764 1040022 1038653 1038065 1037540 1036568 1034965 1033074 1031717 
2387.621 1031885 1034459 1039976 1048381 1059278 1071788 1084865 1097324 
2391.479 1108092 1116318 1121615 1124061 1124408 1123848 1123802 1125568 
2395.336 1129823 1136614 1145103 1154013 1162043 1168134 1171896 1173594 
2399.193 1173975 1173809 1173683 1173493 1172715 1170640 1166674 1160968 
2403.051 1154471 1148921 1146365 1148488 1156098 1168628 1184300 1200610 
2406.908 1215089 1225969 1232704 1235777 1236420 1235779 1234459 1232460 
2410.766 1229239 1224466 1218332 1211751 1206212 1202837 1202058 1203100 
2414.623 1204198 1203354 1199206 1191754 1182444 1173464 1167040 1164106 
2418.480 1164119 1165170 1164948 1161840 1155853 1148639 1142922 1141309 
2422.338 1145130 1153741 1164897 1175304 1182020 1183343 1179418 1171769 
2426.195 1162809 1154684 1148694 1144954 1142603 1140203 1136394 1130306 
2430.053 1121847 1111685 1101129 1091783 1085356 1083071 1085452 1092021 
2433.910 1101559 1112235 1122353 1130877 1137790 1144086 1151388 1161062 
2437.768 1173819 1189009 1204909 1219134 1229360 1233962 1232439 1225474 
2441.625 1214611 1201724 1188694 1176970 1167404 1160266 1155353 1152067 
2445.482 1149780 1147713 1145563 1143380 1141736 1141576 1143727 1148726 
2449.340 1156491 1166263 1176760 1186492 1194076 1198360 1198736 1194879 
2453.197 1187009 1175562 1161464 1145858 1130035 1115021 1101426 1089135 
2457.055 1077654 1066269 1054947 1044419 1036372 1032864 1035486 1044736 
2460.912 1059589 1077688 1096175 1112629 1125751 1135465 1142387 1147017 
2464.770 1149149 1147656 1141126 1128813 1111476 1091674 1073074 1059375 
2468.627 1052982 1054088 1060905 1070411 1079913 1087964 1094976 1102504 
2472.484 1112271 1124939 1139520 1153411 1163622 1167529 1164357 1155048 
2476.342 1142146 1128643 1117185 1109273 1105026 1103523 1103165 1102160 
2480.199 1099136 1093181 1084300 1073391 1062329 1053614 1049789 1052685 
2484.057 1062771 1078641 1097738 1116579 1132310 1143319 1149770 1153458 
2487.914 1156723 1161730 1169691 1180531 1193196 1206049 1217491 1226133 
2491.771 1230846 1230717 1225291 1214752 1200382 1184698 1171173 1163519 
2495.629 1164522 1174970 1193378 1216070 1238508 1256472 1267384 1271013 
2499.486 1269205 1265084 1262034 1262571 1267820 1277332 1289466 1301790 
2503.344 1311636 1316582 1315097 1306707 1292393 1274362 1255646 1239103 
2507.201 1226672 1218774 1214210 1210821 1206658 1200685 1193559 1187211 
2511.059 1183983 1185565 1191884 1201312 1210920 1217856 1220195 1217716 
2514.916 1211698 1203993 1196554 1190285 1185379 1181382 1177915 1175037 
2518.773 1173356 1173470 1175636 1179245 1183059 1185557 1185682 1183408 
2522.631 1179765 1176577 1175728 1178489 1184987 1194162 1204059 1212141 
2526.488 1215945 1213408 1203327 1185615 1161710 1134439 1108088 1087380 
2530.346 1076801 1079284 1095498 1123389 1158844 1196529 1231457 1259930 
2534.203 1280198 1292567 1298592 1300462 1300336 1299681 1299401 1299793 
2538.061 1300550 1300976 1300176 1297077 1290929 1281594 1269905 1257566 
2541.918 1246944 1240332 1239408 1244637 1255366 1269886 1286231 1302575 
2545.775 1317571 1330431 1340743 1348122 1352333 1353204 1350887 1346048 
2549.633 1339795 1333396 1327968 1324225 1322345 1322064 1323101 1325174 
2553.490 1328113 1331661 1335262 1337947 1338551 1336206 1330801 1323370 
2557.348 1315980 1311023 1310395 1314769 1323073 1332901 1341317 1346061 
2561.205 1346262 1342796 1337997 1334579 1334891 1339835 1348935 1360697 
2565.063 1373127 1384564 1394121 1401392 1406272 1408320 1406654 1399990 
2568.920 1387282 1368529 1345412 1321274 1300907 1289137 1289646 1303570 
2572.777 1329138 1361608 1394773 1422388 1440012 1446064 1442142 1432133 
2576.635 1420875 1412347 1408598 1409337 1412490 1415351 1415944 1413871 
2580.492 1410482 1408217 1409554 1415855 1426986 1441190 1456000 1469160 
2584.350 1479515 1487289 1493990 1501474 1511429 1524411 1539746 1555767 
2588.207 1570404 1581664 1588328 1590111 1587666 1582294 1575702 1569543 
2592.064 1565220 1563560 1564887 1568707 1574237 1580100 1585102 1588335 
2595.922 1589433 1588795 1587309 1586199 1586476 1588578 1592208 1596347 
2599.779 1599613 1600732 1599062 1594830 1589330 1584352 1581804 1582875 
2603.637 1587717 1595204 1603315 1609828 1613015 1612368 1608795 1604370 
2607.494 1601723 1603184 1610178 1622540 1638935 1656969 1674030 1687895 
2611.352 1697112 1701352 1701270 1698377 1694568 1692060 1692653 1697573 
2615.209 1707113 1720325 1735322 1749498 1760256 1765724 1765353 1760163 
2619.066 1752397 1744911 1740243 1739805 1743687 1750526 1758338 1765218 
2622.924 1770026 1772752 1774500 1776901 1781432 1788890 1798931 1810188 
2626.781 1820689 1828259 1831204 1828806 1821451 1810571 1798326 1787218 
2630.639 1779472 1776761 1779770 1788281 1801163 1816764 1833082 1848378 
2634.496 1861270 1870954 1877288 1880721 1882095 1882395 1882704 1883741 
2638.354 1885916 1888971 1892357 1895112 1896365 1895458 1892414 1887910 
2642.211 1883227 1879814 1879018 1881640 1887557 1895812 1904782 1912562 
2646.068 1917502 1918546 1915508 1909024 1900488 1891601 1883996 1878896 
2649.926 1876828 1877598 1880350 1883916 1887072 1888799 1888607 1886520 
2653.783 1882903 1878400 1873529 1868657 1863783 1858630 1852715 1845554 
2657.641 1836817 1826243 1813850 1799950 1784919 1769276 1753495 1737836 
2661.498 1722352 1706739 1690514 1673122 1654392 1634701 1615158 1597456 
2665.355 1583554 1575057 1572745 1576129 1583500 1592334 1599730 1603408 
2669.213 1602084 1595790 1585665 1573690 1561891 1551982 1544923 1540921 
2673.070 1539530 1539897 1541010 1542015 1542302 1541601 1540163 1538418 
2676.928 1537042 1536681 1537740 1540166 1543555 1547062 1549815 1550985 
2680.785 1550219 1547500 1543259 1538079 1532556 1526994 1521494 1515857 
2684.643 1509822 1503190 1495889 1488026 1479973 1472187 1465255 1459837 
2688.500 1456599 1456067 1458502 1463754 1471211 1479880 1488571 1496218 
2692.357 1502061 1505918 1507959 1508835 1509204 1509565 1510125 1510802 
2696.215 1511316 1511261 1510236 1508098 1504863 1500848 1496679 1493232 
2700.072 1491469 1492243 1495953 1502367 1510542 1518875 1525714 1529671 
2703.930 1530143 1527520 1523044 1518267 1514542 1512578 1512129 1512299 
2707.787 1511932 1510229 1506943 1502557 1498005 1494170 1491643 1490380 
2711.645 1490081 1490291 1490766 1491732 1493709 1497143 1502191 1508381 
2715.502 1514717 1520000 1523123 1523521 1521302 1517075 1511788 1506208 
2719.359 1500917 1496155 1491957 1488378 1485638 1484084 1484018 1485605 
2723.217 1488673 1492693 1496988 1500892 1504129 1506673 1508906 1511323 
2727.074 1514382 1518192 1522680 1527464 1532112 1536313 1539929 1543225 
2730.932 1546587 1550491 1555469 1561697 1569165 1577481 1585975 1593866 
2734.789 1600456 1605165 1607828 1608580 1607779 1605893 1603307 1600233 
2738.646 1596690 1592638 1587988 1582821 1577386 1572077 1567264 1563287 
2742.504 1560266 1558192 1556947 1556529 1556785 1557694 1559018 1560416 
2746.361 1561253 1560817 1558444 1553746 1546796 1538266 1529254 1521226 
2750.219 1515623 1513554 1515712 1522035 1531906 1544092 1557031 1569071 
2754.076 1578822 1585221 1587875 1586877 1582759 1576299 1568199 1559087 
2757.934 1549344 1539404 1529692 1521015 1514307 1510636 1510798 1515055 
2761.791 1522881 1532889 1543244 1551934 1557307 1558608 1556031 1550845 
2765.648 1544944 1540414 1538992 1541563 1547906 1556760 1566008 1573438 
2769.506 1577226 1576571 1571954 1565065 1558249 1553962 1553813 1558169 
2773.363 1566054 1575461 1584033 1589972 1592494 1592043 1590027 1588299 
2777.221 1588453 1591219 1596383 1602947 1609496 1614741 1617831 1618662 
2781.078 1617766 1616141 1614992 1615366 1618056 1623244 1630508 1638814 
2784.936 1646795 1652975 1656320 1656495 1654095 1650533 1647551 1646722 
2788.793 1648926 1654036 1661228 1669182 1676829 1683636 1689864 1696253 
2792.650 1703659 1712381 1722111 1731874 1740475 1746863 1750717 1752503 
2796.508 1753210 1754067 1756128 1759920 1765519 1772589 1780724 1789551 
2800.365 1798945 1808730 1818697 1828499 1837740 1846098 1853460 1860032 
2804.223 1866324 1872873 1880000 1887705 1895631 1903249 1909952 1915562 
2808.080 1920229 1924511 1929209 1935167 1943019 1953136 1965500 1979895 
2811.938 1995774 2012598 2029799 2046885 2063581 2079706 2095346 2110651 
2815.795 2125725 2140664 2155429 2169983 2184495 2199479 2215830 2234672 
2819.652 2257072 2283643 2314114 2347328 2381410 2414102 2443569 2468654 
2823.510 2489514 2507194 2523727 2541318 2562157 2587732 2619001 2656109 
2827.367 2698630 2745674 2796002 2848304 2901298 2954025 3006024 3057341 
2831.225 3108522 3160339 3213476 3268166 3324383 3381601 3439394 3497717 
2835.082 3557159 3618905 3684505 3755337 3832147 3914765 4002147 4092867 
2838.939 4185571 4279563 4375237 4473699 4576688 4685849 4802347 4926635 
2842.797 5058567 5197846 5344449 5499048 5662908 5837573 6024233 6222826 
2846.654 6431411 6645959 6860438 7067417 7259015 7427703 7567205 7672835 
2850.512 7741736 7772834 7766402 7724111 7648851 7544611 7416361 7269992 
2854.369 7111683 6947430 6782523 6620896 6465110 6316253 6174578 6039671 
2858.227 5911142 5788718 5672325 5561978 5457585 5358786 5265176 5176342 
2862.084 5092244 5013122 4939789 4873233 4814554 4764529 4723578 4691659 
2865.941 4668510 4653511 4646120 4645677 4651657 4663419 4680417 4702111 
2869.799 4728190 4758502 4793002 4831686 4874637 4921458 4971620 5024335 
2873.656 5078685 5133613 5188224 5241506 5292581 5340530 5384642 5424463 
2877.514 5460126 5492343 5522305 5551308 5580424 5609948 5639276 5667032 
2881.371 5691487 5711286 5725877 5735853 5742773 5748696 5755540 5764537 
2885.229 5776071 5789732 5804832 5820918 5837984 5856662 5877934 5902748 
2889.086 5931590 5964360 6000335 6038601 6078260 6118917 6160687 6204247 
2892.943 6250594 6300593 6354932 6413571 6475982 6541059 6607213 6672916 
2896.801 6736748 6798010 6856724 6913730 6970525 7028835 7090251 7155701 
2900.658 7225347 7298579 7374239 7451185 7528392 7605313 7681878 7758376 
2904.516 7835265 7913124 7992624 8074633 8160272 8250942 8347972 8452595 
2908.373 8565444 8686519 8815303 8951005 9093183 9241842 9397848 9562762 
2912.230 9738570 9927098 10129724 10346930 10578063 10821418 11074241 
2915.606 11332857 11592755 11848915 12095910 12328298 12541156 12730251 
2918.981 12892400 13025635 13129087 13202907 13247955 13265862 13258800 
2922.356 13229594 13181452 13117991 13042817 12959146 12869519 12775630 
2925.731 12678346 12577926 12474530 12368511 12260756 12152749 12046368 
2929.107 11943500 11845904 11754781 11670829 11594263 11525133 11463322 
2932.482 11408833 11361701 11321963 11289492 11264049 11245506 11233897 
2935.857 11229675 11233645 11246882 11270412 11304793 11349799 11404287 
2939.232 11466327 11533348 11602569 11671092 11736099 11794738 11844008 
2942.608 11881069 11903094 11908008 11894501 11862469 11812690 11746538 
2945.983 11665375 11570133 11461037 11337855 11200511 11049555 10886839 
2949.358 10715324 10538787 10361242 10185867 10014834 9848964 9688096 
2952.733 9531588 9378875 9229661 9084169 8942722 8805667 8673126 8544952 
2956.591 8420946 8300867 8184519 8071892 7962709 7856565 7752871 7650976 
2960.448 7550464 7451267 7353788 7258668 7166648 7078153 6993224 6911631 
2964.306 6833057 6757466 6685136 6616713 6553072 6494621 6441252 6392187 
2968.163 6345987 6301163 6256442 6211269 6166026 6121754 6080237 6043303 
2972.021 6012773 5989947 5975453 5969261 5970612 5978164 5990149 6004895 
2975.878 6020783 6036957 6053097 6069584 6087329 6107482 6131308 6159948 
2979.735 6194527 6236139 6285718 6344357 6412869 6491846 6581553 6681838 
2983.593 6792471 6913201 7043999 7185141 7336798 7499089 7671572 7853136 
2987.450 8041993 8235927 8432367 8628899 8823029 9012330 9194219 9365854 
2991.308 9524188 9666307 9789725 9892941 9975633 10038592 10083360 10111739 
2995.165 10125005 10123887 10108127 10077050 10029808 9966175 9886583 
2998.540 9792503 9686068 9569751 9445839 9316198 9182104 9044257 8902938 
3002.398 8758366 8610659 8460134 8307190 8152398 7996367 7839882 7683675 
3006.255 7528535 7375155 7223942 7074835 6927408 6780962 6634782 6488482 
3010.113 6342204 6196799 6053516 5913645 5778054 5646895 5519389 5394288 
3013.970 5270202 5146239 5022332 4899418 4779151 4663596 4554442 4452769 
3017.827 4358700 4271519 4189913 4112287 4037220 3963637 3891186 3819866 
3021.685 3750354 3683494 3620188 3560979 3505933 3454464 3405456 3357603 
3025.542 3309711 3261246 3212434 3164252 3118137 3075474 3037124 3003094 
3029.400 2972637 2944609 2917667 2890845 2863691 2836216 2808625 2781104 
3033.257 2753610 2725979 2698069 2669889 2642024 2615244 2590553 2568702 
3037.115 2549862 2533594 2518842 2504261 2488621 2471129 2451593 2430382 
3040.972 2408304 2386265 2365012 2344875 2326006 2308078 2290845 2274008 
3044.829 2257364 2241075 2225286 2210295 2196470 2184058 2173462 2164946 
3048.687 2158830 2155393 2154799 2156824 2160884 2165890 2170375 2172742 
3052.544 2171688 2166499 2157380 2145535 2132791 2121352 2113128 2109409 
3056.402 2110554 2115950 2124457 2134530 2144814 2154371 2162766 2169929 
3060.259 2176022 2181240 2185595 2188826 2190574 2190475 2188437 2184643 
3064.116 2179734 2174514 2169871 2166423 2164420 2163563 2163314 2162993 
3067.974 2162259 2161266 2160675 2161542 2164900 2171392 2180916 2192524 
3071.831 2204560 2215058 2222103 2224398 2221423 2213508 2201903 2188307 
3075.689 2174760 2163157 2154846 2150439 2149708 2151413 2153864 2155269 
3079.546 2154207 2150096 2143452 2135500 2127961 2122297 2119382 2119195 
3083.404 2121083 2123937 2126740 2128724 2129430 2128527 2125691 2120433 
3087.261 2112306 2101256 2087834 2073266 2059496 2048498 2041697 2039582 
3091.118 2041502 2045835 2050595 2053880 2054357 2051451 2045213 2036205 
3094.976 2025373 2013986 2003815 1996755 1994869 1999596 2011314 2028707 
3098.833 2048911 2067894 2081649 2086938 2082631 2069661 2050824 2030012 
3102.691 2010991 1996663 1988457 1986386 1989472 1996066 2004501 2013356 
3106.548 2021494 2028381 2033859 2038241 2042384 2047145 2053498 2061746 
3110.406 2071589 2081947 2091179 2097754 2100446 2098886 2093533 2085517 
3114.263 2076222 2066944 2058765 2052250 2047819 2045537 2045391 2047008 
3118.120 2049842 2053096 2055911 2057614 2058058 2057441 2056405 2055547 
3121.978 2055066 2054732 2053894 2051921 2048654 2044557 2040952 2039249 
3125.835 2040667 2045409 2052666 2060640 2067292 2071010 2071171 2068195 
3129.693 2063439 2058566 2055103 2053903 2055368 2059466 2066032 2074929 
3133.550 2085927 2098596 2112124 2125182 2136399 2144569 2149375 2151448 
3137.407 2152348 2154074 2158250 2165766 2175959 2187212 2197159 2203524 
3141.265 2204772 2200657 2192235 2181451 2170559 2161601 2155731 2153224 
3145.122 2153385 2155134 2157244 2158972 2160140 2161297 2163430 2167650 
3148.980 2174809 2185161 2198254 2212995 2227880 2241371 2252095 2259257 
3152.837 2262587 2262508 2260017 2256304 2252664 2250278 2249750 2251423 
3156.695 2255020 2260203 2266504 2273488 2281050 2288975 2296903 2303919 
3160.552 2308679 2309489 2305048 2294810 2279883 2262693 2246833 2235934 
3164.409 2232769 2238097 2250729 2267568 2284829 2299077 2308253 2311891 
3168.267 2311197 2308015 2304341 2301456 2300011 2300094 2301726 2305003 
3172.124 2310302 2317922 2327779 2339159 2350874 2361567 2370208 2376551 
3175.982 2381066 2384865 2389050 2394286 2400692 2407700 2414592 2420758 
3179.839 2426036 2430532 2434601 2438306 2441594 2444078 2445543 2446107 
3183.697 2446295 2447041 2449259 2453314 2458843 2464706 2469453 2471579 
3187.554 2470297 2465703 2458764 2451016 2444159 2439687 2438604 2441200 
3191.411 2447251 2456006 2466346 2476895 2486296 2493577 2498307 2500903 
3195.269 2502445 2504397 2508149 2514352 2522853 2532404 2541236 2547415 
3199.126 2549527 2546930 2540058 2530009 2518704 2508337 2501154 2499251 
3202.984 2504230 2516732 2536298 2560933 2587452 2611927 2630763 2641541 
3206.841 2643725 2638892 2630223 2621411 2615544 2614236 2617175 2622597 
3210.698 2628031 2631245 2631184 2628152 2623753 2620263 2619962 2624468 
3214.556 2634444 2649494 2668188 2688563 2708544 2726208 2740259 2750270 
3218.413 2756653 2760525 2763473 2766727 2771114 2776590 2782525 2787788 
3222.271 2791450 2792990 2792743 2791450 2790255 2790280 2792278 2796511 
3226.128 2802905 2810947 2819854 2828710 2836335 2841463 2842925 2839976 
3229.986 2832778 2822367 2810872 2801036 2795577 2796562 2805021 2820500 
3233.843 2841386 2865213 2889137 2910359 2926609 2936165 2938136 2932484 
3237.700 2920205 2903246 2884379 2866757 2853370 2846412 2846781 2853834 
3241.558 2865701 2879556 2892420 2901767 2906181 2905570 2901239 2895393 
3245.415 2890863 2890315 2895509 2906975 2923740 2943500 2963432 2980692 
3249.273 2993603 3001922 3006933 3010921 3016386 3024967 3036931 3051035 
3253.130 3064825 3075756 3081787 3082244 3077840 3070414 3062292 3055590 
3256.988 3051731 3051268 3053947 3059143 3066215 3074593 3083978 3094271 
3260.845 3105595 3118016 3131701 3146674 3162901 3179975 3197233 3213646 
3264.702 3228008 3239286 3246794 3250551 3251351 3250525 3249642 3250121 
3268.560 3252828 3258029 3265227 3273480 3281602 3288519 3293396 3295812 
3272.417 3295721 3293554 3290021 3286021 3282586 3280449 3280099 3281415 
3276.275 3283909 3286713 3288953 3290037 3289921 3289160 3288732 3289727 
3280.132 3292991 3298748 3306631 3315752 3325066 3333692 3341264 3347868 
3283.990 3353896 3359848 3365968 3372069 3377747 3382479 3385998 3388424 
3287.847 3390292 3392218 3394679 3397555 3400363 3402212 3402353 3400551 
3291.704 3397309 3393706 3391086 3390410 3391957 3395013 3398304 3400378 
3295.562 3400272 3398018 3394702 3391954 3391689 3395229 3402966 3414287 
3299.419 3427638 3441196 3453035 3461661 3466167 3466158 3461811 3453797 
3303.277 3443326 3432001 3421783 3414567 3412060 3415272 3424105 3437385 
3307.134 3453037 3468314 3480554 3487518 3488060 3482176 3471066 3456820 
3310.991 3441974 3428924 3419557 3414795 3414674 3418408 3424764 3432437 
3314.849 3440225 3447217 3452849 3456626 3458423 3458273 3456569 3454256 
3318.706 3452551 3452793 3455807 3461537 3468722 3475166 3478241 3475848 
3322.564 3467163 3453096 3436241 3420195 3408510 3403873 3407480 3418941 
3326.421 3436647 3458357 3481680 3504335 3524434 3540327 3550889 3555576 
3330.279 3554711 3549661 3542586 3536028 3532150 3531994 3535413 3541097 
3334.136 3547179 3552073 3554977 3556181 3556571 3557085 3558131 3559246 
3337.993 3559182 3556568 3550461 3540837 3528661 3515540 3503336 3493476 
3341.851 3486732 3483266 3482781 3484622 3488143 3492494 3496585 3499155 
3345.708 3498887 3494815 3486630 3474933 3461257 3447772 3436659 3429734 
3349.566 3428069 3431802 3440365 3452707 3467338 3482725 3497094 3508601 
3353.423 3515479 3516224 3510172 3497548 3479753 3459109 3438610 3421102 
3357.281 3408851 3403009 3403509 3408987 3417372 3426204 3433238 3436934 
3361.138 3436663 3432777 3426462 3419289 3412890 3408543 3406989 3408173 
3364.995 3411561 3416147 3420666 3423862 3424569 3421999 3415864 3406495 
3368.853 3394896 3382495 3370925 3361341 3354234 3349160 3345033 3340447 
3372.710 3334625 3327671 3320646 3315243 3312926 3314188 3318300 3323317 
3376.568 3327006 3327665 3325026 3320384 3316152 3314793 3317751 3324742 
3380.425 3333752 3341664 3345430 3343190 3334714 3321557 3306381 3292027 
3384.282 3280698 3273619 3270829 3271467 3274123 3277309 3279623 3279986 
3388.140 3277687 3272735 3265624 3257465 3249534 3242900 3238066 3234748 
3391.997 3232106 3229371 3226246 3223452 3222600 3225816 3234736 3249754 
3395.855 3269689 3291762 3312553 3328726 3338169 3340323 3336132 3327540 
3399.712 3316814 3305845 3295979 3287850 3281575 3277061 3273941 3271684 
3403.570 3269485 3266478 3261912 3255282 3246758 3237021 3227051 3217783 
3407.427 3209793 3202840 3196357 3189435 3181472 3172411 3162818 3153648 
3411.284 3145932 3140338 3136913 3135151 3134208 3133253 3131650 3129077 
3415.142 3125648 3121604 3117295 3112914 3108752 3105029 3101870 3099567 
3418.999 3098257 3098023 3098749 3100239 3102111 3104030 3105695 3106955 
3422.857 3107739 3108107 3108245 3108381 3108842 3109917 3111907 3114942 
3426.714 3118917 3123414 3127611 3130359 3130254 3125798 3115806 3099604 
3430.572 3077319 3050111 3019954 2989574 2961952 2939664 2924415 2916716 
3434.429 2915872 2920239 2927601 2935942 2943727 2950110 2955089 2959058 
3438.286 2962506 2965862 2969125 2972111 2974457 2975839 2976024 2975033 
3442.144 2972961 2969991 2966207 2961606 2956166 2949795 2942571 2934763 
3446.001 2927094 2920482 2916210 2915511 2919343 2928105 2941181 2957106 
3449.859 2973479 2987644 2996949 2999631 2995137 2984355 2969473 2953493 
3453.716 2939446 2929738 2925537 2926424 2930545 2935087 2936793 2933115 
3457.573 2922602 2905511 2883791 2860678 2839968 2825084 2818200 2819913 
3461.431 2828883 2842532 2857518 2870720 2879892 2884142 2883923 2880662 
3465.288 2876030 2871726 2868789 2867526 2867667 2868534 2869484 2870082 
3469.146 2870106 2869743 2869252 2868912 2869064 2869885 2871468 2873942 
3473.003 2877355 2881520 2886284 2891167 2895476 2898684 2900224 2900204 
3476.861 2899185 2898202 2898627 2901590 2907831 2917283 2929207 2942298 
3480.718 2955265 2967036 2977164 2985614 2992783 2999059 3004677 3009721 
3484.575 3014248 3018575 3023411 3029756 3038802 3051139 3066676 3084365 
3488.433 3102368 3118679 3131726 3140799 3146440 3149909 3152777 3156165 
3492.290 3160276 3164505 3167471 3167707 3164503 3157988 3149356 3140449 
3496.148 3133054 3128744 3128099 3131050 3137007 3145142 3154867 3165719 
3500.005 3177416 3189590 3201709 3212991 3222701 3230352 3235965 3240133 
3503.863 3243757 3247536 3251530 3254908 3255806 3251994 3241380 3222751 
3507.720 3196382 3163981 3128352 3092981 3060943 3034716 3015651 3004130 
3511.577 2999475 3000385 3004786 3010184 3013672 3012601 3004986 2990339 
3515.435 2969870 2946631 2924636 2907733 2898440 2896913 2900850 2906048 
3519.292 2907813 2902304 2887749 2864930 2836619 2806735 2779096 2756397 
3523.150 2739815 2729018 2722736 2719186 2716692 2713842 2709635 2703286 
3527.007 2694415 2682949 2669054 2653289 2636308 2619002 2602064 2586395 
3530.865 2572924 2562568 2556349 2554949 2558404 2565824 2575246 2584136 
3534.722 2589812 2590344 2584860 2573703 2558135 2539754 2519915 2499503 
3538.579 2479134 2459502 2441702 2427258 2417722 2414142 2416163 2422072 
3542.437 2429090 2434119 2434797 2429951 2419951 2406071 2389755 2372064 
3546.294 2353393 2333740 2313285 2293053 2274824 2260874 2253068 2252073 
3550.152 2257033 2265697 2275186 2282815 2287055 2287580 2285131 2281020 
3554.009 2276322 2271695 2267330 2263179 2259014 2254861 2250623 2246204 
3557.866 2241175 2235210 2228024 2219749 2211064 2202857 2195819 2190180 
3561.724 2185630 2181377 2176776 2171839 2167140 2163973 2163582 2166402 
3565.581 2171931 2178790 2185006 2189232 2190883 2190328 2188657 2186518 
3569.439 2183911 2179900 2172984 2161916 2146479 2127739 2107653 2088440 
3573.296 2071600 2057565 2045458 2034118 2022776 2011767 2002496 1997064 
3577.154 1997057 2002633 2012234 2022715 2030580 2033017 2028856 2019178 
3581.011 2006770 1995165 1987440 1985327 1988744 1995758 2003508 2008649 
3584.868 2008619 2001826 1988112 1968487 1944768 1919158 1893737 1870166 
3588.726 1849529 1832498 1819363 1810101 1804615 1802498 1803089 1805535 
3592.583 1808848 1812366 1815946 1820093 1825952 1834585 1846426 1860731 
3596.441 1875379 1887282 1893253 1891130 1880608 1863483 1843146 1823542 
3600.298 1808001 1798275 1794340 1794580 1796801 1798924 1799624 1798307 
3604.156 1794755 1788918 1780399 1768760 1753930 1736632 1718667 1702499 
3608.013 1690860 1685624 1687215 1694475 1704725 1714857 1721980 1724400 
3611.870 1721859 1715277 1706466 1697618 1690558 1686668 1686687 1690629 
3615.728 1697914 1707419 1717386 1725963 1731489 1733077 1730871 1726374 
3619.585 1721839 1719825 1722176 1729235 1739704 1751136 1760447 1765342 
3623.443 1765250 1761478 1756758 1754441 1757043 1765234 1777509 1790883 
3627.300 1801782 1807480 1807003 1801540 1793691 1786510 1781979 1780658 
3631.157 1781588 1782944 1783242 1782079 1780343 1779898 1782399 1788798 
3635.015 1798463 1809959 1821337 1831390 1840106 1848763 1859117 1872721 
3638.872 1889866 1909618 1930000 1948973 1965071 1978121 1988646 1997757 
3642.730 2006064 2013555 2019531 2023259 2024358 2023513 2021799 2020512 
3646.587 2020229 2020557 2020163 2017529 2011895 2003724 1994892 1988016 
3650.445 1985217 1987512 1994120 2003120 2012147 2019681 2025354 2030207 
3654.302 2035760 2043204 2052662 2062860 2071734 2077212 2077830 2073684 
3658.159 2065865 2056166 2046318 2037573 2030373 2024831 2020871 2018349 
3662.017 2017263 2017184 2017241 2016191 2012584 2005349 1994251 1980163 
3665.874 1964622 1949484 1936115 1924944 1915407 1906568 1897544 1888394 
3669.732 1880030 1874298 1872957 1877239 1886989 1900742 1915905 1929545 
3673.589 1939025 1942619 1939633 1930842 1917550 1901741 1885091 1868932 
3677.447 1853670 1838923 1823791 1807425 1789329 1769888 1750542 1733387 
3681.304 1720595 1713644 1712487 1715437 1719362 1720686 1716173 1704231 
3685.161 1685192 1661375 1636211 1613413 1595844 1584750 1579465 1577944 
3689.019 1577188 1574172 1566488 1553001 1533794 1510474 1485545 1462207 
3692.876 1443631 1432584 1430647 1438108 1453563 1474522 1497602 1519468 
3696.734 1537237 1549200 1554956 1555406 1552268 1547916 1544641 1544334 
3700.591 1548014 1555830 1566571 1578282 1588497 1594875 1595752 1590704 
3704.448 1580512 1567219 1553105 1540489 1530858 1524858 1522130 1522142 
3708.306 1524374 1528802 1535626 1545133 1557000 1570051 1582312 1591397 
3712.163 1595330 1593326 1586153 1575847 1565154 1556647 1551691 1550165 
3716.021 1550702 1551238 1549898 1545598 1538460 1529407 1519940 1511468 
3719.878 1504921 1500737 1499028 1499819 1503025 1508647 1516313 1525276 
3723.736 1534440 1542512 1548380 1551621 1552670 1552459 1552211 1552749 
3727.593 1554109 1555794 1556819 1556434 1554277 1550810 1546605 1542288 
3731.450 1537769 1532351 1524797 1514058 1500045 1483871 1467644 1454074 
3735.308 1445371 1442698 1445607 1452464 1460910 1468921 1474972 1478549 
3739.165 1479766 1479244 1477321 1474560 1471423 1468611 1467098 1467875 
3743.023 1471543 1477928 1485980 1494284 1501539 1507394 1512611 1518744 
3746.880 1527210 1538410 1550843 1561612 1567030 1564359 1553134 1535848 
3750.738 1517179 1502923 1497459 1502645 1516843 1536003 1554920 1569385 
3754.595 1577374 1579461 1578081 1576210 1576073 1578600 1583114 1588334 
3758.452 1592851 1596073 1598114 1599540 1600802 1602190 1603503 1604677 
3762.310 1606041 1608513 1613227 1621091 1632157 1645443 1658847 1669975 
3766.167 1676568 1677375 1671776 1660237 1643539 1622789 1599402 1575558 
3770.025 1554107 1538492 1531739 1535833 1550221 1572148 1596495 1617681 
3773.882 1630819 1633579 1626373 1611965 1594232 1576800 1561968 1550645 
3777.740 1542757 1538341 1538121 1543625 1556451 1577171 1604540 1635273 
3781.597 1664488 1687360 1700136 1701264 1691513 1673477 1650676 1626556 
3785.454 1603990 1585019 1571035 1562887 1560540 1563171 1568781 1574468 
3789.312 1576823 1573373 1563152 1547401 1529391 1513394 1503367 1501618 
3793.169 1508074 1520684 1535913 1550156 1560698 1566317 1567113 1564111 
3797.027 1558710 1552074 1545044 1538165 1531881 1526675 1522752 1520111 
3800.884 1518424 1517091 1515478 1513509 1511552 1510701 1512291 1517558 
3804.741 1527051 1540542 1556876 1574284 1590872 1605019 1615745 1622779 
3808.599 1626526 1627867 1627601 1626379 1624035 1619880 1612497 1600637 
3812.456 1583546 1561989 1538287 1516330 1500644 1495081 1501520 1518908 
3816.314 1543347 1569033 1590095 1602249 1604151 1597455 1586082 1574860 
3820.171 1567456 1565840 1569539 1576384 1583691 1589184 1591917 1592348 
3824.029 1591474 1590664 1590455 1590707 1590664 1589546 1586854 1582905 
3827.886 1578701 1575621 1574962 1577670 1583979 1593416 1604984 1617400 
3831.743 1629065 1638655 1644940 1647109 1644674 1637774 1626984 1613255 
3835.601 1597958 1582517 1568383 1556954 1549193 1545691 1546258 1550124 
3839.458 1555634 1560735 1563075 1560677 1552292 1537815 1518467 1496573 
3843.316 1475126 1457158 1445045 1440048 1442053 1449791 1461208 1474043 
3847.173 1486444 1497357 1506499 1514137 1520736 1526551 1531248 1534143 
3851.031 1534258 1530883 1524055 1514805 1504986 1497020 1493213 1495294 
3854.888 1503884 1518507 1537636 1559080 1580312 1598752 1612089 1618447 
3858.745 1616907 1607762 1592509 1574000 1555696 1541055 1532635 1531432 
3862.603 1536647 1546126 1556823 1566011 1571660 1573097 1570410 1564388 
3866.460 1555739 1544916 1532190 1518001 1503396 1490146 1480579 1476858 
3870.318 1480263 1490772 1506681 1525443 1543837 1559361 1570474 1576992 
3874.175 1579806 1580495 1580782 1582184 1585648 1591680 1600306 1611011 
3878.032 1622822 1634441 1644287 1650968 1653445 1651560 1645909 1637868 
3881.890 1629163 1621430 1615747 1612688 1612277 1614296 1618395 1624315 
3885.747 1631640 1639786 1647622 1653614 1655887 1652879 1643366 1627228 
3889.605 1605195 1579073 1551115 1524014 1500305 1482408 1472171 1470974 
3893.462 1479446 1497200 1522654 1553119 1584887 1614023 1636902 1651289 
3897.320 1656526 1653940 1646346 1637276 1630030 1626983 1628841 1634967 
3901.177 1643508 1652431 1659816 1664735 1666938 1666974 1665391 1662657 
3905.034 1658616 1652667 1644181 1632727 1618539 1602834 1587478 1574617 
3908.892 1566276 1563698 1567067 1575472 1586927 1598948 1608957 1614808 
3912.749 1615099 1609657 1599148 1585286 1570296 1556599 1546226 1540537 
3916.607 1539902 1543994 1551676 1561667 1572708 1584133 1595508 1606940 
3920.464 1618375 1629631 1639971 1648359 1653522 1654473 1650831 1642882 
3924.322 1631729 1619025 1606436 1595342 1586583 1580029 1574904 1570094 
3928.179 1564350 1557080 1548339 1539227 1531480 1527398 1528754 1536789 
3932.036 1551096 1570062 1590705 1609501 1623067 1629109 1626768 1617148 
3935.894 1602656 1586674 1572663 1563324 1560119 1563101 1570931 1581438 
3939.751 1592078 1600562 1605278 1605580 1601703 1594806 1586352 1577976 
3943.609 1570955 1565991 1563176 1562153 1562291 1563129 1564534 1567008 
3947.466 1571384 1578691 1589591 1604114 1621322 1639488 1656259 1669295 
3951.323 1676716 1677780 1672855 1663498 1651996 1640771 1631726 1625854 
3955.181 1622824 1621328 1619396 1615160 1607417 1596204 1582607 1568902 
3959.038 1557207 1549626 1546968 1548931 1554112 1560777 1567233 1572657 
3962.896 1576995 1580978 1585451 1590986 1597384 1603824 1608913 1611602 
3966.753 1611294 1608545 1604574 1601119 1599708 1601415 1606177 1613289 
3970.611 1621439 1629074 1634970 1638344 1638928 1637147 1633757 1630008 
3974.468 1627202 1626455 1628341 1632621 1638019 1642620 1644164 1641023 
3978.325 1632666 1620182 1606060 1593625 1586045 1585386 1592101 1604942 
3982.183 1621543 1639282 1655895 1670154 1681619 1690394 1696665 1700391 
3986.040 1701210 1698868 1693484 1685871 1677363 1669560 1663744 1660569 
3989.898 1659862 1660890 1662733 1664750 1666874 1669372 1672659 1676775 
3993.755 1681053 1684463 1685494 1683078 1676825 1667737 1657617 1648980 
3997.613 1644124 1644724 1650981 1661760 1674872 1687585 1697465 
##END=
