##TITLE=Bambu-Lab_PLA-CF_Blue_Filament_r3_ATR-Corrected
##JCAMP-DX=5.01  $$ Nicolet v. 1
##DATATYPE=INFRARED SPECTRUM
##ORIGIN=Curtin University
##OWNER=Nicolet
##LONGDATE=2024/07/10
##TIME=14:26:47
##SPECTROMETER/DATA SYSTEM=Nicolet iS50
##DATA PROCESSING=
Ratio against background
%Transmittance->Absorbance
ATR Correction
Truncated
ElementMultiply or ElementDivide
##COMMENTS=
Number of sample scans: 32
Collection length: 47.28 sec
Sample gain: 1.0
Background collected on: Wed Jul 10 14:22:49 2024 (GMT+08:00);
Number of background scans: 32
Background gain: 1.0
Sample spacing:  1.000
Number of scan points: 16672
Resolution points: 8192
Number of FFT points: 65536
Apodization: N-B strong;
Phase correction: Mertz;
Laser frequency: 15798.3 cm-1
Number of rejected sample scans: 0
Number of rejected background scans: 0
Bench serial number: AUP1200105;
##RESOLUTION=4.000
##XUNITS=1/CM
##YUNITS=ABSORBANCE
##FIRSTX=400.163452
##LASTX=4000.187744
##FIRSTY=0.083492
##MAXX=4000.187744
##MINX=400.163452
##MAXY=1.050851
##MINY=-0.022909
##XFACTOR=1.000000
##YFACTOR=1.000000E-008
##NPOINTS=7468
##DELTAX=0.482125
##ZPD=8192
##XYDATA=(X++(Y..Y))
400.163 8349248 8311129 8251338 8160633 8037450 7889957 7732166 7579326 
404.020 7443168 7329435 7237433 7161870 7095776 7033325 6971303 6909509 
407.877 6849593 6793603 6742628 6696234 6652530 6608917 6562803 6512380 
411.734 6456758 6396255 6331964 6265813 6200111 6137516 6080403 6030499 
415.591 5988000 5951364 5917091 5880597 5837368 5784727 5723341 5657862 
419.448 5596170 5547375 5519011 5514363 5530907 5560598 5591713 5612321 
423.305 5613751 5593253 5554479 5506016 5458085 5419346 5394251 5382737 
427.162 5381178 5384775 5389593 5393772 5397108 5399957 5401531 5399401 
431.019 5389852 5369583 5337387 5295212 5248249 5203221 5166305 5141338 
434.876 5128861 5126505 5130200 5135758 5139953 5140881 5137474 5129045 
438.733 5114829 5094456 5068392 5038687 5008815 4982967 4964527 4954823 
442.590 4952362 4953408 4953354 4948651 4938163 4923592 4908536 4896876 
446.447 4890998 4890903 4894274 4897733 4898266 4894592 4887422 4879006 
450.304 4871893 4867783 4866810 4867649 4868123 4866153 4860282 4849900 
454.161 4834857 4815076 4790205 4759817 4723774 4682894 4639179 4595772 
458.017 4556334 4524266 4501889 4489976 4487604 4492524 4501644 4511645 
461.874 4519492 4522899 4520538 4511847 4497917 4480391 4461416 4443239 
465.731 4427786 4416458 4410006 4408711 4412478 4420989 4433549 4448948 
469.588 4465242 4479793 4489547 4491753 4484682 4468313 4444508 4416717 
473.445 4389054 4365391 4348393 4339171 4337330 4341447 4349620 4359880 
477.302 4370310 4379096 4384437 4384810 4379311 4368125 4352789 4336026 
481.159 4321063 4310658 4306169 4307034 4311078 4315419 4317663 4317047 
485.016 4314740 4313362 4315734 4323559 4336381 4351632 4365376 4373902 
488.873 4375009 4368926 4358066 4346105 4336520 4331465 4331171 4334321 
492.730 4338882 4343252 4346842 4349989 4353766 4358685 4364150 4368482 
496.587 4369395 4365063 4354990 4340469 4324371 4310368 4301869 4301156 
500.444 4308935 4324455 4345891 4370928 4397147 4422302 4444435 4462009 
504.301 4474153 4480907 4483302 4483254 4482906 4483972 4486908 4490687 
508.158 4493061 4491495 4484270 4471484 4455330 4439630 4428675 4425864 
512.015 4432554 4447631 4467876 4489025 4507018 4519071 4524128 4522737 
515.871 4516430 4506930 4495513 4482750 4468503 4452384 4434057 4413713 
519.728 4392095 4370497 4350421 4333245 4319833 4310308 4304052 4299964 
523.585 4296908 4294208 4291957 4290958 4292598 4297799 4306392 4316704 
527.442 4325676 4329727 4325894 4313094 4292762 4268753 4246239 4230195 
531.299 4223763 4227298 4238277 4252214 4264224 4270616 4269952 4263372 
535.156 4253902 4245279 4240665 4241672 4248005 4257798 4268300 4276829 
539.013 4281415 4281335 4277063 4270058 4262284 4255641 4251591 4250822 
542.870 4253197 4257899 4263700 4269362 4273899 4276792 4277913 4277370 
546.727 4275270 4271574 4266065 4258596 4249293 4238835 4228402 4219518 
550.584 4213619 4211693 4213981 4220005 4228767 4239155 4250276 4261616 
554.441 4272939 4284106 4294732 4304081 4311233 4315212 4315368 4311642 
558.298 4304604 4295394 4285379 4275862 4267906 4262273 4259429 4259687 
562.155 4263184 4269898 4279515 4291336 4304301 4317071 4328310 4336912 
566.012 4342208 4344120 4343108 4340115 4336413 4333519 4332982 4336207 
569.869 4344107 4356810 4373349 4391691 4408920 4421998 4428512 4427548 
573.725 4420128 4409159 4398779 4393229 4395756 4407676 4428109 4454318 
577.582 4482582 4509296 4531810 4548952 4560866 4568612 4573442 4576329 
581.439 4577714 4577658 4576155 4573547 4570683 4568875 4569581 4573967 
585.296 4582515 4594824 4609662 4625306 4640011 4652482 4662233 4669801 
589.153 4676564 4684437 4695325 4710525 4730303 4753702 4778642 4802418 
593.010 4822412 4836762 4844869 4847523 4846646 4844634 4843678 4845198 
596.867 4849514 4856033 4863610 4871110 4877866 4883916 4889927 4896946 
600.724 4905956 4917636 4932035 4948733 4966844 4985380 5003453 5020559 
604.581 5036651 5052221 5068188 5085618 5105504 5128430 5154322 5182487 
608.438 5211678 5240517 5267785 5292838 5315668 5336830 5357071 5377052 
612.295 5397011 5416776 5435967 5454351 5472192 5490418 5510455 5533835 
616.152 5561627 5594026 5630088 5667937 5705227 5739820 5770400 5796811 
620.009 5820026 5841807 5864047 5888150 5914606 5942920 5971822 5999838 
623.866 6025867 6049639 6071891 6094155 6118278 6145800 6177408 6212719 
627.723 6250317 6288226 6324432 6357512 6386875 6412856 6436342 6458424 
631.579 6479866 6500898 6521225 6540265 6557492 6572813 6586683 6600056 
635.436 6614131 6629955 6648048 6668202 6689492 6710489 6729678 6745929 
639.293 6758882 6769172 6778301 6788375 6801402 6818826 6840960 6866854 
643.150 6894511 6921411 6945335 6965001 6980489 6993186 7005308 7019169 
647.007 7036380 7057414 7081473 7106909 7131740 7154432 7174287 7191630 
650.864 7207535 7223406 7240472 7259410 7280202 7302237 7324538 7346016 
654.721 7365748 7383158 7397976 7410386 7420874 7430202 7439238 7448847 
658.578 7459637 7471893 7485552 7500335 7515944 7532304 7549686 7568645 
662.435 7589736 7613192 7638583 7664746 7689895 7712126 7729939 7742720 
666.292 7750904 7755912 7759613 7763751 7769479 7777109 7786221 7796139 
670.149 7806264 7816489 7827143 7838805 7851839 7866135 7880910 7894991 
674.006 7907125 7916504 7923019 7927308 7930412 7933435 7937075 7941502 
677.863 7946384 7951200 7955567 7959405 7962927 7966557 7970629 7975304 
681.720 7980615 7986668 7993820 8002819 8014629 8030054 8049346 8071889 
685.577 8096201 8120369 8142515 8161454 8176946 8189663 8200687 8210965 
689.433 8220751 8229510 8236134 8239534 8239246 8235902 8231195 8227526 
693.290 8227268 8232099 8242515 8257759 8276092 8295365 8313586 8329402 
697.147 8342237 8352254 8360041 8366303 8371623 8376325 8380500 8384147 
701.004 8387271 8389991 8392453 8394732 8396640 8397573 8396458 8391949 
704.861 8382623 8367435 8345999 8318835 8287275 8253231 8218743 8185516 
708.718 8154578 8126164 8099793 8074607 8049675 8024345 7998460 7972298 
712.575 7946510 7921820 7898789 7877552 7857655 7838016 7816960 7792469 
716.432 7762360 7724685 7677895 7621005 7553627 7475902 7388431 7292276 
720.289 7188957 7080592 6969822 6859620 6752900 6652048 6558438 6472302 
724.146 6392964 6319418 6251026 6188194 6132457 6086235 6052040 6031662 
728.003 6025505 6032504 6050474 6076969 6110092 6149054 6194268 6246962 
731.860 6308537 6379961 6461381 6552136 6650962 6756320 6866628 6980354 
735.717 7095925 7211725 7326123 7437692 7545428 7648948 7748423 7844372 
739.574 7937222 8027068 8113476 8195735 8273165 8345516 8413155 8477023 
743.431 8538342 8598226 8657395 8716117 8774354 8832062 8889441 8947060 
747.287 9005745 9066365 9129661 9196062 9265684 9338381 9413702 9490809 
751.144 9568296 9644007 9715068 9778152 9829922 9867652 9889665 9895592 
755.001 9886268 9863278 9828437 9783269 9728705 9664997 9591870 9508786 
758.858 9415216 9310912 9196047 9071301 8937869 8797411 8651829 8503129 
762.715 8353170 8203538 8055513 7910125 7768260 7630775 7498437 7371826 
766.572 7251066 7135739 7024807 6916865 6810502 6704730 6599261 6494619 
770.429 6391929 6292493 6197336 6106836 6020672 5937838 5856915 5776468 
774.286 5695368 5612994 5529353 5445056 5361160 5278944 5199630 5124037 
778.143 5052378 4984132 4918111 4852754 4786521 4718319 4647786 4575399 
782.000 4502276 4429880 4359613 4292514 4229079 4169220 4112390 4057698 
785.857 4004116 3950656 3896535 3841446 3785614 3729912 3675729 3624599 
789.714 3577819 3535986 3498753 3464872 3432558 3400099 3366369 3331272 
793.571 3295710 3261282 3229694 3202222 3179307 3160565 3144966 3131326 
797.428 3118723 3106737 3095495 3085549 3077567 3072121 3069480 3069534 
801.285 3071768 3075314 3078937 3081157 3080493 3075664 3065925 3051324 
805.141 3032902 3012556 2992710 2975772 2963570 2956979 2955700 2958522 
808.998 2963698 2969586 2975069 2979844 2984374 2989538 2996172 3004628 
812.855 3014553 3024911 3034303 3041420 3045469 3046461 3045167 3042937 
816.712 3041224 3041169 3043297 3047433 3052779 3058247 3062772 3065611 
820.569 3066521 3065797 3064183 3062720 3062533 3064607 3069597 3077702 
824.426 3088557 3101312 3114754 3127542 3138468 3146657 3151675 3153575 
828.283 3152740 3149833 3145637 3141107 3137296 3135412 3136680 3142175 
832.140 3152576 3167963 3187752 3210802 3235890 3262031 3288847 3316797 
835.997 3346961 3380732 3419303 3463256 3512398 3565847 3622382 3680858 
839.854 3740598 3801570 3864281 3929533 3998090 4070287 4145866 4223950 
843.711 4303075 4381438 4457099 4528182 4593077 4650605 4700085 4741460 
847.568 4775301 4802794 4825632 4845970 4866138 4888594 4915737 4949841 
851.425 4993004 5047295 5114709 5197292 5297049 5415771 5554718 5714289 
855.282 5893718 6090936 6302737 6525118 6753879 6985141 7215757 7443477 
859.139 7666753 7884416 8095243 8297756 8490086 8670194 8836099 8986216 
862.995 9119510 9235607 9334702 9417506 9484994 9538326 9578591 9606522 
866.852 9622400 9625983 9616643 9593697 9556917 9506838 9444861 9372955 
870.709 9292997 9205998 9111571 9007804 8891764 8760394 8611628 8445171 
874.566 8262866 8068327 7866165 7661015 7456688 7255733 7059450 6868195 
878.423 6681822 6500103 6322893 6150357 5982879 5821207 5666491 5520343 
882.280 5384771 5261953 5153780 5061458 4985187 4924088 4876481 4840389 
886.137 4814080 4796437 4786978 4785667 4792372 4806523 4826822 4851374 
889.994 4878049 4904910 4930637 4954616 4976772 4997249 5016016 5032644 
893.851 5046283 5055897 5060554 5059828 5053852 5043344 5029402 5013246 
897.708 4996010 4978641 4961953 4946706 4933732 4923905 4918001 4916527 
901.565 4919462 4926160 4935344 4945329 4954324 4960815 4963872 4963337 
905.422 4959760 4954273 4948320 4943296 4940315 4939994 4942357 4946866 
909.279 4952508 4958049 4962185 4963886 4962503 4957961 4950722 4941673 
913.136 4931933 4922620 4914682 4908722 4904996 4903418 4903572 4904817 
916.993 4906284 4906969 4905822 4901928 4894676 4883943 4870184 4854352 
920.849 4837689 4821443 4806575 4793552 4782344 4772550 4763556 4754789 
924.706 4745774 4736181 4725735 4714161 4701267 4687026 4671723 4656097 
928.563 4641339 4628869 4620029 4615702 4616046 4620373 4627350 4635251 
932.420 4642382 4647424 4649618 4648795 4645349 4640039 4633869 4627960 
936.277 4623423 4621241 4622172 4626593 4634430 4645201 4658109 4672317 
940.134 4687109 4702154 4717515 4733598 4751003 4770320 4792008 4816315 
943.991 4843356 4873194 4905931 4941730 4980790 5023249 5069034 5117861 
947.848 5169181 5222349 5276721 5331880 5387728 5444551 5502845 5563161 
951.705 5625732 5690264 5755623 5819861 5880259 5933783 5977429 6008707 
955.562 6025943 6028422 6016172 5989820 5950008 5897351 5832175 5754778 
959.419 5665681 5566008 5457774 5343915 5228098 5114295 5006190 4906707 
963.276 4817658 4739684 4672485 4615145 4566570 4525843 4492352 4465821 
967.133 4446091 4432964 4426084 4424805 4428331 4435830 4446582 4460004 
970.990 4475716 4493423 4512829 4533535 4555031 4576706 4597967 4618355 
974.847 4637637 4655842 4673333 4690692 4708676 4728099 4749673 4773883 
978.703 4800811 4830206 4861429 4893697 4926322 4958877 4991320 5023987 
982.560 5057392 5091948 5127804 5164716 5202169 5239587 5276604 5313309 
986.417 5350207 5388079 5427644 5469408 5513306 5558984 5605918 5653742 
990.274 5702448 5752393 5804129 5858175 5914715 5973513 6034005 6095502 
994.131 6157472 6219796 6282761 6346964 6413084 6481684 6553024 6627143 
997.988 6703904 6783132 6864796 6949030 7036113 7126444 7220401 7318371 
1001.845 7420652 7527455 7638949 7755291 7876644 8003334 8135894 8275055 
1005.702 8421788 8577047 8741691 8916210 9100721 9295057 9499032 9712741 
1009.559 9936816 10172509 10421462 10685330 10965283 11261679 11573885 
1012.934 11900528 12239862 12590274 12950805 13321267 13702179 14094527 
1016.309 14499287 14917020 15347563 15789890 16242225 16702265 17167352 
1019.683 17634926 18102686 18568784 19031780 19490636 19944558 20392898 
1023.058 20835250 21271544 21702254 22128528 22552314 22976198 23403176 
1026.433 23836254 24278236 24731668 25198830 25681984 26183548 26706132 
1029.809 27252432 27824876 28425168 29054016 29710958 30394474 31102168 
1033.184 31831068 32577714 33338236 34108152 34882124 35653900 36416368 
1036.559 37161840 37882544 38571116 39220956 39826512 40383228 40887272 
1039.934 41335412 41724660 42052488 42316912 42516960 42653044 42727204 
1043.310 42742900 42704736 42617684 42486516 42315400 42107976 41867596 
1046.685 41598012 41303824 40990752 40665336 40334428 40004348 39680252 
1050.060 39365576 39062152 38770576 38490836 38222912 37967236 37724812 
1053.435 37497008 37285176 37090396 36913216 36753904 36612732 36490664 
1056.811 36389816 36313724 36267392 36257060 36289684 36372532 36512836 
1060.186 36717540 36993168 37345724 37780324 38300868 38909396 39605916 
1063.561 40387932 41250880 42188428 43193360 44258112 45375396 46538352 
1066.936 47740556 48975756 50237876 51520912 52819388 54128720 55445592 
1070.312 56767904 58094388 59423768 60754072 62082036 63403304 64713044 
1073.687 66007020 67282184 68536936 69770368 70980952 72165080 73316400 
1077.062 74425704 75482016 76474144 77392152 78228192 78976432 79632296 
1080.437 80191696 80650008 81002216 81243040 81367688 81372376 81255096 
1083.813 81015888 80657384 80185056 79607328 78935040 78180520 77356328 
1087.188 76474136 75543752 74573296 73569504 72538616 71486816 70420472 
1090.563 69345632 68267664 67190568 66117204 65049416 63988728 62936748 
1093.938 61895328 60866160 59850520 58848696 57860028 56883180 55916644 
1097.313 54959260 54010560 53070684 52140308 51220084 50310600 49412172 
1100.689 48525052 47649428 46785580 45933972 45095236 44270224 43460232 
1104.064 42667024 41893096 41141464 40415548 39718648 39053696 38423036 
1107.439 37828456 37271356 36753096 36275084 35838860 35445704 35096380 
1110.814 34790808 34527960 34306000 34122600 33975164 33861236 33778492 
1114.190 33724784 33698044 33696240 33717440 33760052 33822952 33905664 
1117.565 34008368 34131828 34277232 34445952 34639372 34858660 35104448 
1120.940 35376432 35672952 35990568 36323924 36665776 37007548 37339900 
1124.315 37653528 37939768 38190956 38400488 38562844 38673452 38728852 
1127.691 38726844 38666708 38549252 38376728 38152316 37879508 37561560 
1131.066 37200944 36799264 36357196 35874772 35351636 34787268 34181284 
1134.441 33533692 32845002 32116538 31350500 30550048 29719188 28862650 
1137.816 27985590 27093432 26191490 25284952 24378694 23477358 22585336 
1141.192 21706984 20846668 20008878 19198162 18418988 17675402 16970754 
1144.567 16307411 15686741 15109119 14574201 14081198 13629140 13217048 
1147.942 12843856 12508304 12208805 11943341 11709578 11505051 11327424 
1151.317 11174829 11045829 10939488 10855162 10792211 10749836 10727028 
1154.693 10722610 10735378 10764338 10808752 10868251 10942777 11032566 
1158.068 11138112 11260289 11400261 11559615 11740311 11944540 12174638 
1161.443 12433003 12722066 13044423 13402930 13800900 14242129 14730884 
1164.818 15271814 15869838 16530146 17258262 18060190 18942500 19912372 
1168.194 20977298 22144732 23421634 24813960 26326266 27961480 29720762 
1171.569 31603246 33605764 35722248 37943160 40254792 42638756 45071696 
1174.944 47525288 49966600 52358560 54660968 56831692 58828468 60611320 
1178.319 62144916 63401340 64361744 65017652 65371000 65433364 65224624 
1181.695 64771164 64103948 63256484 62262732 61155404 59964556 58716620 
1185.070 57434152 56135940 54837380 53551124 52287556 51055324 49861528 
1188.445 48711936 47610960 46561688 45565884 44624020 43735468 42898652 
1191.820 42111412 41371268 40675692 40022352 39409284 38834956 38298252 
1195.196 37798428 37335064 36907848 36516456 36160300 35838376 35549096 
1198.571 35290276 35059216 34852952 34668436 34502828 34353640 34218688 
1201.946 34096052 33983920 33880468 33783852 33692164 33603604 33516512 
1205.321 33429336 33340430 33247974 33149776 33043194 32925280 32793016 
1208.697 32643584 32474726 32284862 32073166 31839594 31584602 31309080 
1212.072 31014160 30701050 30370932 30024854 29663700 29288214 28899140 
1215.447 28497360 28084028 27660674 27229152 26791564 26350084 25906854 
1218.822 25463944 25023270 24586616 24155588 23731468 23315036 22906486 
1222.198 22505512 22111406 21723424 21341034 20964180 20593376 20229464 
1225.573 19873540 19526612 19189580 18863108 18547716 18243778 17951446 
1228.948 17670648 17400916 17141392 16890970 16648604 16413581 16185784 
1232.323 15965755 15754482 15553100 15362404 15182640 15013370 14853656 
1235.698 14702332 14558299 14420760 14289293 14163715 14044052 13930267 
1239.074 13822290 13719949 13623093 13531534 13445096 13363566 13286635 
1242.449 13213918 13145058 13079727 13017832 12959494 12905024 12854825 
1245.824 12809309 12768745 12733254 12702775 12677096 12655970 12639099 
1249.199 12626261 12617314 12612368 12611753 12616101 12626220 12642910 
1252.575 12666655 12697439 12734579 12776788 12822494 12870178 12918788 
1255.950 12968028 13018329 13070662 13126135 13185547 13249139 13316436 
1259.325 13386384 13457625 13528825 13598946 13667347 13733833 13798478 
1262.700 13861446 13922776 13982120 14038727 14091273 14138068 14177178 
1266.076 14206757 14225307 14231908 14226325 14208964 14180548 14141911 
1269.451 14093645 14035894 13968340 13890307 13800998 13699709 13586041 
1272.826 13459934 13321708 13171914 13011213 12840222 12659538 12469687 
1276.201 12271227 12064821 11851309 11631748 11407328 11179256 10948709 
1279.577 10716671 10483978 10251305 10019368 9788937 9561003 9336808 9117813 
1283.434 8905663 8702058 8508763 8327515 8159942 8007525 7871488 7752710 
1287.292 7651655 7568422 7502689 7453943 7421533 7404821 7403134 7415818 
1291.149 7442038 7480694 7530366 7589306 7655540 7727046 7801921 7878519 
1295.006 7955508 8031801 8106459 8178608 8247369 8311829 8371205 8424870 
1298.864 8472525 8514244 8550443 8581790 8609095 8633109 8654346 8673050 
1302.721 8689169 8702425 8712467 8719011 8722077 8722043 8719654 8715899 
1306.579 8711853 8708403 8706050 8704820 8704207 8703273 8700893 8695912 
1310.436 8687464 8675122 8659063 8640016 8619159 8597986 8577938 8560231 
1314.293 8545621 8534362 8526229 8520678 8517008 8514483 8512536 8510726 
1318.151 8508714 8506335 8503540 8500489 8497543 8495299 8494416 8495514 
1322.008 8498914 8504570 8512006 8520560 8529570 8538713 8548187 8558734 
1325.866 8571496 8587666 8608247 8633798 8664403 8699830 8739679 8783656 
1329.723 8831710 8884010 8940939 9002890 9070236 9143195 9221824 9306035 
1333.581 9395532 9489843 9588291 9690015 9794137 9899862 10006720 10114604 
1337.438 10223880 10335194 10449304 10566950 10688677 10814837 10945655 
1340.813 11081327 11222081 11368220 11519950 11677414 11840506 12008947 
1344.188 12182359 12360393 12542836 12729678 12921064 13117151 13317969 
1347.564 13523224 13732277 13944052 14157200 14370158 14581241 14788963 
1350.939 14992008 15189408 15380432 15564585 15741289 15909870 16069339 
1354.314 16218583 16356380 16481769 16594110 16693290 16779504 16853270 
1357.689 16915118 16965590 17005264 17034898 17055498 17068332 17074794 
1361.065 17076170 17073380 17066838 17056522 17042046 17022866 16998396 
1364.440 16967890 16930298 16884038 16826886 16756055 16668466 16561155 
1367.815 16431724 16278759 16102070 15903026 15684704 15452200 15212679 
1371.190 14975370 14751264 14552437 14391188 14278953 14225331 14237243 
1374.566 14318326 14468648 14684644 14959347 15282676 15641862 16022295 
1377.941 16408293 16784290 17135992 17451300 17720858 17937964 18098148 
1381.316 18198486 18237066 18212814 18125594 17976538 17768290 17504982 
1384.691 17192010 16835568 16442151 16018219 15569814 15102404 14620785 
1388.067 14128987 13630298 13127455 12622772 12118430 11616573 11119507 
1391.442 10629630 10149287 9680828 9226549 8788733 8369659 7971684 7597037 
1395.299 7247597 6924680 6628834 6359818 6116642 5897792 5701480 5525839 
1399.157 5369024 5229316 5105069 4994659 4896446 4808779 4729928 4658287 
1403.014 4592437 4531149 4473630 4419466 4368580 4321177 4277571 4238038 
1406.872 4202714 4171520 4144160 4120218 4099223 4080697 4064246 4049569 
1410.729 4036374 4024430 4013509 4003431 3994126 3985665 3978220 3972179 
1414.586 3967928 3965854 3966255 3969287 3974930 3983044 3993359 4005501 
1418.444 4019007 4033307 4047839 4062091 4075762 4088901 4101933 4115675 
1422.301 4131067 4149142 4170589 4195740 4224443 4256297 4290763 4327487 
1426.159 4366456 4408030 4452874 4501689 4555160 4613782 4677887 4747742 
1430.016 4823642 4906026 4995434 5092504 5197972 5312695 5437800 5574792 
1433.874 5725705 5893054 6079618 6288242 6521496 6781553 7070252 7389283 
1437.731 7740472 8125850 8547593 9007628 9507122 10046031 10622814 11234459 
1441.588 11876628 12543890 13229889 13927372 14628230 15323797 16005355 
1444.964 16664726 17294950 17890594 18447654 18963164 19434728 19860420 
1448.339 20238892 20569702 20853602 21092438 21288744 21444916 21562642 
1451.714 21642528 21684156 21686508 21648270 21568214 21445140 21277806 
1455.089 21065030 20805946 20500572 20150236 19757818 19327434 18863900 
1458.465 18372038 17856238 17320546 16768827 16205078 15633500 15058337 
1461.840 14483471 13912332 13347782 12792559 12249510 11721855 11212952 
1465.215 10725771 10262319 9823267 9408057 9015395 8644052 8293491 7963975 
1469.073 7656318 7370968 7107272 6862818 6633387 6413618 6198045 5982355 
1472.930 5764432 5544802 5326428 5113892 4912336 4726322 4559130 4412219 
1476.787 4285300 4176663 4083772 4003870 3934509 3873782 3820474 3773844 
1480.645 3733341 3698473 3668566 3642815 3620347 3600403 3582333 3565758 
1484.502 3550440 3536316 3523334 3511516 3500913 3491596 3483672 3477210 
1488.360 3472129 3468215 3464991 3461853 3458124 3453198 3446795 3438861 
1492.217 3429666 3419663 3409320 3398937 3388594 3378136 3367162 3355207 
1496.074 3341920 3327134 3311064 3294173 3277191 3260924 3246116 3233297 
1499.932 3222680 3214199 3207496 3202084 3197473 3193256 3189224 3185305 
1503.789 3181582 3178196 3175320 3173013 3171296 3170037 3169082 3168261 
1507.647 3167419 3166487 3165526 3164675 3164164 3164198 3164940 3166439 
1511.504 3168632 3171288 3174141 3176856 3179116 3180651 3181205 3180595 
1515.362 3178678 3175420 3170910 3165422 3159360 3153184 3147363 3142208 
1519.219 3137827 3134049 3130538 3126813 3122441 3117078 3110569 3102915 
1523.076 3094256 3084779 3074661 3064084 3053163 3042003 3030721 3019376 
1526.934 3008100 2997035 2986335 2976212 2966811 2958157 2950229 2942790 
1530.791 2935579 2928375 2921151 2914173 2907922 2903010 2899878 2898565 
1534.649 2898632 2899133 2898885 2896851 2892364 2885416 2876646 2867090 
1538.506 2857943 2850143 2844260 2840285 2837830 2836268 2835019 2833630 
1542.364 2831877 2829696 2827177 2824533 2822021 2819967 2818636 2818223 
1546.221 2818723 2819880 2821239 2822274 2822479 2821587 2819570 2816673 
1550.078 2813308 2809876 2806640 2803761 2801266 2799102 2797316 2795921 
1553.936 2794969 2794526 2794555 2795003 2795810 2797015 2798688 2800969 
1557.793 2803924 2807439 2811247 2814858 2817824 2819816 2820795 2820928 
1561.651 2820575 2820086 2819596 2819095 2818329 2816993 2814879 2811936 
1565.508 2808327 2804368 2800461 2796936 2794057 2791988 2790779 2790424 
1569.365 2790826 2791808 2793111 2794467 2795677 2796644 2797436 2798229 
1573.223 2799211 2800455 2801922 2803400 2804704 2805780 2806834 2808280 
1577.080 2810631 2814241 2819143 2824915 2830854 2836163 2840237 2842855 
1580.938 2844291 2845207 2846381 2848494 2851931 2856770 2862744 2869444 
1584.795 2876459 2883392 2889957 2895910 2901139 2905630 2909602 2913356 
1588.653 2917386 2922123 2927795 2934373 2941460 2948485 2954860 2960154 
1592.510 2964234 2967291 2969699 2971899 2974226 2976863 2979860 2983172 
1596.367 2986730 2990444 2994242 2997921 3001269 3004050 3006095 3007373 
1600.225 3007991 3008200 3008236 3008210 3008157 3007982 3007683 3007472 
1604.082 3007772 3009242 3012489 3017960 3025729 3035493 3046604 3058279 
1607.940 3069790 3080590 3090338 3098890 3106259 3112649 3118442 3124238 
1611.797 3130801 3138928 3149094 3161420 3175393 3189925 3203734 3215598 
1615.655 3224769 3231159 3235381 3238422 3241391 3245086 3249956 3255942 
1619.512 3262746 3269901 3276927 3283292 3288542 3292194 3293917 3293588 
1623.369 3291518 3288357 3285043 3282594 3281763 3282832 3285624 3289540 
1627.227 3293847 3297897 3301339 3304058 3306166 3307807 3309171 3310404 
1631.084 3311751 3313557 3316288 3320311 3325851 3332658 3340099 3347176 
1634.942 3352922 3356604 3357962 3357213 3354893 3351473 3347250 3342034 
1638.799 3335489 3327187 3317002 3305242 3292673 3280418 3269576 3261058 
1642.656 3255316 3252391 3251892 3253205 3255653 3258673 3261877 3265064 
1646.514 3268259 3271495 3274779 3277972 3280721 3282590 3283183 3282357 
1650.371 3280454 3278212 3276793 3277354 3280712 3287052 3295782 3305773 
1654.229 3315794 3324925 3332890 3340032 3347098 3354836 3363699 3373748 
1658.086 3384575 3395721 3406832 3417860 3429061 3440738 3453023 3465760 
1661.944 3478391 3490273 3500914 3510179 3518466 3526474 3535066 3544943 
1665.801 3556486 3569723 3584421 3600307 3617146 3634718 3652867 3671298 
1669.658 3689674 3707528 3724480 3740320 3755150 3769333 3783355 3797709 
1673.516 3812733 3828551 3845065 3862041 3879230 3896431 3913522 3930432 
1677.373 3947144 3963597 3979751 3995623 4011307 4027038 4043167 4060128 
1681.231 4078361 4098205 4119845 4143185 4167895 4193383 4218971 4243988 
1685.088 4268026 4291050 4313421 4335829 4359050 4383822 4410675 4439728 
1688.946 4470882 4503805 4538122 4573468 4609638 4646423 4683753 4721576 
1692.803 4759958 4799182 4839760 4882415 4928028 4977299 5030719 5088240 
1696.660 5149505 5213945 5281108 5350799 5423251 5498899 5578252 5661550 
1700.518 5748640 5838994 5931869 6026604 6122917 6221143 6322100 6427150 
1704.375 6537869 6655749 6782032 6917392 7061968 7215295 7376583 7544763 
1708.233 7718911 7898253 8082368 8271246 8465212 8664884 8871070 9084684 
1712.090 9306683 9537891 9778911 10029802 10290044 10558385 10833090 
1715.465 11112129 11393729 11676677 11960555 12245677 12532680 12822141 
1718.841 13114335 13409100 13706286 14006160 14309867 14619695 14938882 
1722.216 15271151 15620250 15989387 16381213 16797852 17241346 17714048 
1725.591 18218858 18759480 19340230 19966016 20642182 21374250 22167868 
1728.966 23028612 23961920 24973214 26068338 27254054 28538590 29931804 
1732.342 31444440 33086694 34866212 36786208 38844660 41035084 43349008 
1735.717 45778836 48320304 50972944 53738628 56618196 59607904 62696616 
1739.092 65865088 69087184 72332672 75569624 78766176 81890552 84910720 
1742.467 87794488 90511016 93032976 95339232 97415048 99251472 100842464 
1745.843 102183176 103269088 104097744 104670808 104995712 105085120 
1748.736 104954656 104619672 104093168 103385528 102506064 101465168 
1751.629 100275744 98952616 97510792 95963176 94319392 92586088 90768696 
1755.004 88873360 86908264 84883680 82810832 80700448 78562000 76403520 
1758.379 74232840 72058536 69890696 67740872 65621192 63543152 61516624 
1761.754 59549468 57647472 55814712 54054040 52366960 50753836 49213676 
1765.130 47744332 46342904 45006348 43731908 42517500 41361432 40261884 
1768.505 39216380 38221316 37271924 36362544 35487260 34640484 33817364 
1771.880 33013994 32227222 31454504 30693408 29941666 29196760 28456196 
1775.255 27717472 26978398 26237154 25492542 24743940 23991410 23235582 
1778.631 22477574 21718838 20961156 20206528 19457206 18715594 17984306 
1782.006 17266032 16563523 15879445 15216219 14575975 13960385 13370557 
1785.381 12807219 12270707 11761316 11279362 10825342 10399664 10002430 
1788.756 9633016 9290006 8971173 8673964 8396038 8135696 7892071 7664911 
1792.614 7454027 7258867 7078162 6909951 6752127 6603043 6461821 6328657 
1796.471 6204283 6089506 5984439 5888236 5799091 5714837 5633458 5553806 
1800.329 5475703 5399928 5327665 5260021 5197524 5140092 5087102 5037741 
1804.186 4991215 4947041 4904954 4864839 4826487 4789578 4753539 4717638 
1808.043 4681028 4642872 4602459 4559256 4513025 4463896 4412310 4359125 
1811.901 4305379 4252277 4200994 4152613 4108054 4068150 4033624 4005195 
1815.758 3983349 3968281 3959606 3956302 3956743 3958888 3960534 3959734 
1819.616 3955142 3946040 3932459 3914991 3894552 3872199 3848751 3824680 
1823.473 3799941 3774074 3746376 3716196 3683243 3647829 3610816 3573555 
1827.331 3537298 3503096 3471347 3441732 3413410 3385374 3356669 3326765 
1831.188 3295440 3262947 3229749 3196440 3163760 3132561 3103664 3077840 
1835.045 3055491 3036549 3020375 3005926 2991940 2977507 2962159 2945920 
1838.903 2929284 2912738 2896749 2881513 2867139 2853979 2842433 2833071 
1842.760 2826020 2820692 2815406 2807801 2795401 2776776 2752119 2723755 
1846.618 2695367 2671030 2653743 2644443 2641537 2641638 2640610 2635123 
1850.475 2623558 2606400 2585836 2564715 2545610 2530160 2518874 2511310 
1854.333 2506563 2503722 2501937 2500615 2499279 2497663 2495678 2493558 
1858.190 2491633 2490342 2489731 2489404 2488480 2486041 2481465 2474978 
1862.047 2467484 2460221 2454005 2448645 2442633 2433811 2420236 2401428 
1865.905 2378853 2356005 2336977 2325323 2322306 2326747 2335204 2343660 
1869.762 2349003 2350246 2348625 2346717 2346778 2349611 2353966 2357255 
1873.620 2356737 2351124 2341367 2330454 2322031 2318855 2321319 2327150 
1877.477 2332055 2331399 2322027 2303589 2278634 2252041 2229412 2215415 
1881.334 2212653 2221215 2238736 2261521 2284889 2304654 2317528 2321854 
1885.192 2317712 2306981 2292801 2278905 2268399 2263172 2263332 2267397 
1889.049 2273168 2278795 2283606 2288414 2294880 2304778 2318789 2336034 
1892.907 2354163 2370399 2382357 2389089 2390834 2388482 2382384 2371621 
1896.764 2353993 2327112 2289831 2243938 2194366 2148719 2115026 2099319 
1900.622 2103431 2124217 2154291 2184346 2205783 2213304 2206033 2187345 
1904.479 2163243 2140508 2124557 2118422 2122359 2134474 2151577 2170528 
1908.336 2188532 2203937 2216000 2224924 2231246 2235750 2238832 2240796 
1912.194 2241439 2240598 2238141 2234315 2229276 2223296 2216140 2207084 
1916.051 2194785 2178153 2156803 2131798 2105693 2082112 2064202 2053521 
1919.909 2048704 2045762 2038841 2022191 1992167 1949209 1897648 1845449 
1923.766 1801587 1773959 1766704 1779572 1807481 1842647 1876141 1900494 
1927.624 1911032 1907033 1891142 1868966 1846934 1831362 1826347 1833389 
1931.481 1850861 1874635 1899280 1919782 1932491 1936298 1932465 1924098 
1935.338 1914855 1907911 1904980 1906229 1910151 1914738 1917651 1917360 
1939.196 1912756 1903383 1888906 1868948 1842509 1808920 1767818 1720547 
1943.053 1670429 1623619 1587594 1570324 1576339 1605723 1651895 1702910 
1946.911 1743939 1762322 1751708 1715196 1664623 1617194 1589232 1590751 
1950.768 1621418 1671818 1727486 1775601 1810276 1835465 1861857 1902049 
1954.625 1962862 2042052 2127200 2200735 2245922 2253760 2225495 2172253 
1958.483 2109564 2052257 2008534 1980510 1964371 1956218 1954046 1958510 
1962.340 1970695 1989104 2007719 2017558 2010757 1985821 1949641 1917062 
1966.198 1904648 1923867 1974710 2044247 2110519 2150397 2147512 2098447 
1970.055 2012189 1906809 1801293 1710490 1640450 1590463 1555818 1533137 
1973.913 1522813 1530257 1564069 1635005 1751122 1918045 2135349 2394424 
1977.770 2676050 2951022 3184270 3342370 3401481 3354803 3213836 3006589 
1981.627 2770507 2544470 2359687 2233736 2167606 2149247 2158574 2175345 
1985.485 2184172 2178406 2159328 2135407 2118250 2120417 2151671 2217148 
1989.342 2314545 2433891 2557180 2663007 2729465 2741998 2696425 2601491 
1993.200 2476284 2344953 2230070 2147058 2100827 2087652 2098062 2121932 
1997.057 2151200 2181284 2208894 2230146 2237759 2222325 2173677 2085608 
2000.915 1958826 1802943 1635013 1476598 1347068 1260138 1219449 1219756 
2004.772 1248177 1289843 1331568 1367574 1398422 1431769 1475773 1534831 
2008.629 1604144 1669651 1710918 1708612 1651191 1541491 1397494 1248826 
2012.487 1127589 1060021 1057634 1115835 1216308 1336437 1456801 1568309 
2016.344 1671371 1773048 1879007 1989111 2093570 2177410 2224978 2226635 
2020.202 2181543 2097710 1985959 1857294 1716774 1566479 1407482 1245018 
2024.059 1091170 964702 884991 867233 914825 1019095 1159098 1308929 1442248 
2028.399 1539899 1591195 1595585 1560675 1500846 1434512 1382709 1365109 
2032.256 1396341 1480908 1610369 1762885 1908932 2018782 2072741 2066480 
2036.114 2012866 1936193 1865141 1821418 1815494 1844105 1894040 1948696 
2039.971 1994915 2027420 2048969 2066884 2088759 2116449 2144896 2162584 
2043.828 2156863 2119391 2051150 1963459 1877199 1816236 1801673 1844822 
2047.686 1944787 2087598 2251412 2411879 2549973 2655482 2727807 2772260 
2051.543 2796300 2804773 2799059 2776087 2731585 2662007 2567649 2453190 
2055.401 2327536 2201345 2085197 1986789 1910989 1859080 1829580 1818577 
2059.258 1820618 1829646 1840331 1849125 1856062 1864475 1880770 1911817 
2063.115 1962661 2033635 2120025 2212144 2298590 2368811 2416220 2438880 
2066.973 2439160 2421008 2388869 2344979 2290583 2226525 2155106 2080868 
2070.830 2010334 1950329 1906250 1880160 1871188 1876631 1893765 1921343 
2074.688 1960307 2012558 2079337 2159004 2246798 2334702 2413809 2475844 
2078.545 2515527 2530986 2523758 2497247 2456076 2404779 2347811 2289246 
2082.403 2233254 2183216 2142130 2111044 2089840 2076724 2069401 2065283 
2086.260 2062451 2059554 2055821 2050572 2043650 2035141 2026047 2018048 
2090.117 2013430 2013865 2019778 2029186 2038507 2043118 2039666 2027262 
2093.975 2008669 1989276 1975483 1971652 1978535 1992471 2007048 2015736 
2097.832 2014948 2005440 1992538 1983228 1983833 1996927 2020232 2047270 
2101.690 2070011 2081858 2080446 2068207 2051971 2040007 2039327 2052975 
2105.547 2079126 2111623 2142074 2162069 2166131 2152518 2123806 2085454 
2109.405 2044635 2008068 1980928 1965803 1962979 1970576 1985485 2003887 
2113.262 2022223 2037219 2046808 2049361 2044668 2033165 2016276 1995756 
2117.119 1973754 1952279 1933227 1917719 1906622 1900008 1897371 1897416 
2120.977 1898141 1896807 1890651 1876718 1853309 1819640 1776634 1725963 
2124.834 1669799 1609501 1545356 1475936 1399097 1312635 1215630 1108962 
2128.692 996095 881842 772644 674196 591928 529897 491136 477003 487317 
2133.031 519140 566918 621867 673739 712432 730655 725549 700212 661507 
2137.371 618466 578997 548470 528658 518905 517018 521207 529292 538808 
2141.710 544639 539422 514020 460757 376846 268226 149137 40924 -35501 
2146.050 -65051 -45064 13317 87172 148894 173606 147156 68199 -51372 -191736 
2150.872 -331086 -452019 -545297 -612024 -662481 -714179 -787633 -902906 
2154.729 -1073120 -1301232 -1573851 -1860497 -2113163 -2274967 -2290866 
2158.104 -2126359 -1781450 -1299074 -754820 -236523 184542 468542 614210 
2161.962 648876 615408 558151 513660 504187 537801 609091 705443 809906 
2166.302 906856 983627 1034093 1058072 1060871 1050927 1036438 1020868 
2170.159 1001392 967429 904626 799312 646480 452780 239900 40242 -109364 
2174.499 -177771 -147885 -22644 175827 410670 641147 831116 957254 1011703 
2178.838 1001720 945206 866236 787835 728227 697157 695600 717680 754702 
2183.178 798735 846217 897491 955556 1021739 1093256 1161405 1214515 1242009 
2187.517 1241019 1218123 1191008 1181841 1210288 1285114 1400066 1533847 
2191.375 1657862 1743883 1774470 1747432 1675043 1578924 1481907 1401386 
2195.232 1346146 1316726 1309977 1322809 1354638 1406433 1478372 1565887 
2199.090 1658546 1741226 1798896 1820949 1805555 1760270 1700533 1644594 
2202.947 1609311 1606004 1639367 1707302 1802749 1914551 2029503 2132412 
2206.804 2208979 2246641 2238662 2185536 2095900 1985474 1873447 1778002 
2210.662 1711873 1679780 1678327 1697528 1724777 1747679 1757351 1749254 
2214.519 1723950 1685915 1642845 1603673 1577196 1569835 1584335 1618549 
2218.377 1666533 1719096 1767067 1803593 1825701 1834512 1834415 1830259 
2222.234 1826244 1823458 1821550 1818633 1813351 1805581 1796613 1788364 
2226.092 1782568 1779384 1778365 1778343 1778578 1779294 1781996 1788709 
2229.949 1801537 1821481 1848925 1882736 1921339 1962079 2001910 2036953 
2233.806 2063669 2079043 2082532 2076247 2065571 2057367 2058658 2073276 
2237.664 2101197 2137088 2173054 2200321 2213266 2211002 2198219 2183519 
2241.521 2176857 2185788 2213807 2258607 2313576 2369423 2417061 2449807 
2245.379 2465172 2464755 2454324 2441477 2434443 2439448 2459425 2492859 
2249.236 2534234 2574938 2605715 2618750 2609973 2579949 2534001 2480507 
2253.094 2429461 2389245 2365822 2360986 2373179 2397585 2428021 2457782 
2256.951 2481198 2493925 2493875 2481337 2458888 2430817 2402934 2380802 
2260.808 2369269 2370780 2385396 2410483 2441419 2472531 2498588 2515750 
2264.666 2522621 2519817 2510427 2498361 2487863 2482314 2484067 2493828 
2268.523 2511620 2536495 2567461 2603244 2642276 2682446 2721225 2755600 
2272.381 2783224 2802554 2813927 2818935 2820192 2819774 2818673 2815988 
2276.238 2809625 2797136 2777590 2752367 2725696 2703460 2691872 2695297 
2280.095 2715230 2749616 2793939 2842407 2889899 2933039 2970759 3003776 
2283.953 3034117 3063581 3093371 3123518 3152818 3179213 3200172 3213307 
2287.810 3216959 3210574 3195235 3173337 3148310 3123616 3102042 3084879 
2291.668 3071878 3061317 3051191 3039769 3026362 3011493 2996526 2982856 
2295.525 2971525 2962627 2955536 2949259 2942853 2935818 2928231 2920414 
2299.383 2912962 2906206 2900444 2895787 2892312 2889888 2888216 2886638 
2303.240 2884430 2880800 2875675 2869762 2864782 2862968 2866303 2875852 
2307.097 2891118 2909965 2929429 2946479 2958944 2966198 2969032 2969179 
2310.955 2968624 2968888 2970849 2974554 2979649 2985679 2992248 2999050 
2314.812 3006131 3013380 3021076 3029598 3039666 3052019 3067425 3086435 
2318.670 3109601 3137607 3171692 3213667 3265388 3327473 3398140 3471903 
2322.527 3539580 3589600 3610648 3594432 3538308 3445944 3326853 3194213 
2326.385 3062138 2942865 2844827 2771613 2722344 2693109 2678633 2673924 
2330.242 2675144 2679741 2686030 2692536 2697885 2700673 2699977 2695548 
2334.099 2688053 2678696 2668907 2659790 2651917 2645353 2639803 2635054 
2337.957 2631051 2628063 2626450 2626490 2628201 2631321 2635468 2640111 
2341.814 2644819 2649219 2652952 2655617 2656761 2655976 2653078 2647993 
2345.672 2641064 2632689 2623441 2613870 2604409 2595438 2587232 2579956 
2349.529 2573643 2568183 2563288 2558598 2553874 2549013 2544349 2540395 
2353.386 2537774 2536959 2538006 2540454 2543414 2545799 2546560 2544968 
2357.244 2540685 2533645 2524048 2512054 2497997 2482111 2464786 2446488 
2361.101 2427834 2409279 2391296 2374103 2357899 2342796 2329164 2317427 
2364.959 2308186 2301988 2299171 2299687 2303275 2309312 2317340 2326809 
2368.816 2337359 2348475 2359597 2369792 2378023 2383234 2384716 2382370 
2372.674 2376836 2369362 2361684 2355403 2351986 2352125 2355936 2362769 
2376.531 2371587 2380917 2389453 2396171 2400617 2403129 2404753 2407024 
2380.388 2411580 2419514 2431030 2445128 2459622 2471738 2478854 2479258 
2384.246 2472826 2461269 2447792 2436536 2431370 2434946 2448030 2469261 
2388.103 2495466 2522522 2546522 2564596 2575641 2580220 2580327 2578467 
2391.961 2576940 2577126 2579384 2583213 2587807 2592346 2596455 2600030 
2395.818 2603125 2605480 2606615 2605674 2602036 2595520 2586827 2577446 
2399.676 2569269 2563917 2562207 2563659 2566791 2569362 2569307 2565571 
2403.533 2558431 2549565 2541660 2537402 2538646 2545754 2557465 2571103 
2407.390 2583701 2592650 2596850 2597010 2595222 2594202 2596392 2602750 
2411.248 2612525 2623395 2632344 2636739 2635315 2628584 2618784 2608808 
2415.105 2601454 2598290 2599391 2603398 2608121 2611063 2610270 2604498 
2418.963 2593500 2577782 2558799 2538686 2520122 2505958 2498683 2499657 
2422.820 2508712 2523948 2542382 2560746 2576550 2588748 2597813 2605159 
2426.677 2612064 2618873 2624704 2627798 2626340 2619659 2608759 2596007 
2430.535 2584530 2576839 2574172 2575953 2580494 2585657 2589779 2592193 
2434.392 2593029 2592790 2591667 2589409 2585529 2579712 2572594 2565564 
2438.250 2560783 2559923 2563956 2572322 2583285 2594733 2604695 2612133 
2442.107 2616977 2619585 2620450 2619557 2616646 2611235 2603772 2595293 
2445.965 2587791 2583251 2583303 2588357 2597643 2609510 2622190 2634186 
2449.822 2644731 2653416 2659924 2663670 2663827 2659728 2651486 2640250 
2453.679 2628445 2618719 2613516 2614021 2619687 2628659 2638360 2646271 
2457.537 2650822 2651292 2647996 2641625 2632947 2622755 2611832 2601224 
2461.394 2592066 2585487 2581940 2581091 2581655 2581909 2580474 2577022 
2465.252 2572648 2569411 2569595 2574325 2582775 2592091 2598143 2596900 
2469.109 2586268 2566835 2542260 2518183 2500564 2493819 2499386 2515411 
2472.967 2537393 2559463 2576248 2584299 2582703 2573016 2558446 2542586 
2476.824 2528420 2517443 2509924 2504992 2501520 2498828 2497061 2497067 
2480.681 2500068 2507007 2518048 2532226 2547725 2562129 2573176 2579070 
2484.539 2579082 2573317 2562811 2549274 2534747 2521447 2511434 2506353 
2488.396 2507184 2513831 2525369 2539919 2555515 2570384 2583570 2595113 
2492.254 2605866 2616735 2628328 2640357 2651691 2660699 2666034 2667117 
2496.111 2664547 2659925 2655249 2652209 2651618 2653156 2655688 2657719 
2499.969 2657969 2655705 2650868 2643795 2635056 2625040 2613985 2602178 
2503.826 2590037 2578249 2567724 2559363 2553966 2551898 2553299 2558110 
2507.683 2566275 2577727 2592539 2610329 2630310 2651000 2670466 2686812 
2511.541 2698621 2705410 2707832 2707558 2706481 2706198 2707425 2709636 
2515.398 2711591 2711426 2707648 2699653 2687757 2673243 2657870 2643229 
2519.256 2630533 2620253 2612493 2607100 2603972 2603237 2605027 2609343 
2523.113 2615809 2623604 2631618 2638821 2644596 2648683 2651272 2652525 
2526.970 2652353 2650166 2645274 2637112 2626004 2613227 2600911 2591337 
2530.828 2586233 2585773 2588618 2592316 2594244 2592675 2587660 2581163 
2534.685 2576238 2576058 2582774 2596694 2616318 2639026 2661816 2682301 
2538.543 2698936 2711036 2718415 2721010 2718903 2712344 2702486 2691262 
2542.400 2681571 2676279 2677615 2686101 2700301 2717092 2732500 2742943 
2546.258 2746308 2742503 2733342 2721972 2711931 2706170 2706682 2713938 
2550.115 2727284 2744924 2764636 2783700 2799574 2810017 2813489 2809430 
2553.972 2798418 2782066 2763028 2744290 2728898 2719265 2716826 2721733 
2557.830 2732911 2748161 2764705 2779753 2791051 2797457 2799002 2796736 
2561.687 2792292 2787291 2782740 2778884 2775479 2772194 2769057 2766921 
2565.545 2767206 2771412 2780467 2794166 2810899 2828067 2843001 2853654 
2569.402 2859378 2861015 2860581 2860358 2862293 2867166 2874787 2884159 
2573.260 2893965 2903127 2911007 2917331 2921871 2924319 2924078 2920410 
2577.117 2913016 2902088 2888729 2874735 2862359 2853742 2850364 2852721 
2580.974 2860263 2871546 2884590 2897384 2908200 2916052 2920550 2922061 
2584.832 2921411 2919653 2917744 2916406 2916053 2916623 2917923 2919531 
2588.689 2921122 2922398 2923233 2923768 2924110 2924398 2924722 2924958 
2592.547 2924964 2924344 2922886 2920731 2918556 2917502 2919297 2925673 
2596.404 2937916 2956169 2979238 3004513 3028387 3047161 3057840 3058973 
2600.261 3051052 3036206 3017772 2999245 2983662 2972768 2967227 2966562 
2604.119 2969752 2975564 2982956 2991113 2999486 3007570 3014948 3021300 
2607.976 3026579 3030947 3035059 3039713 3045800 3053923 3064076 3075701 
2611.834 3087668 3098422 3106609 3111133 3111788 3109192 3104753 3100366 
2615.691 3097936 3098882 3103756 3112107 3122575 3133351 3142713 3149500 
2619.549 3153524 3155426 3156470 3157952 3160704 3164679 3169085 3172607 
2623.406 3174137 3173130 3170092 3166571 3164558 3166078 3172297 3183295 
2627.263 3197988 3214325 3230222 3243915 3254574 3262182 3267479 3271262 
2631.121 3274167 3276148 3276820 3275679 3272589 3268152 3263685 3261014 
2634.978 3261862 3267337 3277560 3291446 3307109 3322178 3334563 3342741 
2638.836 3346214 3345385 3341458 3336079 3331005 3327811 3327572 3330558 
2642.693 3336358 3343746 3351165 3356801 3359389 3358287 3353808 3347036 
2646.551 3339512 3332682 3327537 3324376 3322778 3321974 3321088 3319523 
2650.408 3317090 3314006 3310666 3307462 3304582 3302071 3299740 3297417 
2654.265 3294849 3291755 3287853 3282757 3276136 3267757 3257637 3246055 
2658.123 3233565 3220700 3207859 3195097 3182131 3168438 3153572 3137244 
2661.980 3119689 3101387 3083091 3065488 3049169 3034414 3021477 3010440 
2665.838 3001530 2994847 2990339 2987778 2986495 2985584 2984163 2981663 
2669.695 2977935 2973354 2968626 2964450 2961307 2959253 2957952 2956896 
2673.552 2955639 2953946 2951906 2949647 2947324 2944900 2942147 2938784 
2677.410 2934755 2930234 2925684 2921714 2918836 2917230 2916681 2916677 
2681.267 2916646 2916169 2915144 2913763 2912427 2911382 2910784 2910367 
2685.125 2909851 2908768 2906990 2904592 2901892 2899409 2897720 2897271 
2688.982 2898385 2901106 2905290 2910398 2915736 2920346 2923320 2923898 
2692.840 2921842 2917434 2911606 2905629 2900777 2897964 2897475 2898974 
2696.697 2901635 2904453 2906686 2907856 2907917 2907062 2905444 2903176 
2700.554 2900145 2896268 2891602 2886402 2881228 2876694 2873333 2871386 
2704.412 2870741 2871005 2871755 2872662 2873532 2874375 2875264 2876181 
2708.269 2876996 2877508 2877560 2877217 2876662 2876244 2876157 2876392 
2712.127 2876489 2875813 2873754 2870018 2864852 2859003 2853705 2850119 
2715.984 2849141 2851094 2855713 2862281 2869902 2877692 2885015 2891435 
2719.842 2896741 2900811 2903681 2905443 2906318 2906657 2906719 2906781 
2723.699 2906815 2906561 2905707 2903963 2901311 2898113 2895034 2892851 
2727.556 2892233 2893457 2896322 2900225 2904444 2908257 2911181 2913049 
2731.414 2913925 2914041 2913711 2913250 2913069 2913471 2914895 2917535 
2735.271 2921440 2926321 2931687 2936943 2941719 2945844 2949553 2953217 
2739.129 2957244 2961682 2966168 2970042 2972464 2972837 2970957 2967045 
2742.986 2961650 2955406 2948805 2942128 2935551 2929271 2923669 2919408 
2746.844 2917076 2917066 2919294 2923110 2927440 2931137 2933509 2934313 
2750.701 2934118 2933725 2933960 2935249 2937455 2939849 2941598 2942047 
2754.558 2941103 2939289 2937614 2937276 2939203 2943818 2950859 2959392 
2758.416 2968097 2975475 2980231 2981596 2979492 2974573 2968209 2962181 
2762.273 2958233 2957689 2961058 2967806 2976520 2985302 2992200 2995888 
2766.131 2995912 2992789 2987755 2982344 2977900 2975306 2974649 2975431 
2769.988 2976842 2978010 2978255 2977267 2975074 2972042 2968661 2965607 
2773.845 2963533 2962955 2964364 2968037 2973888 2981617 2990528 2999688 
2777.703 3008040 3014611 3018787 3020407 3019967 3018499 3017359 3017779 
2781.560 3020797 3026622 3034946 3044709 3054780 3064022 3071952 3078447 
2785.418 3083893 3088839 3093627 3098263 3102371 3105599 3107729 3109053 
2789.275 3110358 3112698 3116888 3123147 3130918 3138871 3145480 3149442 
2793.133 3150403 3148877 3146484 3145117 3146468 3151421 3159904 3170786 
2796.990 3182415 3193116 3201756 3207877 3211914 3214905 3218127 3222768 
2800.847 3229735 3239309 3251335 3265132 3279754 3294040 3306919 3317550 
2804.705 3325521 3330926 3334278 3336485 3338502 3341283 3345433 3351190 
2808.562 3358471 3366863 3375901 3385133 3394225 3402938 3411165 3418868 
2812.420 3426105 3432970 3439695 3446623 3454167 3462703 3472575 3483805 
2816.277 3496268 3509611 3523315 3536861 3549826 3561942 3573100 3583302 
2820.135 3592573 3601002 3608857 3616483 3624468 3633641 3644812 3658706 
2823.992 3675681 3695567 3717816 3741446 3765572 3789498 3813050 3836643 
2827.849 3860836 3886350 3913579 3942488 3972643 4003270 4033634 4063317 
2831.707 4092250 4120861 4149797 4179847 4211906 4246752 4285248 4328282 
2835.564 4376923 4432203 4495157 4566679 4647414 4737910 4838742 4950684 
2839.422 5074929 5212895 5366253 5536695 5725709 5934477 6164154 6415909 
2843.279 6691342 6992391 7321398 7680460 8070626 8490913 8937445 9402712 
2847.136 9875471 10341094 10782488 11181562 11520720 11784691 11961908 
2850.512 12045474 12033863 11930647 11744203 11486454 11171833 10815667 
2853.887 10433111 10037823 9641294 9252432 8877600 8520899 8184612 7869833 
2857.744 7576924 7305793 7056308 6828132 6620924 6434115 6267062 6118718 
2861.602 5987876 5873032 5772484 5684546 5607557 5540265 5481822 5431935 
2865.459 5390609 5358084 5334499 5319663 5313022 5313718 5320750 5333311 
2869.317 5350977 5373594 5401408 5434629 5473259 5516963 5565015 5616377 
2873.174 5670086 5725161 5780967 5837064 5893255 5949308 6005084 6060263 
2877.031 6114420 6167048 6217488 6265046 6309278 6349753 6386480 6419792 
2880.889 6450298 6478672 6505370 6530644 6554269 6575790 6594927 6611693 
2884.746 6626733 6641247 6656562 6673810 6693537 6715392 6738520 6761810 
2888.604 6784566 6806849 6829666 6854590 6883298 6916961 6955907 6999548 
2892.461 7046615 7095842 7146180 7197324 7249470 7303393 7359723 7418845 
2896.319 7480642 7544361 7609011 7673478 7736843 7798687 7859190 7919045 
2900.176 7979580 8042396 8109149 8181260 8259646 8344619 8435988 8533166 
2904.033 8635516 8742562 8854438 8971646 9095508 9227691 9370395 9526061 
2907.891 9697372 9886932 10097408 10331070 10589860 10875233 11188468 
2911.266 11530510 11902227 12304100 12735917 13196178 13681301 14185348 
2914.641 14699748 15213694 15715058 16191250 16630593 17022878 17360196 
2918.017 17637136 17850850 18000772 18088438 18117134 18091532 18016938 
2921.392 17898912 17742724 17552944 17333538 17087964 16819532 16531944 
2924.767 16229053 15915184 15594558 15271275 14948744 14629629 14316118 
2928.142 14009938 13712592 13425668 13150756 12889439 12643164 12413091 
2931.518 12199954 12004070 11825304 11663122 11516917 11385991 11269913 
2934.893 11168700 11082643 11012596 10959327 10923533 10905405 10904494 
2938.268 10919686 10949132 10990471 11040805 11096594 11154094 11209241 
2941.643 11258141 11297411 11324634 11338616 11339215 11327016 11302598 
2945.019 11266112 11216885 11153614 11074983 10980245 10869986 10746149 
2948.394 10611980 10471253 10327568 10183585 10040896 9900031 9760967 
2951.769 9623510 9487735 9353959 9222835 9094903 8970629 8850213 8733720 
2955.626 8621223 8512828 8408698 8308967 8213734 8122862 8036054 7953107 
2959.484 7873711 7797735 7725020 7655386 7588441 7523676 7460440 7398173 
2963.341 7336550 7275571 7215610 7157319 7101352 7048276 6998485 6952048 
2967.199 6908755 6868171 6829951 6793699 6759301 6726780 6696577 6669065 
2971.056 6644587 6623228 6604691 6588153 6572690 6557399 6541836 6526217 
2974.914 6511631 6499832 6492766 6492357 6500005 6516452 6541582 6574811 
2978.771 6615164 6661651 6713681 6771084 6834266 6904135 6981995 7069119 
2982.628 7166554 7274940 7394190 7523956 7663585 7812673 7971115 8139165 
2986.486 8316989 8504376 8700062 8901773 9106334 9310161 9509883 9702886 
2990.343 9887249 10061792 10225166 10375577 10510515 10626981 10722129 
2993.719 10793989 10842031 10867312 10872050 10859115 10831214 10790450 
2997.094 10738116 10674811 10600849 10516288 10421228 10315840 10200195 
3000.469 10074565 9939469 9795979 9645688 9490655 9332916 9174095 9014842 
3004.326 8854946 8693476 8529434 8362321 8192539 8021497 7851019 7683035 
3008.184 7519039 7359680 7205016 7054721 6908410 6765801 6626840 6491338 
3012.041 6358944 6229237 6101796 5976560 5854183 5735881 5623205 5517688 
3015.899 5420096 5330384 5247459 5169728 5095376 5022936 4951447 4880536 
3019.756 4810045 4739954 4670233 4600744 4531654 4463459 4396934 4333301 
3023.614 4273736 4219167 4169887 4125731 4085837 4049198 4014792 3981789 
3027.471 3949632 3918227 3887853 3858861 3831893 3807370 3785603 3766312 
3031.328 3748795 3731834 3714000 3693963 3670936 3644980 3617101 3589011 
3035.186 3562717 3539983 3521905 3508516 3498956 3491658 3484977 3477333 
3039.043 3467879 3456137 3442138 3426194 3408467 3389156 3368693 3347648 
3042.901 3327097 3308640 3294182 3285232 3282722 3286469 3295048 3306197 
3046.758 3317309 3326219 3331623 3333341 3332107 3328978 3324955 3320383 
3050.615 3315011 3308424 3300302 3291121 3281926 3274347 3269741 3268681 
3054.473 3270515 3273313 3274618 3272064 3264422 3252025 3236822 3221782 
3058.330 3210071 3204037 3204573 3211039 3221393 3232997 3243369 3250771 
3062.188 3254683 3255632 3254969 3254182 3254600 3256693 3260214 3264172 
3066.045 3267101 3267791 3265441 3260050 3252489 3244125 3236623 3231296 
3069.903 3228835 3229102 3231350 3234224 3236515 3237106 3235497 3231706 
3073.760 3226110 3219510 3212731 3206597 3201881 3199064 3198552 3200244 
3077.617 3203826 3208705 3213888 3218488 3221731 3222946 3222018 3218988 
3081.475 3214168 3207873 3200373 3191751 3182103 3171478 3160203 3148789 
3085.332 3138135 3129301 3123415 3121370 3123523 3129769 3139109 3150127 
3089.190 3160930 3169714 3174958 3175684 3171817 3163953 3153192 3141107 
3093.047 3129198 3118870 3111015 3106191 3104304 3104745 3106730 3108978 
3096.905 3110323 3109736 3106543 3100693 3092602 3083280 3074019 3066248 
3100.762 3061271 3059939 3062822 3069828 3080432 3093735 3108547 3123586 
3104.619 3137683 3149933 3159786 3167019 3171768 3174231 3174650 3173150 
3108.477 3169762 3164548 3157721 3149688 3141169 3132899 3125683 3119995 
3112.334 3116015 3113595 3112410 3112153 3112445 3113191 3114317 3115518 
3116.192 3116602 3117084 3116679 3115078 3112379 3108853 3104839 3100708 
3120.049 3096618 3092570 3088372 3083951 3079390 3075135 3071821 3070072 
3123.906 3070556 3073445 3078621 3085664 3093885 3102564 3111077 3118798 
3127.764 3125376 3130577 3134433 3137133 3139092 3140806 3142532 3144332 
3131.621 3145889 3146469 3145446 3142169 3136809 3130013 3123088 3117585 
3135.479 3114887 3115908 3120736 3128691 3138660 3149249 3159268 3167896 
3139.336 3174759 3179772 3182977 3184370 3183869 3181278 3176619 3170105 
3143.194 3162491 3154811 3148483 3144722 3144437 3147745 3153881 3161203 
3147.051 3167791 3171724 3171729 3167443 3159546 3149490 3139091 3129800 
3150.908 3122652 3117854 3115157 3114117 3114433 3116084 3119555 3125291 
3154.766 3133619 3144345 3156796 3169821 3182111 3192329 3199531 3203018 
3158.623 3202469 3197890 3189645 3178356 3165113 3151343 3138662 3128680 
3162.481 3122587 3120972 3123764 3130009 3138499 3147796 3156699 3164317 
3166.338 3170253 3174525 3177340 3179068 3179950 3180058 3179274 3177157 
3170.196 3173276 3167255 3159169 3149617 3139839 3131380 3125855 3124362 
3174.053 3127020 3132939 3140291 3147043 3151537 3152952 3151783 3149418 
3177.910 3147827 3148607 3152662 3159650 3168321 3176964 3183948 3188217 
3181.768 3189573 3188536 3185965 3182757 3179385 3176034 3172532 3168671 
3185.625 3164561 3160558 3157310 3155498 3155662 3157890 3161966 3167287 
3189.483 3173237 3179340 3185445 3191671 3198126 3204811 3211161 3216356 
3193.340 3219170 3218649 3214466 3207249 3198676 3191109 3186996 3188192 
3197.198 3195382 3207876 3223824 3240711 3256075 3268026 3275466 3278163 
3201.055 3276485 3271060 3262690 3252222 3240687 3229257 3219379 3212149 
3204.912 3208482 3208487 3211632 3216866 3222982 3229100 3234698 3239818 
3208.770 3244832 3249945 3255321 3260634 3265631 3270053 3274009 3277747 
3212.627 3281693 3285837 3289818 3292776 3293696 3291877 3287386 3281127 
3216.485 3274767 3270348 3269649 3273610 3282342 3294943 3309852 3325139 
3220.342 3338902 3349337 3355107 3355402 3350097 3340013 3326820 3312716 
3224.199 3300305 3291556 3287574 3288077 3291654 3296064 3298976 3298670 
3228.057 3294607 3287357 3278517 3270091 3264183 3262205 3264861 3271825 
3231.914 3282123 3293894 3305077 3313708 3318316 3318306 3314324 3307827 
3235.772 3300955 3295663 3293266 3293910 3296696 3299944 3302072 3302058 
3239.629 3299901 3296492 3293344 3291658 3292125 3294571 3298317 3302371 
3243.487 3306174 3309669 3313331 3317709 3323144 3329232 3335035 3339088 
3247.344 3340112 3337270 3330679 3321289 3310727 3300835 3293234 3288827 
3251.201 3287839 3289660 3293115 3296924 3300005 3301719 3302175 3301980 
3255.059 3302237 3303863 3307368 3312375 3317880 3322559 3325106 3324924 
3258.916 3322398 3318744 3315720 3314949 3317408 3323109 3331300 3340513 
3262.774 3349518 3357298 3363385 3367713 3370394 3371445 3370669 3367831 
3266.631 3362820 3355868 3347529 3338588 3329935 3322143 3315526 3310093 
3270.489 3305845 3302805 3301073 3300772 3301891 3304086 3306982 3310078 
3274.346 3313253 3316684 3321071 3326937 3334627 3343564 3352683 3360359 
3278.203 3365269 3366820 3365557 3362848 3360516 3359998 3361971 3365905 
3282.061 3370620 3374790 3377636 3379357 3381000 3383804 3388859 3396134 
3285.918 3404749 3412954 3419289 3422925 3424163 3424241 3424910 3427300 
3289.776 3431564 3436489 3439952 3439730 3434425 3424113 3410469 3396097 
3293.633 3384001 3376495 3374531 3377685 3384507 3393064 3401983 3410579 
3297.490 3419033 3427926 3437752 3448363 3458913 3467717 3473344 3474647 
3301.348 3471591 3465105 3456913 3448876 3442485 3438357 3436314 3435447 
3305.205 3434805 3433611 3431700 3429452 3427539 3426703 3427326 3429375 
3309.063 3432469 3435900 3439029 3441058 3441615 3440274 3436953 3431743 
3312.920 3424937 3417116 3409035 3401424 3394946 3390009 3386722 3385089 
3316.778 3385131 3386872 3390583 3396265 3403750 3412239 3420539 3427198 
3320.635 3430951 3431134 3427992 3422471 3415968 3409688 3404297 3399559 
3324.492 3394831 3389234 3382416 3374739 3367456 3362066 3360049 3362014 
3328.350 3367738 3376061 3385402 3394262 3401542 3406689 3409601 3410275 
3332.207 3408621 3404490 3397872 3389046 3378986 3369274 3361788 3358145 
3336.065 3359514 3365871 3376293 3388915 3401711 3412745 3420554 3424492 
3339.922 3424477 3421084 3415300 3408063 3400518 3393494 3387657 3383259 
3343.780 3380209 3378020 3376318 3374717 3373150 3371730 3370911 3370806 
3347.637 3371507 3372515 3373251 3373009 3371542 3368983 3366014 3363374 
3351.494 3361755 3361137 3361018 3360239 3357743 3352882 3345847 3337559 
3355.352 3329645 3323571 3320500 3320817 3324196 3329932 3337308 3345997 
3359.209 3355940 3367243 3379860 3393200 3405974 3416609 3423531 3425721 
3363.067 3423133 3416608 3407936 3399068 3392081 3388653 3389880 3396393 
3366.924 3408035 3423952 3442480 3460992 3476391 3485531 3486053 3476981 
3370.781 3459558 3436736 3412710 3391562 3376449 3368251 3365885 3366515 
3374.639 3366882 3364330 3357727 3347712 3336242 3325822 3318673 3316033 
3378.496 3318098 3324148 3333065 3343758 3355453 3367645 3379909 3391766 
3382.354 3402651 3411763 3418444 3422144 3422747 3420353 3415491 3408905 
3386.211 3401514 3394431 3388587 3384819 3383452 3384140 3386058 3387919 
3390.069 3388631 3387458 3384559 3380809 3377484 3375709 3375971 3377808 
3393.926 3380002 3380943 3379455 3374882 3367775 3359274 3350967 3344292 
3397.783 3340241 3339287 3341592 3347158 3355975 3367861 3382344 3398217 
3401.641 3413818 3427072 3436096 3439849 3438582 3433678 3427538 3422643 
3405.498 3420945 3422989 3428105 3434344 3439082 3439892 3435097 3424082 
3409.356 3407585 3387398 3365972 3345964 3329757 3319026 3314570 3316136 
3413.213 3322642 3332353 3343421 3354042 3363069 3369922 3374879 3378887 
3417.071 3383348 3389769 3399307 3412453 3428456 3445473 3460816 3471337 
3420.928 3474460 3468916 3455259 3436087 3415276 3396934 3384310 3378717 
3424.785 3379367 3383662 3388388 3390665 3389075 3383988 3377203 3371206 
3428.643 3368206 3369354 3374523 3382426 3391111 3398577 3403056 3403301 
3432.500 3398753 3389456 3376213 3360383 3344062 3329577 3318999 3313471 
3436.358 3313109 3316589 3321853 3326651 3329412 3329739 3328376 3326863 
3440.215 3326769 3329077 3333939 3340621 3348250 3356067 3363911 3372095 
3444.073 3381064 3390958 3401462 3411585 3420239 3426559 3430322 3431818 
3447.930 3431714 3430464 3428044 3423800 3416723 3406021 3391597 3374235 
3451.787 3355665 3338052 3323499 3313565 3308997 3309822 3315386 3324743 
3455.645 3336890 3350727 3365435 3380325 3395149 3410015 3425343 3441544 
3459.502 3458806 3476604 3493809 3508697 3519646 3525655 3526850 3524487 
3463.360 3520843 3518056 3517853 3520669 3525801 3531723 3536976 3540654 
3467.217 3542852 3544486 3546884 3551190 3557792 3566407 3576144 3586014 
3471.074 3595510 3604385 3612992 3621519 3630060 3638132 3645063 3650016 
3474.932 3652728 3653400 3653033 3652962 3654684 3659122 3666653 3676514 
3478.789 3687451 3697719 3705853 3710715 3712517 3712275 3712222 3714829 
3482.647 3722581 3736828 3757423 3782618 3809305 3833870 3853223 3865722 
3486.504 3871578 3872753 3872376 3873563 3878664 3888557 3902689 3919530 
3490.362 3937374 3954882 3971695 3988075 4004710 4022029 4039878 4057139 
3494.219 4072396 4083912 4090769 4092951 4091683 4089070 4087812 4090222 
3498.076 4097893 4111200 4129384 4150708 4172983 4194134 4212467 4226955 
3501.934 4237212 4243237 4245170 4243151 4237278 4227869 4215676 4201810 
3505.791 4188060 4176194 4168075 4164778 4166809 4173664 4184132 4196406 
3509.649 4208577 4218445 4224178 4224292 4218078 4205667 4188349 4168312 
3513.506 4148345 4130970 4117959 4109671 4104886 4101357 4096450 4087928 
3517.364 4074640 4056538 4034603 4009925 3983604 3956383 3928873 3901969 
3521.221 3877170 3856771 3843034 3837708 3841094 3851592 3866104 3880635 
3525.078 3891468 3896097 3893851 3885562 3873270 3859104 3845044 3832204 
3528.936 3821256 3812391 3805682 3801022 3797944 3795548 3792552 3787456 
3532.793 3779466 3768357 3755109 3741342 3728737 3718422 3710348 3703245 
3536.651 3695335 3685024 3671732 3656086 3639932 3625481 3614653 3608145 
3540.508 3605586 3605525 3606220 3606290 3605279 3603499 3602030 3601979 
3544.365 3604129 3608490 3614392 3620429 3624986 3626562 3624312 3618053 
3548.223 3608460 3596987 3585488 3575563 3568224 3563448 3560223 3556696 
3552.080 3551050 3541981 3529454 3514611 3499861 3487845 3481102 3481056 
3555.938 3487962 3500898 3517997 3537020 3555640 3571890 3584115 3591540 
3559.795 3593970 3592236 3587905 3583234 3580519 3581571 3587190 3596846 
3563.653 3608898 3620931 3630693 3636359 3637287 3633678 3626404 3616345 
3567.510 3604396 3591043 3576790 3562415 3549210 3538932 3533432 3533860 
3571.367 3540209 3550809 3562405 3570928 3572512 3564489 3546335 3519843 
3575.225 3488817 3458043 3432076 3414125 3405402 3405062 3410889 3420026 
3579.082 3430234 3440250 3449870 3459467 3469153 3478284 3485051 3486989 
3582.940 3481765 3468186 3446946 3420566 3393068 3368760 3351185 3342070 
3586.797 3341293 3346878 3356073 3366048 3374884 3381656 3386620 3390648 
3590.655 3394921 3400327 3407399 3416019 3425578 3434909 3442575 3447018 
3594.512 3447249 3442792 3434315 3423145 3411304 3400726 3392838 3388067 
3598.369 3385999 3385673 3386163 3386836 3387741 3389036 3391001 3393004 
3602.227 3393800 3391656 3384949 3372982 3356621 3338256 3321377 3309595 
3606.084 3305633 3310566 3323605 3342449 3363938 3384837 3402811 3416159 
3609.942 3424317 3426987 3424217 3415955 3402505 3384700 3364117 3343285 
3613.799 3325349 3313366 3309699 3315181 3329057 3348960 3371540 3393284 
3617.656 3411325 3424006 3431116 3433656 3433538 3432904 3433790 3437706 
3621.514 3445498 3457339 3472694 3490337 3508638 3525778 3540112 3550631 
3625.371 3557209 3560594 3562026 3562684 3563379 3564050 3564081 3562783 
3629.229 3560133 3557187 3556047 3559140 3568399 3584209 3605023 3627557 
3633.086 3647845 3662363 3669232 3668683 3662872 3654975 3648124 3644255 
3636.944 3644270 3647614 3653179 3659906 3666857 3673365 3679036 3683301 
3640.801 3685801 3686413 3685605 3684425 3684295 3686302 3690843 3697017 
3644.658 3703291 3708169 3710984 3712589 3715429 3722626 3736641 3758037 
3648.516 3784877 3812818 3836572 3851290 3854674 3847362 3833183 3817589 
3652.373 3806503 3804341 3813348 3832899 3859975 3889966 3917773 3938912 
3656.231 3950595 3952160 3945489 3934245 3923234 3916918 3918242 3927731 
3660.088 3943239 3960594 3974696 3980904 3976514 3961125 3936702 3906480 
3663.946 3874216 3842957 3814855 3790954 3771938 3758181 3750428 3749192 
3667.803 3754712 3766143 3781724 3798791 3814344 3825732 3831454 3831172 
3671.660 3825582 3815903 3803270 3788165 3770716 3750722 3728282 3704207 
3675.518 3680142 3658167 3640353 3627818 3620517 3617028 3615021 3611755 
3679.375 3605283 3594483 3579940 3563049 3545982 3530708 3518449 3509406 
3683.233 3502955 3497975 3493229 3487922 3481790 3474983 3468099 3461538 
3687.090 3455761 3450846 3446602 3442334 3437239 3430220 3420377 3407197 
3690.948 3391105 3373497 3356862 3343972 3337350 3338148 3345632 3357017 
3694.805 3368193 3374622 3372673 3360621 3338898 3309945 3277439 3245230 
3698.662 3216709 3194035 3178485 3170322 3169172 3174138 3183945 3196909 
3702.520 3211165 3224963 3237164 3247052 3254889 3261425 3267362 3273313 
3706.377 3279203 3284706 3289258 3292394 3294239 3295269 3296375 3298447 
3710.235 3302401 3308792 3318158 3330439 3345387 3361923 3378275 3392083 
3714.092 3400868 3402692 3396911 3384604 3368461 3352064 3339096 3331998 
3717.949 3331738 3337490 3347281 3358725 3369743 3378877 3385470 3389157 
3721.807 3389899 3387769 3383358 3377688 3372582 3370134 3372145 3379588 
3725.664 3392114 3407972 3424743 3439729 3450973 3457338 3458731 3455656 
3729.522 3448845 3439319 3428300 3417469 3408984 3405043 3407276 3415990 
3733.379 3429594 3444973 3458360 3466227 3466889 3460787 3450396 3439296 
3737.237 3430684 3426296 3425978 3427774 3429026 3427406 3421798 3412417 
3741.094 3400769 3388790 3378239 3369901 3363777 3359006 3354374 3348790 
3744.951 3341711 3333287 3324367 3316307 3310590 3308406 3310352 3316050 
3748.809 3324425 3333651 3341917 3347712 3350451 3350475 3349053 3347809 
3752.666 3348328 3351944 3359484 3371051 3386330 3404346 3423664 3442443 
3756.524 3458787 3471183 3479030 3482949 3484643 3486247 3489621 3495261 
3760.381 3502112 3507742 3509376 3504656 3493083 3475867 3455859 3436142 
3764.239 3419401 3406835 3398279 3392460 3388118 3384347 3380983 3378230 
3768.096 3376228 3374429 3371776 3366968 3359239 3348945 3337590 3327624 
3771.953 3321469 3320771 3325864 3335743 3348522 3362058 3374501 3384688 
3775.811 3392092 3396549 3398401 3398273 3397058 3395971 3396200 3398640 
3779.668 3403343 3409468 3415325 3418997 3419139 3415506 3408943 3401162 
3783.526 3393840 3387899 3383032 3377882 3370836 3360678 3347380 3332326 
3787.383 3317872 3306641 3300570 3300388 3305611 3314628 3325377 3335631 
3791.240 3343580 3347992 3348174 3344291 3337021 3327813 3318462 3310816 
3795.098 3306400 3306011 3309845 3317336 3327975 3341301 3357071 3375184 
3798.955 3394973 3415027 3433082 3446349 3452457 3450207 3440432 3425511 
3802.813 3409069 3394606 3384681 3380170 3380599 3384450 3390092 3396146 
3806.670 3401802 3406740 3410675 3413309 3414308 3413581 3411565 3409278 
3810.528 3408124 3409251 3413085 3418817 3424832 3429044 3429852 3426751 
3814.385 3420476 3412766 3405584 3400388 3397708 3397143 3397727 3398801 
3818.242 3400290 3402734 3407026 3413824 3422950 3433450 3443822 3452608 
3822.100 3459237 3463979 3468219 3473533 3481164 3491205 3502684 3513443 
3825.957 3521162 3523911 3520742 3512002 3499233 3484583 3470280 3458178 
3829.815 3449390 3444370 3442717 3443694 3446176 3448955 3450907 3451107 
3833.672 3448986 3444363 3437402 3428470 3417992 3406396 3393955 3381148 
3837.530 3368624 3357448 3349124 3345340 3347434 3355929 3370112 3388001 
3841.387 3406637 3422928 3434467 3440006 3440113 3436515 3431641 3427729 
3845.244 3426078 3426871 3429395 3432362 3434692 3435721 3435449 3434135 
3849.102 3432222 3430087 3427913 3425907 3424591 3424538 3426399 3430399 
3852.959 3436131 3442399 3447705 3450600 3450654 3448294 3444996 3442506 
3856.817 3442010 3443732 3446772 3449486 3450387 3448795 3445271 3441315 
3860.674 3438715 3438714 3441272 3445150 3448336 3449002 3446244 3440337 
3864.531 3432755 3425159 3418815 3413948 3409889 3405647 3400593 3395001 
3868.389 3390167 3387908 3389743 3396263 3406604 3419043 3431433 3442059 
3872.246 3450201 3456053 3460282 3463438 3465585 3466292 3465046 3461912 
3876.104 3457951 3455064 3455743 3461615 3473062 3488396 3504576 3517742 
3879.961 3524808 3524261 3516900 3505113 3492220 3481216 3473861 3470497 
3883.819 3470415 3472409 3475678 3479960 3485465 3492378 3500133 3507248 
3887.676 3511562 3510854 3503752 3490321 3472152 3452099 3433426 3418841 
3891.533 3409950 3406965 3409295 3415613 3424987 3436602 3450064 3465111 
3895.391 3481216 3497512 3512943 3526429 3537188 3544680 3548786 3549568 
3899.248 3547197 3541962 3534444 3525564 3516670 3509173 3504235 3502265 
3903.106 3502777 3504412 3505412 3504313 3500400 3493898 3485915 3477665 
3906.963 3470233 3464002 3458707 3453742 3448736 3443597 3438826 3435218 
3910.821 3433328 3433236 3434505 3436331 3437852 3438739 3439216 3439891 
3914.678 3441731 3445463 3451554 3459924 3470176 3481598 3493287 3504106 
3918.535 3512926 3518502 3520128 3517604 3511672 3503723 3495705 3489185 
3922.393 3484998 3482800 3481437 3479318 3475340 3469250 3462059 3455316 
3926.250 3450630 3448877 3449711 3452034 3454185 3455033 3454408 3453078 
3930.108 3452532 3454298 3459306 3467441 3477770 3488662 3498586 3506238 
3933.965 3511006 3512913 3512371 3510113 3507003 3503758 3500886 3498438 
3937.823 3496004 3492650 3487417 3479746 3470074 3460055 3452391 3450003 
3941.680 3455195 3468652 3488979 3512967 3536524 3555873 3568637 3574372 
3945.537 3574595 3571908 3569088 3568255 3570387 3575324 3582038 3589223 
3949.395 3595446 3599601 3600882 3598768 3593232 3584699 3573906 3561786 
3953.252 3549210 3536578 3523823 3510331 3495432 3478846 3461067 3443326 
3957.110 3427655 3416101 3410324 3411181 3418688 3431991 3449784 3470447 
3960.967 3492216 3513296 3532105 3547370 3558443 3565633 3570076 3573420 
3964.824 3577181 3582110 3587764 3592628 3594983 3593542 3588516 3581515 
3968.682 3575237 3572315 3574160 3580220 3588150 3594537 3596276 3591621 
3972.539 3581171 3566984 3552326 3539854 3531427 3527070 3526059 3527200 
3976.397 3529792 3533676 3539431 3547299 3557013 3567308 3576152 3581553 
3980.254 3582162 3577950 3570237 3561283 3553687 3549403 3549402 3553415 
3984.112 3560286 3568358 3576000 3582001 3585549 3586643 3585823 3584085 
3987.969 3582980 3584169 3589177 3598936 3613299 3630907 3649238 3664967 
3991.826 3675069 3677242 3670984 3657429 3639249 3619837 3602274 3588519 
3995.684 3579155 3573382 3569786 3566986 3564334 3562221 3561569 3563540 
3999.541 3568623 3576412 3585597 
##END=
