##TITLE=Bambu-Lab_ABS_White_Filament_r4_ATR-Corrected
##JCAMP-DX=5.01  $$ Nicolet v. 1
##DATATYPE=INFRARED SPECTRUM
##ORIGIN=Curtin University
##OWNER=Nicolet
##LONGDATE=2024/07/03
##TIME=13:51:01
##SPECTROMETER/DATA SYSTEM=Nicolet iS50
##DATA PROCESSING=
Ratio against background
%Transmittance->Absorbance
ATR Correction
Truncated
ElementMultiply or ElementDivide
##COMMENTS=
Number of sample scans: 32
Collection length: 47.28 sec
Sample gain: 1.0
Background collected on: Wed Jul 03 13:49:08 2024 (GMT+08:00);
Number of background scans: 32
Background gain: 1.0
Sample spacing:  1.000
Number of scan points: 16672
Resolution points: 8192
Number of FFT points: 65536
Apodization: N-B strong;
Phase correction: Mertz;
Laser frequency: 15798.3 cm-1
Number of rejected sample scans: 0
Number of rejected background scans: 0
Bench serial number: AUP1200105;
##RESOLUTION=4.000
##XUNITS=1/CM
##YUNITS=ABSORBANCE
##FIRSTX=400.163452
##LASTX=4000.187744
##FIRSTY=0.014346
##MAXX=4000.187744
##MINX=400.163452
##MAXY=0.406161
##MINY=-0.016089
##XFACTOR=1.000000
##YFACTOR=1.000000E-009
##NPOINTS=7468
##DELTAX=0.482125
##ZPD=8192
##XYDATA=(X++(Y..Y))
400.163 14346281 15237968 16030587 16635692 17022484 17218840 17300026 
403.538 17364814 17509492 17803726 18273844 18895786 19598730 20277708 
406.913 20815478 21108456 21093762 20766078 20181602 19445796 18689522 
410.288 18037458 17581082 17360662 17361908 17525778 17769098 18007154 
413.663 18173588 18230850 18171694 18013124 17787150 17533320 17293264 
417.038 17109644 17022838 17067100 17262628 17608372 18076142 18612686 
420.412 19148414 19611680 19944680 20115332 20121018 19986000 19750998 
423.787 19460886 19155868 18865370 18608846 18398366 18241856 18144828 
427.162 18109614 18132960 18205934 18314292 18442684 18578666 18715350 
430.537 18851688 18988718 19125904 19256540 19368106 19444686 19472266 
433.912 19443772 19362112 19238700 19089062 18927940 18765400 18606388 
437.286 18453996 18312896 18193178 18109950 18080246 18117168 18224244 
440.661 18392238 18599612 18816852 19013236 19163966 19254262 19281402 
444.036 19252966 19183482 19090502 18991466 18900768 18828150 18777396 
447.411 18745894 18725014 18702226 18665044 18604354 18519610 18419846 
450.786 18323016 18252532 18230686 18273332 18384564 18554922 18762632 
454.161 18977414 19165752 19297164 19348898 19310858 19187602 18999158 
457.535 18778410 18566290 18403558 18322504 18338264 18444770 18614410 
460.910 18804562 18967912 19064596 19072738 18992784 18846962 18671104 
464.285 18505272 18384116 18329646 18348352 18432990 18566004 18724656 
467.660 18885774 19028854 19139166 19209956 19243962 19252868 19256226 
471.035 19276474 19333168 19435628 19578138 19738430 19881124 19966090 
474.409 19958918 19840840 19615210 19307924 18962970 18632916 18368168 
477.784 18206920 18167156 18245052 18416936 18646060 18891942 19118582 
481.159 19302374 19434694 19521582 19578146 19622004 19665144 19708744 
484.534 19742324 19747354 19704028 19599680 19434524 19223812 18994502 
487.909 18777836 18600936 18479542 18415478 18398396 18411406 18438696 
491.284 18470298 18505074 18548442 18607968 18688366 18787634 18897230 
494.658 19003174 19091484 19152316 19183096 19189150 19182072 19176772 
498.033 19188232 19229030 19307436 19426762 19585340 19776418 19988472 
501.408 20206646 20413782 20593912 20734640 20830344 20883260 20903632 
504.783 20907280 20912618 20937184 20995118 21095556 21242214 21434050 
508.158 21665680 21928554 22211322 22501456 22787444 23061596 23323576 
511.532 23582366 23855746 24167442 24540948 24992138 25524176 26124288 
514.907 26766560 27418274 28049296 28640184 29187272 29702100 30206596 
518.282 30723396 31268384 31844884 32443580 33046920 33636904 34202584 
521.657 34745032 35277160 35820200 36396360 37022180 37702756 38429928 
525.032 39184616 39940036 40668492 41346564 41959396 42502980 42984536 
528.406 43421104 43836120 44255320 44701640 45190444 45726208 46301564 
531.781 46898224 47491540 48055360 48568656 49019244 49406368 49739792 
535.156 50037264 50319860 50607516 50915064 51250208 51612016 51992532 
538.531 52378964 52756788 53113852 53442988 53744496 54025812 54299804 
541.906 54580444 54878448 55196504 55527260 55853620 56152196 56399044 
545.281 56575360 56672484 56693064 56649996 56561828 56447104 56319220 
548.655 56184556 56041704 55885360 55709992 55514348 55303060 55086796 
552.030 54879008 54692312 54534072 54404384 54296068 54196540 54091160 
555.405 53966892 53814296 53628364 53408432 53157212 52880068 52584716 
558.780 52281096 51982148 51701708 51452924 51244408 51076876 50941640 
562.155 50821012 50692288 50533688 50330024 50078100 49787544 49478152 
565.529 49174616 48899036 48665136 48475004 48319016 48179432 48035376 
568.904 47867876 47663792 47416836 47127576 46800796 46443736 46064308 
572.279 45670196 45269168 44869236 44478804 44106124 43758228 43438908 
575.654 43147544 42877868 42618648 42355220 42071852 41754928 41395304 
579.029 40989804 40541464 40057840 39550120 39030096 38509584 37999272 
582.404 37508716 37046332 36619804 36235036 35896672 35606804 35366176 
585.778 35174660 35032072 34938856 34894960 34897924 34940320 35007812 
589.153 35078952 35128208 35131592 35072196 34945788 34762344 34543584 
592.528 34316024 34103872 33920960 33768400 33635324 33505276 33363406 
595.903 33203140 33028904 32854856 32699022 32576698 32494194 32446284 
599.278 32417710 32387346 32335422 32248948 32125804 31974930 31814024 
602.652 31664870 31547810 31476996 31457252 31483080 31539992 31608682 
606.027 31668882 31705114 31709600 31683874 31637478 31584560 31538908 
609.402 31510490 31502594 31513258 31536854 31567770 31602782 31641900 
612.777 31686600 31738166 31795330 31854660 31912580 31969522 32032494 
616.152 32116178 32239686 32419882 32664128 32963786 33292644 33610996 
619.527 33874568 34045624 34103040 34047004 33897836 33689652 33460208 
622.901 33242018 33056240 32911710 32806552 32732930 32680546 32639276 
626.276 32599262 32550674 32483510 32389302 32263286 32107576 31932012 
629.651 31753368 31591180 31462536 31376604 31332206 31318494 31318088 
633.026 31313114 31290322 31243958 31176484 31095992 31012946 30936722 
636.401 30873772 30827370 30798776 30788510 30797244 30825774 30873992 
639.775 30939900 31018924 31104172 31187766 31262256 31323064 31369072 
643.150 31404172 31436070 31475548 31534404 31623270 31749092 31913490 
646.525 32112054 32335256 32570578 32805570 33030904 33242430 33441144 
649.900 33631688 33818976 34005844 34191184 34370352 34537156 34687476 
653.275 34821560 34945260 35068948 35204736 35362908 35548736 35761600 
656.650 35995596 36242236 36493596 36744972 36996464 37252416 37519716 
660.024 37805284 38113612 38445448 38797148 39161784 39531148 39898616 
663.399 40260828 40619536 40981136 41355164 41751084 42175388 42628936 
666.774 43106036 43596164 44085932 44563956 45022564 45459776 45878164 
670.149 46283044 46679556 47071340 47460196 47847684 48237108 48635084 
673.524 49050984 49495752 49977676 50499932 51058688 51643184 52238996 
676.898 52832228 53413804 53982488 54545908 55118716 55719320 56366584 
680.273 57076260 57859608 58723496 59672104 60709500 61841708 63078196 
683.648 64431944 65917976 67552336 69350552 71328424 73504552 75904336 
687.023 78565200 81540768 84903800 88747232 93183768 98346280 104387928 
690.398 111485944 119844200 129693704 141287824 154887312 170733616 
693.290 189008336 209781744 232949968 258168512 284791584 311834464 
696.183 337987488 361711904 381438784 395844448 404126304 406160608 
699.076 402473760 394045760 382046624 367610336 351694368 335029568 
701.969 318129504 301329376 284834464 268762016 253176272 238109360 
704.861 223575760 209578928 196115024 183176000 170753072 158840272 
707.754 147438608 136557392 126214016 116431928 107235352 98645184 90676248 
711.129 83334592 76617776 70516440 65016100 60099052 55745216 51931804 
714.504 48633272 45819236 43454364 41497508 39902328 38618276 37592952 
717.878 36774636 36116024 35576572 35125172 34740304 34409336 34126020 
721.253 33887424 33691556 33535630 33416174 33330190 33275820 33253450 
724.628 33265654 33315454 33405922 33538722 33714292 33932572 34193160 
728.003 34495748 34839376 35222096 35640312 36090684 36571740 37087788 
731.378 37650360 38278980 38997252 39828424 40787860 41878792 43089212 
734.752 44394388 45761200 47154292 48541960 49899244 51208836 52460892 
738.127 53651040 54780244 55855108 56888444 57899444 58911728 59950296 
741.502 61038224 62192348 63422092 64730564 66116808 67579584 69120520 
744.877 70745040 72462704 74285968 76227976 78301528 80518648 82889128 
748.252 85420824 88118080 90981568 94006736 97185512 100506640 103957408 
751.627 107524656 111194960 114952552 118777176 122641120 126507800 
754.519 130331632 134060216 137637536 141007328 144115552 146911648 
757.412 149347952 151379984 152965376 154065088 154645984 154683584 
760.305 154165792 153095152 151489888 149383264 146821664 143860944 
763.197 140563376 136993904 133216976 129293712 125278712 121219216 
766.090 117153000 113109360 109109640 105169560 101301792 97518000 93830872 
769.465 90255264 86807288 83503040 80355832 77372912 74552680 71884224 
772.840 69347848 66918968 64572804 62290412 60061888 57887952 55777004 
776.214 53741096 51789696 49926524 48147536 46443372 44802888 43217948 
779.589 41685968 40211064 38801296 37465884 36210884 35037880 33943240 
782.964 32920234 31961694 31062326 30219824 29434686 28708892 28043540 
786.339 27437012 26883514 26373378 25894008 25432014 24976128 24519668 
789.714 24062182 23609234 23170980 22758816 22382070 22044722 21744396 
793.089 21473370 21221420 20978874 20739964 20503388 20272002 20050246 
796.463 19841978 19648364 19468428 19299302 19138938 18986786 18844578 
799.838 18715064 18600768 18502450 18418092 18343362 18272474 18198844 
803.213 18117310 18023718 17916058 17794496 17662050 17524614 17390592 
806.588 17269460 17169756 17096422 17049146 17022144 17005368 16987550 
809.963 16959450 16915862 16856774 16786034 16709458 16632292 16557924 
813.337 16487770 16422534 16363021 16311614 16271200 16244316 16230980 
816.712 16227569 16226998 16219784 16196745 16151642 16082859 15994536 
820.087 15895050 15795212 15705401 15633276 15582241 15550475 15532528 
823.462 15520626 15506792 15485287 15453645 15413369 15369042 15327371 
826.837 15295087 15277862 15278809 15298388 15334344 15382774 15438405 
830.212 15496334 15552804 15606890 15661353 15722612 15800217 15904311 
833.586 16042233 16217312 16426045 16659942 16907558 17159054 17409306 
836.961 17659150 17914530 18182470 18467484 18767956 19076308 19381496 
840.336 19672974 19945338 20199566 20442340 20681636 20921952 21160720 
843.711 21387826 21588424 21747400 21854844 21908620 21914626 21883020 
847.086 21824978 21748188 21655436 21544676 21411636 21251862 21062548 
850.460 20843084 20594588 20318968 20018700 19697726 19361372 19017776 
853.835 18676916 18349166 18043524 17765290 17515372 17291110 17086436 
857.210 16895822 16714215 16539264 16371129 16212244 16066357 15938355 
860.585 15832439 15752235 15699035 15671454 15665021 15673479 15689097 
863.960 15705466 15718775 15728645 15737921 15752014 15776532 15816253 
867.335 15873933 15950097 16042646 16147476 16258571 16367702 16465947 
870.709 16544381 16596157 16618349 16613049 16587310 16551685 16517105 
874.084 16492670 16482973 16487882 16503418 16523754 16542828 16555840 
877.459 16559232 16550437 16528126 16492102 16444838 16392620 16345609 
880.834 16316548 16317982 16358042 16437775 16549481 16678993 16809098 
884.209 16925202 17018902 17090938 17149522 17206906 17275014 17361604 
887.583 17468240 17591392 17723946 17858894 17990928 18117764 18238968 
890.958 18354668 18465056 18570028 18670194 18769044 18872960 18991646 
894.333 19136316 19317570 19542598 19815010 20134874 20501106 20913782 
897.708 21376818 21897994 22488200 23159510 23922626 24785640 25754030 
901.083 26830970 28019170 29321084 30738498 32270912 33914412 35659332 
904.458 37491328 39391876 41339824 43311808 45282124 47220996 49092700 
907.832 50854860 52460008 53859908 55010744 55879368 56446396 56707344 
911.207 56670260 56352144 55775100 54963824 53945564 52750820 51413896 
914.582 49971832 48462068 46917768 45364616 43818480 42287552 40775064 
917.957 39285116 37825020 36407776 35049920 33767488 32572772 31471190 
921.332 30461150 29535774 28685648 27901256 27174058 26497346 25865226 
924.706 25273958 24721956 24211306 23748088 23341582 23001028 22732216 
928.081 22533180 22393036 22293584 22212986 22132182 22039420 21933382 
931.456 21822408 21720272 21642232 21599298 21596108 21629974 21693720 
934.831 21778866 21878624 21989720 22113326 22253206 22414254 22600114 
938.206 22811480 23044870 23293464 23548246 23800186 24042720 24273648 
941.581 24495612 24715312 24940004 25175162 25420946 25671752 25917350 
944.955 26146930 26353360 26537344 26709526 26888662 27097768 27358754 
948.330 27687584 28091350 28568592 29112166 29712986 30364662 31065404 
951.705 31819302 32633990 33519174 34484120 35537096 36685552 37937572 
955.080 39303328 40796560 42433312 44231044 46204880 48365840 50717316 
958.455 53254480 55963604 58823124 61803832 64869784 67978656 71081824 
961.829 74124560 77048128 79791568 82295672 84507000 86381088 87885168 
965.204 88999152 89714704 90033632 89964848 89523544 88729320 87606848 
968.579 86185552 84500624 82591256 80499680 78267640 75935296 73538648 
971.954 71110120 68679216 66273904 63921480 61648240 59478248 57431616 
975.329 55522720 53759144 52141788 50665872 49322756 48100848 46987784 
978.703 45971172 45039792 44184040 43397200 42675096 42016660 41423196 
982.078 40896992 40440584 40054748 39738668 39488608 39299352 39163948 
985.453 39075280 39026548 39011832 39026604 39067316 39131536 39217824 
988.828 39324884 39451520 39596304 39756972 39929820 40108784 40284928 
992.203 40445320 40573772 40651624 40659780 40582584 40410508 40143656 
995.578 39792516 39378468 38930656 38483580 38071832 37727204 37475004 
998.952 37331744 37303968 37386816 37564376 37810040 38089076 38362468 
1002.327 38592060 38746324 38805328 38763444 38628564 38420124 38163268 
1005.702 37884256 37605536 37343944 37110052 36909660 36745032 36617024 
1009.077 36525388 36468892 36444700 36448484 36474032 36514444 36562676 
1012.452 36613604 36664740 36717048 36775048 36846540 36940732 37067168 
1015.826 37233324 37443508 37697876 37993400 38325488 38690308 39086968 
1019.201 39518788 39992724 40518452 41105680 41761976 42491908 43297124 
1022.576 44177104 45130616 46156584 47252632 48413644 49628616 50877532 
1025.951 52130128 53345256 54473156 55458652 56246076 56783848 57029796 
1029.326 56954308 56544112 55803560 54755332 53439048 51908288 50225952 
1032.702 48459140 46673844 44928780 43272912 41741864 40357780 39129424 
1036.077 38054932 37124228 36322316 35632316 35038152 34526024 34084680 
1039.452 33706088 33384804 33117782 32903832 32743278 32636464 32583002 
1042.827 32578916 32616530 32682780 32761660 32836254 32892768 32923698 
1046.203 32929604 32918674 32903404 32897170 32910104 32946046 33003162 
1049.578 33075384 33156246 33241246 33330522 33428766 33543262 33681864 
1052.953 33850096 34049768 34278660 34531284 34800916 35081340 35368992 
1056.328 35663788 35969772 36293976 36644848 37030304 37454860 37918976 
1059.704 38418180 38944364 39487364 40038176 40590164 41140216 41687808 
1063.079 42234144 42779932 43324716 43865944 44400320 44923016 45428556 
1066.454 45909672 46356352 46755872 47092952 47352628 47522748 47597608 
1069.829 47578544 47473848 47294796 47052600 46754604 46403512 45998672 
1073.205 45539880 45030840 44482132 43910572 43336420 42778856 42252308 
1076.580 41763668 41313140 40896204 40507396 40142996 39801288 39481644 
1079.955 39182468 38898680 38621144 38338516 38039796 37718240 37373892 
1083.330 37014244 36653056 36306844 35991616 35719160 35495996 35322388 
1086.706 35193840 35102424 35038488 34991356 34950776 34906964 34852336 
1090.081 34782192 34696008 34597544 34494536 34396156 34310784 34243088 
1093.456 34192652 34154564 34120680 34083640 34039228 33987908 33933880 
1096.831 33883324 33840560 33805756 33774508 33739320 33692644 33630744 
1100.207 33555296 33473220 33393152 33322684 33262998 33208512 33148170 
1103.582 33068274 32958410 32813742 32637480 32438360 32227668 32014340 
1106.957 31802240 31588610 31365644 31123386 30853066 30549896 30214232 
1110.332 29851358 29469358 29078262 28686368 28299822 27921696 27551162 
1113.708 27185204 26819056 26448746 26072008 25690134 25307664 24930972 
1117.083 24566560 24218348 23886124 23566092 23251760 22937060 22618830 
1120.458 22299024 21983630 21682004 21402564 21150540 20926318 20725348 
1123.833 20540442 20365354 20196696 20035998 19889314 19764890 19670622 
1127.208 19611154 19586368 19591364 19617756 19656352 19698836 19740416 
1130.584 19779962 19820036 19865572 19922390 19996410 20091614 20210384 
1133.959 20353228 20519000 20705582 20910314 21131122 21366988 21618534 
1137.334 21888646 22181862 22503788 22860162 23255332 23690856 24165350 
1140.709 24675312 25216118 25784842 26381922 27012808 27687014 28417502 
1144.085 29217500 30098214 31066996 32126844 33277384 34516404 35842212 
1147.460 37254236 38753860 40342668 42021296 43787260 45633156 47546144 
1150.835 49507156 51491416 53468676 55403804 57258632 58993972 60572532 
1154.210 61962712 63142188 64100064 64838020 65369040 65714888 65902696 
1157.586 65961672 65920816 65807188 65645084 65455072 65253900 65053208 
1160.961 64859352 64673720 64493372 64313560 64129144 63936768 63735744 
1164.336 63527720 63315668 63102788 62889964 62675864 62456596 62226152 
1167.711 61978352 61708008 61412288 61091456 60749276 60391772 60026340 
1171.087 59660060 59298804 58946916 58606716 58280544 57971104 57682908 
1174.462 57422960 57199072 57020396 56894452 56826588 56818764 56869156 
1177.837 56972096 57118716 57296844 57491796 57686280 57862008 58000760 
1181.212 58085672 58103548 58045224 57906052 57685784 57387380 57016496 
1184.588 56581612 56093512 55565996 55014972 54457508 53910144 53386552 
1187.963 52895540 52441888 52026088 51647344 51305456 51002448 50742816 
1191.338 50532056 50374064 50268704 50210652 50189084 50190184 50199956 
1194.713 50207408 50206504 50196424 50180260 50162672 50146928 50133744 
1198.089 50120172 50101256 50071408 50026440 49965536 49891004 49807636 
1201.464 49720684 49633708 49547948 49461332 49369352 49266924 49150208 
1204.839 49017296 48869572 48710364 48543932 48374076 48202960 48031412 
1208.214 47858908 47684824 47509076 47331932 47154092 46975424 46794472 
1211.590 46608216 46413028 46205864 45985200 45752560 45512348 45271220 
1214.965 45036688 44816056 44614764 44436056 44280892 44147876 44034828 
1218.340 43937856 43853408 43777804 43708636 43644372 43585336 43532968 
1221.715 43489872 43458688 43441924 43441516 43458992 43495604 43553516 
1225.091 43634552 43740860 43873364 44031636 44212704 44412304 44625292 
1228.466 44846700 45073428 45303560 45536828 45773248 46011648 46250668 
1231.841 46486932 46717172 46938064 47146976 47341148 47517948 47674304 
1235.216 47806376 47910836 47985696 48030980 48048272 48039920 48007140 
1238.592 47948344 47859164 47733428 47565620 47353972 47102524 46821436 
1241.967 46525300 46229672 45947896 45688736 45456812 45252960 45077356 
1245.342 44930692 44813952 44727088 44666276 44622156 44579932 44521940 
1248.717 44432296 44300540 44125912 43916444 43686908 43454008 43232088 
1252.093 43030160 42851368 42694848 42558236 42439792 42339520 42257284 
1255.468 42192604 42141816 42098588 42055504 42005628 41945480 41875892 
1258.843 41800804 41726340 41657796 41597320 41543736 41493044 41440268 
1262.218 41381320 41313980 41238604 41158024 41076268 40998276 40928956 
1265.594 40872772 40831868 40806596 40793604 40786600 40777416 40757748 
1268.969 40721952 40668588 40601464 40528304 40458632 40400864 40360096 
1272.344 40337128 40328776 40329568 40333668 40335728 40331776 40318712 
1275.719 40294500 40257432 40207508 40145936 40076124 40002080 39927760 
1279.094 39854520 39780816 39701544 39610512 39502196 39374908 39231220 
1282.470 39078484 38925812 38781860 38652280 38539188 38441308 38356372 
1285.845 38282508 38219820 38170364 38136808 38121124 38123700 38142900 
1289.220 38175560 38218476 38268876 38324796 38385336 38450264 38519640 
1292.595 38594664 38677576 38771392 38880348 39007228 39153076 39315620 
1295.971 39489784 39668272 39844384 40013172 40173912 40328420 40480980 
1299.346 40635852 40795724 40960928 41130228 41301628 41473516 41645088 
1302.721 41815856 41984492 42148684 42304268 42447040 42574272 42685512 
1306.096 42784608 42878096 42974020 43078996 43197148 43328212 43468412 
1309.472 43611500 43751192 43882476 44002964 44113712 44217248 44317060 
1312.847 44415800 44514116 44609252 44695600 44765140 44810216 44824744 
1316.222 44807640 44762012 44696380 44621252 44546516 44479128 44420952 
1319.597 44368916 44317404 44260372 44195116 44122056 44045116 43969640 
1322.973 43900636 43839916 43787236 43740104 43696968 43658020 43626688 
1326.348 43608568 43610192 43636336 43687684 43760844 43847600 43936696 
1329.723 44015816 44073924 44102896 44099108 44063936 44003356 43926956 
1333.098 43845932 43770716 43709504 43667132 43644416 43640476 43653560 
1336.474 43683540 43732396 43804076 43903620 44034952 44200376 44399424 
1339.849 44629524 44887404 45169708 45473792 45797416 46138124 46492164 
1343.224 46854408 47218060 47576032 47921832 48249996 48557232 48841840 
1346.599 49103552 49343552 49564704 49771124 49967588 50159308 50349744 
1349.975 50540548 50730348 50915596 51091288 51252960 51398088 51525524 
1353.350 51635824 51729304 51806284 51865908 51908052 51934228 51948424 
1356.725 51957668 51970176 51992620 52028628 52076604 52130496 52181708 
1360.100 52221784 52244380 52246584 52228628 52191564 52136332 52062368 
1363.476 51967876 51850928 51711032 51549900 51370988 51178880 50977212 
1366.851 50767788 50550788 50325184 50090036 49845836 49594672 49338860 
1370.226 49080992 48821732 48559308 48290756 48011932 47719788 47412476 
1373.601 47089988 46753176 46402988 46039232 45660292 45263144 44844028 
1376.977 44399748 43927752 43426892 42898064 42343204 41767016 41175828 
1380.352 40578460 39985988 39411152 38866224 38362444 37907056 37502636 
1383.727 37146980 36834260 36555852 36303812 36072460 35859080 35663468 
1387.102 35486356 35327352 35183100 35046192 34906880 34753548 34577088 
1390.478 34372500 34140240 33885824 33617836 33344806 33072398 32801826 
1393.853 32530170 32252018 31962152 31657916 31340376 31014072 30685096 
1397.228 30359480 30041358 29733162 29436498 29153140 28886946 28643490 
1400.603 28429046 28248620 28103126 27989140 27898396 27820540 27745512 
1403.979 27667560 27586494 27508596 27444824 27407954 27409750 27457862 
1407.354 27554922 27699544 27886680 28111182 28369556 28660946 28987980 
1410.729 29354964 29766578 30226292 30733774 31284746 31870638 32479644 
1414.104 33098288 33711808 34306104 34867744 35384580 35845660 36241680 
1417.479 36565328 36812040 36980992 37075744 37103924 37077600 37011780 
1420.855 36924132 36834016 36761712 36727216 36749568 36845860 37029304 
1424.230 37309492 37693024 38183900 38785244 39500760 40334824 41291672 
1427.605 42373712 43579980 44905508 46341580 47877280 49501880 51205496 
1430.980 52980220 54818744 56713700 58656176 60635956 62642568 64666204 
1434.356 66699452 68737664 70779440 72826048 74881240 76952112 79048360 
1437.731 81182928 83371312 85630304 87976264 90425080 92991456 95690816 
1441.106 98539744 101557944 104767112 108188288 111839024 115729896 
1443.999 119861728 124226024 128806976 133584680 138540784 143662992 
1446.892 148949920 154414400 160083024 165989312 172158640 178582096 
1449.785 185183664 191784464 198079904 203637584 207929904 210400400 
1452.678 210556064 208059520 202798448 194910528 184762576 172895392 
1455.572 159949376 146585904 133416920 120948952 109548384 99430848 90674064 
1458.947 83245144 77036704 71899064 67665952 64172164 61262976 58801348 
1462.322 56670876 54779456 53059340 51468396 49984616 48601712 47320980 
1465.697 46144688 45072288 44098564 43216968 42422716 41716472 41105160 
1469.073 40599140 40205672 39921748 39727252 39582980 39433616 39217604 
1472.448 38879512 38383684 37722968 36920804 36025236 35097992 34200336 
1475.823 33382080 32674086 32086838 31614516 31240460 30946360 30717014 
1479.198 30544798 30430296 30382212 30415250 30548082 30801618 31197548 
1482.573 31757272 32501626 33450428 34623488 36041544 37727384 39709116 
1485.949 42022868 44718624 47867116 51566584 55946264 61161684 67377696 
1489.324 74734696 83302136 93022128 103659984 114772720 125712488 135676720 
1492.699 143803008 149296992 151568480 150340544 145703312 138093936 
1495.592 128210768 116885808 104951608 93133352 81983112 71861016 62950888 
1498.968 55297424 48849360 43498092 39107496 35533740 32637674 30291832 
1502.343 28384660 26822538 25530400 24450350 23538958 22763924 22100228 
1505.718 21527632 21028816 20589158 20196844 19843240 19523682 19236298 
1509.093 18982008 18761980 18577040 18425596 18304100 18205822 18123198 
1512.469 18049292 17978994 17910208 17843960 17783138 17730118 17685986 
1515.844 17649364 17616942 17584606 17549972 17512480 17474188 17438344 
1519.219 17407810 17384124 17366678 17354134 17345976 17343814 17351588 
1522.594 17374900 17417912 17482616 17565560 17660238 17757630 17849952 
1525.969 17932782 18007252 18078442 18154678 18244178 18352692 18482904 
1529.345 18634324 18805208 18993668 19198736 19421176 19662270 19923322 
1532.720 20204628 20505340 20823882 21158244 21507048 21869432 22244646 
1536.095 22631722 23028370 23430550 23832526 24227274 24606722 24962846 
1539.470 25287906 25575726 25821240 26020908 26173968 26281026 26345794 
1542.846 26372428 26366950 26335442 26283158 26214830 26134108 26043758 
1546.221 25946334 25844388 25740414 25636982 25536106 25439178 25345404 
1549.596 25252854 25157486 25054976 24940790 24812582 24670764 24518432 
1552.971 24361770 24208250 24064212 23934312 23819994 23719872 23631658 
1556.347 23553436 23486280 23434204 23403684 23402534 23436670 23509492 
1559.722 23619926 23764220 23936748 24131934 24344878 24571536 24808332 
1563.097 25049916 25289204 25516492 25720190 25888406 26010466 26078370 
1566.472 26088880 26043348 25948464 25816464 25663094 25506644 25365126 
1569.848 25254108 25184338 25161990 25187540 25258438 25370472 25519796 
1573.223 25703178 25918334 26163002 26436094 26736476 27066058 27430552 
1576.598 27841096 28314368 28869524 29525338 30295468 31184010 32181926 
1579.973 33265288 34394644 35515924 36563800 37466404 38151760 38556000 
1583.349 38632556 38359672 37746660 36834464 35691848 34405176 33066604 
1586.724 31760960 30556904 29501590 28620850 27923106 27404400 27053738 
1590.099 26857500 26801432 26872908 27061226 27359444 27764952 28280942 
1593.474 28916174 29684206 30602870 31692478 32974056 34468392 36194076 
1596.850 38164384 40381876 42833452 45482916 48266216 51089436 53831880 
1600.225 56353976 58510160 60164312 61204644 61556520 61191404 60129976 
1603.600 58439636 56226460 53623688 50775888 47823520 44890568 42075328 
1606.975 39446472 37045116 34888436 32977522 31302948 29849476 28599698 
1610.351 27534708 26634326 25877378 25242650 24709336 24258868 23876282 
1613.726 23549908 23271598 23034752 22834552 22665804 22523538 22402780 
1617.101 22299442 22210498 22134620 22070712 22019444 21980438 21953310 
1620.476 21936190 21926816 21922032 21919182 21916938 21916628 21921864 
1623.852 21938584 21973192 22030980 22113970 22220470 22345788 22483494 
1627.227 22629370 22782934 22949712 23140538 23369346 23651228 23998578 
1630.602 24420158 24919644 25497202 26149732 26871872 27654002 28481602 
1633.977 29332188 30173878 30966728 31666004 32227438 32614778 32804802 
1637.353 32790772 32581396 32198936 31673786 31040406 30333124 29583486 
1640.728 28817680 28056158 27312764 26595422 25907388 25248794 24618218 
1644.103 24014652 23438052 22890742 22376216 21900172 21467910 21083876 
1647.478 20750176 20466384 20228440 20030608 19865692 19727352 19610764 
1650.854 19512728 19432298 19368586 19319684 19283298 19254994 19230272 
1654.229 19204976 19176672 19144526 19109764 19074870 19042830 19017082 
1657.604 19001696 19000394 19017094 19054398 19112780 19189670 19279720 
1660.979 19375534 19469434 19555818 19632970 19702928 19771228 19844384 
1664.354 19927566 20022932 20129484 20242636 20356036 20463548 20559312 
1667.730 20639506 20701832 20745422 20770994 20780182 20775306 20758690 
1671.105 20732720 20699436 20661058 20620380 20581902 20551896 20537506 
1674.480 20544676 20576738 20630858 20699238 20769656 20829028 20866756 
1677.855 20876928 20859810 20820072 20764508 20699694 20630610 20561206 
1681.231 20494970 20436840 20392604 20367666 20364212 20379622 20404798 
1684.606 20427742 20436458 20424618 20393122 20351094 20311050 20285530 
1687.981 20282354 20302756 20342094 20392908 20447894 20502044 20552658 
1691.356 20598284 20636902 20665680 20681894 20685590 20681550 20680740 
1694.732 20696328 20741444 20823454 20941248 21086308 21245308 21406972 
1698.107 21565228 21721860 21884696 22064250 22268554 22500964 22759086 
1701.482 23036864 23328220 23629866 23941820 24268010 24613432 24984080 
1704.857 25385454 25823884 26305672 26838216 27428050 28079298 28792352 
1708.233 29563486 30387620 31260830 32185182 33169702 34230844 35388364 
1711.608 36661436 38063220 39598844 41264688 43052264 44950892 46952720 
1714.983 49053304 51253160 53554512 55960560 58471928 61086880 63799992 
1718.358 66603632 69488576 72444896 75461472 78526816 81628200 84751400 
1721.734 87879632 90992896 94067832 97077648 99993504 102785576 105426512 
1725.109 107892472 110163840 112226352 114068584 115680608 117052304 
1728.002 118171352 119023744 119594696 119870008 119839344 119497056 
1730.895 118844744 117889904 116646104 115130648 113364088 111368480 
1733.788 109166560 106782216 104238072 101555288 98751544 95839776 92828000 
1737.163 89721048 86523664 83244008 79897704 76509152 73110616 69739200 
1740.539 66431744 63219680 60126268 57166016 54345532 51667312 49132000 
1743.914 46741980 44501228 42415388 40489356 38724852 37119044 35662340 
1747.289 34339208 33128850 32009132 30958480 29959304 29000832 28080426 
1750.664 27202962 26379132 25621304 24940360 24339754 23815468 23355060 
1754.040 22940318 22551562 22173034 21794606 21414844 21038414 20673214 
1757.415 20326590 20003068 19704380 19429316 19177154 18948606 18746420 
1760.790 18574008 18433756 18324662 18241950 18177084 18119720 18060536 
1764.165 17991926 17909038 17810310 17696874 17572552 17443628 17317294 
1767.541 17201032 17099996 17014312 16938836 16864342 16781182 16682580 
1770.916 16569726 16452210 16345562 16265497 16221270 16211577 16222646 
1774.291 16233662 16223121 16177250 16094049 15984733 15869422 15769750 
1777.666 15701776 15670981 15671261 15687782 15702324 15698390 15666340 
1781.042 15604164 15518051 15419669 15322812 15239412 15176399 15132886 
1784.417 15100564 15064844 15009986 14923918 14803665 14656575 14498817 
1787.792 14350537 14227792 14138313 14079641 14040263 14006965 13970384 
1791.167 13930342 13895294 13879326 13895395 13949878 14041599 14161952 
1794.542 14301155 14451121 14608584 14773985 14947029 15123358 15293377 
1797.918 15442562 15557262 15629411 15660726 15663525 15656400 15658887 
1801.293 15686098 15744325 15831400 15937066 16047915 16149811 16230654 
1804.668 16282424 16301861 16290942 16257351 16211828 16166341 16129142 
1808.043 16101953 16078113 16044470 15986826 15896291 15774380 15633263 
1811.419 15492832 15371390 15277758 15207966 15144820 15066942 14958946 
1814.794 14820454 14670088 14540503 14468422 14480478 14582875 14756143 
1818.169 14961462 15151645 15286049 15341304 15316716 15229451 15106967 
1821.544 14976871 14858970 14761386 14682032 14610404 14534555 14443400 
1824.920 14331340 14198977 14053016 13904478 13764947 13643165 13541971 
1828.295 13456387 13375324 13286154 13178268 13049440 12906141 12761805 
1831.670 12631291 12524841 12443388 12379295 12319739 12253553 12178447 
1835.045 12103000 12045053 12023762 12052122 12128201 12233258 12335661 
1838.421 12398718 12390893 12293938 12108123 11849971 11549438 11241438 
1841.796 10959503 10731217 10574080 10492750 10480394 10517557 10576663 
1845.171 10626385 10638457 10594501 10491197 10341170 10169580 10007422 
1848.546 9882724 9813796 9805436 9850744 9936115 10046747 10171552 10303587 
1852.404 10437265 10564563 10673091 10746391 10768550 10731055 10638599 
1855.779 10509976 10376010 10270595 10222035 10245134 10339645 10492045 
1859.154 10682814 10892770 11108574 11323546 11534114 11737587 11927874 
1862.530 12095250 12230347 12326978 12384974 12410760 12415601 12410589 
1865.905 12405384 12407084 12420588 12452948 12513165 12610949 12753511 
1869.280 12942107 13168492 13417545 13671775 13915432 14141168 14348836 
1872.655 14540679 14717433 14871740 14989466 15055517 15062172 15017558 
1876.031 14947787 14891472 14887382 14958678 15102335 15286670 15458324 
1879.406 15560406 15548464 15406099 15148071 14816868 14468561 14158041 
1882.781 13926606 13794422 13760505 13807770 13909493 14036122 14160544 
1886.156 14262469 14328645 14354641 14343032 14300223 14232055 14140612 
1889.531 14022958 13871824 13681849 13455011 13204621 12956153 12741957 
1892.907 12592792 12528478 12552119 12650597 12798997 12968994 13135090 
1896.282 13279526 13388800 13451048 13452101 13377468 13214006 12959719 
1899.657 12628620 12250843 11867166 11517395 11227882 11003016 10824402 
1903.032 10659148 10471744 10238170 9952237 9628904 9297618 8991894 8741920 
1906.890 8567029 8476165 8470325 8544012 8690532 8899300 9157229 9445902 
1910.747 9741161 10016032 10244958 10406310 10487546 10485118 10406862 
1914.123 10269498 10097093 9917380 9758807 9643596 9585254 9584646 9627352 
1917.980 9690077 9743573 9760818 9723570 9624012 9465080 9256864 9010693 
1921.837 8738540 8450771 8157743 7873806 7615296 7399382 7238219 7134324 
1925.695 7077684 7046374 7013183 6953514 6854281 6717143 6559542 6406917 
1929.552 6286577 6217343 6206718 6249843 6330257 6428071 6524137 6603025 
1933.410 6661491 6706038 6754356 6833591 6968993 7178483 7457836 7776860 
1937.267 8081062 8303174 8387868 8314245 8114471 7873775 7714506 7760291 
1941.125 8095073 8731439 9597658 10552974 11427811 12069969 12386643 
1944.500 12367096 12078951 11638480 11175025 10798924 10577920 10539314 
1947.875 10677727 10966689 11372177 11849705 12343467 12781274 13082318 
1951.250 13170121 12993697 12544815 11868122 11049621 10202090 9434732 
1954.625 8834021 8446896 8278587 8297905 8452098 8673402 8892579 9048510 
1958.483 9097042 9022661 8836394 8579035 8305687 8064825 7890681 7791134 
1962.340 7761160 7796210 7913409 8144709 8535906 9107141 9824654 10591783 
1966.198 11255737 11649656 11649736 11215334 10413722 9394233 8343050 
1969.573 7425473 6736756 6287628 6016197 5821860 5601626 5262511 4735553 
1973.430 3979377 2989434 1822805 617774 -394629 -933473 -741769 311295 
1977.288 2144603 4447108 6765313 8656112 9842350 10307515 10267930 10059396 
1981.145 10001810 10277822 10882206 11649417 12339095 12748402 12787461 
1984.521 12506992 12057390 11607073 11264764 11043879 10875009 10663955 
1987.896 10354591 9967609 9594541 9352302 9317116 9479036 9736114 9930322 
1991.753 9907026 9574448 8929918 8049762 7053128 6053170 5120694 4286953 
1995.611 3551135 2909146 2371128 1962559 1709809 1621609 1676268 1835750 
1999.468 2055963 2319656 2640595 3055806 3592858 4242335 4930772 5531391 
2003.325 5890236 5878017 5436750 4609313 3537073 2426388 1490554 895106 
2007.183 704283 870766 1256415 1672425 1935976 1909215 1530980 827479 
2011.040 -105869 -1121741 -2052129 -2733608 -3035261 -2865319 -2182566 
2014.416 -984231 677392 2707880 4956492 7222747 9271584 10870235 11841659 
2018.273 12125821 11803116 11096872 10324097 9802919 9763624 10269495 
2021.648 11206655 12317345 13289732 13864244 13911142 13463266 12692842 
2025.023 11847584 11159659 10785500 10766112 11031337 11447625 11853544 
2028.399 12111496 12139114 11909773 11466757 10901628 10344698 9943033 
2031.774 9832318 10107930 10788028 11801864 12990324 14131016 14997070 
2035.149 15413525 15303737 14706627 13761483 12668868 11630168 10798401 
2038.524 10239132 9924906 9751924 9585317 9311939 8874987 8309274 7725841 
2042.382 7273366 7093988 7258303 7738124 8407678 9077296 9570780 9783746 
2046.239 9738070 9582072 9542644 9840233 10594553 11762723 13135109 14400162 
2050.097 15250497 15485235 15070969 14139919 12939574 11764680 10873602 
2053.472 10426539 10452535 10851015 11429689 11971530 12296312 12302303 
2056.847 11984928 11415826 10713226 10007196 9406030 8979125 8745163 8673044 
2060.705 8696170 8725098 8675547 8490151 8154213 7706269 7228426 6825244 
2064.562 6592793 6586131 6804443 7188360 7641051 8061697 8376114 8556996 
2068.419 8627558 8637874 8643903 8680539 8750300 8830491 8891736 8918001 
2072.277 8922920 8948164 9045921 9260209 9606194 10060204 10567384 11053565 
2076.134 11450916 11706211 11794964 11719246 11500046 11172994 10781427 
2079.510 10375629 10009965 9737782 9604843 9639689 9842453 10184688 10607085 
2083.367 11036020 11391940 11606777 11636470 11464638 11106854 10605531 
2086.742 10022736 9428589 8890090 8455710 8145204 7945538 7810979 7679030 
2090.600 7489348 7203034 6819622 6381259 5963703 5655972 5537375 5654110 
2094.457 6008596 6559256 7235126 7954609 8647921 9268028 9795134 10232101 
2098.314 10591120 10887248 11126217 11303443 11405947 11417375 11325116 
2101.690 11129128 10849425 10523801 10207023 9955243 9814678 9808610 9929301 
2105.547 10141406 10394944 10638423 10839692 10989437 11103355 11209423 
2108.922 11333091 11483157 11648182 11799073 11900320 11925502 11863935 
2112.298 11721955 11517337 11267306 10977822 10639468 10229954 9725447 
2115.673 9110898 8391898 7597327 6778776 5999423 5319400 4786253 4423599 
2119.530 4226556 4170080 4212528 4312112 4433152 4551083 4652967 4730588 
2123.388 4772041 4760180 4668372 4469846 4146559 3699339 3151747 2545160 
2127.245 1923724 1320779 744206 174433 -422041 -1078592 -1800273 -2554596 
2131.103 -3270019 -3849836 -4201813 -4263743 -4022750 -3522756 -2847403 
2134.478 -2100341 -1377976 -750871 -257913 92023 311714 426906 474908 500675 
2138.817 554179 684101 923239 1271041 1687414 2091432 2377492 2436307 
2142.675 2178658 1561988 591033 -675839 -2139725 -3671846 -5133781 -6388889 
2146.532 -7318413 -7837541 -7910842 -7559720 -6859724 -5928062 -4892754 
2149.907 -3869307 -2938883 -2135598 -1465634 -932148 -560266 -425726 -648997 
2153.765 -1369663 -2701213 -4673351 -7193326 -10016232 -12761803 -14951240 
2157.140 -16088957 -15768623 -13777590 -10185963 -5360066 120284 5597017 
2160.515 10505751 14441472 17198180 18726704 19094138 18442022 16982058 
2163.891 14971608 12692465 10433285 8440034 6884170 5852427 5340326 5283889 
2167.748 5577557 6099467 6732255 7354739 7845464 8092302 8002705 7534201 
2171.605 6720004 5684503 4621253 3757710 3289930 3326729 3853454 4734939 
2175.463 5755772 6681808 7327663 7598194 7490942 7088009 6510711 5899950 
2179.320 5387199 5087152 5088423 5435319 6112377 7034288 8045733 8956779 
2183.178 9590301 9836776 9691037 9248169 8673355 8144794 7806952 7737021 
2187.035 7950827 8423009 9114670 9989061 10999338 12069019 13078500 13870021 
2190.893 14286520 14230113 13715091 12885910 11989395 11303848 11042463 
2194.268 11282039 11936245 12780759 13539532 13971045 13946636 13475653 
2197.643 12687501 11779396 10952660 10364232 10105816 10201300 10623594 
2201.018 11301395 12130659 12977641 13692262 14130198 14190790 13845559 
2204.394 13152665 12249662 11314952 10519216 9977561 9729906 9746661 9952985 
2208.251 10273767 10653768 11063997 11493173 11923096 12312667 12602423 
2211.626 12726272 12641042 12345314 11884212 11336524 10792175 10320061 
2215.001 9960154 9718194 9583483 9545590 9606053 9775932 10062787 10448663 
2218.859 10880733 11267950 11504675 11500550 11214770 10684913 10024797 
2222.234 9408637 9023315 9024976 9495932 10427197 11719967 13223599 14775293 
2226.092 16246807 17576416 18773670 19903372 21053592 22304328 23708268 
2229.467 25286936 27043648 28982840 31115692 33462212 36031504 38803896 
2232.842 41714368 44657428 47505256 50136320 52462780 54440096 56054436 
2236.217 57306188 58179572 58632284 58604764 58041164 56924708 55299392 
2239.593 53272680 50996780 48636132 46328352 44158524 42156500 40303344 
2242.968 38556224 36870796 35212788 33567452 31933118 30316804 28732528 
2246.343 27199140 25748076 24414744 23239170 22246092 21439958 20793008 
2249.718 20251372 19746788 19216614 18621358 17954780 17242120 16531583 
2253.094 15875580 15317192 14877776 14558909 14346832 14220689 14165032 
2256.469 14174203 14249764 14400879 14630896 14933842 15286268 15648851 
2259.844 15969411 16193889 16278522 16203998 15977707 15638808 15244754 
2263.219 14861044 14540653 14314532 14184888 14129207 14111272 14096072 
2266.594 14061971 14007896 13952884 13927498 13963239 14078910 14273676 
2269.970 14526338 14799480 15050505 15242156 15356014 15392156 15372247 
2273.345 15327464 15289243 15279016 15303689 15358230 15434623 15528213 
2276.720 15645683 15801162 16009495 16273662 16578162 16889256 17165068 
2280.095 17369568 17491210 17544834 17569470 17611742 17707306 17866528 
2283.471 18072146 18288220 18475972 18610302 18686524 18717328 18719884 
2286.846 18703756 18664146 18583044 18442056 18234138 17971494 17686568 
2290.221 17418824 17201542 17050778 16960756 16911412 16881284 16858560 
2293.596 16845104 16852740 16892932 16962844 17041914 17095870 17088854 
2296.972 16998928 16827600 16603125 16370401 16175330 16053220 16017405 
2300.347 16059719 16158378 16284980 16414439 16526910 16608404 16648429 
2303.722 16642367 16590273 16501442 16394719 16295888 16231110 16219359 
2307.097 16266098 16363760 16496610 16648814 16812772 16990598 17190950 
2310.473 17421098 17678204 17945998 18196816 18401366 18537500 18600630 
2313.848 18604346 18576746 18551866 18559324 18616574 18727710 18883802 
2317.223 19067832 19260812 19446078 19615784 19775480 19945454 20160146 
2320.598 20459000 20873782 21408634 22028358 22651386 23162274 23435010 
2323.974 23366110 22903598 22063202 20925550 19619688 18295598 17090536 
2327.349 16104441 15383713 14921209 14668899 14560049 14531269 14537725 
2330.724 14556243 14581977 14618697 14668599 14729266 14792786 14852409 
2334.099 14904058 14950230 14997601 15052925 15119348 15195077 15273040 
2337.475 15345459 15404224 15445394 15466915 15468605 15450541 15412158 
2340.850 15353519 15277538 15189953 15099896 15016585 14947424 14893606 
2344.225 14851118 14811920 14767902 14713613 14648896 14577057 14504007 
2347.600 14433146 14363044 14287949 14201147 14097186 13977489 13849147 
2350.976 13726217 13622912 13550131 13511524 13502759 13513507 13532161 
2354.351 13549159 13560393 13567757 13575279 13586604 13601727 13615511 
2357.726 13618138 13598751 13548556 13462697 13341565 13189188 13010313 
2361.101 12808111 12583129 12333392 12057876 11759035 11446463 11136630 
2364.477 10851385 10613290 10440862 10343851 10320537 10359077 10440501 
2367.852 10544788 10655868 10763592 10865261 10961111 11052320 11136271 
2371.227 11206758 11253919 11269797 11250072 11199339 11128395 11052337 
2374.602 10985240 10936888 10909837 10899718 10899065 10901834 10904602 
2377.978 10909281 10920653 10942462 10975515 11016152 11056883 11090619 
2381.353 11111926 11122152 11126239 11133279 11150459 11182172 11225878 
2384.728 11274716 11317421 11342404 11340620 11308216 11245736 11161083 
2388.103 11067527 10982818 10925918 10915163 10962899 11073817 11241324 
2391.479 11449621 11676877 11898819 12094268 12248424 12352980 12407251 
2394.854 12414084 12379398 12311445 12220008 12116413 12012383 11916599 
2398.229 11832116 11754356 11671829 11570379 11438992 11276289 11092803 
2401.604 10909916 10751594 10640115 10586270 10591452 10648292 10750230 
2404.979 10894973 11086913 11333998 11638079 11986973 12351859 12689965 
2408.355 12957297 13121029 13171509 13125392 13018532 12892717 12781584 
2411.730 12700346 12643751 12593932 12532523 12451428 12360757 12284058 
2415.105 12250647 12284025 12391042 12560099 12762886 12964983 13131746 
2418.480 13239848 13279904 13256817 13187037 13094575 13006065 12945627 
2421.856 12932203 12973615 13065679 13193070 13332156 13457482 13548205 
2425.231 13593145 13592020 13552135 13483487 13393315 13284299 13154801 
2428.606 13005068 12840875 12677455 12537463 12444449 12415783 12455987 
2431.981 12555241 12692306 12842172 12983137 13102784 13198969 13276818 
2435.357 13344244 13406222 13463242 13511862 13547170 13566130 13567176 
2438.732 13552918 13527603 13497530 13470556 13457082 13467685 13512952 
2442.107 13596342 13712810 13843768 13961503 14033674 14034390 13953845 
2445.482 13802432 13611415 13424050 13283601 13223162 13256234 13376882 
2448.858 13562594 13782931 14005214 14201132 14348107 14429466 14436667 
2452.233 14370084 14240881 14071614 13894569 13744498 13648262 13618811 
2455.608 13649420 13716969 13790649 13842259 13854462 13826324 13765915 
2458.983 13685510 13592781 13486245 13358458 13204060 13027246 12847009 
2462.359 12692987 12596883 12578788 12638655 12752997 12883845 12991604 
2465.734 13048642 13048464 13005431 12942861 12884236 12839081 12802770 
2469.109 12761309 12701786 12623193 12539025 12473389 12449560 12476517 
2472.484 12545252 12627281 12691108 12712657 12690331 12645842 12618762 
2475.860 12649774 12764481 12961389 13214072 13477885 13706938 13869151 
2479.235 13955225 13977501 13963235 13941972 13935103 13950888 13984008 
2482.610 14021304 14049368 14059014 14047900 14022191 13992215 13969903 
2485.985 13965604 13984920 14026031 14079512 14129429 14155387 14140500 
2489.361 14076978 13970642 13842297 13722195 13641174 13620157 13662092 
2492.736 13750385 13853443 13937884 13979339 13971742 13928802 13877559 
2496.111 13847067 13858709 13915351 14005210 14104170 14187991 14237960 
2499.486 14249180 14227170 14184928 14136284 14091403 14055745 14030484 
2502.862 14015297 14010519 14015402 14030204 14048625 14063355 14063032 
2506.237 14040502 13992728 13926928 13857154 13802250 13776955 13789118 
2509.612 13835725 13904758 13980726 14049143 14104103 14149135 14193848 
2512.987 14249209 14322649 14411649 14505161 14586388 14637837 14648245 
2516.363 14613791 14542730 14447898 14346447 14253499 14181662 14139392 
2519.738 14135417 14176187 14266552 14407065 14589217 14792642 14986862 
2523.113 15136008 15208248 15185971 15074383 14900433 14708970 14550035 
2526.488 14464173 14470581 14564224 14716134 14885022 15029876 15121271 
2529.864 15147525 15114712 15039892 14942181 14836958 14731704 14626673 
2533.239 14518467 14405637 14290988 14182005 14089414 14024192 13993244 
2536.614 13999988 14043515 14119248 14221333 14342214 14473123 14603158 
2539.989 14720292 14811292 14865301 14874435 14836882 14758082 14648520 
2543.365 14523645 14400441 14294456 14218589 14179682 14178522 14209151 
2546.740 14260647 14318917 14372337 14412945 14441339 14464692 14495845 
2550.115 14546438 14623683 14723831 14832507 14926578 14982285 14980399 
2553.490 14915057 14793695 14637996 14475225 14334545 14237317 14197192 
2556.865 14217975 14296956 14429369 14609770 14833050 15092213 15374493 
2560.241 15662452 15931575 16156860 16316470 16400089 16406966 16349729 
2563.616 16247477 16120633 15984792 15848828 15712919 15575504 15436849 
2566.991 15302212 15182976 15095268 15053166 15064703 15127417 15228563 
2570.366 15348490 15467354 15570462 15652966 15720204 15784442 15858138 
2573.742 15948296 16051127 16152358 16231298 16266724 16247511 16176844 
2577.117 16076095 15980773 15930133 15958933 16081188 16288569 16545421 
2580.492 16799218 16993168 17081616 17042076 16882126 16635802 16354786 
2583.867 16092755 15893649 15782136 15762236 15821910 15939405 16093386 
2587.243 16265877 16442809 16613392 16765777 16888200 16969124 17003822 
2590.618 16995922 16960474 16919264 16894166 16900708 16941006 17004430 
2593.993 17072510 17127350 17159252 17170650 17176982 17198168 17251246 
2597.368 17342094 17463494 17596838 17719754 17813938 17871934 17898356 
2600.744 17908240 17919438 17948250 18003170 18085276 18188362 18302892 
2604.119 18417918 18523864 18612406 18677896 18715232 18724232 18708988 
2607.494 18677406 18642558 18617888 18614568 18638308 18687376 18756072 
2610.869 18836136 18921872 19010806 19104972 19207458 19316946 19425426 
2614.245 19517386 19571838 19569722 19500500 19368310 19192168 19005234 
2617.620 18845600 18748268 18735850 18813664 18967850 19170576 19386920 
2620.995 19583064 19733536 19827236 19866162 19864682 19843480 19822802 
2624.370 19819276 19840884 19888518 19958478 20043794 20139946 20245538 
2627.746 20362070 20491068 20632368 20781182 20929276 21065362 21180116 
2631.121 21269254 21335244 21386064 21433086 21485900 21550298 21623520 
2634.496 21698642 21766322 21819072 21855470 21880030 21901128 21927672 
2637.871 21965178 22013746 22067946 22119584 22160718 22187776 22200036 
2641.247 22200788 22193148 22177924 22152600 22112984 22056124 21983076 
2644.622 21902422 21827898 21775954 21759908 21785232 21846766 21928790 
2647.997 22010406 22070408 22094288 22077820 22027334 21957050 21883344 
2651.372 21819728 21773556 21743484 21723612 21705254 21682586 21653908 
2654.748 21622800 21596336 21581256 21581048 21594470 21613192 21627072 
2658.123 21623282 21591480 21525202 21423088 21287728 21125402 20944544 
2661.498 20753322 20560002 20372026 20194344 20031432 19884650 19753818 
2664.873 19636776 19530576 19432250 19341978 19260040 19189754 19134092 
2668.249 19095398 19074312 19068678 19075088 19091124 19114362 19145704 
2671.624 19186328 19237672 19297232 19359880 19416782 19457494 19474518 
2674.999 19463878 19428806 19378036 19322558 19273558 19237346 19215826 
2678.374 19204580 19198650 19192722 19185344 19178326 19175904 19181880 
2681.750 19197614 19219136 19239580 19250086 19243692 19217948 19175102 
2685.125 19122658 19069834 19023954 18989914 18966898 18951022 18936140 
2688.500 18917538 18894130 18867814 18844204 18830008 18831118 18849356 
2691.875 18883274 18927544 18973642 19014588 19043394 19057416 19056200 
2695.250 19043364 19023166 19001692 18983298 18973066 18974098 18988298 
2698.626 19017044 19059346 19112750 19171904 19229080 19275452 19301732 
2702.001 19301172 19269028 19206554 19119666 19018548 18915760 18826060 
2705.376 18761380 18730198 18734906 18772138 18833362 18906730 18980764 
2708.751 19046624 19099916 19141728 19176716 19211256 19248912 19290418 
2712.127 19332210 19367808 19391080 19398824 19391390 19373898 19353200 
2715.502 19335600 19324856 19320234 19318356 19315104 19307914 19296232 
2718.877 19282808 19270108 19260612 19254678 19250392 19245194 19236870 
2722.252 19226070 19215354 19207658 19205376 19207948 19212178 19214750 
2725.628 19213190 19209248 19207962 19217328 19244148 19290816 19354048 
2729.003 19424466 19489768 19539922 19568664 19578100 19574930 19568632 
2732.378 19568040 19577932 19596950 19621032 19644108 19662590 19674992 
2735.753 19684822 19696678 19715448 19743270 19779208 19818668 19855096 
2739.129 19878800 19883592 19863272 19817190 19747912 19663192 19573832 
2742.504 19492480 19430594 19396042 19391224 19413120 19453132 19501484 
2745.879 19548284 19586214 19611214 19622242 19619392 19603398 19575728 
2749.254 19538052 19494898 19452932 19421146 19409632 19426286 19475194 
2752.630 19555454 19661156 19782574 19909612 20031514 20140096 20227838 
2756.005 20290256 20323248 20326436 20302668 20258732 20205668 20156396 
2759.380 20123010 20113506 20128834 20165744 20215784 20270780 20324580 
2762.755 20376358 20428056 20483870 20545672 20613086 20680522 20741092 
2766.131 20788346 20819204 20835052 20841014 20843620 20848460 20858162 
2769.506 20872808 20890544 20910060 20931820 20958542 20994148 21040888 
2772.881 21097936 21160704 21222564 21274992 21313214 21337232 21350578 
2776.256 21361494 21378224 21406848 21448320 21499454 21554074 21604966 
2779.632 21647058 21679326 21705126 21732062 21768296 21821998 21898630 
2783.007 21998664 22118372 22250068 22382568 22504318 22604682 22676684 
2786.382 22717580 22731762 22727132 22716382 22713534 22729984 22773462 
2789.757 22846154 22944598 23061452 23186656 23311250 23427506 23531074 
2793.133 23620434 23696338 23760656 23816590 23866886 23915210 23964684 
2796.508 24019380 24082218 24155576 24239932 24333116 24430880 24527644 
2799.883 24616588 24692216 24751204 24792410 24818466 24835060 24849756 
2803.258 24870522 24905900 24960538 25036824 25132300 25241958 25358876 
2806.634 25476032 25590388 25702512 25818292 25945054 26091170 26261128 
2810.009 26453812 26661528 26871826 27071176 27248526 27397180 27520162 
2813.384 27624324 27721562 27823316 27939814 28077260 28238536 28424046 
2816.759 28634870 28871026 29133026 29421368 29734948 30071300 30427588 
2820.135 30801238 31191810 31600960 32031580 32486118 32965652 33467360 
2823.510 33986848 34520000 35065504 35627808 36217356 36850128 37543480 
2826.885 38311860 39163752 40099080 41108880 42178812 43291296 44429844 
2830.260 45582952 46743960 47913948 49100072 50314220 51570380 52883504 
2833.635 54264580 55719960 57248872 58844804 60496220 62191196 63920124 
2837.011 65680704 67476944 69320632 71226752 73210792 75284768 77456056 
2840.386 79727528 82100096 84576568 87166024 89885280 92762168 95832480 
2843.761 99136168 102707392 106566424 110705008 115074768 119578728 
2846.654 124068744 128354208 132218896 135447856 137858384 139328144 
2849.547 139813968 139357936 138077584 136143504 133750976 131091672 
2852.440 128331424 125597744 122977792 120520968 118249376 116166112 
2855.333 114262264 112524736 110936128 109477896 108130904 106875544 
2858.227 105693880 104567560 103480840 102418680 101368744 100323040 
2861.120 99276256 98230232 97190992 96169624 95179304 94232008 93337624 
2864.495 92499200 91714912 90979000 90283096 89619400 88984928 88380656 
2867.870 87812496 87289032 86819952 86410504 86061952 85767720 85516936 
2871.245 85295056 85089024 84888656 84690824 84498024 84318944 84163688 
2874.621 84043528 83967672 83943320 83975848 84071480 84235136 84474472 
2877.996 84795752 85203472 85698696 86278264 86934504 87658424 88439720 
2881.371 89269960 90143760 91059752 92017792 93020584 94070448 95169120 
2884.746 96316672 97511848 98750088 100025776 101332064 102661808 104009496 
2888.122 105371408 106745232 108130984 109528088 110935456 112349088 
2891.015 113764872 115177504 116585112 117988632 119392648 120804480 
2893.908 122231496 123678144 125145104 126629800 128128392 129638584 
2896.801 131161872 132705720 134280944 135900784 137576528 139315808 
2899.694 141121344 142990128 144916896 146895056 148919824 150988688 
2902.587 153102448 155265504 157486160 159774544 162143184 164604544 
2905.480 167170784 169850160 172649584 175573248 178626032 181814352 
2908.373 185151584 188655184 192347984 196255136 200398784 204796112 
2911.266 209453856 214365984 219510992 224849424 230320016 235838592 
2914.159 241298288 246572096 251520688 256005280 259900720 263110720 
2917.052 265577200 267285024 268261312 268567744 268288992 267520128 
2919.945 266356432 264883456 263173136 261282176 259254128 257121088 
2922.838 254909840 252643968 250346240 248038480 245740272 243466480 
2925.731 241224784 239016320 236836624 234679936 232542544 230426080 
2928.625 228337472 226286864 224281472 222322736 220401120 218498576 
2931.518 216592464 214660160 212686960 210668928 208612848 206533680 
2934.411 204447872 202368960 200303344 198252512 196213024 194179984 
2937.304 192150112 190121056 188092752 186063984 184033360 181997296 
2940.197 179954896 177905360 175851008 173796128 171744528 169697168 
2943.090 167653056 165608848 163564112 161522912 159496976 157502576 
2945.983 155558336 153677584 151864512 150110720 148399392 146708576 
2948.876 145020896 143326336 141628160 139936224 138264496 136621760 
2951.769 135008928 133415416 131824184 130215152 128570672 126880912 
2954.662 125142280 123356416 121527504 119658816 117753232 115812144 
2957.555 113839248 111842160 109832736 107826616 105840560 103889072 
2960.448 101981816 100121336 98304184 96522888 94768120 93032336 91311408 
2963.823 89607008 87925680 86277952 84675392 83127464 81640808 80217016 
2967.199 78854864 77552336 76307360 75122216 73999872 72944800 71957808 
2970.574 71034664 70165536 69335904 68531656 67743032 66966876 66208988 
2973.949 65480656 64794564 64160212 63580848 63051760 62563524 62103768 
2977.324 61660376 61224548 60790376 60353840 59912248 59461788 58999652 
2980.700 58523796 58035056 57537148 57036380 56541032 56059124 55597264 
2984.075 55161012 54754568 54380312 54039552 53731364 53451920 53194804 
2987.450 52951292 52712884 52473732 52230732 51988000 51753804 51541520 
2990.825 51366216 51242016 51181184 51192640 51281132 51449400 51696916 
2994.201 52023944 52430588 52920372 53497044 54165116 54924752 55769648 
2997.576 56683600 57641664 58613304 59568700 60484072 61346696 62154272 
3000.951 62910216 63615136 64261088 64827376 65283180 65595104 65739492 
3004.326 65709008 65516664 65193756 64778424 64305640 63799916 63270212 
3007.702 62716484 62137224 61536080 60928140 60338892 59798152 59334092 
3011.077 58965844 58703604 58548840 58499340 58554428 58716664 58993972 
3014.452 59395584 59933568 60620412 61470772 62502316 63735932 65192124 
3017.827 66887104 68829080 71012368 73421816 76033360 78819864 81755560 
3021.203 84814768 87969624 91182272 94401064 97560544 100582440 103387696 
3024.578 105903616 108071400 109850032 111211968 112138832 112614752 
3027.471 112625792 112162832 111228504 109843936 108053064 105921104 
3030.364 103526928 100950632 98263904 95522896 92763680 90006744 87264072 
3033.739 84544088 81860344 79229072 76671664 74209720 71862192 69642248 
3037.115 67555816 65602580 63776396 62068356 60469732 58971848 57570732 
3040.490 56264560 55054748 53944032 52933560 52021472 51201760 50465148 
3043.865 49800568 49199128 48656492 48175548 47765240 47440828 47217432 
3047.240 47108348 47119888 47251572 47495012 47835976 48258544 48749428 
3050.615 49300004 49910384 50587412 51342664 52188408 53132220 54172156 
3053.991 55295500 56477684 57687612 58891796 60061632 61176868 62229040 
3057.366 63217044 64145020 65014340 65821132 66551060 67183920 67694800 
3060.741 68060736 68265128 68298520 68160496 67855224 67389240 66769584 
3064.116 66003956 65102056 64079552 62958376 61767896 60541428 59312324 
3067.492 58109148 56953044 55855168 54820040 53848300 52941960 52104072 
3070.867 51341844 50662160 50071052 49568980 49151548 48808140 48528196 
3074.242 48301336 48122928 47993900 47921780 47918096 47995764 48166256 
3077.617 48435880 48806752 49273720 49824108 50439412 51094196 51757448 
3080.993 52394056 52968056 53445228 53795564 53996876 54036064 53910368 
3084.368 53623920 53187492 52615192 51918192 51107772 50190036 49170684 
3087.743 48056996 46862312 45606168 44317292 43029476 41777672 40590928 
3091.118 39490192 38482360 37563264 36719592 35935448 35197500 34497492 
3094.494 33836328 33220160 32659568 32166488 31750112 31417760 31172136 
3097.869 31013236 30937392 30937580 31002184 31116836 31263486 31423662 
3101.244 31579588 31718216 31829856 31911112 31961978 31984214 31978648 
3104.619 31944226 31875130 31763352 31600344 31379998 31100102 30766244 
3107.995 30389822 29987374 29575236 29167414 28770014 28381132 27991924 
3111.370 27591662 27172356 26733596 26285584 25848316 25444476 25097084 
3114.745 24817882 24607286 24451320 24325802 24203098 24058708 23878014 
3118.120 23658396 23409832 23151254 22906518 22696754 22537418 22435870 
3121.496 22390552 22391380 22424284 22472774 22521064 22555688 22567068 
3124.871 22548758 22498228 22415676 22305618 22177216 22043410 21920536 
3128.246 21825010 21770122 21761784 21796536 21861652 21937962 22007022 
3131.621 22053226 22072230 22068246 22053916 22043488 22048992 22074336 
3134.997 22116366 22162958 22200262 22212866 22191876 22132954 22038408 
3138.372 21917524 21782036 21645880 21523012 21424430 21355628 21317680 
3141.747 21306568 21315972 21339128 21372124 21413492 21464714 21524100 
3145.122 21587532 21644838 21683314 21692042 21666762 21614568 21552922 
3148.498 21504296 21488940 21515336 21577368 21653730 21716862 21740980 
3151.873 21712264 21633884 21522478 21403722 21302140 21233536 21201964 
3155.248 21201382 21219274 21243122 21263892 21277870 21285158 21289788 
3158.623 21295168 21306176 21328138 21365958 21423352 21500876 21593852 
3161.999 21693248 21787466 21866274 21924776 21964542 21992924 22017908 
3165.374 22045132 22073966 22098008 22107022 22094930 22059468 22007574 
3168.749 21947772 21890084 21838468 21790032 21739130 21681812 21620098 
3172.124 21565632 21535808 21547088 21608894 21715370 21848498 21980712 
3175.500 22084860 22142640 22149100 22112998 22051846 21983514 21922870 
3178.875 21876758 21845508 21826132 21815954 21814658 21824602 21849006 
3182.250 21889702 21945940 22014526 22090954 22169446 22242392 22300880 
3185.625 22333220 22326834 22271524 22163408 22009234 21827240 21645316 
3189.000 21493948 21399752 21376474 21422212 21518544 21637676 21748582 
3192.376 21825142 21852724 21830338 21769462 21691476 21621638 21583936 
3195.751 21596980 21669396 21799080 21971746 22165264 22353910 22514740 
3199.126 22632652 22705022 22740128 22753796 22762182 22776824 22797832 
3202.501 22815504 22812682 22771664 22682296 22544028 22369798 22180970 
3205.877 22002468 21855664 21753616 21700004 21688372 21707394 21744022 
3209.252 21787574 21831248 21870938 21906962 21938678 21965754 21987212 
3212.627 22001002 22005710 22001658 21990572 21976236 21963404 21957394 
3216.002 21961770 21979026 22009932 22053082 22106428 22166292 22229532 
3219.378 22291274 22347726 22394226 22428480 22449952 22461012 22467300 
3222.753 22476416 22495730 22530242 22580078 22639590 22698580 22744116 
3226.128 22765982 22757760 22721388 22665226 22602746 22548072 22512194 
3229.503 22500442 22512068 22540984 22578290 22616040 22649122 22674706 
3232.879 22693436 22705094 22709134 22703262 22684426 22650444 22601850 
3236.254 22543552 22483596 22432670 22399718 22390190 22401922 22427502 
3239.629 22452976 22464718 22452570 22413798 22356242 22296596 22257566 
3243.004 22260002 22317684 22431620 22586994 22756962 22907108 23004188 
3246.380 23026412 22967286 22839258 22669536 22494210 22348928 22259498 
3249.755 22237754 22279342 22366458 22474734 22578886 22659862 22707572 
3253.130 22722986 22716494 22705288 22707670 22741060 22816336 22935822 
3256.505 23092308 23268380 23439594 23578602 23660912 23669790 23601258 
3259.881 23466056 23285796 23091344 22913550 22778446 22700208 22680054 
3263.256 22708238 22768400 22841990 22916598 22985838 23051582 23119882 
3266.631 23196672 23283722 23376742 23465828 23539320 23588820 23612790 
3270.006 23619134 23623606 23643068 23691848 23773934 23882068 23999614 
3273.382 24105404 24180996 24216340 24211406 24175784 24122938 24065104 
3276.757 24010344 23961868 23920222 23889392 23878986 23906250 23990436 
3280.132 24146490 24377572 24670248 24994382 25308948 25571404 25748262 
3283.507 25823268 25801686 25706976 25574452 25443234 25346006 25305058 
3286.883 25330720 25420136 25564034 25748256 25959514 26186076 26419838 
3290.258 26654478 26886010 27110972 27325922 27527394 27713710 27884648 
3293.633 28044292 28199224 28359996 28537536 28741002 28974522 29236354 
3297.008 29518150 29806220 30085614 30343038 30568312 30757390 30910006 
3300.384 31027718 31112490 31163534 31176248 31143342 31056084 30906398 
3303.759 30688248 30400962 30049804 29646652 29208168 28756840 28316146 
3307.134 27909082 27554300 27262606 27036680 26868476 26741908 26636870 
3310.509 26532154 26410534 26262080 26087108 25893670 25695848 25509946 
3313.885 25350168 25224664 25134786 25076634 25041264 25019194 25001138 
3317.260 24980168 24950360 24904318 24835898 24737360 24604232 24437174 
3320.635 24244576 24042776 23854260 23701628 23603910 23569172 23593970 
3324.010 23665346 23763504 23869318 23967318 24049222 24112438 24158190 
3327.385 24189270 24207684 24214442 24211448 24201718 24189518 24180342 
3330.761 24177670 24181844 24190058 24196700 24198182 24195170 24192382 
3334.136 24200484 24230046 24288386 24374612 24478518 24583132 24667202 
3337.511 24713960 24712692 24663046 24574454 24462996 24345894 24238440 
3340.886 24150438 24085034 24040554 24013288 23998736 23994312 23999124 
3344.262 24013174 24034776 24058634 24074614 24069630 24029246 23943416 
3347.637 23809422 23634362 23435824 23236126 23059626 22925038 22842970 
3351.012 22814454 22832964 22887130 22966810 23063220 23170616 23284032 
3354.387 23398840 23507028 23599886 23669724 23711664 23726260 23719496 
3357.763 23701304 23682092 23670786 23672262 23687878 23715266 23750018 
3361.138 23787608 23823736 23854216 23876662 23889488 23894042 23892822 
3364.513 23888430 23882336 23872492 23851882 23811086 23740006 23634098 
3367.888 23499816 23353720 23223356 23139466 23129166 23207914 23375200 
3371.264 23613722 23893906 24180922 24441600 24650458 24792100 24862386 
3374.639 24865486 24811600 24715846 24594590 24464662 24341994 24241252 
3378.014 24172690 24142002 24150112 24194538 24266410 24355616 24449178 
3381.389 24532632 24591732 24614156 24592934 24528390 24429630 24314668 
3384.765 24206172 24127302 24096188 24119916 24192818 24298256 24411032 
3388.140 24503650 24552912 24544646 24475058 24353034 24195706 24026582 
3391.515 23868394 23741356 23658606 23624960 23638940 23692464 23775830 
3394.890 23879112 23993986 24112778 24227730 24329104 24406022 24445542 
3398.266 24438018 24378976 24273212 24134674 23983744 23843894 23734474 
3401.641 23665234 23636746 23639868 23660174 23682888 23697822 23701864 
3405.016 23698230 23694248 23696910 23711508 23738148 23773974 23813366 
3408.391 23851276 23883692 23910026 23930856 23947334 23960252 23969270 
3411.767 23973804 23974662 23973572 23975002 23983566 24003390 24034720 
3415.142 24072386 24107872 24130144 24130096 24104962 24057500 23998054 
3418.517 23940550 23897304 23876610 23879978 23904188 23943376 23992834 
3421.892 24050828 24117948 24197880 24289364 24388264 24485576 24569892 
3425.268 24631270 24664506 24669596 24652750 24623782 24591684 24565812 
3428.643 24552178 24556436 24581954 24628854 24693328 24765340 24829622 
3432.018 24869646 24871870 24832108 24758684 24669850 24588632 24533662 
3435.393 24513268 24520184 24538206 24548132 24536872 24502798 24455866 
3438.769 24411926 24385116 24380778 24394156 24415418 24435644 24454020 
3442.144 24478896 24523830 24597076 24695980 24801872 24885530 24916632 
3445.519 24876824 24766430 24606910 24433202 24280126 24171600 24113676 
3448.894 24096610 24101142 24109736 24113454 24114850 24124956 24154592 
3452.270 24211438 24294572 24396112 24505820 24612428 24706508 24778618 
3455.645 24818162 24812192 24748708 24620586 24431656 24200204 23956262 
3459.020 23734762 23567954 23475640 23461444 23513048 23608936 23724550 
3462.395 23840316 23943418 24029768 24099348 24154372 24196462 24227246 
3465.771 24248588 24264100 24276582 24289062 24299562 24302476 24288800 
3469.146 24248612 24176280 24074496 23954702 23835582 23739222 23685960 
3472.521 23686678 23742918 23843482 23969226 24097936 24208676 24287626 
3475.896 24330900 24342000 24331332 24309882 24286792 24266034 24247728 
3479.271 24229538 24211574 24195832 24188752 24195384 24216670 24248510 
3482.647 24278720 24294042 24285324 24251972 24206172 24167284 24157252 
3486.022 24190284 24267696 24374362 24487992 24582168 24638898 24650882 
3489.397 24623032 24566028 24491974 24408966 24321828 24235958 24159478 
3492.772 24107436 24097710 24144084 24249990 24402050 24575590 24738482 
3496.148 24863870 24938782 24965898 24960388 24941208 24919664 24896468 
3499.523 24861592 24802076 24711070 24594462 24471348 24368724 24310646 
3502.898 24310454 24367582 24466608 24587610 24709956 24819712 24909074 
3506.273 24974850 25014898 25027078 25011028 24971574 24922776 24884720 
3509.649 24879746 24925368 25024322 25162458 25311522 25437330 25510882 
3513.024 25518286 25464026 25367372 25256606 25156950 25084858 25042594 
3516.399 25022696 25010136 24991532 24958114 24907858 24844678 24778042 
3519.774 24718624 24678034 24665052 24686692 24744856 24838618 24962306 
3523.150 25108106 25265474 25424796 25575508 25707866 25811638 25878854 
3526.525 25902710 25883556 25829210 25756540 25687900 25645756 25645570 
3529.900 25689154 25762602 25839646 25887316 25877998 25795244 25640222 
3533.275 25428758 25189296 24952900 24748734 24598684 24517884 24513014 
3536.651 24583742 24722858 24915618 25139440 25365854 25563390 25705194 
3540.026 25772024 25759312 25675258 25539046 25374780 25206778 25054144 
3543.401 24930122 24840794 24788682 24771526 24785634 24823272 24875722 
3546.776 24932134 24983656 25023726 25051984 25072116 25089628 25108098 
3550.152 25125254 25132616 25116892 25064090 24967142 24828184 24662294 
3553.527 24492544 24347526 24250338 24216176 24244712 24322682 24427006 
3556.902 24529696 24605706 24636352 24614054 24542394 24433820 24307130 
3560.277 24182334 24078480 24006960 23975816 23982536 24020790 24078476 
3563.653 24144332 24205296 24252836 24280830 24288556 24277676 24254436 
3567.028 24224460 24194358 24167972 24146018 24126104 24102334 24067508 
3570.403 24015616 23942200 23847744 23735838 23614298 23490212 23371268 
3573.778 23261796 23164686 23081734 23014522 22967244 22946170 22957082 
3577.154 23004560 23084898 23189444 23298956 23390574 23441762 23436974 
3580.529 23370524 23250220 23093166 22922592 22758138 22613284 22492496 
3583.904 22392526 22306508 22231434 22167792 22124620 22110964 22135630 
3587.279 22200932 22302430 22429406 22570302 22715706 22861648 23007158 
3590.655 23150544 23286496 23406062 23492688 23533662 23521714 23461780 
3594.030 23369314 23266918 23175502 23111144 23075308 23061960 23058158 
3597.405 23055442 23050668 23049764 23061930 23095272 23150418 23219862 
3600.780 23287992 23339798 23363032 23354530 23317672 23261542 23194008 
3604.156 23122214 23050646 22984638 22931100 22902526 22909590 22961156 
3607.531 23054104 23175348 23301364 23405938 23466724 23475202 23434384 
3610.906 23360768 23275354 23198058 23144192 23122984 23139800 23198174 
3614.281 23300926 23449058 23636756 23848972 24062126 24247614 24379862 
3617.656 24443128 24435792 24372444 24274128 24162886 24055150 23957138 
3621.032 23868486 23786634 23713174 23657114 23629070 23639770 23689476 
3624.407 23768090 23853550 23920014 23945764 23924428 23863190 23786204 
3627.782 23723108 23700880 23732834 23816552 23932288 24051234 24144082 
3631.157 24190166 24180672 24123274 24036902 23945620 23873996 23839758 
3634.533 23849280 23897930 23973494 24059602 24141450 24210726 24265088 
3637.908 24309798 24351458 24398640 24455018 24522680 24598692 24680364 
3641.283 24764756 24851012 24937416 25022374 25101966 25169680 25217296 
3644.658 25237810 25223846 25171834 25079188 24948962 24786802 24605708 
3648.034 24423610 24266154 24158756 24125486 24177174 24309932 24501574 
3651.409 24718354 24921704 25080254 25175416 25208376 25192022 25147994 
3654.784 25096440 25051032 25016438 24992416 24973686 24959744 24949986 
3658.159 24946012 24944126 24938796 24919542 24876014 24802302 24702200 
3661.535 24586808 24471634 24368762 24283740 24210894 24138900 24055054 
3664.910 23953070 23836028 23717110 23613340 23539010 23500674 23495748 
3668.285 23513758 23544730 23580768 23623476 23676072 23746208 23835252 
3671.660 23939272 24045544 24139006 24201972 24222324 24191274 24107430 
3675.036 23973516 23798166 23594234 23379772 23177886 23013556 22908032 
3678.411 22875552 22915276 23012886 23138730 23257436 23333984 23343106 
3681.786 23274622 23136804 22950320 22745732 22551024 22391066 22276142 
3685.161 22205272 22163974 22131958 22085686 22005840 21882876 21718890 
3688.537 21527878 21334112 21164718 21047822 21001388 21036472 21150376 
3691.912 21331750 21557954 21802474 22034194 22224808 22351320 22401910 
3695.287 22376152 22290542 22167172 22034462 21916012 21824360 21760508 
3698.662 21716022 21678852 21644906 21618772 21618608 21666170 21779870 
3702.038 21959638 22184986 22415650 22600738 22694160 22670102 22529398 
3705.413 22303394 22042512 21803262 21632074 21555712 21574578 21669778 
3708.788 21809348 21959308 22091748 22188836 22241706 22247336 22206588 
3712.163 22120444 21994626 21841354 21678948 21534476 21435878 21409346 
3715.539 21466140 21602930 21798674 22019338 22227344 22391216 22490810 
3718.914 22523212 22496894 22429076 22335996 22232654 22128160 22032774 
3722.289 21957494 21918830 21934172 22018428 22173760 22387450 22629760 
3725.664 22861654 23041790 23144216 23160616 23106358 23011624 22913232 
3729.040 22839634 22804492 22801296 22811642 22807442 22767886 22680548 
3732.415 22548550 22384054 22206234 22033780 21883250 21764420 21683572 
3735.790 21642718 21642626 21679674 21749604 21843030 21952678 22070394 
3739.165 22192170 22316872 22446642 22582864 22723152 22856824 22970546 
3742.541 23045442 23067908 23032510 22948418 22834110 22716382 22617508 
3745.916 22552590 22520380 22509684 22503014 22487026 22458440 22425940 
3749.291 22406912 22420878 22476544 22568642 22675760 22767790 22816226 
3752.666 22806804 22745424 22659186 22586932 22568644 22629696 22776310 
3756.042 22991254 23239102 23476316 23663854 23771620 23786674 23711002 
3759.417 23560880 23358922 23134446 22914364 22724714 22581536 22493940 
3762.792 22458148 22462414 22489946 22524816 22558052 22591298 22633278 
3766.167 22700576 22806490 22958884 23154634 23382744 23625512 23866098 
3769.542 24085738 24270094 24404556 24476662 24475354 24395778 24241724 
3772.918 24031066 23791586 23557664 23360754 23223310 23150920 23135604 
3776.293 23159496 23203572 23252866 23300522 23343488 23379104 23397202 
3779.668 23384054 23320598 23195128 23005608 22768168 22512532 22279612 
3783.043 22107896 22026990 22050506 22173664 22376568 22627860 22890576 
3786.419 23128716 23310956 23416512 23435784 23377532 23264008 23127798 
3789.794 23006846 22931330 22918836 22969392 23065306 23182280 23290242 
3793.169 23368276 23405162 23400484 23362398 23304536 23238494 23176780 
3796.544 23128568 23101016 23099866 23128446 23187416 23275626 23389660 
3799.920 23526966 23683480 23855890 24036408 24213664 24369640 24482952 
3803.295 24534404 24514232 24424084 24281088 24113246 23951904 23821114 
3806.670 23734438 23688694 23673264 23669738 23666076 23655758 23642366 
3810.045 23631784 23632214 23645580 23671370 23703706 23737712 23768136 
3813.421 23792164 23807092 23812414 23807728 23798168 23792970 23807518 
3816.796 23857868 23956984 24104000 24284314 24469572 24626258 24723518 
3820.171 24745650 24696610 24596932 24476418 24364360 24276828 24217044 
3823.546 24174850 24134834 24084010 24017740 23938220 23854818 23778216 
3826.922 23716650 23676030 23661006 23674534 23721650 23803276 23917870 
3830.297 24054524 24198300 24328984 24428668 24484954 24496026 24466756 
3833.672 24407320 24327764 24236844 24139204 24038838 23939866 23848104 
3837.047 23769726 23708746 23664390 23632920 23606220 23579898 23552920 
3840.423 23532136 23525408 23541788 23580760 23636784 23693474 23735580 
3843.798 23749670 23733916 23696836 23655618 23629764 23634664 23677054 
3847.173 23754748 23856906 23969180 24075796 24163560 24221838 24246228 
3850.548 24236450 24199742 24149564 24104548 24082320 24095302 24142226 
3853.924 24208596 24267336 24290070 24253708 24152276 23998202 23820254 
3857.299 23653166 23529480 23465398 23459906 23496808 23550710 23598400 
3860.674 23625866 23631672 23626706 23626280 23645844 23694228 23772878 
3864.049 23874922 23991414 24111188 24223592 24317062 24378450 24394880 
3867.425 24352680 24244550 24073994 23859076 23632562 23435144 23307128 
3870.800 23274920 23345710 23501846 23708394 23920996 24101006 24223400 
3874.175 24283320 24292856 24274646 24249918 24232222 24222986 24216360 
3877.550 24203076 24178844 24147958 24121626 24112106 24126450 24161400 
3880.926 24206144 24243198 24261738 24259662 24248710 24249634 24283060 
3884.301 24359188 24474126 24604248 24717818 24779942 24767074 24673570 
3887.676 24512214 24309672 24099910 23912082 23768010 23676716 23637818 
3891.051 23642842 23683426 23751356 23843106 23956858 24094072 24253968 
3894.427 24432506 24617916 24793696 24935220 25019008 25022236 24933340 
3897.802 24754920 24507812 24226344 23955862 23739472 23611890 23588600 
3901.177 23665308 23818198 24012188 24208080 24373866 24489718 24552714 
3904.552 24572286 24567312 24556824 24555392 24566958 24585880 24598898 
3907.927 24591950 24554126 24483704 24389358 24286844 24195348 24131964 
3911.303 24105890 24118984 24164160 24230910 24307680 24387492 24464960 
3914.678 24541002 24616272 24693676 24773596 24856308 24940226 25022062 
3918.053 25096282 25155628 25190616 25194240 25162410 25099858 25020022 
3921.428 24945044 24899990 24905422 24970076 25087512 25234138 25376198 
3924.804 25477384 25509426 25457638 25327406 25137744 24920458 24708694 
3928.179 24533608 24419230 24379048 24416246 24524386 24686990 24883878 
3931.554 25088374 25276674 25428144 25533502 25593384 25619280 25626256 
3934.929 25630848 25641538 25657518 25668608 25660362 25619540 25540174 
3938.305 25427018 25295036 25165546 25058418 24988630 24960554 24968378 
3941.680 24999260 25038366 25075894 25105604 25131346 25159086 25195714 
3945.055 25244824 25303096 25362446 25414382 25451330 25473024 25485162 
3948.430 25499160 25525516 25571396 25633500 25700796 25753758 25772718 
3951.806 25741306 25653664 25514426 25337416 25141774 24947166 24766356 
3955.181 24608390 24473396 24358856 24261572 24182354 24124800 24098612 
3958.556 24114186 24180574 24301662 24473762 24683586 24911862 25133162 
3961.931 25325636 25470346 25559794 25595160 25588142 25554194 25509840 
3965.307 25466406 25429898 25397518 25363658 25320326 25263504 25194264 
3968.682 25118208 25045736 24988598 24956800 24956626 24987958 25045328 
3972.057 25118340 25193638 25255998 25297408 25311162 25302344 25281356 
3975.432 25263172 25263296 25292026 25351516 25434828 25528056 25613694 
3978.808 25677272 25710090 25710128 25680984 25628946 25560430 25479448 
3982.183 25389346 25293868 25200252 25120274 25068268 25056972 25096036 
3985.558 25184420 25312090 25459902 25605622 25729258 25817124 25865582 
3988.933 25882796 25883240 25886234 25908954 25964030 26055492 26179480 
3992.309 26324718 26477526 26621514 26743512 26833832 26885996 26896098 
3995.684 26862236 26783724 26662978 26505898 26325804 26141650 25975624 
3999.059 25848302 25772336 25749754 25768732 
##END=
