##TITLE=Bambu-Lab_PLA_White_Filament_r6_ATR-Corrected
##JCAMP-DX=5.01  $$ Nicolet v. 1
##DATATYPE=INFRARED SPECTRUM
##ORIGIN=Curtin University
##OWNER=Nicolet
##LONGDATE=2024/07/03
##TIME=10:04:31
##SPECTROMETER/DATA SYSTEM=Nicolet iS50
##DATA PROCESSING=
Ratio against background
%Transmittance->Absorbance
ATR Correction
Truncated
ElementMultiply or ElementDivide
##COMMENTS=
Number of sample scans: 32
Collection length: 47.26 sec
Sample gain: 1.0
Background collected on: Wed Jul 03 10:02:05 2024 (GMT+08:00);
Number of background scans: 32
Background gain: 1.0
Sample spacing:  1.000
Number of scan points: 16672
Resolution points: 8192
Number of FFT points: 65536
Apodization: N-B strong;
Phase correction: Mertz;
Laser frequency: 15798.3 cm-1
Number of rejected sample scans: 0
Number of rejected background scans: 0
Bench serial number: AUP1200105;
##RESOLUTION=4.000
##XUNITS=1/CM
##YUNITS=ABSORBANCE
##FIRSTX=400.163452
##LASTX=4000.187744
##FIRSTY=0.057711
##MAXX=4000.187744
##MINX=400.163452
##MAXY=1.146904
##MINY=-0.021653
##XFACTOR=1.000000
##YFACTOR=1.000000E-008
##NPOINTS=7468
##DELTAX=0.482125
##ZPD=8192
##XYDATA=(X++(Y..Y))
400.163 5771101 5710908 5677938 5670886 5680944 5695816 5701847 5687538 
404.020 5646126 5576825 5483849 5374454 5256199 5134989 5014101 4894471 
407.877 4775618 4656839 4537799 4418951 4301364 4186717 4077272 3976005 
411.734 3886484 3812462 3757033 3721642 3705327 3704268 3712148 3720936 
415.591 3722107 3707915 3672640 3613496 3531299 3430498 3318736 3205586 
419.448 3100812 3012574 2945680 2900771 2874403 2860406 2851897 2843537 
423.305 2832915 2820904 2810456 2804867 2805928 2812811 2822121 2828955 
427.162 2828461 2817234 2794135 2760285 2718386 2671949 2624565 2579682 
431.019 2540527 2510024 2490604 2483602 2489129 2505482 2529498 2557090 
434.876 2584109 2607050 2623441 2631910 2631895 2623448 2607081 2583798 
438.733 2555187 2523324 2490585 2459207 2430934 2406797 2387189 2372204 
442.590 2361965 2356791 2357005 2362511 2372253 2384069 2394866 2401301 
446.447 2400748 2392074 2376030 2355164 2333173 2314081 2301424 2297631 
450.304 2303701 2319122 2341990 2369265 2397143 2421638 2439225 2447448 
454.161 2445287 2433195 2412729 2386040 2355452 2323214 2291646 2263271 
458.017 2240897 2227294 2224409 2232469 2249247 2270044 2288494 2298207 
461.874 2294600 2276352 2245835 2208134 2170226 2138190 2115911 2104301 
465.731 2101612 2104470 2109148 2112621 2112910 2108931 2100006 2085499 
469.588 2064774 2037674 2005061 1969308 1934154 1904046 1882913 1872923 
473.445 1873592 1881721 1892108 1899082 1898126 1887198 1867270 1841857 
477.302 1815833 1793774 1778505 1770372 1767367 1766113 1763236 1756643 
481.159 1746173 1733567 1721647 1713191 1709908 1712004 1718196 1726393 
485.016 1734425 1740721 1744487 1745652 1744527 1741497 1736952 1731335 
488.873 1725310 1719801 1715772 1713994 1714639 1717141 1720375 1723061 
492.730 1724215 1723497 1721166 1717656 1713601 1709059 1703666 1696963 
496.587 1688870 1680005 1671635 1665354 1662335 1662845 1665997 1670026 
500.444 1672917 1673152 1670213 1664698 1658002 1651739 1647179 1645006 
504.301 1645304 1647844 1652339 1658582 1666372 1675348 1684818 1693786 
508.158 1701190 1706199 1708510 1708426 1706647 1703943 1700835 1697377 
512.015 1693181 1687696 1680407 1671136 1660061 1647681 1634667 1621770 
515.871 1609692 1599083 1590425 1583888 1579117 1575133 1570364 1562899 
519.728 1551023 1533819 1511609 1486146 1460421 1438051 1422478 1416181 
523.585 1420077 1433254 1453131 1475876 1497562 1514585 1524531 1526588 
527.442 1521547 1511427 1498780 1485914 1474266 1464122 1454808 1445171 
531.299 1434248 1421763 1408249 1394862 1382883 1373245 1366275 1361799 
535.156 1359445 1359080 1360942 1365538 1373221 1383671 1395653 1407084 
539.013 1415571 1419158 1416965 1409500 1398418 1385925 1374031 1363991 
542.870 1356132 1350097 1345333 1341572 1339042 1338361 1340169 1344720 
546.727 1351616 1359892 1368314 1375874 1382102 1387237 1391954 1397037 
550.584 1402809 1408940 1414358 1417669 1417584 1413517 1405916 1396218 
554.441 1386512 1378930 1374980 1375021 1378472 1383855 1389525 1394357 
558.298 1398221 1402014 1407359 1415943 1428740 1445632 1465213 1485245 
562.155 1503150 1516754 1524783 1527047 1524369 1518319 1510861 1503981 
566.012 1499396 1498317 1501159 1507447 1515750 1524006 1529910 1531626 
569.869 1528307 1520371 1509454 1497864 1487909 1481327 1478915 1480642 
573.725 1485973 1494305 1505173 1518286 1533212 1549169 1564926 1578988 
577.582 1590056 1597520 1601700 1603783 1605317 1607685 1611626 1617102 
581.439 1623514 1630167 1636664 1643160 1650211 1658492 1668421 1680018 
585.296 1692895 1706509 1720333 1733919 1746843 1758426 1767704 1773501 
589.153 1774855 1771408 1763865 1753988 1744276 1737334 1735217 1738897 
593.010 1748163 1761821 1778097 1795124 1811225 1825098 1835911 1843342 
596.867 1847637 1849633 1850607 1851937 1854597 1858718 1863375 1866879 
600.724 1867418 1863940 1856888 1848319 1841528 1839967 1846139 1860713 
604.581 1882283 1907922 1934190 1958317 1978988 1996589 2012732 2029478 
608.438 2048450 2070246 2094347 2119408 2143777 2166087 2185591 2202359 
612.295 2217142 2231095 2245474 2261312 2279168 2299035 2320348 2342208 
616.152 2363734 2384337 2403999 2423208 2442788 2463437 2485360 2508092 
620.009 2530568 2551544 2570095 2586031 2599970 2613166 2627008 2642496 
623.866 2659919 2678820 2698317 2717500 2735871 2753464 2770801 2788529 
627.723 2807202 2826987 2847698 2868984 2890493 2912091 2933802 2955694 
631.579 2977698 2999405 3020093 3038861 3054866 3067603 3077107 3083984 
635.436 3089334 3094497 3100746 3109091 3120029 3133557 3149208 3166296 
639.293 3184076 3201985 3219731 3237275 3254720 3272153 3289554 3306765 
643.150 3323577 3339839 3355538 3370819 3385864 3400803 3415567 3429960 
647.007 3443816 3457181 3470495 3484607 3500493 3519003 3540453 3564481 
650.864 3590114 3616118 3641373 3665261 3687750 3709243 3730235 3750957 
654.721 3771158 3790159 3807179 3821741 3834003 3844934 3856132 3869506 
658.578 3886808 3909259 3937234 3970220 4006884 4045256 4083059 4118039 
662.435 4148346 4172846 4191304 4204417 4213628 4220791 4227781 4236152 
666.292 4246973 4260783 4277705 4297564 4319955 4344239 4369563 4394840 
670.149 4418932 4440925 4460376 4477514 4493142 4508367 4524178 4541054 
674.006 4558849 4576919 4594562 4611499 4628135 4645596 4665299 4688378 
677.863 4715115 4744671 4775142 4804199 4829552 4849744 4864515 4874776 
681.720 4882278 4889151 4897321 4908181 4922375 4939827 4959918 4981696 
685.577 5004163 5026414 5047852 5068213 5087538 5106085 5124186 5142144 
689.433 5160132 5178248 5196600 5215416 5235081 5256152 5279198 5304653 
693.290 5332736 5363384 5396306 5431142 5467485 5504942 5543029 5581069 
697.147 5618107 5652944 5684327 5711151 5732684 5748695 5759380 5765240 
701.004 5766821 5764606 5758953 5750125 5738441 5724307 5708200 5690548 
704.861 5671630 5651534 5630219 5607693 5584199 5560289 5536803 5514588 
708.718 5494276 5475979 5459228 5443092 5426357 5407855 5386612 5361924 
712.575 5333302 5300382 5262966 5221067 5175103 5125968 5074988 5023576 
716.432 4972773 4922717 4872345 4819450 4761094 4694385 4617282 4529240 
720.289 4431517 4326918 4219280 4112690 4010770 3916205 3830553 3754335 
724.146 3687368 3629075 3578833 3536114 3500612 3472216 3450992 3437127 
728.003 3430928 3432797 3443236 3462860 3492348 3532419 3583757 3646873 
731.860 3722041 3809088 3907321 4015494 4131801 4254043 4379781 4506588 
735.717 4632236 4754822 4872863 4985338 5091631 5191612 5285525 5374012 
739.574 5458025 5538682 5617114 5694248 5770728 5846819 5922488 5997527 
743.431 6071790 6145376 6218700 6292557 6367989 6446134 6527969 6614087 
747.287 6704618 6799070 6896430 6995395 7094536 7192661 7289006 7383311 
751.144 7475708 7566442 7655485 7742151 7824944 7901568 7969191 8024873 
755.001 8066009 8090556 8097184 8085204 8054349 8004680 7936496 7850416 
758.858 7747514 7629327 7497828 7355290 7204003 7046061 6883332 6717503 
762.715 6550257 6383448 6219172 6059640 5906893 5762477 5627127 5500666 
766.572 5382096 5269861 5162180 5057376 4954063 4851330 4748664 4646003 
770.429 4543686 4442407 4343113 4246788 4154361 4066338 3982686 3902847 
774.286 3825885 3750775 3676674 3603156 3530216 3458166 3387400 3318184 
778.143 3250544 3184275 3119031 3054515 2990559 2927187 2864637 2803253 
782.000 2743476 2685749 2630459 2577868 2527980 2480457 2434567 2389262 
785.857 2343387 2295923 2246275 2194429 2140919 2086696 2032877 1980460 
789.714 1930244 1882785 1838523 1797867 1761202 1728883 1701047 1677474 
793.571 1657558 1640368 1624852 1610056 1595256 1580099 1564496 1548611 
797.428 1532705 1517176 1502544 1489465 1478599 1470496 1465296 1462534 
801.285 1461127 1459535 1456194 1449898 1440444 1428612 1416044 1404820 
805.141 1396867 1393418 1394688 1399928 1407614 1416007 1423496 1428964 
808.998 1431904 1432291 1430474 1426926 1422174 1416691 1410972 1405484 
812.855 1400666 1396884 1394320 1392932 1392473 1392561 1392825 1393027 
816.712 1393172 1393444 1394160 1395610 1397948 1401131 1404947 1409135 
820.569 1413454 1417797 1422174 1426685 1431411 1436357 1441465 1446621 
824.426 1451760 1456879 1462091 1467552 1473409 1479724 1486460 1493556 
828.283 1500927 1508555 1516479 1524728 1533317 1542201 1551332 1560820 
832.140 1571083 1582875 1597259 1615352 1638075 1665739 1697929 1733525 
835.997 1771023 1808952 1846293 1882813 1919062 1956212 1995781 2039171 
839.854 2087465 2141174 2200291 2264297 2332296 2403138 2475476 2547920 
843.711 2619112 2687807 2752998 2813911 2870004 2920862 2966128 3005430 
847.568 3038521 3065340 3086292 3102431 3115646 3128651 3144832 3167934 
851.425 3201649 3249178 3312885 3394134 3493280 3609948 3743312 3892498 
855.282 4056772 4235595 4428382 4634225 4851497 5077727 5309665 5543678 
859.139 5776179 6004100 6225098 6437598 6640561 6833174 7014735 7184534 
862.995 7342069 7487105 7619755 7740292 7848835 7945032 8027957 8096172 
866.852 8148248 8183211 8201036 8202743 8190012 8164680 8127993 8080133 
870.709 8020132 7946180 7856296 7749001 7623831 7481429 7323383 7151751 
874.566 6968641 6775865 6574867 6366867 6153118 5935115 5714768 5494336 
878.423 5276295 5063053 4856748 4659077 4471221 4293965 4127887 3973624 
882.280 3832071 3704488 3592300 3496873 3418970 3358467 3314172 3283964 
886.137 3265307 3255766 3253617 3258029 3268909 3286479 3310671 3340651 
889.994 3374762 3410755 3446327 3479680 3509873 3536807 3560925 3582735 
893.851 3602482 3619945 3634679 3646293 3654833 3660870 3665425 3669601 
897.708 3674282 3679847 3686220 3693149 3700489 3708575 3718338 3731218 
901.565 3748919 3773113 3805213 3846211 3896621 3956444 4025112 4101375 
905.422 4183296 4268316 4353477 4435803 4512696 4582264 4643410 4695675 
909.279 4738908 4772882 4797065 4810637 4812713 4802777 4780989 4748372 
913.136 4706672 4658026 4604504 4547773 4488864 4428321 4366378 4303280 
916.993 4239535 4175944 4113485 4053113 3995538 3941062 3889547 3840552 
920.849 3793466 3747714 3702930 3659030 3616231 3575021 3536045 3499965 
924.706 3467312 3438384 3413145 3391255 3372244 3355584 3340903 3328071 
928.563 3317191 3308427 3301831 3297203 3293972 3291304 3288288 3284172 
932.420 3278575 3271472 3263270 3254617 3246319 3239257 3234440 3232955 
936.277 3235968 3244488 3259081 3279625 3305097 3333708 3363229 3391553 
940.134 3417267 3439990 3460405 3479961 3500389 3523142 3549165 3578760 
943.991 3611945 3648665 3689146 3733930 3783743 3839181 3900499 3967473 
947.848 4039504 4115848 4195942 4279529 4366806 4458224 4554368 4655694 
951.705 4762403 4874378 4991085 5111610 5234601 5358346 5480828 5599972 
955.562 5713957 5821522 5922208 6016532 6105737 6191708 6276507 6362147 
959.419 6450293 6542123 6638331 6738996 6843623 6951003 7059249 7165749 
963.276 7267268 7360099 7440328 7504081 7547883 7568935 7565412 7536716 
967.133 7483437 7407306 7310855 7196952 7068354 6927398 6775901 6615337 
970.990 6447174 6273271 6096106 5918709 5744443 5576502 5417529 5269260 
974.847 5132485 5007193 4892767 4788324 4692860 4605458 4525392 4452175 
978.703 4385714 4326329 4274643 4231396 4197155 4171937 4155109 4145353 
982.560 4141096 4140762 4143386 4148704 4157208 4169815 4187550 4211119 
986.417 4240793 4276386 4317368 4363122 4412816 4465629 4520618 4576783 
990.274 4633173 4689030 4743960 4797973 4851261 4903950 4955784 5005889 
994.131 5052922 5095311 5131780 5161757 5185586 5204460 5220191 5234756 
997.988 5250005 5267455 5288268 5313320 5343280 5378625 5419616 5466257 
1001.845 5518393 5575847 5638636 5707123 5782064 5864443 5955166 6054828 
1005.702 6163550 6281017 6406765 6540493 6682310 6832826 6993039 7164074 
1009.559 7346939 7542352 7750768 7972470 8207696 8456756 8719944 8997490 
1013.416 9289490 9595808 9916231 10250464 10598267 10959424 11333565 
1016.791 11720055 12117863 12525523 12941323 13363492 13790232 14219853 
1020.166 14650638 15080602 15507497 15928841 16342294 16746137 17139674 
1023.540 17523450 17899098 18268896 18635218 19000148 19365374 19732418 
1026.916 20103120 20480132 20867150 21268790 21690128 22136032 22610438 
1030.291 23115918 23653566 24223136 24823392 25452540 26108476 26788914 
1033.666 27491354 28212982 28950540 29700098 30457028 31215936 31970644 
1037.041 32714344 33439826 34139776 34807132 35435444 36018972 36552764 
1040.417 37032528 37454556 37815700 38113420 38345992 38512716 38614000 
1043.792 38651364 38627312 38545180 38408948 38223232 37993100 37723956 
1047.167 37421484 37091352 36739124 36370252 35990100 35604080 35217644 
1050.542 34836144 34464364 34106128 33763800 33438062 33128100 32832068 
1053.917 32547822 32273644 32008758 31753584 31509700 31279666 31066814 
1057.293 30875144 30709338 30574900 30478110 30426038 30426288 30486616 
1060.668 30614542 30816934 31099624 31467226 31922930 32468492 33104194 
1064.043 33828940 34640448 35535368 36509700 37558924 38678288 39862852 
1067.418 41107400 42406388 43753872 45143532 46569016 48024440 49504880 
1070.794 51006772 52527928 54067284 55624132 57197408 58784996 60383428 
1074.169 61987756 63592024 65189584 66773552 68337008 69873024 71374424 
1077.544 72833384 74241224 75588200 76863512 78055776 79153600 80146416 
1080.919 81025008 81781744 82410272 82904824 83259848 83469704 83529800 
1084.295 83437760 83195256 82809128 82291184 81657000 80923560 80107136 
1087.670 79221552 78277768 77284352 76248552 75177304 74077896 72957840 
1091.045 71824512 70684424 69542840 68403672 67269488 66141824 65021444 
1094.420 63908572 62803244 61705548 60615892 59535144 58464492 57405172 
1097.796 56358044 55323148 54299736 53286356 52281468 51283908 50293376 
1101.171 49310340 48335980 47371700 46418916 45478916 44553164 43643584 
1104.546 42752816 41884212 41041572 40228696 39448876 38704736 37998308 
1107.921 37331240 36705188 36122112 35584252 35093952 34653340 34263960 
1111.297 33926532 33640940 33406160 33220410 33081332 32986028 32931238 
1114.672 32913506 32929478 32976040 33050760 33151960 33278850 33431574 
1118.047 33610948 33818360 34055544 34324320 34626284 34962544 35333236 
1121.422 35737108 36171128 36630144 37106924 37592200 38075216 38544352 
1124.798 38987876 39394768 39755228 40061228 40306612 40487044 40599768 
1128.173 40643276 40617016 40521316 40357344 40127216 39833936 39481288 
1131.548 39073448 38614340 38107108 37553736 36954980 36310884 35621400 
1134.923 34887112 34109704 33292126 32438254 31552426 30639014 29702198 
1138.299 28746060 27774888 26793546 25807616 24823468 23847948 22888016 
1141.674 21950340 21041002 20165380 19327984 18532376 17781210 17076138 
1145.049 16417913 15806498 15241244 14721134 14244966 13811427 13419056 
1148.424 13066182 12750784 12470487 12222668 12004597 11813635 11647466 
1151.800 11504186 11382314 11280697 11198550 11135268 11090508 11064096 
1155.175 11056012 11066237 11094698 11141166 11205190 11286268 11383962 
1158.550 11498105 11628916 11777065 11943558 12129638 12336621 12566003 
1161.925 12819424 13098931 13407090 13747063 14122535 14537592 14996503 
1165.301 15503670 16063690 16681448 17362436 18112852 18939592 19850152 
1168.676 20852208 21953348 23160674 24480600 25918696 27479610 29166848 
1172.051 30982450 32926464 34996240 37185888 39485480 41880392 44350832 
1175.426 46871348 49410488 51930780 54389172 56738252 58928324 60910392 
1178.802 62639504 64078296 65199780 65989356 66445576 66579496 66413212 
1182.177 65977364 65308140 64444208 63423872 62282884 61053128 59762172 
1185.552 58433472 57086952 55739672 54406436 53099864 51830484 50606388 
1188.927 49433248 48314316 47250664 46241848 45286576 44383384 43531252 
1192.302 42729708 41978732 41278356 40628156 40026864 39472188 38961036 
1195.678 38490056 38056132 37656848 37290688 36956788 36654560 36383172 
1199.053 36141164 35926364 35736208 35567980 35419384 35288548 35174096 
1202.428 35074796 34989120 34914924 34849416 34789320 34731172 34671612 
1205.803 34607604 34536460 34455680 34362856 34255528 34131312 33987992 
1209.179 33823864 33637764 33429030 33197400 32942754 32664936 32363638 
1212.554 32038484 31689238 31315968 30919350 30500748 30062380 29607142 
1215.929 29138530 28660304 28176146 27689296 27202236 26716586 26233194 
1219.304 25752438 25274592 24800212 24330260 23866124 23409400 22961524 
1222.680 22523516 22095866 21678444 21270776 20872268 20482398 20100948 
1226.055 19728020 19364106 19009956 18666526 18334822 18015746 17709980 
1229.430 17417804 17139116 16873484 16620262 16378844 16148761 15929775 
1232.805 15721741 15524471 15337493 15159985 14990851 14828900 14673215 
1236.181 14523298 14379233 14241493 14110690 13987193 13870902 13761182 
1239.556 13657099 13557674 13462275 13370754 13283430 13200808 13123365 
1242.931 13051127 12983692 12920314 12860133 12802544 12747443 12695226 
1246.306 12646669 12602751 12564361 12532112 12506348 12487223 12474746 
1249.682 12468909 12469655 12476842 12490168 12509090 12533006 12561266 
1253.057 12593512 12629646 12669943 12714863 12764849 12820111 12880494 
1256.432 12945481 13014349 13086407 13161153 13238434 13318229 13400638 
1259.807 13485475 13572173 13659681 13746613 13831437 13912722 13989347 
1263.183 14060593 14125989 14185247 14237987 14283720 14321719 14351180 
1266.558 14371276 14381212 14380287 14367840 14343263 14305888 14255084 
1269.933 14190258 14110929 14016795 13907805 13784137 13646156 13494453 
1273.308 13329788 13153079 12965313 12767470 12560400 12344757 12120941 
1276.684 11889279 11650086 11403966 11151858 10895116 10635322 10374165 
1280.059 10113163 9853557 9596267 9342060 9091631 8845847 8605783 8372751 
1283.916 8148239 7933823 7731158 7541901 7367699 7210150 7070621 6950157 
1287.774 6849269 6767863 6705311 6660636 6632722 6620583 6623432 6640631 
1291.631 6671437 6714750 6768945 6831791 6900681 6972943 7046209 7118638 
1295.489 7189052 7256753 7321291 7382267 7439176 7491443 7538573 7580296 
1299.346 7616694 7648157 7675262 7698562 7718406 7734924 7748040 7757626 
1303.203 7763667 7766342 7766057 7763370 7758830 7752947 7746090 7738514 
1307.061 7730401 7721921 7713195 7704349 7695357 7686107 7676348 7665773 
1310.918 7654088 7641150 7627036 7612051 7596723 7581702 7567589 7554839 
1314.776 7543649 7533943 7525393 7517541 7509916 7502201 7494274 7486295 
1318.633 7478572 7471606 7465879 7461835 7459777 7459853 7462031 7466156 
1322.490 7471863 7478736 7486287 7494046 7501764 7509466 7517539 7526691 
1326.348 7537828 7551974 7570033 7592778 7620822 7654683 7694828 7741704 
1330.205 7795591 7856466 7923902 7996972 8074427 8154958 8237576 8321830 
1334.063 8407948 8496623 8588684 8684731 8784852 8888597 8995219 9104026 
1337.920 9214745 9327752 9444058 9564959 9691779 9825464 9966417 10114560 
1341.778 10269461 10430650 10597743 10770557 10949143 11133622 11324158 
1345.153 11520865 11723808 11932960 12148234 12369397 12596001 12827325 
1348.528 13062398 13300024 13538885 13777678 14015193 14250319 14481978 
1351.903 14709009 14930111 15143707 15347895 15540583 15719588 15882805 
1355.279 16028440 16155151 16262102 16349061 16416280 16464521 16494921 
1358.654 16509019 16508716 16496198 16473797 16443793 16408217 16368608 
1362.029 16325942 16280611 16232629 16181771 16127783 16070375 16009091 
1365.404 15943094 15870810 15789902 15697151 15588953 15461709 15312576 
1368.780 15140134 14944878 14729536 14499141 14260930 14024046 13799073 
1372.155 13597640 13431719 13312945 13251713 13256343 13332185 13480993 
1375.530 13700533 13984640 14323595 14704719 15113322 15533571 15949562 
1378.905 16346228 16710177 17030166 17297270 17504742 17647698 17722762 
1382.281 17727806 17661996 17525894 17321590 17052882 16725151 16345166 
1385.656 15920712 15460128 14971767 14463511 13942309 13413888 12882662 
1389.031 12351795 11823414 11298897 10779331 10265725 9759378 9262119 
1392.406 8776361 8305105 7851743 7419681 7011928 6630676 6277100 5951319 
1396.264 5652574 5379635 5131112 4905689 4702163 4519367 4356004 4210605 
1400.121 4081427 3966645 3864492 3773298 3691618 3618101 3551517 3490704 
1403.979 3434605 3382383 3333499 3287776 3245265 3206105 3170390 3138039 
1407.836 3108760 3082244 3058239 3036764 3018073 3002653 2991015 2983515 
1411.693 2980203 2980794 2984740 2991328 2999889 3009857 3020837 3032579 
1415.551 3044897 3057615 3070545 3083460 3096183 3108601 3120701 3132644 
1419.408 3144694 3157264 3170830 3185944 3203247 3223410 3247183 3275289 
1423.266 3308395 3347012 3391479 3441984 3498603 3561483 3630860 3707151 
1427.123 3790909 3882693 3982874 4091500 4208238 4332358 4462867 4598754 
1430.980 4739102 4883301 5031181 5183057 5339848 5503013 5674615 5857181 
1434.838 6053600 6266941 6500372 6756942 7039661 7351519 7695430 8074328 
1438.695 8490890 8947216 9444466 9982419 10559334 11171879 11815359 12483943 
1442.553 13170946 13868989 14570159 15266150 15948619 16609472 17241288 
1445.928 17837592 18392954 18903012 19364404 19774892 20133414 20440184 
1449.303 20696578 20904692 21066882 21185156 21260850 21294648 21286976 
1452.678 21238214 21149132 21020680 20853708 20648540 20404782 20121386 
1456.054 19797312 19432106 19026584 18583038 18105110 17597238 17064120 
1459.429 16510311 15939973 15356863 14764430 14165951 13564524 12963280 
1462.804 12365514 11774755 11194864 10629872 10083664 9559522 9059703 
1466.179 8585270 8136137 7711490 7310205 6931463 6574938 6240859 5929799 
1470.037 5642204 5377963 5136039 4914304 4709777 4519045 4338880 4166872 
1473.894 4001869 3844035 3694542 3555023 3426908 3310917 3206873 3113860 
1477.752 3030618 2955982 2889231 2830040 2778290 2733722 2695576 2662600 
1481.609 2633195 2605803 2579245 2552976 2526983 2501602 2477144 2453703 
1485.467 2431088 2408885 2386813 2364786 2343099 2322316 2303064 2285869 
1489.324 2270973 2258207 2247159 2237163 2227412 2217166 2205722 2192589 
1493.181 2177593 2160862 2142952 2124678 2106933 2090467 2075704 2062592 
1497.039 2050739 2039541 2028384 2016852 2004767 1992113 1979062 1965771 
1500.896 1952459 1939432 1927133 1916099 1906874 1899799 1894868 1891659 
1504.754 1889406 1887152 1884085 1879778 1874231 1867785 1860977 1854236 
1508.611 1847780 1841607 1835673 1829951 1824648 1820047 1816442 1813957 
1512.469 1812310 1810935 1809017 1805773 1800783 1794042 1785982 1777422 
1516.326 1769269 1762300 1756990 1753473 1751463 1750505 1749996 1749269 
1520.183 1747781 1745050 1740796 1734981 1727765 1719567 1710965 1702608 
1524.041 1695070 1688760 1683811 1680061 1677112 1674421 1671505 1668062 
1527.898 1664041 1659711 1655524 1651932 1649283 1647620 1646683 1645948 
1531.756 1644849 1642848 1639664 1635369 1630228 1624703 1619243 1614181 
1535.613 1609715 1605867 1602548 1599624 1596901 1594166 1591173 1587688 
1539.470 1583521 1578578 1572943 1566823 1560528 1554380 1548663 1543524 
1543.328 1539119 1535460 1532605 1530528 1529109 1528120 1527113 1525566 
1547.185 1523057 1519346 1514589 1509246 1504005 1499454 1495908 1493269 
1551.043 1491085 1488784 1485909 1482390 1478532 1474866 1471930 1469907 
1554.900 1468652 1467638 1466307 1464348 1461845 1459366 1457608 1457199 
1558.758 1458299 1460561 1463220 1465447 1466624 1466643 1465806 1464672 
1562.615 1463748 1463269 1463085 1462826 1462102 1460730 1458917 1457177 
1566.472 1456146 1456297 1457796 1460383 1463460 1466263 1468084 1468429 
1570.330 1467083 1464141 1459952 1455048 1450115 1445854 1442959 1441948 
1574.187 1443018 1445975 1450203 1454785 1458751 1461310 1462066 1461157 
1578.045 1459104 1456676 1454662 1453642 1453904 1455364 1457718 1460453 
1581.902 1463034 1464953 1465833 1465455 1463853 1461216 1457954 1454514 
1585.760 1451420 1449059 1447712 1447534 1448677 1451251 1455417 1461296 
1589.617 1468959 1478150 1488387 1498869 1508652 1516813 1522720 1526149 
1593.474 1527296 1526727 1525191 1523437 1522109 1521715 1522586 1525041 
1597.332 1529321 1535580 1543888 1554072 1565801 1578478 1591424 1603903 
1601.189 1615321 1625182 1633242 1639403 1643834 1646890 1649116 1651169 
1605.047 1653756 1657451 1662575 1669060 1676547 1684328 1691666 1697846 
1608.904 1702468 1705394 1706834 1707224 1707194 1707470 1708845 1712088 
1612.761 1717846 1726506 1738049 1751925 1767123 1782245 1795929 1807052 
1616.619 1815116 1820341 1823491 1825669 1827914 1830842 1834670 1839133 
1620.476 1843754 1848068 1851783 1854894 1857559 1860022 1862491 1865066 
1624.334 1867780 1870623 1873711 1877187 1881203 1885923 1891311 1897228 
1628.191 1903420 1909688 1915977 1922419 1929415 1937453 1947063 1958686 
1632.049 1972536 1988609 2006733 2026452 2047219 2068366 2089119 2108733 
1635.906 2126571 2142189 2155391 2166199 2174759 2181158 2185350 2187034 
1639.763 2185722 2180890 2172205 2159670 2143800 2125486 2105893 2086182 
1643.621 2067261 2049679 2033549 2018680 2004803 1991756 1979652 1968911 
1647.478 1960158 1954003 1950853 1950688 1953095 1957272 1962295 1967321 
1651.336 1971799 1975587 1978904 1982262 1986123 1990747 1996056 2001603 
1655.193 2006845 2011260 2014611 2017105 2019307 2021962 2025878 2031571 
1659.051 2039190 2048500 2059027 2070127 2081320 2092225 2102662 2112602 
1662.908 2122094 2131126 2139824 2148312 2156856 2165803 2175445 2185998 
1666.765 2197360 2209192 2220940 2232007 2242021 2250918 2259038 2266970 
1670.623 2275437 2284984 2295932 2308306 2322010 2336852 2352655 2369347 
1674.480 2386820 2404885 2423252 2441438 2459053 2475704 2491258 2505752 
1678.338 2519405 2532435 2545129 2557767 2570755 2584675 2600330 2618568 
1682.195 2640118 2665336 2693961 2725217 2757814 2790477 2822180 2852456 
1686.052 2881401 2909536 2937540 2965983 2995232 3025489 3056806 3089239 
1689.910 3122867 3157691 3193610 3230367 3267661 3305345 3343603 3383076 
1693.767 3424854 3470027 3519463 3573368 3631184 3691771 3753917 3816725 
1697.625 3880099 3944825 4012270 4083898 4160883 4243638 4331847 4424714 
1701.482 4521385 4621468 4725215 4833584 4948074 5070197 5201320 5342271 
1705.340 5493268 5654009 5823831 6001886 6187460 6380100 6579743 6786769 
1709.197 7001990 7226539 7461779 7708989 7969335 8243575 8532068 8834618 
1713.054 9150659 9479192 9819198 10169695 10530043 10900171 11280540 
1716.430 11672134 12076154 12493611 12925160 13370757 13830003 14302383 
1719.805 14787611 15286021 15798642 16326892 16872280 17436204 18019722 
1723.180 18623810 19249774 19899500 20575660 21281488 22020168 22794492 
1726.555 23606304 24456640 25346034 26275154 27245160 28258026 29316336 
1729.931 30423004 31581146 32794016 34065324 35399448 36801448 38276628 
1733.306 39829884 41464932 43184152 44989176 46882124 48867036 50950772 
1736.681 53142644 55452968 57890588 60460508 63162088 65988864 68929440 
1740.056 71969264 75091824 78279248 81511080 84763040 88005712 91204856 
1743.432 94322920 97321600 100164112 102816808 105249272 107434704 109350096 
1746.807 110977936 112307640 113336888 114070400 114517928 114690408 
1749.700 114598096 114249552 113653360 112820184 111764696 110504856 
1752.593 109060208 107448736 105684744 103778360 101736976 99567744 97280224 
1755.968 94887648 92407208 89858672 87262776 84639552 82007440 79382848 
1759.344 76780120 74211928 71689480 69222568 66820084 64489996 62239324 
1762.719 60073864 57997756 56012904 54118924 52313184 50591744 48950184 
1766.094 47384776 45892768 44472564 43122692 41841184 40624492 39467444 
1769.469 38363356 37305136 36286004 35300508 34344704 33415946 32512302 
1772.844 31631914 30772402 29930828 29103782 28287912 27480156 26678228 
1776.220 25880626 25086450 24295108 23506138 22718866 21932578 21146526 
1779.595 20360578 19575376 18792862 18016226 17249574 16497506 15764503 
1782.970 15054120 14368924 13710243 13078651 12474197 11896874 11346815 
1786.345 10824367 10329737 9862880 9423248 9009868 8621448 8256785 7914985 
1790.203 7595685 7298854 7024590 6772671 6542344 6332142 6140205 5964444 
1794.060 5802944 5654067 5516391 5388564 5268916 5155527 5046392 4939791 
1797.918 4834687 4731071 4629942 4532917 4441820 4357953 4281846 4213163 
1801.775 4150975 4093989 4041027 3991205 3943915 3898783 3855470 3813565 
1805.633 3772582 3731858 3690756 3648551 3604572 3558269 3509438 3458339 
1809.490 3405862 3353418 3302778 3255526 3212580 3173891 3138339 3104120 
1813.347 3069256 3032340 2993024 2952084 2911319 2872931 2838976 2810851 
1817.205 2789058 2773172 2762235 2754924 2749988 2746247 2742648 2738210 
1821.062 2731896 2722817 2710112 2693109 2671409 2644900 2613914 2579163 
1824.920 2541900 2503693 2466370 2431460 2399991 2371898 2346165 2320858 
1828.777 2293874 2263392 2228866 2190971 2151797 2113880 2079693 2050573 
1832.635 2026493 2006002 1986907 1967078 1945249 1921504 1897223 1874439 
1836.492 1855123 1840187 1829133 1819981 1810015 1796499 1777793 1753735 
1840.349 1725915 1697037 1670136 1647646 1630738 1618996 1610889 1604086 
1844.207 1596458 1586427 1573479 1557858 1540555 1522641 1505208 1488899 
1848.064 1474131 1460842 1448797 1437495 1426482 1415284 1403819 1392313 
1851.922 1381432 1371978 1364704 1359775 1356812 1354666 1352006 1347600 
1855.779 1340885 1331967 1321687 1311047 1300784 1291062 1281560 1271686 
1859.636 1261169 1250348 1240192 1231910 1226575 1224355 1224597 1225892 
1863.494 1226792 1226175 1223940 1220593 1217081 1214201 1212205 1210691 
1867.351 1209164 1207271 1205434 1204545 1205730 1209392 1214805 1219805 
1871.209 1221416 1216619 1203881 1183596 1158508 1132874 1111345 1097364 
1875.066 1092175 1094206 1099836 1104329 1103673 1095540 1080542 1061630 
1878.924 1043564 1031137 1027869 1034600 1049471 1068084 1085004 1095218 
1882.781 1095897 1086762 1070527 1051765 1035773 1026708 1026889 1036030 
1886.638 1051800 1070406 1087979 1101190 1108213 1108566 1103258 1094052 
1890.496 1083299 1073165 1065343 1060579 1058798 1058782 1058899 1057256 
1894.353 1052617 1044568 1033914 1022169 1011336 1003030 998118 996361 
1898.211 996824 997841 997884 995507 989821 980149 966421 948787 928229 
1902.550 906296 885510 868652 858532 856926 864293 879039 898180 917662 
1906.890 933566 942942 944593 939051 928447 915427 902749 891914 883175 
1911.229 875180 865793 852479 833719 809526 781948 754653 732121 718237 
1915.569 715217 722549 737208 754274 768717 776370 775602 766852 752444 
1919.909 735028 716664 697794 677737 655006 628906 600030 570925 545228 
1924.248 527122 519522 523522 537491 557944 579942 598825 611049 615269 
1928.588 612217 604716 596425 591132 591492 598502 611202 627263 643632 
1932.927 657578 667188 672076 672709 670350 666025 660573 654368 647929 
1937.267 641894 637531 636053 638599 644935 654013 663589 671888 677902 
1941.607 682532 688190 698166 714803 738369 766120 792970 812013 817258 
1945.946 804455 772758 724270 664047 598598 535493 482125 445715 432143 
1950.286 445806 487692 555203 640894 733876 820453 887679 925079 928056 
1954.625 897119 839174 763848 682247 603230 532613 471541 418658 370773 
1958.965 325668 283587 248123 224840 219957 237096 275830 330289 390624 
1963.305 444224 479515 487277 463366 408126 326607 226810 119562 16921 
1967.644 -67649 -121313 -132571 -95074 -8411 118329 268581 419203 546574 
1971.984 630573 660431 635551 566424 470518 369009 282222 227453 216305 
1976.323 254552 340752 467397 619671 779174 925379 1041279 1114235 1139627 
1980.663 1118581 1058154 968553 862205 751596 648801 563132 500757 462634 
1985.003 445709 442206 442896 438836 424922 400472 370533 342667 325320 
1989.342 323890 339667 369413 407468 447242 484333 516171 542748 563935 
1993.682 580056 590234 594596 594034 591947 592050 597569 607514 616472 
1998.021 614127 589245 533066 443749 327519 197902 70951 -38935 -123579 
2002.361 -181477 -216803 -234207 -236514 -221364 -184254 -120907 -32689 
2006.219 71831 177174 266358 326713 355293 359027 352362 350916 366361 
2010.558 402673 457623 523461 592642 658484 717985 769311 811726 843237 
2014.898 862449 868853 866295 861213 863625 881904 920879 977618 1042123 
2019.237 1098617 1130482 1123409 1069627 968415 826545 655308 469459 284634 
2023.577 116831 -19432 -110964 -149860 -133279 -67475 33678 148362 252033 
2027.917 320000 333507 282582 169413 6691 -183045 -373430 -536829 -651370 
2032.256 -701606 -683456 -602082 -472445 -314992 -152162 -2616 121019 215578 
2036.596 285619 342109 397698 463658 545831 643946 750202 852985 938811 
2040.935 998093 1026337 1027463 1010654 987886 968508 956134 947178 933311 
2045.275 905739 861639 807168 759196 738956 766027 848040 975860 1122925 
2049.615 1253564 1333460 1341540 1275568 1151977 999514 851354 734975 666328 
2053.954 646027 661765 693855 723781 740413 743321 740094 742082 757162 
2058.294 786374 822088 851667 861864 844672 800260 737648 671114 615942 
2062.633 583124 576945 594154 626772 664992 701363 732335 759432 787289 
2066.973 821774 867506 926185 995663 1070366 1142250 1202686 1243686 1260144 
2071.313 1250333 1216775 1165190 1104087 1042461 988858 949082 926291 920345 
2075.652 928973 948004 973030 999298 1022696 1039271 1046375 1042074 1026488 
2079.992 1001414 970705 939107 911867 892807 884026 884934 893023 904254 
2084.331 914676 921098 922211 918291 911319 903701 897875 894813 894021 
2088.671 892529 886018 869011 837041 787767 722985 648915 576169 517503 
2093.010 485714 489661 531810 606322 700058 794955 872648 919018 927855 
2097.350 901676 850871 789944 734043 694541 677625 683172 706697 741202 
2101.690 780097 818400 853987 886234 915663 941930 963820 978836 984624 
2106.029 979623 964505 941843 916008 891566 872557 860828 856623 858223 
2110.369 863374 869445 874764 878008 878604 876027 869837 859594 845084 
2114.708 826342 803975 778669 751366 722772 693573 664469 636301 609775 
2119.048 585731 564248 544513 524384 501127 471683 434013 387479 333633 
2123.388 275469 217308 163042 116213 78999 52473 36534 30339 31672 37455 
2128.209 42987 42552 30466 2300 -43605 -104847 -175077 -244580 -302509 
2132.549 -338629 -346253 -323053 -272615 -203097 -126594 -56442 -5930 14816 
2136.889 -863 -54123 -141315 -253586 -379218 -503961 -614840 -700811 -755882 
2141.228 -778982 -774893 -752893 -725828 -706423 -705715 -729334 -776687 
2145.086 -840013 -907069 -964172 -1001215 -1015036 -1011800 -1004706 
2148.461 -1010987 -1044973 -1114956 -1218981 -1347591 -1485677 -1618823 
2151.836 -1735844 -1831956 -1906651 -1963731 -2007540 -2043374 -2074692 
2155.211 -2105009 -2134422 -2158798 -2165349 -2133374 -2035516 -1848673 
2158.587 -1565822 -1208019 -823359 -476517 -225872 -107351 -122982 -245922 
2162.444 -430325 -627712 -799425 -926217 -1006883 -1054349 -1083971 -1107164 
2166.302 -1125383 -1133068 -1120861 -1082657 -1017895 -933005 -837942 
2169.677 -743811 -658554 -587814 -533119 -495347 -473469 -466391 -470771 
2173.534 -481745 -492594 -497333 -491859 -476593 -455414 -434586 -418779 
2177.392 -409433 -403158 -394005 -375485 -343350 -296705 -237825 -168576 
2181.249 -90431 -1908 97961 208156 321713 426554 506032 545308 534849 474609 
2186.071 372721 243954 103719 -34645 -163114 -277023 -373575 -448089 -494214 
2190.410 -504552 -474881 -407335 -312932 -209487 -118285 -57536 -37810 
2194.268 -58310 -108490 -171415 -229994 -271027 -289250 -286106 -268468 
2198.125 -243781 -217754 -191977 -165287 -134428 -97531 -54277 -7658 38813 
2202.465 81231 118117 149754 178131 204552 229264 249590 261472 261031 
2206.804 246880 220975 189450 160063 140623 135457 145451 167017 195152 
2211.144 224790 253635 281612 310815 342637 376670 409382 435655 450053 
2215.484 450084 436670 415005 391890 374044 365259 365833 372288 379832 
2219.823 383710 381615 373336 361227 348524 339075 335668 341078 357212 
2224.163 385607 426141 477134 533907 589795 636494 667074 677430 668768 
2228.502 647258 623387 608944 614183 644373 698787 770101 846907 915720 
2232.842 965153 988009 982996 953876 908771 856712 806048 762094 727414 
2237.182 701974 685011 675682 674230 681069 696348 718283 743584 767187 
2241.521 784309 791412 787814 775099 756918 736703 717457 700514 686691 
2245.861 676805 672911 677695 693872 721980 759806 801817 841038 870889 
2250.200 888462 895154 896716 900348 912109 933860 962477 990752 1010551 
2254.540 1015748 1004921 981719 953726 929360 915466 914801 926490 946072 
2258.880 967994 986679 998318 1000831 994181 979583 959441 936609 914491 
2263.219 896061 883930 879570 883701 895961 915773 942193 974349 1010908 
2267.559 1049720 1087660 1121168 1146585 1161794 1166584 1163497 1156368 
2271.416 1149859 1147339 1150363 1157974 1167846 1177143 1184118 1188450 
2275.274 1191411 1194960 1201099 1210799 1224354 1241263 1261469 1285115 
2279.131 1313259 1346867 1386583 1431582 1479804 1527816 1571754 1607974 
2282.989 1634194 1649646 1655449 1654013 1648574 1642085 1637004 1634245 
2286.846 1633512 1633278 1631781 1627184 1618894 1607317 1594195 1581747 
2290.703 1572249 1567120 1566547 1569454 1573959 1577647 1578512 1574898 
2294.561 1566138 1552155 1533758 1512205 1489203 1466676 1446469 1430143 
2298.418 1418439 1411266 1407884 1407020 1407431 1408290 1409467 1411410 
2302.276 1414962 1420737 1429077 1439458 1450882 1461645 1469949 1473908 
2306.133 1472277 1464620 1451780 1435896 1420279 1408645 1404416 1409373 
2309.990 1423375 1444048 1467694 1490275 1508982 1522667 1532290 1539894 
2313.848 1547642 1556756 1567192 1577858 1587696 1596384 1605030 1615662 
2317.705 1630693 1651814 1679643 1713680 1753310 1798262 1848977 1905756 
2321.563 1967586 2030382 2086659 2126231 2138521 2115460 2054150 1957942 
2325.420 1836003 1701197 1567510 1446982 1347871 1273612 1223196 1192567 
2329.278 1176377 1169499 1167905 1168874 1170569 1171694 1171240 1168504 
2333.135 1163436 1156544 1149000 1142111 1137050 1134209 1133488 1134239 
2336.992 1135875 1137887 1140143 1142705 1145652 1148867 1152052 1154862 
2340.850 1157108 1158774 1160119 1161284 1162285 1162673 1161915 1159342 
2344.707 1154654 1148031 1140030 1131280 1122315 1113173 1103455 1092523 
2348.565 1080046 1066063 1051408 1037268 1025075 1016009 1010639 1008792 
2352.422 1009809 1012583 1015988 1019032 1021037 1021569 1020627 1018290 
2356.280 1014927 1010860 1006374 1001476 995897 989062 980441 969457 956071 
2360.619 940589 923777 906471 889406 872897 856945 841170 825336 809458 
2364.959 794224 780668 770291 764397 763968 769134 779163 792447 806902 
2369.298 820232 830498 836557 838351 836715 833352 830091 828477 829216 
2373.638 831993 835738 839263 841702 843008 844084 846374 851231 859450 
2377.978 870779 884220 898312 911927 924371 935842 946620 956853 965959 
2382.317 972664 975244 972572 964549 952633 939574 928791 923261 924803 
2386.657 933360 947380 964074 980490 994078 1003302 1007565 1007297 1003485 
2390.996 997425 990402 983633 977958 973826 971277 969967 969402 969253 
2395.336 969320 970052 971898 975452 980915 988010 996022 1004198 1011904 
2399.676 1018924 1025320 1031221 1036241 1039503 1039463 1034727 1024482 
2403.533 1009336 991308 973887 960764 955206 958873 971731 992010 1017149 
2407.873 1044416 1071821 1098051 1122337 1143821 1161143 1172255 1174791 
2411.730 1166639 1146985 1116621 1078378 1036434 995750 960757 934836 919423 
2416.070 914406 918167 928651 943609 961453 981128 1002124 1023983 1046292 
2420.409 1068047 1088130 1104982 1117220 1123574 1123190 1115493 1100555 
2424.267 1078805 1051622 1021157 990454 963114 942642 931405 930284 937846 
2428.606 951177 966155 979102 987594 991301 991595 991085 992176 996318 
2432.946 1003270 1011551 1018974 1023850 1025258 1023498 1019537 1014376 
2436.803 1008414 1001521 993183 983390 972934 963919 958881 960302 969142 
2441.143 984720 1004546 1025109 1042996 1056143 1064079 1068182 1070454 
2445.000 1072932 1076500 1080912 1084654 1086064 1083812 1077889 1069087 
2448.858 1059308 1050263 1043371 1039002 1036763 1035515 1034349 1032682 
2452.715 1030703 1029149 1029187 1031631 1037056 1044940 1054290 1063439 
2456.573 1070866 1075237 1076147 1073693 1068942 1062947 1056818 1051141 
2460.430 1045938 1040569 1034399 1026703 1017647 1007854 998997 992881 
2464.287 991436 995784 1006136 1021227 1038834 1055634 1068290 1073702 
2468.145 1069979 1056443 1034452 1006495 976419 948354 926241 912852 909602 
2472.484 916132 930658 950102 971128 990478 1005908 1016237 1021769 1023773 
2476.824 1024238 1024793 1026791 1030315 1034537 1037832 1038490 1035257 
2480.681 1028081 1018057 1007672 999833 997470 1002322 1014718 1032887 
2484.539 1053659 1072713 1085881 1089852 1083264 1066847 1043535 1017523 
2488.396 993446 975015 964460 961642 964667 970316 975234 976940 974546 
2492.736 968742 961654 955846 953730 956775 965634 979854 998521 1020087 
2497.075 1042986 1065230 1084803 1099529 1107796 1108721 1102885 1092126 
2500.933 1079264 1067327 1058718 1054561 1054471 1057086 1060623 1063668 
2504.790 1065876 1067514 1069388 1072001 1075361 1078789 1081464 1082939 
2508.648 1083642 1084858 1088510 1096187 1108665 1125361 1144386 1163136 
2512.505 1178959 1189707 1194153 1192024 1183856 1170750 1154473 1137233 
2516.363 1121791 1110953 1107088 1111261 1122777 1138945 1155611 1168109 
2520.220 1173025 1168657 1156150 1138582 1120216 1104794 1094568 1089507 
2524.077 1087731 1086317 1082883 1076236 1067348 1058584 1053156 1053628 
2527.935 1061101 1074500 1090968 1106438 1117190 1120613 1116295 1105884 
2531.792 1092631 1080206 1071793 1068819 1071074 1076645 1083261 1088845 
2535.650 1092735 1095539 1099050 1105253 1115297 1128761 1143745 1157104 
2539.507 1165750 1167503 1162017 1150888 1137179 1124419 1115689 1112641 
2543.365 1115406 1122624 1132282 1142233 1151073 1158075 1163546 1168081 
2547.222 1172482 1177055 1181851 1186317 1189862 1191718 1191508 1189204 
2551.079 1185329 1180563 1175983 1172342 1170349 1170074 1171125 1172638 
2554.937 1173723 1173551 1171932 1169277 1166809 1165951 1168029 1173646 
2558.794 1182427 1192934 1203223 1211348 1216122 1217380 1216211 1213994 
2562.652 1212222 1211446 1211090 1209780 1205988 1198809 1188699 1177391 
2566.509 1167627 1161804 1161386 1166049 1173939 1182331 1188774 1192000 
2570.366 1192534 1192241 1193704 1198872 1208556 1221786 1236531 1250154 
2574.224 1260635 1266936 1269443 1269447 1268675 1268688 1270558 1274622 
2578.081 1280891 1288917 1298260 1308464 1319113 1329646 1339595 1348302 
2581.939 1355316 1360090 1362267 1361499 1357697 1351087 1342238 1332200 
2585.796 1322539 1314731 1310120 1309281 1312049 1317256 1323411 1328718 
2589.654 1331996 1332495 1330451 1326555 1322101 1318402 1316840 1318380 
2593.511 1323563 1332045 1342757 1353796 1363029 1368375 1368847 1364773 
2597.368 1358128 1351725 1348743 1351338 1360052 1373661 1389457 1404257 
2601.226 1415408 1421545 1422979 1421295 1418886 1418144 1420932 1428195 
2605.083 1440033 1455478 1473075 1490690 1506099 1517225 1522576 1521684 
2608.941 1515229 1504889 1492909 1481416 1472032 1465389 1461592 1460301 
2612.798 1461404 1465076 1471768 1481666 1494394 1508788 1523180 1535655 
2616.656 1545130 1551330 1555177 1557987 1561221 1565555 1570912 1576473 
2620.513 1581517 1585559 1589066 1592908 1598250 1605753 1615463 1626466 
2624.370 1637560 1647443 1655282 1660732 1663978 1665281 1664978 1663304 
2628.228 1660649 1657596 1654939 1653634 1654291 1656893 1660576 1663897 
2632.085 1665201 1663170 1657535 1649040 1639390 1630765 1625343 1624764 
2635.943 1629951 1640811 1656577 1675606 1695859 1714988 1730833 1741768 
2639.800 1747085 1747262 1743744 1738438 1733139 1728897 1725834 1723233 
2643.657 1720187 1716036 1711040 1706237 1703025 1702517 1704892 1709155 
2647.515 1713401 1715396 1713455 1707033 1696822 1684461 1671990 1661085 
2651.372 1652671 1646786 1642833 1639878 1637055 1633714 1629640 1624664 
2655.230 1618927 1612529 1605674 1598665 1591725 1585014 1578472 1571686 
2659.087 1564103 1555000 1543768 1530068 1513979 1495832 1476333 1456240 
2662.945 1436501 1417937 1401442 1387588 1376741 1368706 1362921 1358323 
2666.802 1353849 1348478 1341935 1334379 1326589 1319476 1313746 1309609 
2670.659 1306722 1304362 1301921 1299076 1296060 1293581 1292416 1293062 
2674.517 1295445 1298843 1302089 1303955 1303580 1300721 1295896 1290127 
2678.374 1284778 1281124 1280143 1282240 1287167 1293982 1301401 1307709 
2682.232 1311440 1311514 1307605 1300161 1290386 1279772 1269803 1261503 
2686.089 1255316 1251105 1248369 1246541 1245388 1244891 1245231 1246553 
2689.947 1248668 1251019 1252730 1252765 1250438 1245433 1238163 1229483 
2693.804 1220666 1212857 1207021 1203556 1202354 1202768 1203940 1204832 
2697.661 1204750 1203240 1200384 1196533 1192310 1188158 1184483 1181368 
2701.519 1178722 1176563 1175028 1174586 1175736 1178942 1184211 1190913 
2705.376 1197935 1203755 1207040 1206938 1203465 1197353 1189925 1182494 
2709.234 1176177 1171408 1168270 1166400 1165501 1165336 1165925 1167258 
2713.091 1169344 1171859 1174373 1176408 1177689 1178289 1178644 1179280 
2716.948 1180671 1182891 1185566 1188005 1189289 1189027 1187226 1184505 
2720.806 1182138 1181346 1183195 1188096 1195624 1204740 1213952 1221727 
2724.663 1226951 1229056 1228242 1225175 1220992 1216652 1213015 1210489 
2728.521 1209124 1208707 1208975 1209573 1210389 1211261 1212042 1212567 
2732.378 1212616 1211989 1210702 1209076 1207679 1207306 1208791 1212640 
2736.236 1218843 1226872 1235730 1244068 1250723 1254730 1255676 1253493 
2740.093 1248650 1241722 1233516 1224812 1216437 1209179 1203818 1201009 
2743.950 1201119 1204123 1209442 1216188 1223084 1228833 1232506 1233633 
2747.808 1232423 1229659 1226553 1224431 1224286 1226646 1231355 1237575 
2751.665 1244241 1250015 1253809 1254997 1253410 1249341 1243566 1236848 
2755.523 1230082 1223996 1219163 1215796 1214089 1213868 1214929 1216896 
2759.380 1219325 1221737 1223817 1225259 1226019 1226066 1225624 1224969 
2763.238 1224359 1224120 1224361 1225167 1226426 1227807 1228928 1229300 
2767.095 1228514 1226300 1222725 1218082 1212929 1207912 1203738 1201036 
2770.952 1200197 1201417 1204752 1209981 1216734 1224511 1232616 1240277 
2774.810 1246800 1251699 1254770 1256242 1256749 1257153 1258245 1260659 
2778.667 1264562 1269685 1275406 1280803 1285075 1287552 1288045 1286694 
2782.525 1284029 1280803 1277912 1276054 1275679 1276841 1279226 1282218 
2786.382 1285155 1287459 1289072 1290303 1292002 1295139 1300594 1308704 
2790.240 1319182 1330908 1342340 1351878 1358276 1361102 1360851 1358736 
2794.097 1356415 1355441 1356939 1361220 1368040 1376588 1386114 1395991 
2797.954 1405994 1416019 1426087 1435811 1444516 1451131 1454696 1454692 
2801.812 1451598 1446812 1442503 1441135 1444579 1453590 1467599 1484766 
2805.669 1502628 1518776 1531560 1540497 1546301 1550458 1554759 1560681 
2809.527 1569067 1580012 1592981 1607012 1621144 1634593 1646858 1657748 
2813.384 1667605 1676831 1686099 1695948 1706861 1718847 1731737 1745058 
2817.241 1758386 1771549 1784736 1798489 1813584 1830650 1849942 1871256 
2821.099 1894071 1917762 1942054 1967053 1993396 2021817 2052966 2086941 
2824.956 2123327 2161184 2199561 2237715 2275569 2313419 2352018 2392047 
2828.814 2434082 2478229 2524436 2572591 2622745 2675150 2730117 2787960 
2832.671 2848643 2911770 2976787 3042985 3109955 3177590 3246268 3316493 
2836.529 3388965 3464143 3542371 3623744 3708453 3796663 3888781 3985429 
2840.386 4087369 4195367 4310114 4432149 4561751 4698957 4843767 4996054 
2844.243 5155908 5323657 5499936 5685410 5880536 6084803 6296222 6510855 
2848.101 6722633 6923692 7105136 7257978 7374600 7449457 7480023 7466696 
2851.958 7412742 7323455 7205418 7065575 6910486 6745776 6575975 6404409 
2855.816 6233483 6064822 5899793 5739409 5584579 5435956 5293946 5158620 
2859.673 5029957 4907853 4792645 4684859 4585474 4495239 4414709 4343675 
2863.531 4281426 4226758 4178572 4136266 4100016 4070523 4048837 4035693 
2867.388 4031209 4034754 4045150 4061178 4081977 4107099 4136708 4170886 
2871.245 4209503 4251855 4296865 4343325 4390359 4437701 4485670 4534847 
2875.103 4585691 4638014 4690940 4743074 4793096 4840013 4883562 4924132 
2878.960 4962488 4999228 5034590 5068074 5098853 5125713 5147730 5164245 
2882.818 5175073 5180527 5181325 5178655 5174112 5169588 5167163 5168725 
2886.675 5175728 5188665 5207243 5230396 5256686 5284717 5313631 5343122 
2890.532 5373586 5405719 5440460 5478644 5521089 5568339 5620917 5678877 
2894.390 5741842 5808957 5878791 5949643 6020103 6089275 6157197 6224661 
2898.247 6292990 6363470 6436759 6512756 6590644 6669049 6746912 6823595 
2902.105 6899164 6974291 7049934 7127184 7206857 7289736 7376460 7467662 
2905.962 7564121 7666321 7774617 7888833 8008504 8133054 8262250 8396553 
2909.820 8537352 8686747 8847186 9020677 9208592 9411075 9627323 9855746 
2913.677 10094750 10342743 10598493 10860696 11127672 11396748 11663903 
2917.052 11923984 12170958 12398817 12602332 12777776 12923287 13038689 
2920.427 13125052 13183987 13217063 13225532 13210231 13172159 13112749 
2923.803 13034476 12940736 12835744 12723961 12609453 12495212 12383042 
2927.178 12273423 12165925 12059703 11953941 11848203 11742574 11637905 
2930.553 11535694 11437973 11347208 11265950 11196332 11139882 11097074 
2933.928 11067086 11048260 11038580 11036196 11040255 11051011 11069880 
2937.304 11098618 11138916 11191278 11254852 11327140 11404493 11482535 
2940.679 11556894 11623525 11679179 11721175 11747707 11757501 11749955 
2944.054 11725074 11683450 11625945 11553784 11468048 11369649 11259245 
2947.429 11137334 11004391 10861121 10708442 10547664 10380308 10208294 
2950.805 10033486 9857976 9683783 9512753 9346109 9184727 9028569 8877201 
2954.662 8729821 8585852 8445096 8307918 8175002 8047124 7924651 7807421 
2958.520 7694675 7585571 7479550 7376604 7277374 7182744 7093348 7009084 
2962.377 6928774 6850593 6772444 6692860 6611387 6528958 6447435 6368973 
2966.234 6295457 6227860 6166268 6110059 6058268 6010098 5965052 5922964 
2970.092 5883834 5847833 5815042 5785876 5760937 5741082 5727133 5719617 
2973.949 5718269 5722008 5729128 5737755 5746528 5755068 5764271 5776149 
2977.807 5793086 5817441 5850648 5893304 5944959 6004583 6070916 6143023 
2981.664 6220362 6303041 6391800 6488158 6593936 6711348 6842348 6988240 
2985.521 7149137 7323882 7509903 7703986 7902712 8103183 8303454 8502329 
2989.379 8699058 8892614 9081192 9262152 9432248 9588083 9726885 9846780 
2993.236 9946778 10026623 10086266 10125671 10144754 10143629 10122932 
2996.612 10084002 10028789 9959592 9878492 9786998 9685907 9575516 9456088 
3000.469 9328018 9192196 9049917 8902374 8750409 8594282 8433880 8268779 
3004.326 8099007 7925056 7748115 7569808 7391827 7215614 7042214 6872193 
3008.184 6706004 6543884 6386186 6232804 6083565 5937616 5793805 5650973 
3012.041 5508327 5365813 5224406 5085704 4951720 4824092 4703713 4590557 
3015.899 4483750 4381915 4283713 4188040 4094346 4002331 3912009 3823401 
3019.756 3736616 3651671 3568855 3488592 3411632 3338759 3270606 3207364 
3023.614 3148810 3094204 3042608 2993087 2945046 2898114 2852403 2808047 
3027.471 2765156 2723525 2682816 2642486 2602370 2562653 2524144 2487854 
3031.328 2455000 2426084 2400950 2378361 2356515 2333305 2307289 2277863 
3035.186 2245612 2211864 2178370 2146562 2117031 2089532 2063380 2037655 
3039.043 2011895 1986245 1961430 1938421 1917780 1899693 1883533 1868240 
3042.901 1852678 1835844 1817209 1796698 1774661 1751772 1728870 1707027 
3046.758 1687604 1671838 1660702 1654429 1652431 1652876 1653567 1652192 
3050.615 1647377 1638825 1627712 1615931 1605519 1597756 1592838 1589935 
3054.473 1587718 1585059 1581754 1578367 1576085 1575985 1578396 1582500 
3058.330 1586780 1589338 1588921 1585099 1578833 1571662 1565435 1561545 
3062.188 1560538 1562088 1565466 1569677 1574146 1578462 1582615 1586544 
3066.045 1590063 1592893 1594666 1595236 1594663 1593391 1591964 1590763 
3069.903 1590077 1589688 1589309 1588447 1586873 1584475 1581478 1578151 
3073.760 1574854 1571793 1569081 1566574 1564212 1561838 1559453 1557191 
3077.617 1555361 1554274 1554042 1554513 1555076 1554607 1551877 1545810 
3081.475 1535941 1522806 1507923 1493409 1481535 1473812 1470644 1471090 
3085.332 1473346 1475251 1475182 1472444 1467400 1461072 1454515 1448287 
3089.190 1442254 1435619 1427513 1417459 1405757 1393432 1381818 1371941 
3093.047 1364193 1358038 1352337 1345744 1337409 1327260 1316165 1305544 
3096.905 1297004 1291724 1290288 1292199 1296422 1301445 1305723 1308021 
3100.762 1307696 1304963 1300725 1296423 1293614 1293535 1296633 1302452 
3104.619 1309707 1316590 1321418 1322985 1320851 1315401 1307486 1298051 
3108.477 1287979 1277780 1267952 1258955 1251412 1245998 1243289 1243253 
3112.334 1245267 1248041 1250129 1250093 1247527 1242700 1236914 1231813 
3116.192 1228961 1229298 1232937 1239153 1246539 1253447 1258345 1259896 
3120.049 1257347 1250435 1239597 1225793 1210599 1195829 1183404 1174850 
3123.906 1171168 1172550 1178568 1188204 1200256 1213326 1226193 1237695 
3127.764 1247026 1253599 1257391 1258715 1258313 1257020 1255528 1253952 
3131.621 1251926 1248463 1242612 1233815 1222136 1208568 1194808 1182607 
3135.479 1173474 1168205 1166896 1168910 1173325 1179032 1184919 1190011 
3139.336 1193414 1194490 1193057 1189534 1185035 1181101 1179318 1180686 
3143.194 1185321 1192206 1199787 1206183 1210195 1211484 1210555 1208364 
3147.051 1205888 1203474 1201091 1198339 1194975 1191295 1188151 1186532 
3150.908 1187167 1189876 1193671 1196825 1197841 1195600 1190207 1182598 
3154.766 1174177 1166227 1159572 1154318 1150413 1147783 1146924 1148682 
3158.623 1154134 1163757 1177333 1193565 1210543 1226134 1238644 1247100 
3162.481 1251372 1251816 1249151 1244010 1237186 1229492 1222198 1216670 
3166.338 1214336 1216088 1221852 1230499 1239965 1247802 1251934 1251171 
3170.196 1245701 1236827 1226595 1217187 1210204 1206581 1206245 1208327 
3174.053 1211661 1214944 1217336 1218497 1218725 1218729 1219392 1221234 
3177.910 1224149 1227214 1228899 1227448 1221629 1211216 1197388 1182420 
3181.768 1169363 1160800 1158498 1162460 1171327 1182484 1193210 1201193 
3185.625 1205208 1205252 1202356 1197969 1193506 1189957 1187633 1186246 
3189.483 1185328 1184260 1182936 1181483 1180638 1181296 1184344 1190253 
3193.340 1198970 1209675 1221090 1231664 1240096 1245571 1247907 1247540 
3197.198 1245195 1241737 1237851 1234017 1230739 1228528 1228125 1230397 
3201.055 1235996 1245140 1257488 1271983 1287286 1301931 1314932 1325795 
3204.912 1334571 1341473 1346726 1350146 1351347 1349812 1345229 1337736 
3208.770 1328116 1317292 1306454 1296280 1287026 1278436 1269909 1260885 
3212.627 1251107 1240854 1230879 1222276 1216099 1213090 1213390 1216453 
3216.485 1221269 1226430 1230775 1233541 1234856 1235514 1236851 1240114 
3220.342 1246059 1254611 1264707 1274720 1282916 1288173 1290230 1289733 
3224.199 1287964 1286334 1285901 1287053 1289726 1293480 1297979 1303030 
3228.057 1308751 1314939 1321140 1326306 1329000 1327912 1322253 1312270 
3231.914 1299270 1285326 1272741 1263321 1258007 1256616 1258046 1260743 
3235.772 1263106 1264094 1263125 1260380 1256455 1252258 1248894 1247206 
3239.629 1247944 1251369 1257394 1265393 1274489 1283491 1291401 1297395 
3243.487 1301178 1302998 1303582 1303776 1304578 1306486 1309612 1313248 
3247.344 1316169 1316940 1314246 1307347 1296589 1283286 1269752 1258290 
3251.201 1250968 1248490 1250230 1254329 1258234 1259650 1257237 1251037 
3255.059 1242507 1233878 1227411 1224578 1225652 1229633 1234715 1238797 
3258.916 1240211 1238161 1232929 1225637 1218114 1212201 1209503 1210859 
3262.774 1216304 1224903 1235261 1245546 1254241 1260277 1263476 1264186 
3266.631 1263325 1261720 1260006 1258280 1256313 1253603 1249744 1244475 
3270.489 1237925 1230215 1221628 1212143 1201879 1190836 1179288 1167705 
3274.346 1156808 1147145 1139306 1133282 1129028 1126393 1125388 1126462 
3278.203 1130240 1137381 1148347 1162823 1179923 1198159 1215865 1231583 
3282.061 1244290 1253568 1259547 1262596 1263220 1261836 1258705 1254003 
3285.918 1247949 1240806 1233101 1225394 1218630 1213623 1211273 1212044 
3289.776 1215904 1222195 1229720 1237006 1242798 1246391 1247971 1248506 
3293.633 1249283 1251503 1255639 1261307 1267386 1272496 1275492 1276031 
3297.490 1274476 1271796 1269137 1267184 1266123 1265591 1265026 1263919 
3301.348 1262206 1260084 1257884 1255683 1253261 1250109 1245642 1239463 
3305.205 1231735 1223100 1214484 1206828 1200861 1197014 1195486 1196235 
3309.063 1199328 1204689 1212097 1220979 1230428 1239250 1246425 1251201 
3312.920 1253620 1254301 1254372 1254954 1256687 1259684 1263181 1265937 
3316.778 1266586 1263976 1257474 1247221 1233983 1219134 1204437 1191546 
3320.635 1181901 1176260 1174778 1176790 1181267 1187022 1193356 1199881 
3324.492 1207053 1215404 1225503 1237205 1249768 1261635 1270982 1276216 
3328.350 1276546 1272202 1264519 1255499 1247422 1242249 1241126 1244156 
3332.207 1250294 1257547 1263377 1265198 1261068 1250229 1233492 1213107 
3336.065 1192430 1174982 1163672 1159827 1162982 1171078 1180972 1189520 
3339.922 1194356 1194428 1190248 1183287 1175667 1169495 1166504 1167622 
3343.780 1173173 1182670 1195018 1208366 1220590 1229398 1232840 1229797 
3347.637 1220343 1205888 1188768 1171846 1157841 1148633 1145050 1146725 
3351.494 1152464 1160600 1169377 1177339 1183479 1187301 1188726 1188046 
3355.352 1185796 1182592 1179040 1175330 1171417 1166977 1161480 1154681 
3359.209 1146759 1138521 1131459 1127155 1127070 1131800 1140854 1152369 
3363.067 1163552 1171234 1172649 1166188 1151892 1131660 1108886 1087581 
3366.924 1071723 1064212 1066264 1077287 1095118 1116567 1138397 1157748 
3370.781 1172841 1182928 1188312 1189732 1188280 1185013 1180957 1176878 
3374.639 1173664 1171769 1171632 1173153 1175812 1178676 1180581 1180412 
3378.496 1177387 1171325 1162791 1152957 1143493 1136273 1132980 1134745 
3382.354 1141852 1153548 1168231 1183575 1197353 1207734 1214001 1216481 
3386.211 1216541 1215832 1215903 1217536 1220562 1224200 1227318 1229010 
3390.069 1229004 1227445 1224958 1222027 1218926 1215790 1212755 1210275 
3393.926 1209223 1210562 1215157 1222907 1232735 1242657 1250404 1254203 
3397.783 1253427 1248881 1242290 1235607 1230126 1225779 1221443 1215367 
3401.641 1206256 1193949 1179845 1166408 1156311 1151416 1152341 1157973 
3405.498 1166223 1174725 1181740 1186447 1189119 1190607 1191755 1192982 
3409.356 1194244 1195085 1195049 1193988 1192140 1190041 1188237 1187072 
3413.213 1186612 1186666 1187050 1187674 1188697 1190428 1193152 1197006 
3417.071 1201740 1206818 1211567 1215175 1217139 1217151 1215278 1211816 
3420.928 1207416 1202683 1198407 1195192 1193509 1193528 1195080 1197707 
3424.785 1200839 1203879 1206314 1207995 1208954 1209353 1209478 1209487 
3428.643 1209451 1209255 1208783 1207911 1206602 1205099 1203664 1202641 
3432.500 1202340 1202772 1203882 1205152 1206261 1206901 1207185 1207653 
3436.358 1209361 1213365 1220424 1230563 1242934 1255849 1267276 1275442 
3440.215 1279425 1279513 1277059 1273949 1271884 1271844 1273633 1276193 
3444.073 1278132 1278357 1276660 1273776 1271064 1269768 1270464 1272807 
3447.930 1275577 1277311 1277018 1274580 1270896 1267465 1265682 1266182 
3451.787 1268527 1271369 1273023 1272047 1268024 1261727 1254654 1248596 
3455.645 1245030 1244499 1246636 1250228 1254041 1256827 1258042 1257524 
3459.502 1255746 1253286 1250963 1249415 1249427 1251660 1256658 1264758 
3463.360 1275927 1289647 1305167 1321352 1337150 1351760 1364660 1375491 
3467.217 1384157 1390483 1394364 1395741 1394729 1391883 1388073 1384425 
3471.074 1382098 1381954 1384549 1389885 1397743 1407717 1419380 1432383 
3474.932 1446518 1461461 1476920 1492514 1507892 1522962 1537805 1552606 
3478.789 1567588 1582808 1598034 1612741 1626369 1638591 1649430 1659328 
3482.647 1668949 1678993 1689660 1700668 1711353 1720921 1728915 1735603 
3486.504 1741989 1749593 1760016 1774371 1792965 1815100 1839373 1863926 
3490.362 1887061 1907313 1923707 1935585 1942661 1944981 1942987 1937815 
3494.219 1931340 1926083 1924883 1930075 1943093 1963827 1990768 2021125 
3498.076 2051815 2080121 2104280 2123616 2138396 2149348 2156950 2161494 
3501.934 2162793 2160713 2155501 2147969 2139446 2131428 2125209 2121238 
3505.791 2119174 2118194 2117401 2116243 2114849 2113819 2113863 2115273 
3509.649 2117544 2119345 2118975 2114820 2106038 2092619 2075599 2056229 
3513.506 2035971 2015804 1996390 1978011 1961198 1946671 1935399 1928182 
3517.364 1925307 1926067 1928881 1931341 1931098 1926167 1915565 1899338 
3521.221 1878574 1854878 1830176 1806297 1784825 1767058 1753670 1744697 
3525.078 1739371 1736301 1733845 1730419 1725361 1718860 1712191 1706822 
3528.936 1703863 1703209 1703572 1702539 1697674 1687495 1672168 1653397 
3532.793 1634161 1617194 1604317 1595661 1589963 1585375 1580431 1574941 
3536.651 1570101 1567793 1569830 1576795 1587516 1599331 1608911 1613266 
3540.508 1610866 1601792 1587747 1571139 1554422 1539243 1526327 1515649 
3544.365 1506807 1499540 1493861 1490150 1488834 1490211 1494163 1500158 
3548.223 1507236 1514315 1520269 1524157 1525302 1523454 1518742 1511818 
3552.080 1503574 1495161 1487757 1482158 1478804 1477769 1478789 1481404 
3555.938 1485150 1489717 1494917 1500546 1506618 1512953 1519445 1525821 
3559.795 1531935 1537337 1541525 1543759 1543265 1539421 1531940 1521012 
3563.653 1507459 1492496 1477578 1464029 1452875 1444651 1439551 1437324 
3567.510 1437506 1439431 1442334 1445310 1447594 1448566 1448081 1446581 
3571.367 1444877 1444045 1445040 1448270 1453484 1459979 1466799 1473406 
3575.225 1479667 1486098 1493572 1502532 1512882 1523416 1532181 1536818 
3579.082 1535445 1527004 1511639 1490725 1466311 1440698 1416003 1393857 
3582.940 1375516 1361855 1353678 1351356 1355072 1364278 1377502 1392564 
3586.797 1406613 1416780 1420833 1417461 1406817 1390268 1370104 1349014 
3590.655 1329469 1313425 1301973 1295307 1292877 1293459 1295529 1297516 
3594.512 1298014 1296291 1292272 1286632 1280665 1275923 1273522 1273861 
3598.369 1276183 1278687 1279098 1275169 1265671 1250724 1231985 1212294 
3602.227 1194921 1182633 1177318 1179449 1188354 1202641 1220617 1240743 
3606.084 1261539 1281705 1300155 1315455 1326613 1333036 1334830 1332668 
3609.942 1327756 1321251 1313923 1305785 1296487 1285619 1273349 1260823 
3613.799 1250080 1243572 1243569 1251076 1265757 1285687 1308005 1329776 
3617.656 1348678 1363585 1374434 1382008 1387394 1391548 1394928 1397619 
3621.514 1399391 1400123 1399849 1398775 1397581 1397089 1398304 1402198 
3625.371 1409511 1420474 1434715 1451070 1467833 1483145 1495514 1504427 
3629.229 1510381 1514722 1519089 1524635 1531421 1538537 1544222 1546822 
3633.086 1545495 1540656 1534088 1528200 1525496 1527547 1534647 1545763 
3636.944 1559183 1572912 1585526 1596148 1604592 1611285 1616688 1621508 
3640.801 1626549 1632786 1641280 1652886 1667997 1685882 1704884 1722527 
3644.658 1736366 1744521 1746742 1744140 1739240 1734852 1733407 1736007 
3648.516 1742420 1751281 1761000 1770159 1778171 1785036 1791169 1796497 
3652.373 1800711 1803030 1802790 1799980 1795527 1791343 1789350 1791142 
3656.231 1796953 1805718 1815344 1823649 1829149 1831647 1832158 1832203 
3660.088 1832959 1834575 1835823 1834531 1828562 1816639 1798748 1776498 
3663.946 1752342 1728760 1707815 1690524 1676974 1666896 1659970 1655952 
3667.803 1655041 1657247 1662550 1670521 1680471 1691629 1703246 1714350 
3671.660 1723786 1729964 1730918 1724600 1709583 1685768 1654494 1618742 
3675.518 1582152 1548205 1519323 1496365 1479012 1466292 1457469 1452310 
3679.375 1451122 1454265 1461421 1471261 1481819 1490951 1497328 1500899 
3683.233 1503116 1505949 1511075 1518815 1527716 1534993 1537278 1531929 
3687.090 1517996 1496599 1470539 1443526 1418792 1398679 1383792 1373206 
3690.948 1365159 1357283 1347579 1334803 1318877 1300926 1283146 1268311 
3694.805 1258951 1256647 1261402 1271306 1283323 1294024 1300775 1302501 
3698.662 1300176 1295934 1292434 1291304 1292931 1296079 1298633 1298419 
3702.520 1294421 1286885 1277454 1268393 1261977 1259853 1263048 1271652 
3706.377 1285396 1303379 1324365 1346388 1367081 1383891 1394780 1398743 
3710.235 1396036 1388244 1377448 1365485 1353260 1340721 1327115 1311917 
3714.092 1295787 1280709 1269623 1265445 1269890 1282727 1301440 1321898 
3717.949 1339631 1350911 1353931 1348751 1337269 1322243 1306742 1293202 
3721.807 1283600 1278794 1279059 1283552 1290931 1299258 1306467 1311078 
3725.664 1312654 1311940 1310915 1311670 1315824 1323528 1333165 1341771 
3729.522 1346081 1343725 1334291 1319582 1303314 1290034 1283656 1286490 
3733.379 1298563 1317787 1340984 1364503 1385548 1402530 1414773 1422699 
3737.237 1426855 1427439 1424662 1418198 1408346 1395830 1382387 1370242 
3741.094 1362006 1359694 1364107 1374549 1388797 1403600 1415818 1422833 
3744.951 1423667 1418730 1409474 1397773 1385182 1372714 1360732 1349437 
3748.809 1339241 1330909 1325494 1323936 1326286 1331644 1338069 1343091 
3752.666 1344655 1341819 1335183 1326714 1318946 1314112 1313214 1315641 
3756.524 1319273 1321199 1318946 1311020 1297945 1281931 1266580 1255783 
3760.381 1252705 1258943 1274050 1295744 1320312 1343708 1362499 1374394 
3764.239 1379060 1377576 1372368 1366039 1360892 1358185 1358107 1359879 
3768.096 1362231 1363878 1364191 1363018 1360825 1358492 1356902 1356748 
3771.953 1358471 1362161 1367705 1374725 1382706 1391042 1399091 1406208 
3775.811 1411939 1415817 1417727 1417416 1414491 1408611 1399207 1385773 
3779.668 1368207 1346914 1323067 1298511 1275353 1255779 1241720 1234427 
3783.526 1234282 1241033 1253635 1270615 1290090 1310256 1329278 1345549 
3787.383 1358031 1366024 1369425 1368562 1363976 1356465 1346609 1334980 
3791.240 1322094 1308383 1294544 1281550 1270593 1263155 1260630 1263995 
3795.098 1273583 1288763 1308081 1329384 1350314 1368829 1383582 1394216 
3798.955 1401260 1405780 1408853 1411127 1412691 1413124 1411855 1408604 
3802.813 1403750 1398413 1393913 1391369 1391266 1393083 1395650 1397391 
3806.670 1397339 1395290 1392286 1389918 1389928 1393362 1400030 1408648 
3810.528 1417064 1423076 1425167 1422851 1416737 1408329 1399294 1391137 
3814.385 1384916 1380974 1379390 1379895 1382135 1385638 1389741 1393526 
3818.242 1396024 1396277 1393723 1388220 1380252 1370790 1361032 1352025 
3822.100 1344562 1339049 1335694 1334624 1335955 1339840 1346205 1354540 
3825.957 1363874 1372687 1379431 1382776 1382259 1378264 1372170 1365717 
3829.815 1360579 1357757 1357378 1358585 1360036 1360425 1358791 1355018 
3833.672 1349631 1343641 1338239 1334359 1332593 1333183 1336170 1341413 
3837.530 1348784 1357851 1368061 1378325 1387439 1394117 1397397 1396815 
3841.387 1392833 1386320 1378523 1370506 1362564 1354390 1345032 1333297 
3845.244 1318453 1300563 1280808 1261218 1244154 1231866 1225688 1225803 
3849.102 1231327 1240334 1250783 1260644 1268567 1274036 1277282 1279063 
3852.959 1280432 1282496 1286182 1292186 1301022 1312900 1327653 1344574 
3856.817 1362455 1379646 1394369 1404868 1410201 1410222 1405691 1397948 
3860.674 1388489 1378408 1368131 1357466 1345844 1332968 1319149 1305495 
3864.531 1293787 1285909 1283256 1286152 1293903 1304742 1316643 1327373 
3868.389 1335444 1339771 1340068 1336526 1329906 1321489 1313070 1306886 
3872.246 1305084 1309216 1319829 1335736 1354327 1371993 1385263 1391560 
3876.104 1389959 1381365 1367809 1351842 1335497 1320004 1305791 1293027 
3879.961 1282436 1275341 1273880 1280038 1294867 1317583 1345573 1374560 
3883.819 1399848 1417632 1425972 1425215 1417550 1406365 1394529 1383794 
3887.676 1374161 1364293 1352254 1336744 1317700 1297004 1277747 1263695 
3891.533 1258006 1262189 1275768 1295941 1318838 1339975 1355761 1364112 
3895.391 1364762 1359075 1349458 1338433 1328044 1319488 1313104 1308567 
3899.248 1305305 1302758 1300614 1298730 1297120 1295821 1295004 1294890 
3903.106 1296028 1299016 1304377 1312230 1322053 1332519 1341814 1348059 
3906.963 1349831 1346643 1339410 1329904 1320658 1314072 1311858 1314488 
3910.821 1321179 1330105 1338969 1345457 1347779 1345201 1337995 1327142 
3914.678 1314313 1301181 1289301 1279773 1273276 1270098 1270294 1273825 
3918.535 1280404 1289458 1300202 1311473 1322041 1330910 1337568 1342277 
3922.393 1345926 1349603 1354184 1359710 1365251 1369141 1369559 1365413 
3926.250 1356625 1344583 1331752 1320834 1313861 1311648 1313672 1318150 
3930.108 1323049 1326479 1327508 1326083 1322805 1318713 1314581 1310816 
3933.965 1307575 1304674 1302062 1299712 1297809 1296522 1296050 1296432 
3937.823 1297761 1299839 1302694 1306168 1310182 1314446 1318817 1323071 
3941.680 1327247 1331437 1335800 1340203 1344330 1347550 1349190 1348841 
3945.537 1346951 1344757 1344302 1347748 1356718 1371440 1390729 1411753 
3949.395 1431057 1445180 1451772 1450021 1440825 1426425 1409844 1393961 
3953.252 1381296 1373133 1369827 1370615 1374005 1378017 1380814 1380943 
3957.110 1377833 1371908 1364554 1357648 1353067 1352266 1355803 1363176 
3960.967 1373277 1384624 1395709 1405514 1413244 1418699 1421639 1421984 
3964.824 1419813 1415283 1408950 1401570 1394029 1387229 1381832 1378090 
3968.682 1376084 1375562 1376458 1378614 1382030 1386628 1392063 1397711 
3972.539 1402670 1405734 1405891 1402371 1394816 1383514 1369237 1353258 
3976.397 1337197 1322648 1311070 1303381 1299940 1300522 1304386 1310828 
3980.254 1319425 1330097 1343245 1359176 1377892 1398543 1419468 1438457 
3984.112 1453459 1463008 1466966 1466265 1462753 1458401 1454661 1452039 
3987.969 1450256 1448420 1445663 1441466 1435842 1429377 1422791 1416709 
3991.826 1411787 1408370 1406967 1408044 1411935 1418857 1428423 1439753 
3995.684 1451714 1463117 1473470 1482770 1491578 1500657 1510125 1519289 
3999.541 1526557 1529736 1526938 
##END=
