##TITLE=Bambu-Lab_PETG_Lime-Green_Filament_r4_ATR-Corrected
##JCAMP-DX=5.01  $$ Nicolet v. 1
##DATATYPE=INFRARED SPECTRUM
##ORIGIN=Curtin University
##OWNER=Nicolet
##LONGDATE=2024/07/03
##TIME=14:55:57
##SPECTROMETER/DATA SYSTEM=Nicolet iS50
##DATA PROCESSING=
Ratio against background
%Transmittance->Absorbance
ATR Correction
Truncated
ElementMultiply or ElementDivide
##COMMENTS=
Number of sample scans: 32
Collection length: 47.29 sec
Sample gain: 1.0
Background collected on: Wed Jul 03 14:52:23 2024 (GMT+08:00);
Number of background scans: 32
Background gain: 1.0
Sample spacing:  1.000
Number of scan points: 16672
Resolution points: 8192
Number of FFT points: 65536
Apodization: N-B strong;
Phase correction: Mertz;
Laser frequency: 15798.3 cm-1
Number of rejected sample scans: 0
Number of rejected background scans: 0
Bench serial number: AUP1200105;
##RESOLUTION=4.000
##XUNITS=1/CM
##YUNITS=ABSORBANCE
##FIRSTX=400.163452
##LASTX=4000.187744
##FIRSTY=0.041406
##MAXX=4000.187744
##MINX=400.163452
##MAXY=1.521350
##MINY=-0.031954
##XFACTOR=1.000000
##YFACTOR=1.000000E-008
##NPOINTS=7468
##DELTAX=0.482125
##ZPD=8192
##XYDATA=(X++(Y..Y))
400.163 4140621 4122476 4092203 4046044 3980885 3896593 3798493 3697857 
404.020 3609978 3550690 3532213 3560076 3631729 3737416 3863174 3994575 
407.877 4119935 4232090 4328243 4408456 4473502 4523482 4557451 4574090 
411.734 4572769 4554556 4522566 4481501 4436607 4392492 4352450 4318258 
415.591 4290650 4270161 4257741 4255132 4264435 4287445 4324703 4374860 
419.448 4434523 4498766 4562052 4619296 4666739 4702416 4726308 4740104 
423.305 4746635 4749120 4750446 4752583 4756301 4761141 4765689 4767973 
427.162 4765835 4757507 4742013 4719722 4692515 4663615 4637043 4616571 
431.019 4604483 4600739 4602638 4605160 4602893 4591080 4567282 4532192 
434.876 4489258 4443578 4400266 4363148 4333999 4312791 4298470 4289897 
438.733 4286325 4287398 4292548 4300299 4307932 4311869 4308567 4295889 
442.590 4273984 4245505 4214940 4187178 4165931 4152590 4146056 4143402 
446.447 4141173 4136644 4128615 4117383 4104104 4089791 4074714 4058251 
450.304 4039393 4017649 3993819 3970332 3950859 3939266 3938402 3949045 
454.161 3969438 3995568 4022174 4044060 4057389 4060540 4054395 4041913 
458.017 4027203 4014409 4006709 4005684 4011253 4021971 4035804 4050853 
461.874 4065882 4080522 4095053 4109872 4125231 4140788 4155662 4168835 
465.731 4179476 4187336 4192727 4196237 4198272 4198637 4196499 4190729 
469.588 4180567 4166292 4149709 4134031 4123176 4120773 4129084 4148442 
473.445 4177174 4212234 4250205 4288265 4324817 4359546 4393185 4426847 
477.302 4461556 4497924 4536048 4575740 4616570 4657967 4699125 4738991 
481.159 4776240 4809570 4838066 4861679 4881467 4899530 4918597 4941412 
485.016 4970040 5005479 5047542 5095207 5147009 5201587 5257939 5315620 
488.873 5374645 5435408 5498667 5565503 5637327 5715732 5802176 5897608 
492.730 6001947 6113982 6231329 6350983 6469909 6585669 6696766 6802595 
496.587 6902987 6997537 7085053 7163295 7229110 7278951 7309582 7318626 
500.444 7304906 7268389 7210001 7131304 7034310 6921465 6795653 6660275 
504.301 6519118 6376020 6234517 6097457 5966705 5843127 5726761 5617105 
508.158 5513450 5415194 5322063 5234230 5152296 5077161 5009872 4951330 
512.015 4902020 4861885 4830179 4805633 4786605 4771355 4758278 4746095 
515.871 4733823 4720761 4706433 4690553 4673094 4654301 4634763 4615307 
519.728 4596799 4579945 4565067 4552068 4540524 4529907 4519818 4510124 
523.585 4500847 4491997 4483345 4474327 4463996 4451379 4435769 4416961 
527.442 4395295 4371447 4346052 4319472 4291599 4262084 4230672 4197630 
531.299 4164028 4131591 4102402 4078282 4060330 4048594 4042212 4039763 
535.156 4039690 4040739 4042108 4043360 4044208 4044272 4043030 4039923 
539.013 4034552 4026975 4017715 4007776 3998321 3990375 3984556 3980947 
542.870 3979049 3977890 3976145 3972255 3964642 3951854 3932923 3907650 
546.727 3876821 3842298 3806755 3773180 3744172 3721353 3704933 3693778 
550.584 3685760 3678454 3669790 3658523 3644364 3627696 3609171 3589225 
554.441 3567880 3544756 3519422 3491782 3462300 3432120 3402758 3375572 
558.298 3351275 3329588 3309257 3288484 3265486 3239197 3209672 3178110 
562.155 3146480 3116865 3090748 3068585 3049692 3032696 3016131 2999157 
566.012 2981976 2965808 2952389 2943265 2939060 2939083 2941424 2943530 
569.869 2943024 2938460 2929838 2918489 2906591 2896325 2889186 2885445 
573.725 2884101 2883288 2880847 2874993 2864825 2850410 2832758 2813418 
577.582 2794116 2776348 2761227 2749382 2741056 2736208 2734696 2736408 
581.439 2741305 2749462 2760929 2775669 2793385 2813460 2834936 2856687 
585.296 2877605 2896869 2914197 2929999 2945294 2961570 2980484 3003585 
589.153 3031980 3066246 3106387 3151973 3202299 3256630 3314325 3374995 
593.010 3438484 3504814 3574095 3646313 3721138 3797705 3874381 3948726 
596.867 4017412 4076414 4121440 4148435 4154257 4137271 4097722 4037803 
600.724 3961334 3873208 3778618 3682419 3588657 3500353 3419527 3347400 
604.581 3284582 3231220 3187105 3151628 3123852 3102541 3086410 3074278 
608.438 3065331 3059228 3056009 3055942 3059252 3065901 3075442 3087110 
612.295 3099947 3113049 3125748 3137684 3148828 3159341 3169467 3179387 
616.152 3189160 3198720 3207941 3216729 3225212 3233737 3242938 3253615 
620.009 3266558 3282346 3301128 3322597 3346078 3370778 3396085 3421779 
623.866 3448125 3475776 3505607 3538660 3576310 3620637 3674791 3743180 
627.723 3830960 3942844 4081279 4244485 4424928 4609079 4778734 4914035 
631.579 4997505 5018086 4973858 4872545 4729688 4565096 4398758 4247351 
635.436 4122059 4027935 3964629 3927878 3911437 3908740 3914240 3924135 
639.293 3936581 3951385 3969418 3991816 4019192 4051099 4085876 4121005 
643.150 4153743 4181981 4204823 4222802 4237525 4250956 4264613 4279026 
647.007 4293647 4307246 4318559 4326902 4332402 4335857 4338282 4340410 
650.864 4342431 4344127 4345269 4346105 4347603 4351303 4358902 4371535 
654.721 4389374 4411458 4436121 4461603 4486691 4511121 4535518 4560980 
658.578 4588416 4618037 4649123 4680225 4709619 4735836 4758194 4776980 
662.435 4793343 4809027 4825948 4845778 4869615 4897808 4929913 4964882 
666.292 5001317 5037867 5073651 5108499 5143057 5178529 5216299 5257435 
670.149 5302393 5350894 5402169 5455407 5510201 5566828 5626276 5689956 
674.006 5759290 5835242 5918108 6007466 6102281 6201053 6301881 6402506 
677.863 6500140 6591585 6673404 6742434 6796340 6834148 6856522 6865606 
681.720 6864575 6856934 6845858 6833784 6822306 6812375 6804642 6799819 
685.577 6798793 6802657 6812544 6829454 6854089 6886849 6927847 6977024 
689.433 7034204 7099067 7171181 7250000 7334945 7425540 7521600 7623375 
693.290 7731532 7847114 7971348 8105475 8250712 8408220 8579357 8765699 
697.147 8969157 9191708 9434995 9699769 9985335 10289250 10607383 10934407 
701.004 11264610 11592814 11915104 12229266 12534773 12832284 13123044 
704.379 13408270 13688748 13964713 14236116 14502990 14765736 15025325 
707.754 15283191 15541101 15800965 16064945 16335848 16617684 16916544 
711.129 17241008 17602262 18013882 18491062 19049796 19706108 20475548 
714.504 21373018 22412852 23609056 24975520 26525948 28273556 30230484 
717.878 32406836 34809568 37440884 40296560 43363456 46616168 50012620 
721.253 53488296 56950200 60271700 63292648 65828808 67694880 68739608 
724.628 68882784 68137288 66604812 64447556 61850320 58988416 56008096 
728.003 53019316 50097036 47286488 44610340 42075564 39679272 37413252 
731.378 35266824 33228620 31287256 29431730 27651740 25938054 24283024 
734.752 22680996 21128592 19624690 18170254 16768064 15422319 14138386 
738.127 12922388 11780701 10719354 9743236 8855473 8056831 7345554 6717519 
741.984 6166626 5685482 5266098 4900583 4581631 4302826 4058770 3845053 
745.841 3658079 3494902 3352922 3229705 3122813 3029754 2948067 2875448 
749.698 2810006 2750384 2695806 2645978 2600836 2560313 2524164 2491941 
753.555 2463079 2437112 2413813 2393255 2375716 2361439 2350433 2342388 
757.412 2336637 2332401 2329032 2326233 2324110 2323067 2323663 2326343 
761.269 2331303 2338489 2347679 2358642 2371219 2385434 2401377 2419192 
765.126 2439009 2460909 2485017 2511518 2540667 2572748 2607973 2646383 
768.983 2687782 2731730 2777673 2824988 2873042 2921185 2968713 3014808 
772.840 3058465 3098609 3134296 3164870 3190197 3210758 3227651 3242428 
776.697 3256920 3273032 3292502 3316772 3346845 3383304 3426311 3475810 
780.554 3531734 3594280 3664138 3742565 3831237 3931962 4046238 4174972 
784.410 4318255 4475542 4645979 4828888 5024183 5232420 5454695 5692130 
788.267 5945239 6213276 6493766 6782198 7071941 7354349 7618937 7853795 
792.124 8046121 8183172 8253564 8248732 8164516 8002474 7770476 7482471 
795.981 7157240 6816368 6481759 6173159 5906008 5690156 5529330 5421543 
799.838 5360242 5335967 5338233 5357238 5385080 5416326 5447934 5478710 
803.695 5508400 5536957 5564083 5589095 5611086 5629222 5643009 5652447 
807.552 5657956 5660286 5660333 5659042 5657357 5656216 5656530 5659049 
811.409 5664239 5672126 5682257 5693724 5705374 5716089 5725007 5731743 
815.266 5736300 5739066 5740590 5741463 5742234 5743453 5745715 5749646 
819.123 5755834 5764610 5775920 5789089 5802979 5816199 5827567 5836637 
822.980 5843968 5851286 5861134 5876304 5899119 5930782 5971039 6018257 
826.837 6069874 6123068 6175535 6226033 6274566 6322282 6371029 6422877 
830.694 6479561 6542241 6611366 6686766 6767779 6853467 6942714 7034348 
834.551 7127199 7220172 7312394 7403266 7492523 7580243 7666661 7752078 
838.408 7836575 7920011 8001914 8081595 8158263 8231237 8299996 8364352 
842.264 8424337 8480217 8532367 8581177 8626898 8669622 8709218 8745332 
846.121 8777434 8804913 8827199 8843902 8854914 8860476 8861236 8858136 
849.978 8852328 8845063 8837540 8830798 8825693 8822898 8822936 8826306 
853.835 8833497 8845109 8861795 8884306 8913342 8949601 8993745 9046403 
857.692 9108288 9180228 9263293 9358736 9468071 9592986 9735379 9897377 
861.549 10081340 10289928 10526011 10792526 11092269 11427623 11800489 
864.924 12212111 12663294 13154526 13686046 14257708 14868440 15515377 
868.299 16192807 16891138 17596296 18289776 18949476 19551358 20071658 
871.674 20489178 20787504 20956384 20992364 20898346 20682708 20357818 
875.048 19938654 19441564 18883282 18280082 17647060 16997620 16343039 
878.423 15692361 15052721 14429829 13828653 13253950 12710382 12202288 
881.798 11733155 11304952 10917778 10569859 10258193 9979374 9730509 9509831 
885.655 9316697 9151082 9012762 8900371 8811089 8740656 8684197 8637149 
889.512 8596274 8560052 8528601 8503018 8484548 8473763 8470252 8472729 
893.369 8479432 8488627 8498999 8509663 8520038 8529635 8537800 8543724 
897.226 8546542 8545353 8539186 8526817 8506421 8475477 8430912 8369563 
901.083 8288914 8187783 8066770 7928229 7775852 7613948 7446722 7277783 
904.940 7109935 6945267 6785321 6631287 6484154 6344649 6213296 6090441 
908.797 5976403 5871555 5776352 5691142 5615935 5550168 5492590 5441499 
912.654 5395242 5352786 5314120 5280374 5253387 5235137 5226896 5228762 
916.510 5239571 5257261 5279477 5304214 5330262 5357212 5385291 5414929 
920.367 5446526 5480270 5516161 5554128 5594081 5635878 5679149 5723251 
924.224 5767265 5810150 5851049 5889612 5926126 5961493 5996898 6033501 
928.081 6072153 6113188 6156492 6201670 6248172 6295468 6343049 6390454 
931.938 6437329 6483474 6529102 6574923 6622212 6672629 6727972 6789770 
935.795 6859021 6936167 7021244 7114261 7215561 7326062 7447282 7581085 
939.652 7729285 7893212 8073403 8269470 8480221 8703837 8938156 9180948 
943.509 9430033 9683380 9939178 10195757 10451681 10705719 10956888 11204424 
947.366 11447745 11686374 11919879 12147810 12369808 12585708 12795725 
950.741 13000567 13201520 13400227 13598329 13796981 13996230 14194508 
954.116 14388405 14572673 14740667 14885046 14998621 15075269 15110755 
957.490 15103215 15053575 14965546 14845443 14701606 14543757 14382023 
960.865 14226034 14084037 13962166 13864149 13791303 13742930 13716857 
964.240 13710138 13719618 13742279 13775355 13816305 13862586 13911529 
967.615 13960205 14005470 14044049 14072706 14088313 14088063 14069501 
970.990 14030662 13970219 13887511 13782784 13657099 13512418 13351293 
974.364 13176821 12992251 12800816 12605493 12408962 12213559 12021296 
977.739 11834007 11653407 11481165 11318935 11168328 11030795 10907488 
981.114 10799152 10705967 10627557 10562903 10510499 10468327 10434171 
984.489 10405584 10380282 10356227 10331873 10306241 10279042 10250454 
987.864 10221131 10191804 10163217 10136005 10110703 10087752 10067656 
991.239 10051000 10038547 10031164 10029825 10035593 10049620 10073112 
994.613 10107353 10153526 10212642 10285297 10371655 10471383 10583846 
997.988 10708368 10844449 10991947 11151168 11322802 11507809 11707324 
1001.363 11922672 12155469 12407705 12681858 12980880 13308251 13667808 
1004.738 14063795 14500856 14984155 15519491 16113356 16773091 17506972 
1008.113 18324574 19237346 20259438 21408408 22705560 24175326 25843322 
1011.487 27732692 29859054 32224002 34807948 37562848 40406312 43218808 
1014.862 45846756 48113996 49843268 50884724 51144612 50603736 49318720 
1018.237 47406472 45019096 42318280 39455968 36562692 33742660 31073452 
1021.612 28608334 26379796 24403444 22681766 21207490 19966338 18939378 
1024.987 18104832 17439518 16920122 16524063 16230297 16019930 15876478 
1028.362 15786043 15737288 15721157 15730637 15760443 15806685 15866698 
1031.737 15938780 16022028 16116096 16220894 16336326 16462065 16597429 
1035.113 16741286 16892198 17048566 17208728 17371146 17534330 17696808 
1038.488 17857002 18013118 18163084 18304568 18435132 18552332 18653878 
1041.863 18737776 18802364 18846378 18869000 18869812 18848918 18806886 
1045.238 18744788 18664216 18567148 18455898 18333026 18201246 18063348 
1048.614 17922214 17780744 17641824 17508176 17382242 17266052 17161152 
1051.989 17068594 16989176 16923652 16872940 16838364 16821628 16824700 
1055.364 16849502 16897678 16970282 17067706 17189610 17335096 17502940 
1058.739 17691826 17900556 18128334 18374882 18640488 18926086 19233016 
1062.115 19562898 19917296 20297510 20704294 21137826 21597794 22083630 
1065.490 22594806 23131104 23692896 24281222 24897708 25544554 26224378 
1068.865 26940178 27695366 28493828 29340004 30238870 31195790 32216268 
1072.240 33305732 34469204 35711136 37035360 38444860 39941852 41527364 
1075.615 43201000 44960464 46801256 48716472 50696652 52730108 54803072 
1078.991 56900148 59004616 61098816 63165020 65186112 67146976 69035504 
1082.366 70843664 72567792 74208536 75770120 77259408 78685104 80056832 
1085.741 81384392 82676944 83941944 85184408 86405976 87604928 88776408 
1089.116 89913520 91008320 92052840 93039248 93959672 94805392 95566384 
1092.492 96230784 96784904 97213656 97501032 97630720 97587216 97357056 
1095.867 96930840 96304944 95482824 94474856 93296984 91967920 90506544 
1099.242 88929496 87250552 85481048 83631208 81711664 79734560 77713952 
1102.617 75665680 73606944 71556256 69533112 67558272 65653636 63842036 
1105.993 62146528 60589684 59192564 57973760 56948412 56127232 55515540 
1109.368 55112444 54909952 54892588 55037380 55314480 55688392 56120044 
1112.743 56568880 56995576 57364160 57643848 57810332 57846324 57741808 
1116.118 57493620 57104660 56582724 55939036 55186736 54339536 53410904 
1119.494 52413500 51359236 50259388 49124800 47965812 46792224 45613060 
1122.869 44436456 43269536 42118496 40988700 39884712 38810344 37768564 
1126.244 36761448 35790028 34854436 33953904 33086970 32251712 31445918 
1129.619 30667380 29913944 29183588 28474454 27784828 27113118 26457864 
1132.995 25817878 25192264 24580542 23982706 23399028 22829990 22275942 
1136.370 21736910 21212458 20701662 20203322 19716292 19239770 18773464 
1139.745 18317760 17873464 17441638 17023210 16618744 16228350 15851678 
1143.120 15488182 15137258 14798598 14472181 14158309 13857491 13570236 
1146.496 13296841 13037331 12791339 12558138 12336722 12125868 11924153 
1149.871 11730059 11541976 11358275 11177447 10998244 10819735 10641543 
1153.246 10463710 10286768 10111508 9938912 9769998 9605797 9447325 9295587 
1157.104 9151626 9016448 8890994 8776096 8672321 8580083 8499557 8430818 
1160.961 8373824 8328573 8295175 8273855 8265245 8270437 8291106 8329540 
1164.818 8388477 8470797 8578978 8714622 8877921 9067374 9279744 9510122 
1168.676 9752290 9999049 10242720 10475474 10689776 10878786 11036715 
1172.051 11159129 11243100 11287235 11291592 11257336 11186530 11081778 
1175.426 10946119 10782910 10595802 10388731 10165883 9931618 9690320 
1178.802 9446284 9203636 8966205 8737519 8520754 8318624 8133306 7966349 
1182.659 7818710 7690813 7582748 7494428 7425789 7376905 7347937 7339030 
1186.516 7350231 7381340 7431847 7500910 7587370 7689777 7806434 7935453 
1190.374 8074875 8222724 8377267 8537070 8701140 8868952 9040377 9215594 
1194.231 9394994 9579086 9768399 9963538 10165136 10373692 10589688 10813327 
1198.089 11044578 11283128 11528491 11780147 12037694 12300976 12570167 
1201.464 12845726 13128352 13418908 13718294 14027373 14346975 14677829 
1204.839 15020539 15375531 15743096 16123326 16516177 16921656 17339838 
1208.214 17771100 18216134 18676076 19152358 19646614 20160522 20695602 
1211.590 21253250 21834622 22440750 23072756 23731848 24419446 25137060 
1214.965 25886082 26667460 27481428 28327144 29202542 30104422 31028590 
1218.340 31970262 32924626 33887492 34856020 35829400 36809424 37800832 
1221.715 38811376 39851576 40934068 42072864 43282224 44575672 45964968 
1225.091 47459416 49065392 50786348 52623148 54574752 56638928 58812876 
1228.466 61093564 63477672 65961068 68538176 71201416 73940976 76745304 
1231.841 79601648 82497080 85419136 88355896 91295448 94224888 97129568 
1235.216 99992304 102793208 105509720 108116600 110585960 112887392 
1238.109 114988944 116859328 118470896 119803200 120845488 121596824 
1241.002 122064152 122259248 122195672 121887800 121351936 120608224 
1243.896 119682416 118605760 117412424 116136216 114806744 113447568 
1246.789 112076056 110704776 109343592 108001552 106687864 105411824 
1249.682 104182672 103009072 101898920 100859488 99897232 99017456 98223560 
1253.057 97516360 96893736 96350672 95879888 95472528 95118704 94807112 
1256.432 94524200 94253448 93974864 93665872 93303296 92866008 92337432 
1259.807 91707136 90971088 90130328 89189408 88154968 87034952 85838640 
1263.183 84576784 83261784 81907056 80526096 79131464 77733976 76342592 
1266.558 74964528 73605936 72272144 70967888 69697112 68462632 67265848 
1269.933 66106772 64984076 63895492 62838112 61808724 60803984 59820668 
1273.308 58855776 57906796 56971712 56049068 55137820 54237176 53346308 
1276.684 52464288 51590188 50723128 49862588 49008328 48160464 47319288 
1280.059 46485092 45658108 44838584 44026952 43223988 42430924 41649356 
1283.434 40881072 40127832 39391268 38672768 37973608 37294812 36637156 
1286.809 36000892 35385576 34789788 34211176 33646552 33092260 32544496 
1290.185 31999546 31453946 30904424 30347874 29781384 29202458 28609294 
1293.560 28001068 27378198 26742310 26096072 25442910 24786812 24131988 
1296.935 23483050 22844804 22222296 21620538 21044240 20497404 19982854 
1300.310 19502040 19054862 18639750 18253898 17893482 17554062 17230884 
1303.686 16919256 16614893 16314210 16014598 15714544 15413640 15112449 
1307.061 14812279 14515026 14222880 13938236 13663597 13401382 13153771 
1310.436 12922464 12708446 12511697 12331087 12164452 12008718 11860287 
1313.811 11715473 11570837 11423617 11271871 11114533 10951350 10782732 
1317.187 10609451 10432408 10252456 10070222 9886122 9700446 9513428 9325483 
1321.044 9137197 8949475 8763378 8580121 8401004 8227370 8060614 7902258 
1324.901 7754006 7617805 7495789 7390280 7303735 7238640 7197751 7183961 
1328.759 7200513 7250920 7338846 7467884 7641075 7860372 8126233 8437108 
1332.616 8789235 9176529 9590726 10021561 10457031 10883913 11288370 
1335.991 11656658 11976060 12235759 12427580 12546530 12590887 12562212 
1339.367 12464856 12305551 12092604 11835362 11543418 11226103 10891909 
1342.742 10548345 10201741 9857362 9519541 9191778 8876899 8577145 8294099 
1346.599 8028838 7781906 7553469 7343413 7151498 6977401 6820754 6680991 
1350.457 6557364 6448785 6353966 6271465 6199919 6138241 6085681 6041897 
1354.314 6006774 5980218 5962099 5952092 5949843 5955092 5967890 5988740 
1358.172 6018633 6059029 6111668 6178463 6261332 6362124 6482566 6624222 
1362.029 6788268 6975380 7185490 7417658 7669864 7938939 8220672 8509792 
1365.886 8800192 9085233 9358183 9612684 9843370 10046361 10219438 10362114 
1369.744 10475405 10561298 10622342 10661106 10679892 10680530 10664345 
1373.119 10632241 10584902 10522865 10446777 10357510 10256217 10144396 
1376.494 10023893 9896834 9765654 9633010 9501799 9375022 9255763 9146997 
1380.352 9051438 8971313 8908173 8862798 8835218 8824783 8830424 8850865 
1384.209 8884785 8930854 8987685 9053557 9126414 9203736 9282805 9361000 
1388.067 9436191 9506996 9572912 9634182 9691463 9745564 9797201 9847007 
1391.924 9895653 9944080 9993824 10047071 10106695 10176028 10258599 
1395.299 10357841 10476989 10619020 10786851 10983441 11212110 11476594 
1398.675 11781208 12130736 12530503 12986268 13504188 14090639 14751893 
1402.050 15493479 16319303 17230178 18222194 19284838 20399280 21537156 
1405.425 22660292 23721800 24668692 25445968 26001930 26293718 26292502 
1408.800 25987164 25385848 24515142 23416800 22142972 20750596 19295972 
1412.176 17830452 16397358 15030558 13754030 12582546 11522814 10575080 
1415.551 9734732 8994097 8343985 7774884 7277909 6845135 6469657 6145232 
1419.408 5865932 5625935 5419545 5241437 5087104 4953246 4837921 4740409 
1423.266 4660718 4599049 4555219 4528470 4517526 4521000 4537857 4567738 
1427.123 4611020 4668562 4741262 4829630 4933581 5052340 5184846 5329893 
1430.980 5486320 5653002 5828779 6012191 6201485 6394865 6590681 6787713 
1434.838 6985324 7183240 7381248 7578744 7774501 7966683 8153219 8332366 
1438.695 8503233 8666243 8823144 8976983 9131703 9291750 9461591 9645307 
1442.553 9846240 10066593 10307186 10567296 10844687 11135878 11436535 
1445.928 11741877 12047111 12347573 12638679 12915738 13173711 13407098 
1449.303 13609932 13776097 13899809 13976239 14002246 13976955 13902028 
1452.678 13781638 13621718 13429356 13211778 12975769 12727520 12472570 
1456.054 12216040 11962681 11716766 11481694 11259597 11051168 10855725 
1459.429 10671590 10496732 10329234 10167670 10011179 9859281 9711573 
1462.804 9567466 9425998 9285945 9146015 9005104 8862480 8717795 8571124 
1466.662 8422736 8273052 8122598 7972005 7821946 7673173 7526210 7381161 
1470.519 7237512 7093936 6948505 6798958 6643239 6480046 6309234 6131945 
1474.376 5950465 5767840 5587289 5411681 5243134 5082745 4930598 4785960 
1478.234 4647578 4514088 4384303 4257503 4133416 4012217 3894373 3780415 
1482.091 3670846 3566074 3466316 3371795 3282665 3199104 3121288 3049282 
1485.949 2982967 2922073 2866118 2814668 2767360 2724083 2685117 2650961 
1489.806 2622327 2599897 2584209 2575543 2574036 2579771 2593024 2614379 
1493.664 2644863 2685899 2739201 2806674 2890192 2991608 3112945 3256681 
1497.521 3426184 3626134 3862707 4143313 4475548 4865622 5315986 5822976 
1501.378 6374682 6949994 7519067 8045566 8490641 8817954 8998998 9017757 
1505.236 8873489 8581065 8168363 7671555 7129242 6576938 6043300 5548355 
1509.093 5103696 4713955 4378780 4094732 3856700 3658876 3495342 3360455 
1512.951 3249201 3157289 3081365 3018934 2968190 2927810 2896624 2873362 
1516.808 2856729 2845300 2837856 2833427 2831506 2832017 2835102 2840954 
1520.666 2849546 2860427 2872791 2885522 2897467 2907717 2915754 2921537 
1524.523 2925402 2927916 2929656 2931057 2932222 2933037 2933090 2931778 
1528.380 2928453 2922468 2913234 2900305 2883330 2862233 2837127 2808420 
1532.238 2776791 2743173 2708742 2674709 2642233 2612259 2585388 2561859 
1536.095 2541522 2524075 2509150 2496498 2486072 2478069 2472750 2470269 
1539.953 2470513 2472982 2476828 2480985 2484391 2486154 2485727 2482784 
1543.810 2477344 2469532 2459700 2448327 2436073 2423915 2412876 2403985 
1547.667 2397974 2395106 2395103 2397162 2400334 2403711 2406769 2409429 
1551.525 2412000 2414999 2418890 2423967 2430253 2437652 2445943 2455009 
1555.382 2464760 2475149 2486063 2497414 2509137 2521244 2533950 2547635 
1559.240 2562688 2579397 2597853 2617926 2639426 2662264 2686608 2712861 
1563.097 2741599 2773263 2808113 2846089 2887083 2931088 2978518 3030323 
1566.955 3087821 3152444 3225499 3307954 3400418 3503488 3617996 3745206 
1570.812 3886808 4044633 4220198 4414290 4626643 4855862 5099269 5352883 
1574.669 5611209 5867014 6111192 6333101 6521325 6664780 6754143 6782923 
1578.527 6748263 6651137 6496075 6290596 6044448 5768691 5474763 5173717 
1582.384 4875515 4588523 4319317 4072586 3851239 3656551 3488410 3345593 
1586.242 3226046 3127122 3045779 2978830 2923149 2875969 2835037 2798842 
1590.099 2766621 2738180 2713652 2693094 2676323 2662776 2651631 2642044 
1593.957 2633478 2625863 2619610 2615489 2614319 2616784 2623222 2633612 
1597.814 2647721 2665225 2685859 2709536 2736244 2766051 2798951 2834875 
1601.671 2873625 2914965 2958664 3004544 3052612 3102985 3155910 3211699 
1605.529 3270766 3333482 3400152 3470940 3545825 3624485 3706295 3790228 
1609.386 3874890 3958584 4039445 4115561 4185176 4246754 4298952 4340528 
1613.244 4370056 4385852 4385978 4368564 4332306 4277073 4204430 4117755 
1617.101 4021963 3922734 3825603 3735157 3654566 3585456 3528060 3481689 
1620.958 3445033 3416507 3394444 3377235 3363573 3352473 3343470 3336557 
1624.816 3332118 3330702 3332735 3338321 3347166 3358662 3371965 3386341 
1628.673 3401085 3415725 3429844 3443134 3455253 3466007 3475440 3483833 
1632.531 3491817 3500153 3509545 3520468 3532974 3546743 3561256 3575904 
1636.388 3590376 3604487 3618322 3632088 3645960 3660151 3674781 3690079 
1640.246 3706351 3723923 3743068 3763891 3786211 3809525 3833113 3856221 
1644.103 3878140 3898491 3917354 3935258 3953141 3972169 3993543 4018150 
1647.960 4046424 4078142 4112552 4148549 4184971 4221020 4256351 4291277 
1651.818 4326581 4363242 4402212 4444196 4489551 4538439 4590973 4647290 
1655.675 4707686 4772446 4841825 4916005 4995122 5079413 5169294 5265282 
1659.533 5367946 5477691 5594527 5718131 5847928 5983353 6124181 6270520 
1663.390 6422770 6581289 6746052 6916532 7091703 7270394 7451651 7635057 
1667.248 7820865 8009756 8202430 8399344 8600362 8804838 9011782 9220194 
1671.105 9429406 9639205 9849938 10062466 10277981 10497895 10723592 
1674.480 10956124 11195975 11442821 11695597 11952686 12212446 12473640 
1677.855 12735644 12998585 13262922 13529073 13797042 14066432 14336580 
1681.231 14607084 14878109 15150538 15425724 15705056 15989548 16279674 
1684.606 16575690 16878144 17188514 17509388 17844280 18196918 18570582 
1687.981 18967546 19389188 19836358 20310168 20812548 21346432 21915560 
1691.356 22523974 23175598 23874372 24624520 25431230 26300756 27240028 
1694.732 28255722 29353150 30535800 31805866 33166078 34621988 36183552 
1698.107 37865516 39685676 41661896 43808896 46135988 48647352 51344384 
1701.482 54229676 57310484 60599808 64114856 67873064 71887312 76162176 
1704.857 80692184 85462224 90448896 95621616 100941920 106361488 111820088 
1708.233 117245224 122554816 127662072 132480656 136927344 140923040 
1711.126 144392592 147267728 149494416 151042240 151911952 152134960 
1714.019 151764608 150862928 149489072 147694400 145524864 143026928 
1716.912 140252416 137259184 134106424 130848216 127528440 124178992 
1719.805 120821944 117473104 114145544 110851016 107599888 104400120 
1722.698 101256600 98171632 95146504 92182960 89284040 86453608 83694984 
1726.073 81009312 78394880 75847376 73361472 70932552 68558136 66238160 
1729.448 63973884 61766452 59615208 57516980 55466400 53457068 51483064 
1732.824 49540520 47628240 45747548 43901448 42093168 40325248 38598488 
1736.199 36912180 35264372 33652728 32075304 30531290 29021332 27547696 
1739.574 26113960 24724578 23384256 22097226 20866798 19695042 18582728 
1742.949 17529586 16534746 15597315 14716738 13892798 13125537 12414538 
1746.325 11758532 11154924 10599982 10089201 9618087 9182769 8780359 8408800 
1750.182 8066480 7751758 7462559 7196414 6950697 6723076 6511689 6315190 
1754.040 6132469 5962368 5803515 5654388 5513637 5380485 5254874 5137358 
1757.897 5028689 4929215 4838549 4755380 4677737 4603528 4530998 4459198 
1761.754 4387916 4317775 4249662 4184509 4123017 4065517 4011887 3961647 
1765.612 3913993 3868066 3823071 3778527 3734447 3691414 3650256 3611857 
1769.469 3576613 3544394 3514431 3485593 3456849 3427541 3397530 3367231 
1773.327 3337161 3307878 3279560 3252231 3225860 3200490 3176340 3153699 
1777.184 3132550 3112615 3093171 3073371 3052592 3030813 3008593 2986998 
1781.042 2967147 2949693 2934612 2921231 2908484 2895351 2881207 2865904 
1784.899 2849706 2832956 2815871 2798503 2780706 2762413 2743660 2724644 
1788.756 2705628 2686760 2667972 2649142 2630233 2611435 2593244 2576386 
1792.614 2561444 2548799 2538218 2529142 2520892 2512884 2504890 2496973 
1796.471 2489310 2482098 2475245 2468488 2461494 2454115 2446425 2438651 
1800.329 2430984 2423437 2415709 2407367 2398023 2387666 2376756 2366045 
1804.186 2356438 2348528 2342500 2337967 2334325 2330712 2326295 2320462 
1808.043 2312555 2302218 2289273 2274114 2257734 2241694 2227741 2217129 
1811.901 2210050 2205314 2200663 2193495 2182054 2166246 2147942 2130628 
1815.758 2118153 2113524 2117813 2129984 2147449 2167186 2186919 2205712 
1819.616 2223794 2241777 2259618 2276180 2289281 2296468 2295932 2287338 
1823.473 2271869 2251862 2229928 2208157 2187686 2168689 2150750 2133378 
1827.331 2116248 2099468 2083304 2068099 2054226 2041953 2031678 2023689 
1831.188 2017924 2013799 2009990 2004584 1995589 1981600 1962331 1938915 
1835.045 1913544 1888754 1866530 1847750 1831985 1817996 1804389 1790378 
1838.903 1776007 1762104 1749667 1739256 1730643 1722724 1713910 1702548 
1842.760 1687478 1668206 1644850 1618091 1588939 1558579 1528390 1499829 
1846.618 1474211 1452595 1435348 1422165 1412095 1403872 1396343 1388936 
1850.475 1381701 1375217 1370084 1366602 1364393 1362519 1359650 1354707 
1854.333 1346906 1336252 1323313 1309045 1294503 1280543 1267754 1256310 
1858.190 1245981 1236230 1226331 1215439 1202917 1188445 1172322 1155562 
1862.047 1139635 1126381 1117422 1113824 1115728 1122061 1130690 1138723 
1865.905 1142917 1140522 1129821 1110685 1084933 1055827 1027650 1004711 
1869.762 990301 986128 991941 1005936 1025309 1046959 1068154 1086799 
1873.620 1101292 1110721 1114489 1112660 1105840 1095401 1083093 1070699 
1877.477 1059220 1048619 1037737 1024896 1008911 989977 970104 952911 942359 
1881.817 941535 951227 969611 992594 1015120 1032701 1042755 1044996 1041359 
1886.156 1034935 1029009 1026265 1028154 1035062 1046201 1060042 1074564 
1890.014 1087440 1096629 1100852 1100053 1095683 1090275 1086695 1087150 
1893.871 1092209 1100654 1110046 1117623 1121613 1121866 1119756 1117161 
1897.729 1115201 1113215 1108722 1098232 1078791 1049646 1012936 973387 
1901.586 936857 908398 890721 883445 883848 888184 893289 897873 902516 
1905.926 908906 918549 931771 947372 963111 976879 987826 996718 1005712 
1910.265 1017197 1032561 1051014 1069993 1085699 1094641 1095045 1087561 
1914.123 1074920 1060734 1048225 1038984 1032824 1028269 1023981 1019916 
1917.980 1017915 1021099 1032517 1053376 1081630 1112028 1137033 1149013 
1921.837 1142529 1116205 1073270 1020826 968003 923767 894820 884297 891863 
1926.177 913975 945097 979152 1010187 1033533 1046174 1047400 1038917 
1930.034 1024558 1009645 1000068 1000660 1014269 1040792 1076956 1117015 
1933.892 1153463 1178621 1185981 1171516 1134769 1079453 1013247 946691 
1937.749 891262 856950 849908 870774 914683 972558 1033880 1089835 1135546 
1942.089 1171041 1200731 1230837 1267140 1312693 1366955 1426147 1484531 
1945.946 1536095 1576093 1601454 1611333 1606371 1588362 1559377 1520648 
1949.804 1472518 1413956 1343566 1260994 1169072 1075241 991501 932420 
1953.661 910938 933542 996523 1085219 1177046 1248225 1281846 1274105 
1957.519 1236492 1192812 1170431 1190852 1259702 1363989 1475082 1557534 
1961.376 1580535 1527926 1402084 1223209 1021999 830934 676538 573429 523502 
1965.716 517504 539282 571361 598670 612637 611743 601337 590841 590381 
1970.055 607688 645654 701549 768000 835484 894575 937911 961684 965616 
1974.395 953223 931300 910570 904851 929229 996353 1112865 1274466 1466727 
1978.734 1667693 1854631 2010214 2125329 2199163 2235666 2239620 2214912 
1982.592 2163110 2086236 1988832 1879423 1769068 1668812 1584865 1515730 
1986.449 1452146 1380779 1290064 1175642 1043284 907889 787932 699116 648962 
1990.789 634892 646963 672262 700542 727100 752326 778999 808313 837571 
1995.128 860370 869193 858996 829678 786300 737302 690811 652361 623035 
1999.468 600449 580319 559190 535328 509373 483840 462371 449427 450269 
2003.808 469927 513008 580468 668289 765746 857613 927422 963578 963830 
2008.147 936517 897116 863556 849084 858804 889632 932236 976161 1012684 
2012.487 1036519 1045784 1040222 1020783 989526 950935 913145 887046 883014 
2016.826 906671 954302 1011660 1056675 1064868 1016710 903989 731519 516517 
2021.166 282824 55947 -142088 -295910 -398339 -449544 -458011 -437945 
2025.023 -409605 -395574 -414905 -478298 -582642 -710357 -833596 -921699 
2028.881 -952147 -917207 -827060 -705725 -583523 -486946 -431639 -418507 
2032.738 -436146 -465163 -485011 -479348 -439975 -366425 -265557 -148883 
2036.596 -30514 76063 161210 220636 257435 281667 306324 344922 405121 
2040.935 487146 583071 679778 763265 823215 855353 862256 850307 827589 
2045.275 800982 775971 756843 749122 759566 795916 864039 964805 1092107 
2049.615 1232891 1370590 1489752 1579649 1635853 1659986 1657528 1635503 
2053.472 1599756 1554084 1500210 1438497 1370249 1298359 1228565 1168425 
2057.329 1125904 1107073 1114265 1144575 1190597 1241438 1285725 1314055 
2061.187 1321486 1308140 1279013 1242191 1206564 1179921 1167683 1172169 
2065.044 1192861 1226663 1268970 1313575 1353835 1383273 1397060 1393488 
2068.902 1374794 1347027 1319186 1300353 1297621 1313576 1345830 1388018 
2072.759 1431851 1470040 1498469 1516721 1527728 1535769 1544471 1555222 
2076.616 1566903 1576265 1579553 1573564 1556951 1530349 1496099 1457701 
2080.474 1418832 1382608 1351451 1326497 1307840 1294567 1285162 1278324 
2084.331 1273122 1269507 1268197 1270137 1276151 1285807 1297356 1307507 
2088.189 1312042 1306483 1287187 1252000 1201273 1137910 1067777 999096 
2092.046 941752 905710 899328 927160 988583 1077021 1180661 1284873 1375300 
2096.386 1440804 1475953 1481173 1461854 1425963 1382261 1338213 1299608 
2100.243 1270343 1253161 1249595 1260570 1285480 1322127 1366323 1412599 
2104.101 1454867 1488045 1508996 1517441 1515817 1508479 1500237 1494852 
2107.958 1493703 1495480 1496397 1491710 1477408 1451884 1416845 1377094 
2111.815 1338969 1308552 1289227 1280801 1279318 1278743 1273124 1258543 
2115.673 1234117 1201780 1164716 1125968 1087062 1047992 1008459 969266 
2119.530 932902 903658 885298 879178 882031 886008 880324 855041 804301 
2123.870 729320 637815 541998 454247 383321 331731 296037 268886 242593 
2128.209 211553 173867 130557 83842 35393 -14682 -66820 -120357 -172011 
2132.549 -214912 -240270 -239951 -209697 -151803 -75013 7316 80859 134360 
2136.889 161812 163615 145042 114192 79706 48756 25774 11913 4582 -1858 
2141.710 -15311 -44540 -97484 -178073 -285418 -412450 -546919 -673648 
2145.568 -776804 -843956 -867809 -848170 -791761 -710386 -618508 -530208 
2149.425 -456320 -403152 -372882 -365435 -382257 -428825 -516390 -660724 
2153.283 -877493 -1175087 -1547975 -1972265 -2405251 -2790940 -3070812 
2156.658 -3195430 -3137012 -2898014 -2513755 -2043718 -1557581 -1115195 
2160.033 -752348 -475975 -270696 -112346 21491 142957 252124 340984 397057 
2164.373 410606 379034 309014 214608 113975 23622 -44889 -88321 -110106 
2168.712 -118126 -121188 -127016 -140521 -165288 -205227 -264764 -348836 
2172.570 -458984 -590777 -731000 -857787 -945238 -970322 -921234 -802321 
2176.427 -634302 -449694 -283891 -166156 -114268 -131431 -208718 -327939 
2180.285 -465524 -596120 -695063 -741252 -720631 -629879 -478463 -288452 
2184.142 -90471 83521 208937 275323 288511 268303 241450 232777 258027 
2188.482 320137 409779 510520 603760 674617 714032 719339 693122 641508 
2192.821 573276 499205 430656 379205 352353 352197 373715 405616 433966 
2197.161 447335 441003 419840 396910 389490 413412 477376 580354 711380 
2201.500 852490 983453 1085828 1146456 1159180 1124184 1047273 938309 809384 
2205.840 673658 543674 429944 340383 279276 247416 242804 261035 296755 
2210.180 343813 395864 447407 494079 533749 566571 594860 622534 653004 
2214.519 688198 727649 768576 806762 838223 860414 872877 876552 873397 
2218.859 865479 854472 842200 831363 825911 830247 848308 881232 926515 
2223.198 977271 1023988 1056851 1068341 1055789 1021664 972672 918031 866316 
2227.538 824156 794722 778049 772135 773628 779552 787938 798571 812752 
2231.878 833235 863133 904619 957649 1019271 1083953 1144644 1194948 1231066 
2236.217 1252981 1264137 1270087 1275912 1284790 1296431 1308004 1315566 
2240.075 1315856 1307577 1291642 1269992 1244801 1217207 1187621 1156528 
2243.932 1125635 1098671 1080773 1077011 1090311 1120016 1161214 1206201 
2247.790 1246513 1275439 1289709 1290144 1280753 1267236 1255255 1249593 
2251.647 1253420 1268443 1295052 1332107 1376953 1425211 1471351 1509702 
2255.504 1535732 1547883 1547363 1538153 1525520 1514016 1506361 1502792 
2259.362 1501668 1500795 1498674 1495328 1492315 1491659 1494983 1502526 
2263.219 1512760 1523243 1531377 1535705 1536573 1536252 1538142 1545891 
2267.077 1561757 1585991 1616382 1648577 1677231 1697667 1707080 1705904 
2270.934 1697478 1687840 1683443 1689307 1707447 1736092 1770340 1804115 
2274.792 1832220 1852431 1866230 1878009 1893322 1916560 1949047 1988660 
2278.649 2030316 2067942 2096480 2113290 2118616 2115072 2106160 2095098 
2282.506 2084025 2073759 2064371 2055713 2048018 2041827 2037644 2035732 
2286.364 2035658 2036722 2037932 2038695 2038791 2038401 2037661 2036208 
2290.221 2033129 2027112 2016739 2001227 1980520 1955508 1927472 1897805 
2294.079 1867407 1836874 1806538 1776935 1749286 1725327 1706953 1695603 
2297.936 1691514 1693341 1698205 1702505 1702808 1696692 1683503 1664472 
2301.793 1642141 1619915 1601204 1588722 1584332 1588689 1601374 1620980 
2305.651 1645142 1670888 1694949 1714414 1727225 1732636 1731496 1725911 
2309.508 1718650 1712430 1709353 1710310 1715107 1722727 1731777 1741073 
2313.366 1749797 1757916 1766000 1775165 1786911 1802710 1823612 1849719 
2317.223 1879957 1912086 1943253 1971033 1994632 2015736 2038509 2068500 
2321.081 2110565 2166252 2232060 2298740 2352941 2380311 2369335 2314580 
2324.938 2218240 2089778 1943890 1797236 1665177 1558684 1482803 1436292 
2328.795 1413043 1404376 1401551 1398006 1390325 1378382 1364360 1351485 
2332.653 1342719 1339973 1343532 1352400 1364500 1377392 1388870 1397333 
2336.510 1402080 1403327 1401874 1398856 1395264 1391679 1388210 1384621 
2340.368 1380615 1375986 1371095 1366486 1363032 1361471 1362200 1365117 
2344.225 1369696 1375080 1380380 1384823 1387992 1389932 1390990 1391978 
2348.083 1393809 1397417 1403440 1412078 1422821 1434683 1446274 1456243 
2351.940 1463506 1467664 1468827 1467649 1464848 1461057 1456560 1451500 
2355.797 1445907 1439948 1434066 1428855 1424791 1421976 1419969 1417842 
2359.655 1414398 1408496 1399506 1387318 1372478 1355953 1338932 1322716 
2363.512 1308486 1297323 1290106 1287426 1289378 1295452 1304394 1314445 
2367.370 1323683 1330390 1333570 1333086 1329795 1325365 1321848 1321401 
2371.227 1325856 1336362 1353085 1375147 1400482 1426184 1449039 1466186 
2375.084 1475903 1478039 1473987 1466251 1457562 1450037 1444626 1441059 
2378.942 1438386 1435968 1433732 1432735 1434569 1440452 1450603 1463616 
2382.799 1476653 1486524 1490510 1487550 1478369 1465241 1451108 1438510 
2386.657 1428971 1422949 1420173 1420348 1423675 1430800 1442343 1458285 
2390.514 1477200 1496382 1512079 1520514 1519107 1507073 1485953 1459110 
2394.372 1431065 1406401 1388844 1380508 1381671 1390865 1405241 1421315 
2398.229 1435545 1445068 1448252 1444674 1435103 1420990 1403865 1385019 
2402.086 1365258 1345089 1325286 1307222 1292983 1285153 1286008 1296731 
2405.944 1316605 1342919 1371327 1397029 1415939 1425831 1426724 1420762 
2409.801 1411238 1401686 1394503 1390693 1389611 1389492 1388118 1383647 
2413.659 1374954 1362052 1345605 1326748 1306606 1286022 1265409 1245044 
2417.516 1225217 1206473 1189758 1176321 1167453 1164029 1166377 1174128 
2421.374 1186313 1201725 1219095 1237294 1255463 1272781 1288352 1301198 
2425.231 1310398 1315337 1315973 1313035 1307825 1301855 1296436 1292010 
2429.088 1288193 1284024 1278289 1270253 1260047 1248663 1237758 1229074 
2432.946 1223944 1222726 1224992 1229470 1234627 1239034 1241770 1242531 
2436.803 1241518 1239354 1236731 1234164 1232054 1230335 1228828 1227337 
2440.661 1225616 1223895 1222295 1221014 1219871 1218254 1215095 1209258 
2444.518 1200060 1187696 1173650 1160362 1150627 1146756 1149728 1158981 
2448.375 1172496 1187831 1202927 1216636 1228923 1240410 1251386 1261372 
2452.233 1268807 1271827 1268820 1259609 1245689 1229807 1215148 1204072 
2456.090 1197371 1194256 1192893 1191341 1188535 1184461 1179792 1175022 
2459.948 1169797 1162502 1150919 1132944 1107944 1077278 1044276 1013365 
2463.805 988910 974024 969946 976021 990311 1010068 1032518 1055098 1075436 
2468.145 1091465 1101528 1104644 1100900 1091466 1078424 1064271 1051247 
2472.002 1040916 1033906 1030253 1029643 1031797 1036542 1043475 1051795 
2475.860 1060143 1066788 1070311 1070254 1067394 1063721 1061713 1063371 
2479.717 1069337 1078758 1089436 1098758 1104595 1106006 1103313 1097742 
2483.574 1090823 1083894 1077818 1073204 1070418 1069910 1071773 1075643 
2487.432 1080463 1084594 1086179 1084215 1078977 1072312 1067311 1067068 
2491.289 1073710 1087552 1106772 1128023 1147650 1162519 1170914 1172761 
2495.147 1169210 1162223 1153963 1146646 1142352 1142873 1149493 1162491 
2499.004 1180785 1201962 1222396 1238326 1246719 1246323 1237751 1223156 
2502.862 1205564 1187716 1171256 1156688 1143550 1131046 1118597 1106111 
2506.719 1093924 1082623 1072745 1064895 1059653 1057926 1060740 1069057 
2510.576 1083156 1102348 1124795 1147987 1169552 1188040 1203600 1217820 
2514.434 1233227 1252029 1275092 1301618 1328988 1353724 1372546 1383343 
2518.291 1385805 1381185 1371856 1360512 1349343 1339675 1332008 1326149 
2522.149 1321767 1318636 1316866 1316982 1319536 1325045 1333809 1345431 
2526.006 1359185 1373794 1387842 1399997 1409087 1414591 1416355 1414893 
2529.864 1411062 1406100 1401238 1397793 1396760 1398606 1403249 1409867 
2533.721 1417219 1423876 1428647 1431106 1431616 1431225 1431301 1432850 
2537.578 1436393 1441556 1447574 1453645 1459326 1464746 1470363 1476564 
2541.436 1483193 1489501 1494129 1495950 1494303 1489589 1482925 1475737 
2545.293 1469120 1463424 1458033 1452308 1445717 1438661 1432288 1428153 
2549.151 1427320 1429884 1434647 1439841 1443744 1445713 1446474 1447870 
2553.008 1451974 1460178 1472337 1486750 1500836 1511976 1518631 1520531 
2556.865 1518654 1514740 1510550 1507458 1506402 1508198 1513692 1523608 
2560.723 1538269 1557093 1578079 1598225 1613988 1622391 1622007 1613390 
2564.580 1599005 1582339 1566852 1555067 1548168 1546027 1547723 1552086 
2568.438 1558073 1564882 1571823 1578172 1583357 1586980 1589170 1590764 
2572.295 1593008 1597292 1604554 1615003 1627983 1642250 1656481 1669532 
2576.153 1680822 1690176 1697618 1703190 1706778 1708390 1708310 1707198 
2580.010 1706232 1706516 1709093 1714223 1721606 1730390 1739543 1748240 
2583.867 1756070 1762999 1768940 1773708 1776780 1777346 1774639 1768308 
2587.725 1758709 1746930 1734703 1723728 1715589 1711107 1710267 1712232 
2591.582 1715559 1718616 1719860 1718444 1714349 1708498 1702515 1698214 
2595.440 1697159 1700059 1706741 1715942 1725977 1735239 1742660 1747933 
2599.297 1751555 1754469 1757647 1761876 1767630 1775042 1784173 1794780 
2603.155 1806557 1818831 1830575 1840711 1848307 1853142 1855758 1857489 
2607.012 1859878 1863929 1869605 1875644 1880095 1881014 1877564 1870577 
2610.869 1862647 1857178 1857318 1864806 1879178 1898057 1917949 1935464 
2614.727 1948511 1956681 1961256 1964325 1967853 1972866 1979142 1985464 
2618.584 1990298 1992395 1991384 1987828 1982955 1978300 1975218 1974626 
2622.442 1976890 1981993 1989610 1999327 2010712 2023156 2036101 2048821 
2626.299 2060529 2070540 2078225 2083314 2085771 2085799 2083893 2080416 
2630.156 2075845 2070448 2064374 2057712 2050595 2043246 2036036 2029410 
2634.014 2023776 2019358 2016165 2013841 2011988 2010133 2008055 2005808 
2637.871 2003676 2002005 2001143 2001152 2001990 2003281 2004716 2005847 
2641.729 2006463 2006304 2005173 2002865 1999318 1994628 1989384 1984397 
2645.586 1980861 1979911 1982172 1987691 1995621 2004563 2012831 2019039 
2649.444 2022372 2022910 2021366 2018855 2016514 2015066 2014600 2014868 
2653.301 2015154 2014831 2013469 2010944 2007496 2003518 1999333 1995146 
2657.158 1990815 1985927 1979881 1972086 1962201 1950305 1936749 1922301 
2661.016 1907778 1893889 1880955 1868816 1856996 1844833 1831823 1817887 
2664.873 1803463 1789501 1777160 1767569 1761492 1759065 1759867 1762986 
2668.731 1767309 1771597 1774863 1776405 1775882 1773425 1769396 1764492 
2672.588 1759506 1755175 1752128 1750637 1750610 1751655 1753185 1754636 
2676.446 1755528 1755583 1754755 1753054 1750514 1747134 1742907 1737922 
2680.303 1732376 1726701 1721476 1717313 1714726 1713853 1714423 1715759 
2684.160 1716997 1717116 1715357 1711431 1705506 1698244 1690681 1683938 
2688.018 1678954 1676454 1676664 1679451 1684327 1690661 1697802 1705146 
2691.875 1712139 1718266 1723002 1725773 1726137 1723809 1718881 1711849 
2695.733 1703645 1695384 1688255 1683253 1680952 1681415 1684301 1688893 
2699.590 1694358 1699725 1704223 1707196 1708282 1707488 1705131 1701846 
2703.448 1698532 1696018 1694984 1695613 1697698 1700593 1703498 1705658 
2707.305 1706717 1706757 1706378 1706399 1707705 1710896 1716248 1723507 
2711.162 1732191 1741617 1751146 1760243 1768567 1775900 1782122 1787013 
2715.020 1790372 1791932 1791556 1789379 1785666 1781166 1776719 1773277 
2718.877 1771570 1771903 1774056 1777371 1780898 1783658 1785054 1784849 
2722.735 1783370 1781304 1779366 1778233 1778301 1779678 1782312 1786057 
2726.592 1790775 1796321 1802428 1808620 1814163 1818192 1819946 1819019 
2730.449 1815684 1810859 1806015 1802768 1802526 1806034 1813157 1822950 
2734.307 1833851 1844150 1852271 1857211 1858689 1857119 1853476 1849040 
2738.164 1845062 1842558 1842053 1843622 1846952 1851556 1856974 1862928 
2742.022 1869513 1877014 1885865 1896319 1908235 1921174 1934211 1946292 
2745.879 1956391 1963792 1968245 1969886 1969297 1967245 1964470 1961629 
2749.737 1959213 1957537 1956843 1957232 1958836 1961793 1966206 1972133 
2753.594 1979537 1988242 1997871 2007864 2017556 2026183 2033040 2037604 
2757.451 2039624 2039135 2036470 2032233 2027084 2021719 2016770 2012630 
2761.309 2009483 2007275 2005736 2004532 2003402 2002224 2001307 2001219 
2765.166 2002778 2006892 2014064 2024371 2037096 2050919 2064048 2074804 
2769.024 2081830 2084620 2083442 2079406 2073967 2068564 2064187 2061219 
2772.881 2059448 2058216 2056733 2054453 2051313 2047676 2044365 2042306 
2776.739 2042352 2044859 2049679 2056158 2063267 2069910 2075150 2078584 
2780.596 2080444 2081320 2082291 2084340 2088125 2093881 2101375 2109952 
2784.453 2118917 2127688 2136040 2144001 2151796 2159603 2167498 2175293 
2788.311 2182752 2189677 2196116 2202463 2209198 2216915 2225823 2235892 
2792.168 2246644 2257589 2268284 2278663 2289065 2299933 2311694 2324272 
2796.026 2337099 2349159 2359390 2367140 2372463 2376200 2379834 2384803 
2799.883 2392168 2402203 2414410 2427807 2441417 2454692 2467518 2480303 
2803.740 2493311 2506533 2519334 2530613 2539144 2544127 2545495 2544061 
2807.598 2541202 2538618 2537648 2538948 2542644 2548338 2555592 2564029 
2811.455 2573611 2584471 2596650 2609938 2623871 2637618 2650390 2661576 
2815.313 2670955 2678650 2685213 2691330 2697850 2705508 2715077 2727163 
2819.170 2742291 2760741 2782536 2807363 2834701 2863795 2893949 2924493 
2823.028 2955046 2985368 3015380 3045160 3074967 3105222 3136572 3169784 
2826.885 3205689 3244954 3287958 3334862 3385509 3439673 3497178 3557914 
2830.742 3621985 3689299 3759690 3832671 3907705 3984333 4062527 4142981 
2834.600 4227131 4316967 4414651 4522288 4641442 4773072 4917740 5075715 
2838.457 5247348 5433292 5634446 5852154 6087825 6342820 6618397 6915322 
2842.315 7234195 7575244 7938604 8324284 8732370 9162927 9615840 10090213 
2846.172 10584023 11093317 11611880 12131006 12639970 13126558 13578245 
2849.547 13983151 14331207 14614682 14828767 14971682 15044573 15051265 
2852.923 14997907 14892352 14743407 14560050 14350630 14122196 13880405 
2856.298 13629536 13372882 13113141 12852930 12594798 12341087 12093738 
2859.673 11854060 11622585 11399300 11183846 10975961 10775481 10582551 
2863.048 10397465 10220463 10051487 9890393 9736868 9590725 9451991 9320962 
2866.906 9198190 9084247 8979564 8884202 8797747 8719317 8647596 8581132 
2870.763 8518479 8458649 8401188 8346328 8295058 8248723 8208725 8176293 
2874.621 8152163 8136714 8130014 8132262 8143910 8165614 8198120 8241827 
2878.478 8296537 8361315 8434675 8514906 8600597 8690906 8785684 8885182 
2882.335 8989615 9098911 9212437 9329202 9448181 9568650 9690359 9813523 
2886.193 9938464 10065378 10193902 10323149 10451912 10579015 10703583 
2889.568 10825192 10943793 11059390 11171666 11279932 11383070 11479793 
2892.943 11569051 11650324 11723965 11791078 11853462 11913204 11972371 
2896.319 12032682 12095352 12160948 12229507 12300674 12374012 12449226 
2899.694 12526408 12606134 12689322 12777071 12870485 12970369 13077037 
2903.069 13190746 13311480 13439319 13574465 13717367 13868618 14028789 
2906.444 14198497 14378425 14569311 14772202 14988253 15218875 15465401 
2909.820 15729034 16010736 16311288 16631448 16972054 17333994 17717986 
2913.195 18124322 18552398 19000086 19463964 19939000 20419108 20897386 
2916.570 21366734 21820026 22250654 22652338 23019400 23346758 23630170 
2919.945 23866222 24052918 24189622 24277128 24317846 24315206 24273670 
2923.321 24197998 24092910 23962804 23811376 23641864 23457008 23259446 
2926.696 23051870 22837234 22618544 22398910 22181012 21966852 21757626 
2930.071 21553650 21354426 21158812 20965452 20772914 20580108 20386360 
2933.446 20191670 19996748 19802798 19611352 19423826 19241040 19063180 
2936.822 18889500 18718796 18549676 18381188 18212938 18045396 17879642 
2940.197 17716746 17557590 17402466 17250918 17101998 16954496 16807216 
2943.572 16659161 16509648 16358347 16205275 16050848 15895879 15741538 
2946.947 15589055 15439498 15293464 15150520 15009584 14868927 14726758 
2950.323 14581861 14433950 14283895 14133373 13984507 13839203 13698822 
2953.698 13563664 13433361 13306886 13182949 13060352 12938061 12815356 
2957.073 12691692 12566608 12439760 12310638 12178645 12043214 11903848 
2960.448 11760435 11613424 11463940 11313899 11165442 11020751 10881443 
2963.823 10747966 10619643 10494807 10371229 10246782 10120038 9990554 
2967.199 9858750 9725771 9593046 9461826 9333056 9207240 9084403 8964343 
2971.056 8846499 8730151 8614291 8498058 8380674 8261838 8141765 8021198 
2974.914 7901263 7783004 7667243 7554459 7444662 7337671 7233186 7130891 
2978.771 7030479 6931385 6832919 6734227 6634560 6533621 6431856 6330554 
2982.628 6231406 6136333 6046604 5962664 5883977 5809391 5737510 5667291 
2986.486 5598235 5530360 5463842 5398782 5334911 5271608 5208233 5144592 
2990.343 5081063 5018762 4959200 4903824 4853530 4808239 4767023 4728133 
2994.201 4689569 4649402 4606222 4559290 4508590 4454881 4399341 4343632 
2998.058 4289407 4238092 4190650 4147427 4108040 4071771 4037655 4004890 
3001.916 3972984 3941640 3910447 3878903 3845799 3809700 3769162 3723153 
3005.773 3671728 3616025 3558118 3500782 3446562 3397453 3354380 3317249 
3009.630 3285271 3257266 3232021 3208458 3185650 3162971 3139848 3115894 
3013.488 3090905 3064839 3037942 3010500 2982678 2954637 2926236 2897362 
3017.345 2867892 2838021 2808108 2778609 2750100 2722874 2697024 2672612 
3021.203 2649697 2628496 2609272 2592210 2577127 2563287 2549383 2534127 
3025.060 2516436 2496158 2474211 2452444 2433024 2417728 2407221 2400910 
3028.917 2396857 2392650 2386058 2375765 2361594 2344578 2326424 2308910 
3032.775 2293623 2281532 2273069 2268266 2266713 2267872 2270851 2274569 
3036.632 2277847 2279714 2279656 2277806 2275053 2272710 2272005 2273800 
3040.490 2278404 2285561 2294752 2305925 2319523 2336852 2359464 2388927 
3044.347 2425883 2469973 2519491 2571995 2624732 2675653 2723619 2768803 
3048.205 2812510 2856430 2902156 2950503 3001003 3051982 3100719 3144147 
3052.062 3179337 3204538 3219334 3224850 3223379 3217791 3210688 3203768 
3055.919 3197677 3192062 3185936 3178491 3169343 3159092 3148745 3139682 
3059.777 3132766 3128349 3125935 3124715 3123898 3123299 3123449 3125551 
3063.634 3130937 3140629 3154711 3172128 3191059 3209032 3223681 3233267 
3067.492 3236743 3233981 3225376 3211706 3193929 3172951 3149834 3125881 
3071.349 3102696 3081975 3065345 3053930 3048065 3047251 3050147 3055034 
3075.207 3060392 3065220 3069277 3073033 3077250 3082532 3088922 3095637 
3079.064 3101269 3104136 3102669 3096114 3084314 3068040 3048555 3027229 
3082.921 3005367 2983638 2962343 2941213 2919662 2897010 2872549 2846120 
3086.779 2818049 2789275 2761239 2735551 2713504 2695588 2681367 2669472 
3090.636 2658033 2645527 2631262 2615783 2600719 2588210 2580025 2576958 
3094.494 2578374 2582653 2587719 2591855 2594382 2595947 2597857 2601767 
3098.351 2608798 2619023 2631535 2644753 2656949 2666909 2673947 2678157 
3102.208 2680094 2680322 2679396 2677547 2674868 2671255 2666475 2660267 
3106.066 2652200 2641905 2629005 2613372 2595175 2574907 2553208 2530729 
3109.923 2507932 2485058 2462192 2439480 2417153 2395662 2375543 2357216 
3113.781 2340838 2326315 2313384 2301815 2291578 2282755 2275484 2269524 
3117.638 2264171 2258229 2250426 2239878 2226649 2212051 2198301 2188121 
3121.496 2183792 2186442 2195674 2209601 2225405 2240131 2251465 2258275 
3125.353 2260645 2259762 2257204 2254550 2252696 2251769 2250946 2248858 
3129.210 2243808 2234572 2220611 2202577 2182010 2161113 2142005 2126173 
3133.068 2113911 2104325 2095675 2086116 2074181 2059502 2042869 2025737 
3136.925 2009951 1996927 1987380 1981345 1978231 1977300 1977624 1978583 
3140.783 1979604 1980120 1979716 1978034 1975020 1970949 1966243 1961376 
3144.640 1956329 1950668 1943429 1933715 1921101 1906116 1890431 1876508 
3148.498 1866855 1863249 1866041 1874029 1884581 1894681 1901567 1903552 
3152.355 1900391 1893045 1883197 1872669 1862880 1854509 1847523 1841574 
3156.212 1836101 1830880 1826040 1821962 1819334 1818658 1820060 1823223 
3160.070 1827246 1830995 1833323 1833581 1831801 1828811 1825967 1824599 
3163.927 1825567 1828704 1832702 1835553 1835057 1829616 1818997 1804420 
3167.785 1788446 1774267 1764807 1761969 1766142 1776209 1789803 1804211 
3171.642 1816804 1825781 1830288 1830448 1826997 1821073 1813762 1806043 
3175.500 1798451 1791358 1784849 1778893 1773244 1767648 1761773 1755373 
3179.357 1748342 1740882 1733475 1726993 1722356 1720546 1722067 1727015 
3183.214 1734710 1743913 1753066 1760641 1765322 1766690 1765086 1761696 
3187.072 1758402 1757181 1759736 1767032 1778900 1793952 1809973 1824223 
3190.929 1834205 1838339 1836238 1828798 1817927 1805929 1794817 1786072 
3194.787 1780305 1777635 1777850 1780885 1786787 1795608 1807030 1820271 
3198.644 1833946 1846274 1855662 1861056 1862164 1859489 1853857 1846126 
3202.501 1836782 1826090 1814343 1802281 1791217 1783000 1779299 1781030 
3206.359 1787678 1797246 1806698 1812828 1813305 1807373 1795958 1781320 
3210.216 1766076 1752509 1741869 1734449 1729580 1726467 1724463 1723385 
3214.074 1723471 1725099 1728722 1734526 1742446 1752149 1762989 1773995 
3217.931 1783839 1790954 1793858 1791598 1784076 1772467 1758922 1746314 
3221.789 1737410 1734189 1737378 1746429 1759690 1775099 1790654 1804852 
3225.646 1816836 1826235 1832974 1837159 1838864 1838315 1835977 1832653 
3229.503 1829393 1827411 1827684 1830939 1837091 1845491 1854752 1863201 
3233.361 1869005 1870782 1867771 1860077 1848733 1835420 1821995 1810154 
3237.218 1800874 1794363 1790132 1787214 1784730 1782126 1779478 1777296 
3241.076 1776506 1777955 1782168 1789081 1798140 1808204 1817868 1825837 
3244.933 1830966 1832763 1831357 1827554 1822464 1817264 1812738 1808984 
3248.791 1805502 1801365 1795711 1788288 1779577 1770875 1763828 1759889 
3252.648 1759801 1763369 1769459 1776555 1783272 1788790 1792900 1795962 
3256.505 1798567 1801062 1803515 1805531 1806487 1805902 1803358 1798779 
3260.363 1792503 1785011 1777123 1769791 1764022 1760693 1760351 1762965 
3264.220 1767934 1774307 1780835 1786664 1791399 1795247 1798615 1802060 
3268.078 1805648 1809008 1811469 1812274 1811092 1808111 1803932 1799269 
3271.935 1794671 1790313 1785987 1781539 1777012 1772979 1770307 1769886 
3275.792 1772059 1776672 1782804 1789224 1794787 1798835 1801278 1802577 
3279.650 1803293 1804009 1805024 1806599 1808967 1812405 1817176 1823359 
3283.507 1830569 1837936 1844456 1849302 1852264 1853981 1855565 1858232 
3287.365 1862686 1868654 1874867 1879735 1881612 1879767 1874454 1866841 
3291.222 1858509 1851003 1845374 1842097 1841118 1842194 1844785 1848207 
3295.080 1851552 1853736 1853808 1851269 1846549 1841053 1836863 1836124 
3298.937 1840134 1849007 1861349 1875048 1887777 1898050 1905366 1910157 
3302.794 1913286 1915262 1915930 1914568 1910187 1902343 1891367 1878524 
3306.652 1865546 1854129 1845375 1839760 1837075 1837076 1839465 1844209 
3310.509 1851011 1859270 1867755 1874696 1878294 1877311 1871645 1862329 
3314.367 1851477 1841534 1834648 1832289 1834625 1840913 1849553 1858428 
3318.224 1865659 1869740 1870123 1867375 1863155 1860071 1860653 1866944 
3322.082 1879391 1896795 1916538 1935251 1949886 1958732 1961730 1960339 
3325.939 1956915 1953769 1952678 1954459 1959112 1966292 1975477 1986096 
3329.796 1997412 2008453 2018009 2025050 2029037 2030439 2030655 2031575 
3333.654 2034860 2041316 2050374 2060432 2069418 2075592 2078180 2077392 
3337.511 2074170 2069421 2063785 2057261 2049714 2041222 2032291 2023964 
3341.369 2017217 2012524 2009434 2006670 2002770 1996702 1988362 1978876 
3345.226 1969768 1962142 1956177 1950716 1943804 1933541 1919015 1900688 
3349.083 1880536 1861000 1844450 1832361 1825114 1822408 1823559 1828140 
3352.941 1835828 1846286 1858650 1871299 1882096 1888842 1890093 1885791 
3356.798 1877387 1867539 1859334 1855386 1857242 1864892 1877122 1891624 
3360.656 1905657 1916694 1922736 1922854 1917293 1907442 1895522 1884006 
3364.513 1874882 1869154 1866508 1865770 1865314 1864011 1861645 1859177 
3368.371 1858313 1860738 1867268 1877668 1890582 1904123 1916312 1925935 
3372.228 1932482 1936246 1937712 1937547 1936091 1933637 1930197 1925861 
3376.085 1920560 1914192 1906678 1898266 1889808 1882934 1879926 1883007 
3379.943 1893484 1910819 1932428 1953898 1970415 1978203 1975986 1965339 
3383.800 1950349 1935982 1926531 1924135 1928409 1937016 1946650 1954512 
3387.658 1959067 1960119 1958464 1955056 1950532 1945278 1939601 1934322 
3391.515 1930794 1930955 1936308 1947462 1963712 1982760 2001600 2017289 
3395.373 2027748 2032348 2032032 2028909 2025568 2024520 2027604 2035792 
3399.230 2048973 2066065 2085255 2104361 2121223 2134386 2143358 2148832 
3403.087 2152511 2156534 2163112 2173765 2189198 2209205 2232921 2259077 
3406.945 2286276 2312972 2337730 2359240 2376627 2389625 2398849 2405585 
3410.802 2411564 2418339 2426953 2437490 2449445 2462093 2474976 2488473 
3414.660 2503562 2521489 2543279 2569190 2598556 2630172 2662599 2694949 
3418.517 2726739 2757943 2788563 2818216 2846092 2871023 2891920 2908373 
3422.375 2920474 2929028 2934981 2939132 2941906 2943571 2944668 2946159 
3426.232 2949561 2956519 2968090 2984195 3003191 3022323 3038262 3048315 
3430.089 3051017 3046643 3036919 3024548 3012290 3002560 2996854 2995940 
3433.947 2999867 3008229 3020160 3034278 3048751 3061519 3070550 3074143 
3437.804 3071365 3062029 3046515 3025557 2999863 2969934 2936190 2899224 
3441.662 2859897 2819501 2779802 2742623 2709649 2682086 2660573 2645214 
3445.519 2635476 2630582 2629148 2629586 2629965 2628252 2622550 2611556 
3449.376 2594606 2572014 2545023 2515437 2485512 2457374 2432873 2413192 
3453.234 2398939 2389763 2384876 2382953 2382564 2382303 2381042 2378058 
3457.091 2372839 2365047 2354413 2340821 2324177 2304876 2283791 2262320 
3460.949 2242172 2225118 2212519 2205074 2202715 2204663 2209640 2216203 
3464.806 2222919 2228529 2232114 2233019 2231104 2226704 2220729 2214087 
3468.664 2207643 2201593 2195355 2187611 2176914 2162108 2143414 2122197 
3472.521 2101199 2083383 2071223 2065792 2066593 2071700 2078712 2085504 
3476.378 2091048 2095508 2099899 2105565 2113371 2123366 2134848 2146569 
3480.236 2157229 2165810 2171702 2174660 2174762 2172137 2167169 2160445 
3484.093 2152840 2145397 2139206 2135087 2133531 2134506 2137625 2142444 
3487.951 2148566 2155685 2163581 2171773 2179580 2186146 2190567 2192301 
3491.808 2191477 2189009 2186235 2184729 2185559 2189173 2195113 2202325 
3495.666 2209526 2215649 2220151 2223267 2225632 2228279 2232044 2237470 
3499.523 2244744 2253539 2263337 2273444 2283143 2291667 2298520 2303126 
3503.380 2305210 2304867 2302662 2299654 2297530 2298094 2303009 2313223 
3507.238 2328843 2348542 2370184 2391150 2408982 2422072 2430062 2433716 
3511.095 2434760 2435201 2436871 2440942 2447912 2457736 2469964 2483877 
3514.953 2498707 2513459 2527091 2538453 2546905 2552006 2554181 2554329 
3518.810 2553648 2552895 2552320 2551211 2548346 2542444 2532803 2519685 
3522.667 2504535 2489465 2476825 2468502 2465529 2468109 2475676 2487520 
3526.525 2502823 2520960 2541373 2563387 2586159 2608702 2630006 2649295 
3530.382 2666236 2680909 2693729 2705160 2715595 2725152 2733734 2740972 
3534.240 2746627 2750352 2752111 2752105 2750941 2749503 2749007 2750622 
3538.097 2755186 2763058 2773653 2785734 2797424 2806895 2812583 2813623 
3541.955 2809871 2801540 2789167 2773277 2754480 2733504 2711713 2690995 
3545.812 2673669 2662173 2658183 2662395 2674058 2691193 2710966 2730353 
3549.669 2746885 2758765 2765368 2766833 2764178 2758886 2752718 2747364 
3553.527 2744189 2744010 2746684 2751397 2756723 2761042 2762976 2761827 
3557.384 2757438 2750144 2740328 2728146 2713309 2695361 2673942 2649099 
3561.242 2621770 2593586 2566576 2542839 2523947 2510559 2502522 2498708 
3565.099 2497641 2497271 2496012 2492411 2486010 2476905 2466178 2455424 
3568.957 2446206 2439592 2435752 2433786 2431927 2428157 2420960 2409806 
3572.814 2395429 2379522 2364417 2352028 2343459 2338761 2337008 2336637 
3576.671 2335954 2333417 2328053 2319461 2307836 2293910 2278921 2264437 
3580.529 2252055 2243174 2238504 2237951 2240480 2244454 2247997 2249528 
3584.386 2247951 2242867 2234552 2223548 2210650 2196640 2182544 2169457 
3588.244 2158743 2151703 2149533 2152703 2161001 2173293 2187907 2202912 
3592.101 2216691 2228217 2237307 2244661 2251425 2258820 2267739 2278100 
3595.958 2289165 2298988 2305646 2307286 2303276 2294377 2283033 2272763 
3599.816 2267272 2269112 2278942 2294975 2313327 2329008 2337207 2334672 
3603.673 2320539 2296467 2266358 2235253 2208326 2189914 2182682 2187227 
3607.531 2201980 2223503 2247000 2267376 2280225 2282896 2275299 2259752 
3611.388 2240632 2223076 2211647 2209090 2215820 2230263 2249315 2269589 
3615.246 2288280 2303634 2314859 2321723 2324307 2322719 2317116 2308141 
3619.103 2296999 2285356 2275329 2268549 2266027 2267717 2272937 2280436 
3622.960 2289241 2298608 2308405 2318559 2328886 2338826 2347453 2353741 
3626.818 2357115 2357441 2355620 2352955 2350815 2350371 2352001 2355183 
3630.675 2359073 2362647 2365147 2366524 2367400 2368851 2371963 2377546 
3634.533 2385453 2394855 2404173 2411464 2415197 2414502 2409633 2401827 
3638.390 2393015 2385156 2379658 2376961 2376615 2377285 2377538 2376065 
3642.248 2372300 2366366 2358961 2351027 2343569 2337298 2332692 2329948 
3646.105 2329202 2330356 2333411 2338024 2343755 2349880 2355541 2359620 
3649.962 2360938 2358144 2350205 2336359 2316827 2292724 2266286 2240373 
3653.820 2217944 2201172 2190596 2185102 2181854 2177303 2168538 2153876 
3657.677 2134237 2112236 2092137 2077980 2072652 2076967 2089357 2106421 
3661.535 2123566 2136375 2141736 2138254 2126677 2109426 2089959 2071731 
3665.392 2057450 2048383 2044358 2044159 2046262 2049473 2053571 2059431 
3669.250 2068273 2080813 2096672 2113608 2128320 2136995 2137091 2128061 
3673.107 2111926 2092533 2074703 2062272 2057202 2058767 2064107 2069413 
3676.964 2071338 2068154 2060290 2049795 2039558 2032306 2029745 2031962 
3680.822 2037934 2045836 2053554 2059335 2062077 2061296 2057165 2050287 
3684.679 2041517 2031693 2021460 2010878 1999775 1987531 1973529 1957743 
3688.537 1941027 1924927 1911781 1903618 1901763 1905699 1913424 1921410 
3692.394 1925834 1923571 1913358 1896356 1875909 1856648 1843180 1838652 
3696.251 1843909 1857233 1874986 1892771 1906643 1914084 1914669 1909461 
3700.109 1900629 1890381 1880280 1870834 1861871 1852533 1842201 1830650 
3703.966 1818365 1806189 1795402 1787256 1782833 1782903 1787767 1797278 
3707.824 1810642 1826236 1842096 1855786 1865266 1869015 1866895 1859575 
3711.681 1848957 1837254 1826606 1818620 1814215 1813616 1816603 1822415 
3715.539 1830047 1838017 1844807 1848833 1849036 1845313 1838661 1830949 
3719.396 1824631 1821477 1822374 1826550 1832198 1836901 1838872 1837539 
3723.253 1833822 1829729 1827658 1829442 1835745 1845884 1858385 1871353 
3727.111 1883188 1892753 1899521 1903154 1903675 1901196 1896253 1889833 
3730.968 1883398 1878539 1876430 1877223 1879981 1882864 1884058 1882474 
3734.826 1878548 1873921 1871408 1873102 1879994 1890834 1902768 1912049 
3738.683 1915617 1912116 1902634 1890255 1879227 1873551 1875799 1886438 
3742.541 1904068 1925846 1948436 1969164 1986157 1998923 2007786 2013636 
3746.398 2017351 2019559 2020460 2019978 2017887 2013808 2007816 2000000 
3750.255 1991100 1981972 1973748 1967359 1963371 1961585 1961094 1960314 
3754.113 1957671 1952005 1942964 1931478 1919247 1908425 1900811 1897214 
3757.970 1897382 1899943 1903223 1905723 1906887 1906956 1906910 1907810 
3761.828 1910161 1913760 1917701 1921088 1923505 1925404 1928276 1933888 
3765.685 1943932 1958855 1977799 1998480 2018007 2033307 2042290 2043993 
3769.542 2038779 2027999 2013613 1997605 1981873 1967809 1956334 1947856 
3773.400 1942247 1938801 1936783 1935335 1934279 1933842 1935178 1939299 
3777.257 1946981 1957831 1970369 1982164 1990629 1993912 1991695 1985141 
3781.115 1976772 1969023 1963681 1961065 1960047 1958825 1955636 1949871 
3784.972 1942252 1934593 1929078 1927204 1929188 1933929 1939368 1943362 
3788.830 1944752 1943551 1941220 1939904 1941701 1947604 1957271 1968747 
3792.687 1979210 1985669 1985972 1979265 1966488 1949916 1932783 1918255 
3796.544 1908789 1905570 1908523 1916403 1927520 1939990 1952235 1962981 
3800.402 1971283 1976338 1977748 1975424 1969950 1962779 1956015 1951825 
3804.259 1951970 1957180 1966792 1978845 1990837 2000280 2005743 2006967 
3808.117 2004872 2001013 1996859 1993279 1990465 1987957 1985206 1981738 
3811.974 1977375 1972038 1965717 1958141 1949004 1938100 1925660 1912668 
3815.832 1900671 1891255 1885866 1885170 1888990 1896292 1905861 1916278 
3819.689 1926442 1935559 1943206 1949087 1953446 1956614 1959398 1962747 
3823.546 1967558 1974242 1982749 1992156 2001489 2009529 2015878 2020547 
3827.404 2024049 2026897 2029053 2029860 2028048 2022524 2013055 2000475 
3831.261 1986993 1975270 1967823 1966053 1969911 1978154 1988674 1999570 
3835.119 2009595 2018196 2025654 2032277 2038530 2044423 2050126 2055623 
3838.976 2060942 2065954 2070193 2072515 2071525 2065742 2054415 2037907 
3842.833 2018097 1997498 1979048 1964913 1956060 1952155 1952026 1954269 
3846.691 1957738 1961672 1965658 1969065 1971015 1970372 1966450 1959507 
3850.548 1951053 1943823 1940814 1944297 1954833 1970667 1988367 2003541 
3854.406 2012515 2013246 2006012 1992830 1977009 1961728 1949741 1942795 
3858.263 1941655 1946269 1955852 1968970 1983555 1997212 2007547 2012731 
3862.121 2011998 2005980 1996594 1986092 1976792 1969940 1965806 1963628 
3865.978 1962616 1962330 1963274 1966670 1974059 1986236 2002853 2022097 
3869.835 2041153 2056945 2067198 2070909 2068765 2062360 2053888 2045116 
3873.693 2037069 2029904 2023232 2016597 2009648 2002712 1996410 1991667 
3877.550 1989250 1989705 1993268 1999680 2008527 2018950 2029818 2039727 
3881.408 2047048 2050219 2048130 2040441 2028063 2012766 1997297 1984339 
3885.265 1976132 1973616 1976297 1982301 1989102 1994040 1995278 1992123 
3889.123 1985251 1976358 1967735 1961576 1959524 1962154 1968920 1978441 
3892.980 1988656 1997608 2003756 2006603 2006577 2005193 2004501 2006343 
3896.837 2012039 2021775 2034768 2049282 2063538 2075825 2085185 2091147 
3900.695 2093643 2092554 2087290 2077064 2061195 2039474 2012920 1983655 
3904.552 1955055 1930798 1914284 1907859 1912467 1927522 1951187 1980716 
3908.410 2012733 2043926 2071002 2091281 2103042 2105965 2101068 2090699 
3912.267 2077966 2065860 2056654 2051316 2049377 2049550 2050183 2050121 
3916.125 2049034 2047447 2046320 2046441 2048204 2051162 2054516 2057319 
3919.982 2059163 2060297 2061641 2064288 2069238 2076688 2086126 2096173 
3923.839 2105183 2111550 2114337 2113425 2109629 2104343 2099057 2095086 
3927.697 2093090 2093005 2094092 2095298 2095660 2094546 2091547 2086675 
3931.554 2079956 2071441 2061238 2049542 2037145 2025326 2015945 2010744 
3935.412 2010951 2016290 2025208 2034801 2041756 2043459 2038876 2028891 
3939.269 2016131 2003976 1995517 1992406 1994751 2001086 2009325 2017317 
3943.126 2023842 2028783 2032747 2036804 2041723 2047687 2054090 2059846 
3946.984 2063605 2064426 2061991 2056894 2050750 2045941 2045158 2050706 
3950.841 2063873 2084186 2109517 2136051 2159385 2175565 2181933 2177861 
3954.699 2164804 2145655 2124101 2103553 2086705 2075215 2069735 2069947 
3958.556 2074845 2082891 2091948 2099960 2104917 2105493 2101590 2093793 
3962.414 2083418 2071751 2059458 2046564 2032711 2017806 2002726 1989584 
3966.271 1981345 1980801 1989552 2007082 2030578 2055786 2078302 2094835 
3970.128 2104171 2107249 2106360 2104244 2103048 2103929 2106996 2111996 
3973.986 2118557 2126599 2135977 2146384 2156969 2166288 2172982 2175994 
3977.843 2175137 2171050 2164932 2157905 2150770 2143594 2136189 2128569 
3981.701 2121254 2115381 2112391 2113422 2118647 2127296 2137684 2147728 
3985.558 2155702 2160536 2162068 2160564 2156692 2151053 2144061 2136212 
3989.416 2127960 2119706 2111892 2104572 2097504 2090329 2082910 2075758 
3993.273 2070131 2067836 2070631 2079359 2093355 2110438 2127272 2140103 
3997.130 2146112 2143877 2133904 2118161 2099695 2081842 2067380 2058254 
##END=
