##TITLE=Bambu-Lab_PLA-CF_Blue_Filament_r5_ATR-Corrected
##JCAMP-DX=5.01  $$ Nicolet v. 1
##DATATYPE=INFRARED SPECTRUM
##ORIGIN=Curtin University
##OWNER=Nicolet
##LONGDATE=2024/07/10
##TIME=14:41:26
##SPECTROMETER/DATA SYSTEM=Nicolet iS50
##DATA PROCESSING=
Ratio against background
%Transmittance->Absorbance
ATR Correction
Truncated
ElementMultiply or ElementDivide
##COMMENTS=
Number of sample scans: 32
Collection length: 47.28 sec
Sample gain: 1.0
Background collected on: Wed Jul 10 14:37:28 2024 (GMT+08:00);
Number of background scans: 32
Background gain: 1.0
Sample spacing:  1.000
Number of scan points: 16672
Resolution points: 8192
Number of FFT points: 65536
Apodization: N-B strong;
Phase correction: Mertz;
Laser frequency: 15798.3 cm-1
Number of rejected sample scans: 0
Number of rejected background scans: 0
Bench serial number: AUP1200105;
##RESOLUTION=4.000
##XUNITS=1/CM
##YUNITS=ABSORBANCE
##FIRSTX=400.163452
##LASTX=4000.187744
##FIRSTY=0.083013
##MAXX=4000.187744
##MINX=400.163452
##MAXY=1.104964
##MINY=-0.001768
##XFACTOR=1.000000
##YFACTOR=1.000000E-008
##NPOINTS=7468
##DELTAX=0.482125
##ZPD=8192
##XYDATA=(X++(Y..Y))
400.163 8301255 8211690 8112919 7999123 7871793 7740590 7619016 7520123 
404.020 7452745 7419777 7418646 7442851 7484027 7533111 7581079 7619132 
407.877 7639096 7634465 7601608 7540844 7456366 7355000 7244258 7130439 
411.734 7017815 6909004 6806220 6712527 6632039 6568794 6525079 6499548 
415.591 6486784 6478282 6465043 6440513 6402978 6356098 6307592 6266339 
419.448 6239240 6228747 6232325 6243283 6253033 6253339 6238356 6205860 
423.305 6157645 6099121 6038312 5984146 5944640 5924892 5925795 5943669 
427.162 5971079 5998905 6019061 6026768 6021928 6008422 5992170 5978374 
431.019 5969254 5963069 5955041 5939155 5910932 5868993 5815748 5756762 
434.876 5699288 5650500 5616252 5600209 5603703 5625643 5662642 5709033 
438.733 5757283 5798757 5825308 5830984 5813734 5775976 5724023 5666252 
442.590 5610727 5563125 5525651 5497266 5475009 5455664 5437248 5419501 
446.447 5403630 5391200 5383166 5379097 5377227 5375072 5370323 5361701 
450.304 5349387 5334838 5320424 5308585 5301234 5299167 5301882 5307594 
454.161 5313648 5317028 5315163 5306577 5291420 5271471 5249753 5229506 
458.017 5213175 5201329 5192361 5182733 5168159 5145004 5111756 5069839 
461.874 5023619 4979480 4944204 4922881 4918102 4928404 4948869 4972310 
465.731 4991223 4999694 4994922 4977728 4952115 4923806 4898524 4880373 
469.588 4870851 4868890 4871594 4875494 4877687 4876553 4871931 4864664 
473.445 4856022 4847053 4838381 4830098 4822025 4813819 4805130 4795493 
477.302 4784384 4771230 4755721 4738059 4719227 4700848 4684836 4672730 
481.159 4665243 4661889 4661302 4661739 4661848 4661129 4660104 4659879 
485.016 4661575 4665677 4671805 4678820 4685332 4690235 4693121 4694233 
488.873 4694219 4693662 4692836 4691616 4689766 4687247 4684527 4682492 
492.730 4682195 4684297 4688828 4694756 4700871 4705740 4708475 4709018 
496.587 4708205 4707419 4708116 4711326 4717451 4726218 4736949 4748830 
500.444 4761222 4773685 4785975 4797803 4808738 4818098 4825047 4828822 
504.301 4828994 4825771 4820163 4813920 4809354 4808824 4814211 4826317 
508.158 4844543 4866793 4889931 4910416 4925222 4932603 4932482 4926389 
512.015 4916927 4906852 4898375 4892514 4889077 4886964 4884844 4881812 
515.871 4877836 4873775 4871033 4870892 4873953 4879665 4886384 4891772 
519.728 4893480 4889856 4880490 4866320 4849432 4832385 4817594 4806683 
523.585 4800221 4797804 4798440 4800877 4804501 4809163 4815231 4823278 
527.442 4833669 4846151 4859723 4872684 4882990 4888714 4888517 4882012 
531.299 4869877 4853733 4835801 4818449 4803700 4792841 4786236 4783413 
535.156 4783325 4784742 4786655 4788486 4790136 4791713 4793306 4794701 
539.013 4795332 4794399 4791229 4785491 4777456 4767923 4757931 4748454 
542.870 4740152 4733285 4727875 4723914 4721583 4721233 4723256 4727782 
546.727 4734519 4742747 4751564 4760207 4768377 4776271 4784345 4792891 
550.584 4801663 4809720 4815759 4818600 4817876 4814344 4809788 4806461 
554.441 4806221 4809784 4816517 4824497 4831577 4836012 4837146 4835575 
558.298 4832800 4830466 4829732 4830819 4833076 4835389 4836678 4836318 
562.155 4834275 4830948 4827004 4823108 4819986 4818463 4819577 4824467 
566.012 4833993 4848331 4866552 4886523 4905360 4920124 4928799 4930938 
569.869 4927944 4922625 4918422 4918332 4924122 4935957 4952518 4971570 
573.725 4990663 5007668 5021176 5030431 5035301 5035995 5033017 5027175 
577.582 5019627 5011899 5005798 5003131 5005444 5013651 5027863 5047315 
581.439 5070543 5095551 5120271 5142753 5161539 5175744 5185203 5190347 
585.296 5192143 5191797 5190601 5189690 5189955 5192031 5196343 5203247 
589.153 5213065 5226075 5242462 5262124 5284556 5308759 5333270 5356361 
593.010 5376307 5391679 5401644 5406127 5405843 5402199 5397091 5392558 
596.867 5390466 5392216 5398551 5409518 5424588 5442872 5463452 5485575 
600.724 5508829 5533047 5558209 5584123 5610239 5635575 5658798 5678492 
604.581 5693552 5703487 5708696 5710479 5710834 5712162 5716821 5726753 
608.438 5743229 5766668 5796709 5832339 5872118 5914376 5957496 6000027 
612.295 6040795 6078919 6113827 6145207 6173080 6197778 6219965 6240643 
616.152 6260984 6282144 6305010 6329988 6356942 6385267 6414149 6442851 
620.009 6471004 6498719 6526451 6554693 6583681 6613108 6642120 6669569 
623.866 6694445 6716302 6735567 6753446 6771640 6791722 6814698 6840602 
627.723 6868563 6897129 6924777 6950409 6973671 6994918 7014992 7034829 
631.579 7055121 7076083 7097544 7119086 7140264 7160868 7180987 7201028 
635.436 7221614 7243466 7267282 7293564 7322454 7353624 7386145 7418518 
639.293 7448934 7475617 7497300 7513613 7525296 7533991 7541833 7550830 
643.150 7562355 7576808 7593771 7612305 7631521 7650901 7670469 7690549 
647.007 7711417 7732982 7754631 7775456 7794656 7811936 7827737 7843117 
650.864 7859265 7876920 7895990 7915458 7933794 7949566 7962142 7972008 
654.721 7980653 7990005 8001703 8016454 8033810 8052525 8071147 8088754 
658.578 8105400 8122072 8140165 8160724 8183807 8208172 8231607 8251582 
662.435 8266166 8274729 8278148 8278540 8278557 8280603 8286127 8295396 
666.292 8307643 8321519 8335718 8349319 8362134 8374502 8387081 8400438 
670.149 8414751 8429671 8444349 8457699 8468619 8476432 8481044 8483104 
674.006 8483905 8485071 8488274 8494711 8504907 8518539 8534598 8551670 
677.863 8568361 8583588 8596810 8607955 8617254 8625087 8631825 8637793 
681.720 8643421 8649277 8656183 8664983 8676400 8690642 8707254 8725090 
685.577 8742526 8757918 8770025 8778372 8783340 8786052 8787983 8790576 
689.433 8794867 8801282 8809670 8819437 8829862 8840299 8850401 8860148 
693.290 8869787 8879678 8890103 8901072 8912286 8923187 8933140 8941650 
697.147 8948637 8954475 8959862 8965579 8972082 8979165 8985893 8990735 
701.004 8992075 8988733 8980441 8968087 8953492 8938905 8926327 8916891 
704.861 8910525 8905966 8901193 8893995 8882583 8866034 8844435 8818732 
708.718 8790425 8761124 8732166 8704349 8677861 8652418 8627427 8602341 
712.575 8576895 8551218 8525860 8501485 8478595 8457098 8436055 8413591 
716.432 8387100 8353682 8310661 8256136 8189323 8110612 8021535 7924384 
720.289 7821852 7716662 7611275 7507689 7407354 7311246 7219978 7134005 
724.146 7053821 6980094 6913707 6855588 6806469 6766639 6735763 6712985 
728.003 6697207 6687475 6683434 6685520 6694916 6713220 6742017 6782424 
731.860 6834873 6899096 6974332 7059549 7153613 7255254 7363030 7475137 
735.717 7589429 7703601 7815508 7923506 8026714 8125058 8219062 8309582 
739.574 8397502 8483472 8567981 8651234 8733360 8814336 8893933 8971651 
743.431 9046819 9118708 9186855 9251337 9312918 9372964 9433042 9494497 
747.287 9558035 9623550 9690227 9756915 9822582 9886616 9948944 10009903 
751.144 10069921 10129179 10187402 10243735 10296760 10344613 10385015 
754.519 10415454 10433371 10436475 10423153 10392803 10346038 10284628 
757.894 10210972 10127562 10036276 9938021 9832799 9720033 9599223 9470513 
761.751 9334947 9194412 9051164 8907333 8764444 8623302 8484171 8347042 
765.608 8212141 8080061 7951773 7828296 7710352 7597982 7490518 7386630 
769.465 7284798 7183750 7082871 6982423 6883390 6787058 6694621 6606510 
773.322 6522231 6440375 6359094 6276688 6192266 6106094 6019537 5934671 
777.179 5853489 5777209 5705862 5638238 5572375 5506238 5438397 5368474 
781.036 5297132 5225685 5155561 5087762 5022636 4959924 4899036 4839430 
784.893 4780876 4723474 4667506 4613232 4560686 4509616 4459595 4410197 
788.750 4361165 4312463 4264341 4217223 4171670 4128298 4087767 4050722 
792.606 4017667 3988818 3963996 3942511 3923336 3905267 3887303 3868860 
796.463 3849968 3831122 3813168 3796875 3782855 3771336 3762305 3755596 
800.320 3751012 3748380 3747446 3747798 3748809 3749528 3749083 3746732 
804.177 3742097 3735290 3726878 3717691 3708645 3700447 3693509 3687944 
808.034 3683550 3679964 3676762 3673534 3670011 3666079 3661826 3657518 
811.891 3653505 3650155 3647671 3646100 3645256 3644855 3644586 3644221 
815.748 3643659 3642872 3641774 3640175 3637775 3634266 3629554 3623953 
819.605 3618340 3614050 3612667 3615620 3623814 3637306 3655255 3676015 
823.462 3697488 3717562 3734531 3747365 3755884 3760649 3762734 3763375 
827.319 3763666 3764282 3765399 3766783 3768070 3769022 3769752 3770786 
831.176 3772935 3777024 3783644 3792991 3804938 3819179 3835708 3854933 
835.033 3877755 3905338 3938717 3978365 4023916 4074118 4127153 4181094 
838.890 4234406 4286328 4337034 4387501 4439191 4493755 4552581 4616609 
842.747 4686037 4760261 4837802 4916407 4993263 5065370 5129993 5185133 
846.604 5229814 5264261 5289775 5308464 5323001 5336340 5351571 5371834 
850.460 5400202 5439535 5492203 5559852 5643246 5742322 5856473 5984933 
854.317 6127178 6283179 6453302 6637928 6836969 7049396 7272980 7504367 
858.174 7739445 7973893 8203652 8425304 8636203 8834402 9018476 9187429 
862.031 9340533 9477359 9597770 9701948 9790320 9863499 9922154 9966934 
865.888 9998371 10016805 10022458 10015431 9995806 9963742 9919534 9863663 
869.745 9796739 9719372 9632064 9535118 9428692 9312837 9187762 9053958 
873.602 8912217 8763635 8609382 8450504 8287786 8121758 7952910 7781870 
877.459 7609568 7437356 7266862 7099701 6937355 6780892 6631046 6488275 
881.316 6352954 6225552 6106598 5996710 5896433 5806235 5726525 5657699 
885.173 5600270 5554792 5521767 5501352 5493032 5495533 5506772 5524153 
889.030 5544990 5566894 5588143 5607630 5624812 5639434 5651281 5660105 
892.887 5665624 5667700 5666361 5661868 5654614 5644940 5633072 5619064 
896.744 5603005 5585207 5566384 5547719 5530702 5516822 5507243 5502503 
900.601 5502417 5506154 5512528 5520246 5528215 5535706 5542320 5548016 
904.458 5552905 5557216 5561120 5564730 5568031 5570865 5573016 5574228 
908.314 5574313 5573268 5571189 5568378 5565128 5561636 5557912 5553729 
912.171 5548701 5542447 5534684 5525353 5514628 5502862 5490473 5477887 
916.028 5465451 5453419 5441972 5431157 5420848 5410716 5400220 5388693 
919.885 5375612 5360791 5344626 5328130 5312759 5300026 5291093 5286366 
923.742 5285317 5286657 5288650 5289623 5288395 5284514 5278228 5270315 
927.599 5261692 5253165 5245233 5238033 5231420 5225067 5218591 5211621 
931.456 5203870 5195187 5185614 5175459 5165250 5155687 5147487 5141213 
935.313 5137133 5135197 5135181 5136825 5140025 5144964 5152061 5161797 
939.170 5174533 5190354 5208996 5229913 5252495 5276173 5300561 5325467 
943.027 5350825 5376659 5403079 5430321 5458825 5489291 5522546 5559388 
946.884 5600336 5645434 5694189 5745733 5799071 5853432 5908414 5964017 
950.741 6020464 6077850 6135842 6193572 6249644 6302309 6349751 6390261 
954.598 6422297 6444422 6455239 6453448 6437912 6407974 6363640 6305828 
958.455 6236239 6157120 6070938 5979949 5886033 5790678 5695131 5600638 
962.312 5508563 5420434 5337841 5262193 5194618 5135869 5086271 5045881 
966.168 5014390 4991295 4975743 4966610 4962587 4962361 4964824 4969357 
970.025 4975832 4984563 4996003 5010458 5027790 5047327 5068000 5088567 
973.882 5107989 5125599 5141274 5155344 5168440 5181392 5195074 5210373 
977.739 5228147 5249085 5273641 5301804 5333036 5366267 5400152 5433415 
981.596 5465217 5495397 5524575 5553855 5584514 5617524 5653259 5691428 
985.453 5731186 5771483 5811389 5850362 5888389 5925899 5963474 6001756 
989.310 6041234 6082158 6124563 6168324 6213328 6259525 6307024 6356099 
993.167 6407122 6460467 6516351 6574805 6635533 6698055 6761797 6826278 
997.024 6891307 6957087 7024180 7093371 7165533 7241373 7321337 7405561 
1000.881 7493901 7586014 7681489 7779892 7880909 7984462 8090884 8200983 
1004.738 8316176 8438303 8569351 8711042 8864376 9029409 9205186 9390130 
1008.595 9582551 9781312 9986256 10198335 10419407 10651731 10897399 
1011.970 11157876 11433818 11725137 12031350 12351833 12686133 13033952 
1015.344 13395090 13769266 14155862 14553912 14962147 15379000 15802824 
1018.719 16231978 16664772 17099658 17535124 17969842 18402578 18832352 
1022.094 19258456 19680480 20098340 20512350 20923128 21331626 21739094 
1025.469 22147070 22557350 22972044 23393576 23824868 24269144 24729922 
1028.844 25210670 25714436 26243386 26798538 27379652 27985338 28613446 
1032.219 29261458 29926726 30606550 31297926 31997314 32700276 33401344 
1035.595 34094256 34772348 35429116 36058636 36655740 37216060 37735760 
1038.970 38211276 38639148 39016012 39338808 39605104 39813372 39963216 
1042.345 40055440 40091928 40075384 40009112 39896804 39742396 39550036 
1045.720 39324108 39069132 38789792 38490648 38176084 37850176 37516736 
1049.096 37179416 36841948 36508120 36181740 35866368 35564864 35279044 
1052.471 35009528 34755732 34516272 34289488 34074136 33869748 33677040 
1055.846 33497912 33335372 33193272 33076044 32988414 32935252 32921332 
1059.221 32951322 33029782 33161158 33349902 33600476 33917104 34303500 
1062.597 34762348 35294916 35900624 36577176 37320784 38126928 38990952 
1065.972 39908644 40876400 41891052 42949268 44047112 45179616 46341044 
1069.347 47525520 48727884 49944528 51173764 52415560 53670840 54940380 
1072.722 56223964 57519944 58825296 60136056 61447932 62756580 64057600 
1076.098 65346320 66617556 67865344 69083008 70263448 71399208 72482360 
1079.473 73504280 74455344 75324952 76101856 76775328 77336088 77777504 
1082.848 78095864 78290504 78363064 78316888 78156416 77886904 77514056 
1086.223 77044336 76484688 75842896 75127200 74346584 73510552 72628840 
1089.599 71710912 70765504 69799904 68819928 67829904 66833364 65833492 
1092.974 64833616 63837124 62847184 61865984 60894376 59931760 58976500 
1096.349 58026684 57080984 56139080 55201816 54270764 53347708 52434148 
1099.724 51531076 50639112 49758764 48890736 48036060 47195984 46371908 
1103.100 45565020 44776420 44007020 43257880 42530336 41826252 41147924 
1106.475 40498140 39880012 39296772 38751504 38246856 37784600 37365432 
1109.850 36988668 36652456 36354052 36090408 35858816 35657248 35484384 
1113.225 35339356 35221220 35128464 35058804 35009400 34977332 34960376 
1116.601 34957452 34968848 34995932 35040588 35104564 35189028 35294396 
1119.976 35420476 35566792 35732816 35917856 36120876 36339964 36572028 
1123.351 36812516 37055580 37294488 37522040 37731196 37915312 38068400 
1126.726 38185188 38261192 38292936 38277972 38214980 38103808 37945192 
1130.102 37740324 37490504 37196636 36858972 36477040 36049752 35575780 
1133.477 35053968 34483752 33865552 33200926 32492458 31743646 30958492 
1136.852 30141258 29296384 28428412 27542210 26643044 25736622 24829026 
1140.227 23926408 23034734 22159532 21305660 20477288 19677994 18910726 
1143.603 18177994 17481806 16823872 16205516 15627737 15091212 14596196 
1146.978 14142460 13729219 13355158 13018453 12716998 12448598 12211184 
1150.353 12002911 11822210 11667651 11537863 11431351 11346580 11281933 
1153.728 11235826 11206856 11193834 11195813 11212110 11242283 11286259 
1157.104 11344378 11417466 11506789 11613982 11740735 11888597 12058771 
1160.479 12252101 12469228 12710975 12978652 13274322 13600884 13961945 
1163.854 14361621 14804254 15294285 15836269 16434933 17095318 17822770 
1167.229 18622870 19501212 20463134 21513562 22656926 23897240 25238100 
1170.604 26682564 28233028 29890510 31654218 33520668 35483396 37532584 
1173.980 39655092 41834392 44050696 46280752 48497684 50671036 52767252 
1177.355 54750848 56586296 58240260 59683912 60894584 61856900 62563260 
1180.730 63013716 63215588 63182796 62934656 62494408 61887284 61138900 
1184.105 60273860 59315176 58284092 57200432 56082476 54947072 53809188 
1187.481 52681480 51574116 50494880 49449524 48442476 47476992 46555452 
1190.856 45679196 44848360 44061948 43318100 42614724 41950152 41323580 
1194.231 40735128 40185440 39675028 39203660 38770020 38371768 38006072 
1197.606 37670244 37362152 37080476 36824444 36593376 36386144 36200876 
1200.982 36034916 35885008 35747664 35619648 35498072 35380576 35265292 
1204.357 35150752 35035800 34919364 34800412 34677760 34549956 34415160 
1207.732 34271220 34115724 33946256 33760524 33556536 33332584 33087366 
1211.107 32820010 32530164 32218230 31885332 31533370 31164664 30781624 
1214.483 30386388 29980596 29565408 29141814 28710904 28274200 27833632 
1217.858 27391338 26949346 26509228 26071972 25638044 25207744 24781422 
1221.233 24359766 23943668 23534146 23131954 22737486 22350680 21971204 
1224.608 21598758 21233284 20875088 20524914 20183730 19852522 19532120 
1227.984 19223072 18925538 18639410 18364194 18099204 17843640 17596708 
1231.359 17357816 17126750 16903680 16689122 16483742 16288103 16102389 
1234.734 15926267 15758981 15599465 15446618 15299591 15157919 15021558 
1238.109 14890736 14765880 14647302 14535189 14429426 14329657 14235330 
1241.485 14145772 14060283 13978332 13899684 13824457 13753147 13686509 
1244.860 13625370 13570330 13521589 13478871 13441469 13408519 13379183 
1248.235 13352904 13329466 13308917 13291503 13277449 13266927 13260086 
1251.610 13257158 13258518 13264737 13276426 13294114 13318115 13348265 
1254.986 13384077 13424806 13469565 13517566 13568166 13620897 13675453 
1258.361 13731644 13789360 13848566 13909239 13971312 14034460 14098038 
1261.736 14160967 14221838 14279141 14331542 14378200 14418906 14453949 
1265.111 14483891 14509109 14529589 14544693 14553243 14553857 14545232 
1268.487 14526491 14497237 14457539 14407653 14347772 14277834 14197484 
1271.862 14106104 14003055 13887833 13760257 13620448 13468865 13306132 
1275.237 13132997 12950197 12758540 12558861 12352157 12139539 11922231 
1278.612 11701459 11478363 11253943 11028982 10804257 10580545 10358839 
1281.988 10140420 9926834 9719795 9520984 9331875 9153625 8987071 8832813 
1285.845 8691349 8563232 8449157 8349924 8266331 8199045 8148412 8114370 
1289.702 8096456 8093886 8105651 8130613 8167579 8215257 8272262 8336983 
1293.560 8407655 8482295 8558902 8635516 8710433 8782274 8850136 8913527 
1297.417 8972418 9027155 9078255 9126318 9171814 9214947 9255613 9293461 
1301.275 9328031 9358975 9386176 9409900 9430657 9449018 9465438 9479973 
1305.132 9492270 9501643 9507418 9509172 9507027 9501721 9494481 9486657 
1308.990 9479426 9473390 9468474 9464007 9459004 9452537 9444074 9433607 
1312.847 9421746 9409398 9397592 9387117 9378428 9371608 9366463 9362677 
1316.704 9359936 9357950 9356454 9355215 9353950 9352476 9350757 9349075 
1320.562 9348025 9348470 9351330 9357248 9366494 9378815 9393571 9409986 
1324.419 9427482 9445894 9465527 9487045 9511241 9538733 9569950 9605030 
1328.277 9644096 9687421 9735513 9789074 9848825 9915142 9987885 10066394 
1332.134 10149588 10236378 10325947 10417990 10512695 10610515 10711928 
1335.509 10817094 10925853 11037748 11152244 11268942 11387735 11508708 
1338.885 11632106 11758120 11886806 12018108 12152025 12288746 12428718 
1342.260 12572658 12721421 12875740 13036118 13202663 13375148 13553059 
1345.635 13735688 13922250 14112014 14304198 14498182 14693359 14889230 
1349.010 15085316 15281053 15475668 15668073 15856878 16040462 16217099 
1352.385 16385226 16543607 16691299 16827716 16952418 17065116 17165558 
1355.761 17253696 17329676 17393970 17447300 17490568 17524628 17550202 
1359.136 17567846 17577990 17581110 17577946 17569458 17556854 17541362 
1362.511 17523972 17505186 17484762 17461770 17434568 17401030 17358730 
1365.886 17305146 17237802 17154474 17053248 16932714 16792180 16631977 
1369.262 16453736 16260782 16058306 15853478 15655254 15473999 15320843 
1372.637 15206894 15142475 15136193 15194193 15319526 15511693 15766437 
1376.012 16075869 16428898 16811786 17209244 17605334 17984704 18333570 
1379.387 18640480 18896532 19095356 19232716 19305998 19314012 19256856 
1382.763 19136048 18954510 18716476 18427244 18092648 17718748 17311478 
1386.138 16876524 16419272 15944751 15457469 14961344 14459537 13954480 
1389.513 13448043 12941816 12437401 11936671 11441885 10955764 10481353 
1392.888 10022037 9581239 9162273 8767955 8400410 8060718 7748930 7464145 
1396.746 7204856 6969280 6755734 6562757 6389123 6233623 6094956 5971586 
1400.603 5861684 5763352 5674815 5594513 5521297 5454324 5392960 5336700 
1404.461 5285068 5237661 5194109 5154233 5117935 5085196 5055891 5029721 
1408.318 5006077 4984218 4963411 4943164 4923406 4904597 4887543 4873208 
1412.176 4862386 4855443 4852189 4851945 4853701 4856425 4859319 4861903 
1416.033 4864144 4866272 4868701 4871892 4876275 4882191 4889902 4899609 
1419.890 4911435 4925427 4941512 4959624 4979559 5001199 5024403 5049103 
1423.748 5075261 5102962 5132394 5163906 5198056 5235557 5277241 5323877 
1427.605 5375987 5433777 5497058 5565415 5638477 5716136 5798763 5887205 
1431.463 5982671 6086486 6199981 6324376 6460905 6611075 6776765 6960340 
1435.320 7164528 7392189 7645989 7928253 8241033 8586206 8965749 9381765 
1439.177 9836330 10331027 10866459 11441696 12054104 12699157 13370782 
1442.553 14061472 14762759 15465592 16160718 16839366 17493710 18117304 
1445.928 18705248 19253860 19760360 20222506 20638550 21007354 21328730 
1449.303 21603622 21833842 22021606 22168892 22276800 22345534 22374558 
1452.678 22363096 22310468 22216262 22080132 21901648 21680060 21414704 
1456.054 21105426 20753292 20360908 19932400 19472838 18987626 18481946 
1459.429 17960418 17427278 16886388 16341299 15795304 15251169 14711201 
1462.804 14177419 13651775 13136575 12634477 12148393 11681002 11234336 
1466.179 10809436 10406497 10025195 9665112 9326102 9008191 8711231 8434292 
1470.037 8175219 7930480 7695444 7465229 7235656 7004185 6770549 6536782 
1473.894 6306761 6085373 5877480 5687224 5517271 5368671 5240885 5132102 
1477.752 5039694 4960780 4892657 4833066 4780338 4733300 4691158 4653334 
1481.609 4619368 4588800 4561218 4536238 4513515 4492693 4473483 4455658 
1485.467 4439097 4423868 4410162 4398297 4388592 4381224 4376100 4372857 
1489.324 4370874 4369404 4367771 4365400 4361982 4357354 4351476 4344293 
1493.181 4335740 4325691 4314086 4300883 4286213 4270383 4253779 4236877 
1497.039 4220197 4204160 4189112 4175308 4162895 4151868 4142123 4133490 
1500.896 4125716 4118584 4111956 4105775 4100109 4095134 4091036 4088003 
1504.754 4086176 4085569 4086102 4087596 4089840 4092573 4095584 4098650 
1508.611 4101604 4104246 4106387 4107795 4108297 4107769 4106275 4104076 
1512.469 4101651 4099554 4098240 4097944 4098560 4099561 4100224 4099835 
1516.326 4097909 4094356 4089542 4084053 4078506 4073312 4068518 4063811 
1520.183 4058748 4052915 4046173 4038616 4030665 4022666 4014866 4007202 
1524.041 3999425 3991114 3981949 3971856 3961023 3949911 3939061 3929028 
1527.898 3920187 3912758 3906772 3902103 3898533 3895729 3893263 3890669 
1531.756 3887508 3883420 3878258 3872117 3865381 3858575 3852283 3846978 
1535.613 3842882 3839916 3837724 3835778 3833582 3830726 3827127 3823046 
1539.470 3818989 3815593 3813373 3812507 3812770 3813605 3814241 3814054 
1543.328 3812680 3810183 3807013 3803739 3800840 3798503 3796560 3794631 
1547.185 3792315 3789433 3786131 3782821 3779965 3777850 3776413 3775311 
1551.043 3774001 3772097 3769511 3766592 3763931 3762145 3761581 3762138 
1554.900 3763305 3764357 3764663 3763949 3762361 3760433 3758902 3758395 
1558.758 3759313 3761649 3765113 3769222 3773519 3777622 3781310 3784475 
1562.615 3787132 3789319 3791102 3792506 3793506 3793956 3793672 3792388 
1566.472 3789944 3786347 3781818 3776776 3771753 3767199 3763377 3760274 
1570.330 3757679 3755324 3753028 3750851 3749024 3747851 3747590 3748265 
1574.187 3749683 3751482 3753336 3755081 3756781 3758725 3761260 3764680 
1578.045 3769029 3774131 3779685 3785290 3790683 3795664 3800182 3804288 
1581.902 3808035 3811512 3814768 3817877 3820887 3823832 3826715 3829546 
1585.760 3832378 3835303 3838593 3842512 3847328 3853169 3859878 3866963 
1589.617 3873779 3879580 3883856 3886427 3887532 3887728 3887711 3888062 
1593.474 3889116 3890929 3893391 3896335 3899767 3903792 3908592 3914324 
1597.332 3920915 3928021 3935073 3941396 3946415 3949826 3951746 3952623 
1601.189 3953224 3954369 3956767 3960836 3966577 3973597 3981224 3988731 
1605.047 3995566 4001538 4006904 4012268 4018356 4025802 4034855 4045302 
1608.904 4056610 4068111 4079230 4089756 4099748 4109466 4119032 4128322 
1612.761 4136823 4143924 4149099 4152217 4153809 4154850 4156625 4160206 
1616.619 4166182 4174395 4184160 4194415 4204227 4213015 4220645 4227379 
1620.476 4233654 4239899 4246375 4253164 4260258 4267534 4274820 4281914 
1624.334 4288441 4293942 4297907 4299926 4299838 4297831 4294435 4290424 
1628.191 4286570 4283517 4281659 4281074 4281686 4283233 4285499 4288213 
1632.049 4291152 4294086 4296832 4299285 4301492 4303664 4306091 4309019 
1635.906 4312512 4316324 4319952 4322701 4323962 4323395 4320969 4317046 
1639.763 4312168 4306964 4301987 4297597 4294018 4291315 4289459 4288307 
1643.621 4287565 4286815 4285498 4283074 4279310 4274339 4268856 4263948 
1647.478 4260811 4260372 4262934 4268078 4274749 4281569 4287279 4291139 
1651.336 4293130 4293971 4294818 4296966 4301389 4308473 4318011 4329407 
1655.193 4341917 4354965 4368261 4381788 4395675 4409986 4424568 4438970 
1659.051 4452580 4464701 4474846 4482914 4489293 4494731 4500274 4506908 
1662.908 4515335 4525850 4538244 4552009 4566505 4581176 4595658 4609897 
1666.765 4624010 4638209 4652671 4667508 4682687 4698165 4713890 4729851 
1670.623 4746042 4762374 4778741 4794932 4810820 4826357 4841722 4857241 
1674.480 4873386 4890546 4908872 4928185 4947971 4967569 4986284 5003732 
1678.338 5019848 5034914 5049500 5064247 5079689 5096223 5113934 5132746 
1682.195 5152463 5172793 5193498 5214393 5235413 5256556 5278022 5300094 
1686.052 5323156 5347590 5373697 5401609 5431237 5462297 5494314 5526748 
1689.910 5559152 5591156 5622659 5653840 5685135 5717253 5751069 5787550 
1693.767 5827519 5871561 5919873 5972153 6027783 6085980 6146018 6207597 
1697.625 6270826 6336239 6404659 6476889 6553564 6635058 6721431 6812503 
1701.482 6908066 7007868 7111785 7219721 7331794 7448183 7569337 7695888 
1705.340 7828630 7968352 8115605 8270538 8432902 8602146 8777817 8959791 
1709.197 9148514 9345014 9550487 9765887 9991538 10226899 10470682 10721375 
1713.054 10977635 11238857 11505213 11777521 12056844 12343926 12638964 
1716.430 12941454 13250332 13564380 13882416 14203563 14527281 14853437 
1719.805 15182161 15514117 15850410 16192816 16543730 16906100 17283096 
1723.180 17677930 18093736 18533396 18999744 19495696 20024592 20590378 
1726.555 21197796 21852530 22560980 23330088 24166854 25077888 26069164 
1729.931 27145958 28313420 29577350 30945096 32425948 34030664 35770168 
1733.306 37653504 39685744 41866992 44192932 46656852 49252432 51975840 
1736.681 54826124 57803352 60905368 64124040 67442736 70836224 74272808 
1740.056 77718080 81138136 84501240 87777256 90935800 93944832 96770832 
1743.432 99381080 101746584 103844872 105660904 107186232 108417832 
1746.325 109356936 110008976 110384032 110496440 110363328 110002376 
1749.218 109429120 108656288 107694408 106553936 105247440 103790392 
1752.111 102200272 100494264 98687264 96790776 94813672 92763824 90650144 
1755.486 88483344 86275632 84039408 81785768 79523848 77260832 75003400 
1758.861 72758728 70535280 68342848 66191828 64092056 62052120 60078884 
1762.237 58177324 56350704 54600440 52926232 51326072 49796508 48333408 
1765.612 46932800 45591836 44309244 43085048 41919916 40813820 39765172 
1768.987 38770248 37823484 36918276 36048008 35206892 34390360 33595000 
1772.362 32818096 32057058 31309006 30570844 29839274 29111308 28384388 
1775.738 27656800 26927536 26196290 25463262 24728906 23994002 23259368 
1779.113 22526004 21795034 21067800 20345916 19631154 18925544 18231140 
1782.488 17550034 16884258 16235705 15606067 14996907 14409547 13845167 
1785.863 13304840 12789516 12300272 11838043 11403595 10997343 10618980 
1789.239 10267427 9940848 9636784 9352800 9086635 8836778 8602399 8383289 
1793.096 8179521 7991072 7817575 7658125 7511452 7375985 7250110 7132357 
1796.953 7021512 6916716 6817502 6723630 6635190 6552219 6474736 6402399 
1800.811 6334615 6270522 6209214 6149861 6091983 6035421 5980213 5926434 
1804.668 5874121 5823216 5773700 5725787 5680023 5637324 5598696 5564749 
1808.526 5535269 5509094 5484143 5457914 5428150 5393428 5353595 5309608 
1812.383 5263176 5216125 5169893 5125274 5082555 5041889 5003736 4969014 
1816.240 4939070 4915195 4897918 4886697 4879611 4873784 4866198 4854428 
1820.098 4837376 4815518 4790480 4764655 4740236 4718689 4700404 4684801 
1823.955 4670583 4656340 4640900 4623705 4604830 4584808 4564571 4544712 
1827.813 4525597 4506932 4487755 4466624 4441755 4411625 4375339 4333155 
1831.670 4286637 4238610 4192713 4152622 4121239 4099882 4087862 4082543 
1835.528 4079979 4075814 4066318 4049288 4024364 3992962 3957709 3921634 
1839.385 3887605 3857833 3833712 3815977 3804825 3800011 3800807 3805817 
1843.242 3812897 3819218 3821748 3817716 3805423 3784611 3756672 3724286 
1847.100 3691032 3660427 3635418 3617764 3607923 3604967 3607047 3611566 
1850.957 3615798 3617182 3613773 3604308 3588548 3567064 3541242 3513059 
1854.815 3484776 3458816 3437434 3422444 3415193 3416125 3424719 3439394 
1858.672 3457684 3476425 3492296 3502405 3504658 3498251 3483773 3463022 
1862.530 3438796 3414475 3393529 3378816 3372291 3374387 3383894 3398016 
1866.387 3412947 3424622 3429825 3426882 3416196 3399998 3381702 3364796 
1870.244 3351991 3344568 3342368 3344109 3348047 3352549 3356394 3358817 
1874.102 3359422 3358151 3355285 3351602 3348390 3347262 3349742 3356462 
1877.959 3366816 3378701 3388984 3394456 3392976 3384157 3369697 3352712 
1881.817 3336651 3324085 3315971 3311349 3308129 3303996 3297449 3288351 
1885.674 3277752 3267475 3259138 3253582 3250470 3248345 3245444 3239911 
1889.531 3230775 3218033 3202967 3187805 3175504 3169030 3170717 3181564 
1893.389 3200720 3225520 3251692 3274480 3289762 3295084 3290376 3277695 
1897.246 3260620 3242873 3227338 3215101 3205665 3197175 3187673 3175994 
1901.104 3162322 3148402 3137030 3131161 3132936 3142862 3159485 3179469 
1904.961 3198353 3211750 3216508 3211799 3199634 3184194 3171198 3165602 
1908.819 3170344 3184948 3205619 3226311 3240784 3244559 3236914 3220934 
1912.676 3202769 3189321 3185987 3194230 3211292 3230780 3244884 3246901 
1916.533 3233716 3206827 3171914 3136932 3109688 3094876 3093059 3100392 
1920.391 3110179 3115260 3110247 3093012 3065035 3030367 2994092 2960245 
1924.248 2930917 2906055 2884371 2864663 2847094 2833424 2826603 2829484 
1928.106 2843448 2867590 2898559 2931242 2960184 2980533 2989047 2984382 
1931.963 2966994 2939257 2905210 2869993 2839579 2819002 2811293 2815746 
1935.821 2827564 2838666 2840176 2825323 2792403 2745752 2695184 2652459 
1939.678 2628152 2627485 2649295 2686019 2726716 2760098 2777617 2774874 
1943.535 2752254 2713724 2666117 2617894 2578680 2558157 2564295 2600977 
1947.393 2665601 2748625 2834472 2905906 2948873 2957188 2935192 2895739 
1951.250 2856446 2832809 2833329 2856696 2893123 2928725 2950810 2951545 
1955.108 2929674 2889092 2836287 2777661 2718881 2665071 2622502 2599126 
1958.965 2603742 2643149 2718602 2823447 2943643 3060542 3155920 3216631 
1962.823 3237211 3220549 3175553 3114162 3048313 2988295 2941732 2913202 
1966.680 2904073 2911723 2929417 2947675 2956911 2950666 2928979 2898691 
1970.537 2871052 2856683 2860516 2878147 2897127 2901730 2880474 2833203 
1974.395 2773233 2725588 2718410 2773209 2896439 3076851 3287521 3494837 
1978.252 3668016 3787913 3849426 3858828 3829026 3773830 3705308 3632754 
1982.110 3563703 3503795 3457455 3426865 3411775 3409328 3416657 3431081 
1985.967 3452375 3482867 3525747 3582992 3653238 3730459 3804720 3864334 
1989.824 3898570 3900377 3867468 3802024 3709674 3597774 3474342 3347556 
1993.682 3225030 3113674 3017769 2937291 2867386 2798120 2718118 2618251 
1997.539 2497306 2364178 2238034 2143800 2104812 2135074 2234067 2384689 
2001.397 2558287 2721684 2846616 2917556 2934960 2913139 2874742 2842061 
2005.254 2831097 2847609 2887664 2940393 2993103 3034331 3056136 3053837 
2009.112 3024904 2969324 2889677 2792078 2686921 2586564 2504090 2448463 
2012.969 2423757 2427280 2453118 2493918 2544823 2603912 2670925 2743321 
2016.826 2813808 2868741 2890775 2863134 2776489 2632712 2445797 2238289 
2020.684 2035450 1859047 1723086 1633012 1587937 1584002 1617030 1683173 
2024.541 1777618 1893274 2020040 2146140 2261325 2360336 2444226 2519564 
2028.399 2594392 2674258 2757494 2834965 2892592 2915531 2894759 2829365 
2032.256 2728827 2610424 2496039 2407421 2362444 2371334 2435732 2547862 
2036.114 2690474 2840308 2971164 3058453 3085217 3045883 2948124 2810988 
2039.971 2660586 2523251 2419839 2361021 2347114 2369531 2415400 2471065 
2043.828 2525912 2573379 2611996 2644232 2676605 2717819 2777798 2864208 
2047.686 2979788 3118824 3266660 3401675 3501413 3548729 3537248 3473325 
2051.543 3373663 3260667 3156828 3079429 3037012 3028755 3045784 3075471 
2055.401 3105733 3129125 3143824 3152828 3161525 3174713 3195096 3222274 
2059.258 3253491 3284619 3311586 3330749 3339417 3335760 3318911 3288864 
2063.115 3247166 3196661 3141211 3085075 3032021 2984520 2943523 2908778 
2066.973 2879595 2855704 2837382 2825821 2822448 2828511 2844515 2870365 
2070.830 2905169 2947838 2996642 3049166 3101780 3149134 3185435 3204888 
2074.688 3204365 3184630 3151442 3114392 3085044 3073412 3085265 3120136 
2078.545 3171847 3230591 3286057 3330389 3360303 3376827 3384124 3386962 
2082.403 3388721 3390215 3389437 3382890 3366683 3337837 3295128 3239046 
2086.260 3171921 3097453 3020725 2947192 2882313 2830073 2792172 2767010 
2090.117 2750158 2735757 2718732 2696741 2671754 2649567 2638219 2644754 
2093.975 2672709 2719931 2779442 2841017 2894746 2933458 2954627 2959829 
2097.832 2953358 2940357 2925565 2912720 2904878 2904705 2914418 2934820 
2101.690 2964830 3000650 3036910 3067767 3089390 3100987 3105442 3107495 
2105.547 3111880 3120629 3132342 3142545 3146039 3139379 3123139 3101884 
2109.405 3082865 3073131 3076920 3093992 3120229 3148817 3173136 3188565 
2113.262 3193504 3188867 3176969 3159845 3138749 3113726 3084624 3051479 
2117.119 3015280 2978144 2942528 2910756 2884436 2863712 2847706 2833971 
2120.977 2819253 2799407 2770364 2728559 2672316 2602353 2522713 2439906 
2124.834 2362198 2297782 2252881 2230800 2231190 2250427 2282632 2320350 
2128.692 2355597 2380354 2387221 2370027 2325194 2252931 2158207 2051021 
2132.549 1944553 1853315 1789702 1760997 1767846 1803991 1858593 1917969 
2136.406 1969332 2002362 2010571 1991368 1946074 1878992 1797396 1709443 
2140.264 1623685 1547185 1484747 1438335 1408418 1394941 1398527 1420301 
2144.121 1461225 1519777 1590378 1662605 1723373 1760064 1765157 1738771 
2147.979 1689305 1630867 1578283 1541394 1522247 1513928 1503903 1478008 
2151.836 1425102 1339926 1223081 1079197 914751 735585 547756 357617 175071 
2156.176 13195 -110290 -176838 -170177 -81513 88217 326394 612013 920723 
2160.515 1229074 1516789 1767736 1969243 2111994 2190759 2206495 2167324 
2164.373 2087962 1986895 1883140 1790935 1718098 1664531 1625099 1591531 
2168.230 1556427 1514865 1465201 1408360 1347159 1284659 1223834 1167757 
2172.088 1119975 1085128 1068808 1076591 1113061 1180400 1277505 1400191 
2175.945 1541107 1691494 1841487 1980608 2098529 2185194 2232143 2235254 
2179.802 2196497 2125819 2041076 1964849 1919449 1920280 1971047 2062107 
2183.660 2173213 2279463 2359049 2398729 2397609 2364962 2317160 2271022 
2187.517 2238919 2226105 2230968 2247699 2269722 2292243 2313669 2334121 
2191.375 2354005 2371854 2383913 2385472 2372853 2346128 2309773 2273455 
2195.232 2248453 2245260 2269580 2319977 2388566 2461312 2523159 2561043 
2199.090 2567779 2543296 2494317 2431565 2366569 2307904 2259483 2220288 
2202.947 2186760 2155008 2124543 2098994 2085983 2094041 2129122 2191509 
2206.804 2274545 2365880 2451300 2519397 2565275 2592190 2610079 2631931 
2210.662 2668903 2725626 2798603 2876825 2945382 2990166 3002787 2983228 
2214.519 2939923 2887203 2841596 2816379 2818942 2848649 2898045 2955299 
2218.377 3007789 3045182 3061881 3057406 3035407 3002070 2963766 2925703 
2222.234 2891213 2861712 2837509 2818893 2806493 2801372 2804476 2816008 
2226.092 2834905 2858144 2881802 2901231 2912609 2913650 2904858 2889244 
2229.949 2872066 2859534 2857381 2868835 2894311 2930630 2972462 3013985 
2233.806 3051068 3082579 3111130 3141562 3178918 3225563 3279310 3332848 
2237.664 3375368 3395576 3385639 3343906 3276391 3195457 3116886 3055782 
2241.521 3022718 3021337 3048302 3094591 3148820 3199753 3239247 3263129 
2245.379 3271069 3265553 3250594 3230267 3208182 3186808 3168360 3154502 
2249.236 3146797 3146455 3154198 3169654 3191531 3217414 3244680 3271024 
2253.094 3295061 3316564 3336257 3355166 3373893 3392066 3408469 3421553 
2256.951 3430221 3434277 3434809 3433102 3430324 3426156 3419103 3406682 
2260.808 3387185 3360769 3330759 3303086 3285292 3283906 3302646 3340751 
2264.666 3393268 3452379 3509831 3559305 3597974 3626627 3648509 3667815 
2268.523 3687585 3708951 3730759 3750496 3765484 3773992 3775856 3772794 
2272.381 3767666 3763678 3763428 3768319 3778270 3791930 3807391 3822860 
2276.238 3837319 3850821 3864338 3878897 3895262 3913043 3931029 3947564 
2280.095 3961607 3973165 3983682 3995251 4009770 4027817 4047899 4067024 
2283.953 4081799 4089861 4090874 4087113 4082239 4079958 4082484 4089678 
2287.810 4099245 4107844 4112653 4112302 4107373 4099745 4091537 4084101 
2291.668 4077698 4071673 4065314 4058674 4052705 4048790 4047876 4049629 
2295.525 4052199 4052678 4048624 4038917 4024682 4008818 3994947 3985820 
2299.383 3982121 3982330 3983220 3981652 3975749 3965782 3953923 3943330 
2303.240 3936663 3935121 3938128 3943829 3950104 3955515 3959943 3964405 
2307.097 3970458 3979394 3991724 4006822 4023346 4039592 4054165 4066243 
2310.955 4075695 4083061 4089075 4094588 4100119 4105693 4110877 4114874 
2314.812 4117009 4117011 4115487 4114017 4114770 4120065 4131499 4149637 
2318.670 4174127 4204193 4239505 4280569 4328594 4384313 4446451 4510343 
2322.527 4567615 4607364 4618804 4594302 4531819 4435891 4316822 4188312 
2326.385 4064471 3956917 3872627 3813384 3776411 3756242 3746840 3743322 
2330.242 3742767 3743822 3745959 3748610 3750715 3750874 3748048 3742018 
2334.099 3733821 3725291 3718564 3715102 3715307 3718314 3722512 3726035 
2337.957 3727439 3726029 3721974 3715859 3708729 3701571 3695296 3690684 
2341.814 3688210 3688019 3689736 3692419 3694725 3695260 3692910 3687321 
2345.672 3679038 3669310 3659788 3651778 3646007 3642273 3639698 3637163 
2349.529 3633625 3628724 3622674 3616161 3609994 3604873 3601019 3598357 
2353.386 3596623 3595664 3595519 3596425 3598641 3602207 3606624 3610945 
2357.244 3613804 3613701 3609511 3600625 3587201 3570140 3550839 3530855 
2361.101 3511709 3494500 3479999 3468508 3460105 3454704 3452031 3451844 
2364.959 3453691 3456948 3460823 3464309 3466482 3466557 3464130 3459277 
2368.816 3452619 3445147 3437974 3432185 3428547 3427311 3428422 3431427 
2372.674 3435709 3440691 3445936 3451125 3456146 3460909 3465396 3469666 
2376.531 3473740 3477704 3481725 3485886 3490155 3494335 3498053 3500850 
2380.388 3502538 3503297 3503827 3505369 3509443 3517275 3529547 3545960 
2384.246 3565358 3585790 3605178 3621638 3633947 3641553 3644689 3643819 
2388.103 3639621 3632709 3623753 3613458 3602741 3592604 3584054 3577854 
2391.961 3574278 3573152 3573979 3576218 3579647 3584433 3590985 3599727 
2395.818 3610674 3623214 3636088 3647660 3656531 3661736 3663237 3661758 
2399.676 3658509 3654714 3651239 3648397 3646130 3643936 3641527 3638795 
2403.533 3635963 3633352 3631342 3630049 3629358 3628971 3628675 3628394 
2407.390 3628428 3629261 3631483 3635508 3641294 3648346 3655535 3661701 
2411.248 3665585 3666417 3663972 3658852 3651966 3644506 3637351 3631029 
2415.105 3625674 3621294 3617990 3616293 3617279 3622105 3631601 3645606 
2418.963 3662572 3679747 3693701 3701099 3699966 3690067 3673343 3653082 
2422.820 3633192 3616787 3605390 3598543 3594080 3589067 3580816 3568215 
2426.677 3551900 3534450 3519708 3511465 3512487 3523462 3542664 3566333 
2430.535 3589500 3607480 3616782 3616215 3607116 3592686 3577183 3564721 
2434.392 3558111 3558549 3565554 3577504 3592400 3608355 3624051 3638602 
2438.250 3651203 3661108 3667320 3669150 3666352 3659759 3650989 3642358 
2442.107 3636068 3633394 3634162 3636638 3638169 3635802 3627676 3613477 
2445.965 3594873 3574941 3557385 3545602 3541647 3545833 3556951 3572773 
2449.822 3590888 3609397 3627455 3645078 3662801 3681031 3699464 3717081 
2453.679 3732082 3742685 3747598 3746818 3741579 3734198 3727345 3723397 
2457.537 3723496 3727634 3734624 3742680 3750013 3755341 3757977 3757886 
2461.394 3755108 3749643 3741269 3729496 3714196 3695604 3674676 3653060 
2465.252 3632741 3615486 3602544 3594128 3589548 3587282 3585597 3582984 
2469.109 3578718 3573089 3567272 3563102 3562190 3565390 3572217 3580917 
2472.967 3588841 3593363 3592919 3587804 3580135 3573507 3571515 3576638 
2476.824 3589264 3607360 3627283 3645146 3658072 3665251 3667877 3668377 
2480.681 3669014 3670679 3672456 3671902 3666233 3653600 3634324 3610832 
2484.539 3587404 3568508 3557736 3556740 3565067 3580630 3600527 3622168 
2488.396 3643588 3663733 3682379 3699515 3715268 3729526 3742090 3752601 
2492.254 3760738 3766135 3768514 3767866 3764556 3759302 3753352 3748086 
2496.111 3744512 3743070 3743321 3744189 3744407 3742876 3739443 3734824 
2499.969 3730074 3726276 3723821 3722146 3720007 3716100 3709565 3700608 
2503.826 3690241 3679982 3671136 3664332 3659533 3656243 3654302 3654111 
2507.683 3656885 3664008 3676377 3693647 3714004 3734364 3751386 3762500 
2511.541 3766582 3764263 3757498 3748801 3740316 3733285 3727811 3723508 
2515.398 3719574 3715604 3711434 3707202 3703003 3698776 3694151 3688799 
2519.256 3682530 3675507 3668189 3661248 3655263 3650753 3648134 3647898 
2523.113 3650643 3657037 3667559 3682039 3699450 3717865 3734671 3747336 
2526.970 3753820 3753238 3745962 3733433 3717772 3701430 3686706 3675687 
2530.828 3670024 3670784 3678240 3691737 3709606 3729299 3747892 3762818 
2534.685 3772467 3776523 3775998 3772482 3767772 3763034 3758747 3754902 
2538.543 3751195 3747730 3744985 3743842 3745049 3748931 3755243 3763327 
2542.400 3772426 3782226 3792815 3804525 3817453 3830912 3843328 3852658 
2546.258 3856821 3854773 3846896 3835039 3822017 3810582 3802640 3799041 
2550.115 3799314 3802533 3807941 3815214 3824626 3836545 3850869 3866655 
2553.972 3882141 3895269 3904219 3908280 3907877 3904315 3899409 3894687 
2557.830 3890874 3887965 3885432 3882590 3879000 3874522 3869375 3863874 
2561.687 3858336 3853157 3848740 3845807 3845159 3847579 3853501 3862645 
2565.545 3874038 3886253 3897841 3907760 3915816 3922508 3928728 3935266 
2569.402 3942302 3949348 3955268 3959002 3959974 3958501 3955835 3953891 
2573.260 3954624 3959322 3968230 3980384 3993800 4005833 4013917 4016235 
2577.117 4012021 4001972 3988010 3973183 3960709 3953605 3953750 3961549 
2580.974 3975906 3994355 4013737 4031000 4043764 4050802 4052037 4048319 
2584.832 4041057 4031654 4021438 4011531 4002927 3996629 3993624 3994742 
2588.689 4000311 4010027 4022724 4036432 4048946 4058190 4062818 4062603 
2592.547 4058425 4051939 4045272 4040234 4038277 4040016 4045402 4053954 
2596.404 4064830 4077011 4089269 4100319 4108723 4113182 4112954 4108115 
2600.261 4099854 4090366 4082331 4078387 4080206 4088169 4101070 4116679 
2604.119 4132207 4145244 4154357 4159254 4160802 4160462 4159878 4160478 
2607.976 4163066 4167969 4174973 4183396 4192406 4200881 4207734 4212094 
2611.834 4213572 4212320 4209262 4205698 4203140 4202756 4205274 4210879 
2615.691 4219318 4230100 4242803 4256987 4272161 4287467 4301664 4313289 
2619.549 4321024 4324254 4323426 4320001 4316203 4314209 4315355 4319668 
2623.406 4325932 4331957 4335670 4335870 4332601 4327360 4322425 4320190 
2627.263 4322267 4329065 4339799 4352746 4365870 4377390 4386161 4391792 
2631.121 4394491 4394870 4393636 4391450 4388800 4386041 4383452 4381262 
2634.978 4379860 4379563 4380701 4383489 4388012 4394081 4401269 4409123 
2638.836 4417179 4425130 4432847 4440394 4447782 4454898 4461389 4466764 
2642.693 4470409 4471853 4471039 4468266 4464235 4459655 4455127 4450873 
2646.551 4446789 4442540 4437933 4433088 4428515 4425034 4423550 4424683 
2650.408 4428646 4434965 4442628 4450285 4456447 4459815 4459557 4455413 
2654.265 4447859 4438017 4427505 4418116 4411319 4407968 4407936 4410245 
2658.123 4413186 4414929 4413872 4409216 4400786 4389012 4374533 4357926 
2661.980 4339494 4319418 4297947 4275629 4253473 4232778 4214725 4200212 
2665.838 4189341 4181608 4176080 4171852 4168289 4165277 4163050 4161914 
2669.695 4161932 4162822 4163858 4164344 4163738 4162011 4159513 4156831 
2673.552 4154513 4152766 4151347 4149799 4147616 4144523 4140758 4136863 
2677.410 4133664 4131844 4131889 4133957 4137783 4142907 4148787 4154826 
2681.267 4160452 4165243 4168939 4171393 4172778 4173270 4173329 4173138 
2685.125 4172717 4171732 4169659 4165998 4160453 4153283 4145178 4137311 
2688.982 4130816 4126591 4124865 4125217 4126704 4128063 4128349 4127092 
2692.840 4124523 4121342 4118558 4116983 4116887 4117893 4118999 4119024 
2696.697 4116901 4112249 4105588 4098212 4091991 4088620 4089220 4093897 
2700.554 4101643 4110725 4119097 4125118 4128033 4127944 4125767 4122690 
2704.412 4119694 4117199 4114990 4112464 4109140 4104894 4100191 4096119 
2708.269 4093865 4094316 4097646 4103191 4109556 4115123 4118507 4119118 
2712.127 4117356 4114366 4111820 4111109 4113161 4117794 4124134 4130633 
2715.984 4135756 4138410 4138184 4135432 4131101 4126164 4121569 4117803 
2719.842 4114987 4112954 4111527 4110603 4110286 4110743 4112079 4114338 
2723.699 4117338 4120935 4125040 4129649 4134962 4141007 4147623 4154252 
2727.556 4160060 4164015 4165407 4163979 4160126 4154659 4148731 4143308 
2731.414 4139082 4136260 4134760 4134308 4134850 4136292 4138728 4142133 
2735.271 4146278 4150680 4154894 4158546 4161637 4164474 4167490 4171128 
2739.129 4175406 4179827 4183486 4185323 4184554 4180802 4174434 4166294 
2742.986 4157549 4149339 4142594 4137824 4135302 4134927 4136501 4139648 
2746.844 4143843 4148358 4152432 4155226 4156191 4155137 4152310 4148481 
2750.701 4144576 4141584 4140177 4140563 4142439 4145168 4148037 4150539 
2754.558 4152655 4154714 4157389 4161349 4166900 4173739 4180958 4187264 
2758.416 4191327 4192277 4190122 4185618 4180241 4175629 4173193 4173525 
2762.273 4176471 4181143 4186243 4190443 4192920 4193139 4191241 4187694 
2766.131 4183337 4179113 4176034 4175053 4176787 4181180 4187599 4194712 
2769.988 4200746 4204158 4204090 4200658 4195026 4189107 4184823 4183515 
2773.845 4185661 4190604 4197243 4204295 4211044 4217329 4223568 4230267 
2777.703 4237808 4246065 4254641 4262953 4270800 4278155 4285158 4291897 
2781.560 4297941 4302392 4304055 4302020 4296209 4287617 4278438 4271292 
2785.418 4268657 4271911 4280961 4294282 4309455 4323994 4336097 4345169 
2789.275 4351907 4357872 4364922 4374427 4386785 4401277 4416226 4429531 
2793.133 4439232 4444290 4444625 4441472 4436822 4432774 4431040 4432478 
2796.990 4436856 4443101 4450011 4456673 4462857 4469043 4476126 4484867 
2800.847 4495365 4506983 4518433 4528259 4535477 4539939 4542321 4544086 
2804.705 4546623 4551128 4558009 4566968 4577195 4587753 4597602 4606053 
2808.562 4612604 4616971 4619175 4619630 4619165 4619146 4621195 4626951 
2812.420 4637646 4653766 4674910 4699871 4727066 4754740 4781411 4805972 
2816.277 4827720 4846323 4861672 4873889 4883507 4891273 4898273 4905830 
2820.135 4915208 4927353 4942802 4961576 4983233 5007101 5032258 5057790 
2823.992 5082759 5106336 5127934 5147239 5164434 5180133 5195154 5210524 
2827.849 5226994 5244902 5264245 5284712 5306090 5328409 5352218 5378391 
2831.707 5408067 5442244 5481581 5526206 5575852 5629996 5688135 5750031 
2835.564 5815858 5886285 5962534 6046132 6138924 6242893 6359854 6491438 
2839.422 6639000 6803577 6986133 7187694 7409720 7653894 7922435 8217716 
2843.279 8542106 8897792 9286363 9708495 10163706 10649474 11160796 11689568 
2847.136 12223980 12748826 13245963 13695654 14078385 14376587 14576586 
2850.512 14669959 14654225 14532913 14315182 14014544 13647485 13231924 
2853.887 12785493 12324246 11861569 11407722 10969861 10552682 10158952 
2857.262 9790393 9448108 9132849 8844884 8583948 8349131 8138752 7950808 
2861.120 7782947 7632813 7498330 7377727 7269694 7173236 7087914 7013725 
2864.977 6950929 6899936 6860976 6833795 6817606 6811186 6813024 6821617 
2868.834 6835827 6854722 6877725 6904329 6933982 6966198 7000674 7037406 
2872.692 7076952 7120158 7168072 7221429 7280407 7344474 7412443 7482797 
2876.549 7553812 7623905 7691545 7755428 7814215 7866893 7912758 7951792 
2880.407 7984663 8012586 8037106 8059517 8080718 8101062 8120446 8138811 
2884.264 8156468 8174031 8192491 8212702 8235029 8259264 8284728 8310603 
2888.122 8336480 8362587 8389851 8419607 8453293 8491996 8536375 8586545 
2891.979 8642457 8703743 8769824 8839808 8912259 8985434 9057418 9126676 
2895.836 9192475 9255159 9315906 9376383 9438063 9501875 9567988 9636093 
2899.694 9705720 9776889 9850137 9926403 10006714 10091788 10181981 10277230 
2903.551 10377712 10483989 10597288 10719385 10852118 10997047 11155208 
2906.927 11327174 11513629 11715794 11935947 12177410 12444116 12740009 
2910.302 13068318 13431127 13829190 14262056 14728527 15226537 15753105 
2913.677 16303919 16872722 17451130 18028482 18592522 19130236 19629070 
2917.052 20078064 20468542 20794534 21052778 21241934 21362240 21414964 
2920.427 21402050 21326112 21190814 21000774 20762088 20481908 20168152 
2923.803 19828724 19470998 19101138 18723918 18342984 17961336 17581516 
2927.178 17206258 16838122 16479591 16132647 15798581 15478083 15171389 
2930.553 14878747 14600791 14338523 14093234 13866141 13658120 13469365 
2933.928 13299544 13148038 13014099 12897351 12797683 12715261 12650369 
2937.304 12603107 12573281 12560262 12562849 12579097 12606139 12640426 
2940.679 12677701 12713423 12743537 12764798 12775131 12773648 12760212 
2944.054 12734766 12697035 12646170 12581261 12501724 12408048 12301996 
2947.429 12186502 12064974 11940327 11814232 11686811 11556835 11422572 
2950.805 11282672 11137050 10987173 10835857 10686696 10543048 10407413 
2954.180 10280915 10163373 10053441 9949367 9849249 9751810 9656390 9563134 
2958.037 9472743 9386080 9303896 9226447 9153350 9083547 9015768 8948742 
2961.895 8881708 8814477 8747493 8681615 8617567 8555903 8496693 8439653 
2965.752 8384341 8330346 8277584 8226209 8176673 8129412 8084878 8043432 
2969.610 8005421 7971053 7940555 7913937 7890960 7871138 7853941 7838844 
2973.467 7825628 7814535 7806263 7801477 7800889 7804592 7812299 7823331 
2977.324 7837216 7854032 7874797 7901373 7936117 7981235 8038304 8107622 
2981.182 8188288 8278505 8376032 8478875 8585874 8696979 8813292 8936661 
2985.039 9069478 9213862 9371373 9542456 9726025 9919752 10119969 10322398 
2988.897 10522465 10716078 10899967 11071911 11230683 11375652 11506387 
2992.272 11622203 11722036 11804468 11867993 11911254 11933650 11935408 
2995.647 11917790 11882771 11832805 11770259 11697149 11614849 11524067 
2999.022 11424839 11316985 11200216 11074676 10940840 10799752 10652809 
3002.398 10501479 10347252 10191260 10034285 9876801 9719126 9561422 9404000 
3006.255 9247449 9092446 8939802 8790272 8644321 8501997 8362877 8226223 
3010.113 8091186 7957203 7824151 7692549 7563516 7438339 7318154 7203581 
3013.970 7094459 6990021 6889023 6790304 6693069 6597148 6502992 6411361 
3017.827 6323050 6238580 6158246 6081909 6009477 5940811 5875951 5814930 
3021.685 5757697 5703805 5652470 5602687 5553303 5503538 5453158 5402374 
3025.542 5352087 5303357 5257479 5215485 5178290 5146416 5120036 5098879 
3029.400 5082269 5068877 5056913 5044267 5029062 5009848 4986267 4959054 
3033.257 4930094 4901779 4876642 4856468 4842071 4832896 4827497 4823808 
3037.115 4819804 4813971 4805539 4794639 4781994 4768584 4755420 4743216 
3040.972 4732355 4723017 4714970 4707988 4701693 4695719 4689599 4683224 
3044.829 4676514 4669760 4663474 4658233 4654589 4652711 4652286 4652635 
3048.687 4652932 4652496 4651180 4649362 4647919 4647701 4649200 4651914 
3052.544 4654503 4654861 4650902 4641084 4625091 4604170 4580615 4557497 
3056.402 4537666 4523207 4515065 4512863 4515398 4521060 4528358 4536162 
3060.259 4543896 4551307 4558364 4564897 4570624 4575062 4577715 4578121 
3064.116 4576109 4571753 4565484 4557972 4550070 4542700 4536654 4532541 
3067.974 4530614 4530632 4531891 4533318 4533683 4531774 4526960 4519249 
3071.831 4509399 4498705 4488850 4481319 4477051 4476205 4478193 4481718 
3075.689 4485477 4488205 4489224 4488473 4486255 4483267 4480140 4477434 
3079.546 4475467 4474415 4474451 4475563 4477741 4480733 4484116 4487300 
3083.404 4489629 4490690 4490187 4488226 4484921 4480432 4474756 4467905 
3087.261 4459890 4451142 4442635 4435829 4432067 4432495 4437091 4444770 
3091.118 4453456 4460715 4464546 4464035 4459582 4452691 4445406 4439486 
3094.976 4435907 4434795 4435540 4437301 4439647 4442395 4445887 4450198 
3098.833 4455114 4459862 4463189 4463915 4461243 4455128 4446378 4436234 
3102.691 4426066 4416980 4409719 4404453 4401131 4399476 4399234 4400044 
3106.548 4401684 4403910 4406551 4409681 4413579 4418414 4424263 4430687 
3110.406 4436731 4441040 4442399 4440030 4434260 4426262 4417824 4410600 
3114.263 4405686 4402968 4401612 4400364 4398303 4395443 4392773 4391681 
3118.120 4393396 4398259 4405397 4412805 4418218 4419691 4416368 4408706 
3121.978 4398328 4387263 4377586 4370716 4367264 4367073 4369500 4373489 
3125.835 4377950 4381610 4383624 4383325 4380813 4376863 4372784 4370258 
3129.693 4370652 4374689 4382122 4391764 4402000 4411242 4418483 4423313 
3133.550 4426052 4427302 4427672 4427602 4427210 4426645 4426092 4425891 
3137.407 4426367 4427467 4428845 4429526 4428476 4424815 4418359 4409782 
3141.265 4400560 4392441 4387030 4385220 4387194 4392298 4399653 4408171 
3145.122 4417038 4425638 4433498 4440176 4445089 4447699 4447863 4445526 
3148.980 4441336 4436077 4430730 4426093 4422651 4420557 4419755 4420141 
3152.837 4421658 4424341 4428363 4433790 4440686 4449010 4458482 4468757 
3156.695 4479196 4488916 4496737 4501337 4501636 4497001 4487671 4474748 
3160.552 4459993 4445582 4433385 4424616 4419708 4418346 4419876 4423569 
3164.409 4429007 4436061 4444590 4454238 4464029 4472588 4478192 4479339 
3168.267 4475173 4465779 4452435 4437147 4422419 4410649 4403705 4402432 
3172.124 4406661 4415188 4426205 4437475 4447196 4454238 4458467 4460665 
3175.982 4462234 4464574 4468557 4474085 4479952 4484385 4485587 4482404 
3179.839 4474955 4464630 4453792 4445073 4440608 4441445 4447246 4456601 
3183.697 4467451 4477760 4486100 4491881 4495549 4498093 4500824 4504876 
3187.554 4510827 4518516 4527189 4535603 4542458 4546934 4548703 4548090 
3191.411 4545937 4543324 4540840 4538673 4536298 4532817 4527291 4519236 
3195.269 4508850 4497008 4484998 4474091 4465237 4458898 4455172 4453972 
3199.126 4455443 4459912 4467799 4479205 4493593 4509620 4525215 4538009 
3202.984 4546192 4548894 4546650 4541170 4534952 4530489 4529656 4533169 
3206.841 4540514 4550209 4560272 4568711 4574023 4575480 4573222 4568019 
3210.698 4561109 4553934 4547769 4543471 4541459 4541646 4543504 4546441 
3214.556 4549907 4553373 4556522 4559066 4560619 4560851 4559343 4555929 
3218.413 4550839 4544756 4538947 4534678 4533132 4534913 4539759 4546481 
3222.271 4553492 4558895 4561165 4559497 4553955 4545409 4535316 4525331 
3226.128 4517054 4511712 4510134 4512553 4518860 4528638 4541138 4555665 
3229.986 4571425 4587710 4603936 4619460 4633739 4645998 4655371 4660971 
3233.843 4662065 4658008 4648964 4635498 4618927 4600824 4582917 4566447 
3237.700 4552158 4540037 4529687 4520564 4512480 4505848 4501806 4501623 
3241.558 4506484 4516737 4531542 4548939 4566232 4580622 4589964 4593257 
3245.415 4590640 4583200 4572382 4559594 4546059 4532643 4520424 4510693 
3249.273 4505094 4505317 4512468 4526581 4546330 4569313 4592530 4613229 
3253.130 4629593 4640906 4647398 4649814 4648653 4644125 4635906 4624017 
3256.988 4609003 4592405 4576717 4564694 4558746 4560056 4568372 4581956 
3260.845 4598257 4614453 4628175 4637805 4642590 4642573 4638354 4631004 
3264.702 4621821 4612177 4603390 4596201 4590909 4587093 4584158 4581345 
3268.560 4578443 4575762 4574055 4574091 4576074 4579335 4582450 4583674 
3272.417 4581662 4575965 4567467 4557745 4548604 4541197 4535770 4531553 
3276.275 4527626 4523338 4519206 4516620 4517644 4523892 4535986 4552987 
3280.132 4572778 4592712 4610542 4624864 4635508 4643110 4648579 4652488 
3283.990 4655014 4655777 4654413 4650801 4645286 4638656 4631980 4626213 
3287.847 4622322 4621122 4623374 4629636 4640155 4654551 4671263 4687891 
3291.704 4701426 4709013 4708902 4700943 4686870 4669638 4652560 4638422 
3295.562 4628725 4623334 4621134 4620490 4620060 4619257 4618036 4616792 
3299.419 4615819 4614912 4613622 4611269 4607617 4602834 4597755 4593500 
3303.277 4590984 4590456 4591511 4593017 4593812 4593034 4590560 4587112 
3307.134 4584059 4582748 4584343 4589052 4596377 4605311 4614520 4623042 
3310.991 4630387 4636501 4641777 4646408 4650407 4653328 4654516 4653151 
3314.849 4648769 4641414 4631617 4620344 4608737 4597901 4588765 4581929 
3318.706 4577839 4576756 4578852 4583934 4591709 4601327 4611744 4621698 
3322.564 4630008 4635910 4638982 4639313 4637370 4633846 4629397 4624755 
3326.421 4620510 4617037 4614633 4613230 4612611 4612266 4611887 4611234 
3330.279 4610682 4610905 4612952 4617608 4625001 4634290 4643843 4651484 
3334.136 4655156 4653684 4646998 4636190 4623178 4610299 4599609 4592706 
3337.993 4590779 4594365 4603581 4618008 4636566 4657244 4677510 4694478 
3341.851 4705757 4710097 4707790 4700586 4691114 4681983 4675048 4670800 
3345.708 4668692 4667384 4665801 4663416 4660686 4658539 4658076 4659927 
3349.566 4664001 4669612 4675729 4681309 4685664 4688391 4689249 4688133 
3353.423 4684861 4679430 4672034 4663203 4653761 4644524 4636248 4629291 
3357.281 4623790 4619907 4618044 4618821 4622942 4630856 4642048 4655048 
3361.138 4667661 4677438 4682469 4682140 4677128 4669226 4660448 4652370 
3364.995 4645555 4639510 4633291 4626057 4617590 4608579 4600291 4594040 
3368.853 4590575 4589838 4591094 4593087 4594770 4595542 4595336 4594344 
3372.710 4592960 4591333 4589579 4587571 4585480 4583735 4583052 4584214 
3376.568 4587928 4594401 4603371 4614007 4624958 4634653 4641393 4643719 
3380.425 4640591 4631830 4618397 4602233 4586309 4573827 4567506 4568839 
3384.282 4577599 4591845 4608435 4623826 4635183 4640915 4641077 4637243 
3388.140 4631799 4627314 4626037 4629024 4636452 4647314 4659756 4671518 
3391.997 4680372 4684448 4682922 4676043 4665275 4652983 4641793 4633966 
3395.855 4630851 4632577 4638240 4646262 4654962 4663151 4670403 4676762 
3399.712 4682866 4689054 4695325 4701050 4705231 4706654 4704540 4698642 
3403.570 4689634 4678984 4668900 4661691 4659464 4663419 4673677 4688797 
3407.427 4706266 4722691 4734889 4740446 4738293 4729142 4715078 4698958 
3411.284 4683652 4671329 4663111 4658647 4656971 4656521 4655824 4653750 
3415.142 4649772 4643703 4635927 4626783 4616924 4606924 4597294 4588539 
3418.999 4580973 4574818 4570264 4567495 4567005 4569344 4575144 4584712 
3422.857 4597837 4613283 4629170 4643094 4652763 4656661 4654670 4648110 
3426.714 4639569 4632164 4628750 4631088 4639474 4652574 4668024 4682964 
3430.572 4694764 4701584 4702796 4698704 4690668 4680528 4670246 4661663 
3434.429 4656318 4655188 4658741 4666913 4679080 4694365 4711348 4728526 
3438.286 4744406 4757350 4766075 4769626 4767576 4760300 4748915 4735232 
3442.144 4721489 4709836 4701926 4698334 4698379 4700380 4702016 4700965 
3446.001 4695768 4686045 4672821 4658014 4644077 4633177 4626883 4625692 
3449.859 4629391 4636912 4647077 4658566 4670248 4681143 4690424 4697336 
3453.716 4701427 4702391 4700390 4695991 4690208 4684164 4679040 4675675 
3457.573 4674507 4675502 4678270 4682256 4686917 4692053 4697782 4704600 
3461.431 4713243 4724256 4737864 4753574 4770225 4786077 4799434 4808706 
3465.288 4813429 4813969 4811769 4808833 4807082 4807929 4811919 4818592 
3469.146 4826905 4835410 4842968 4848592 4851962 4853123 4852621 4851310 
3473.003 4850582 4852194 4858085 4869947 4888734 4914105 4944224 4976118 
3476.861 5006182 5031209 5049003 5058986 5062034 5059911 5054473 5046947 
3480.718 5037976 5027465 5015557 5003062 4991852 4984707 4984526 4993365 
3484.575 5011729 5038145 5069636 5102383 5132973 5159272 5180800 5198570 
3488.433 5214242 5229392 5244763 5259947 5273784 5285040 5292825 5297461 
3492.290 5300110 5302483 5306152 5312027 5320014 5329442 5339317 5349051 
3496.148 5358872 5369524 5382101 5397215 5414628 5433093 5450796 5465813 
3500.005 5476977 5484128 5488141 5490413 5492360 5494849 5498108 5501957 
3503.863 5506145 5510743 5516125 5522591 5530060 5537652 5543859 5546886 
3507.720 5545673 5540082 5531501 5522110 5514068 5508736 5505923 5504159 
3511.577 5501176 5494982 5484638 5470455 5453567 5435396 5416644 5397202 
3515.435 5376381 5353422 5328542 5302935 5278617 5257601 5241178 5229060 
3519.292 5219713 5211065 5201437 5190335 5178785 5168824 5162422 5160751 
3523.150 5163413 5168672 5174089 5177383 5177197 5173373 5166457 5157338 
3527.007 5146708 5134781 5121692 5107682 5093512 5080524 5070327 5064007 
3530.865 5062003 5063480 5066856 5070161 5071590 5070190 5065726 5058636 
3534.722 5049813 5039983 5029668 5019180 5008617 4998089 4987571 4977171 
3538.579 4967060 4957297 4948103 4939656 4932273 4926162 4921332 4917495 
3542.437 4914286 4911259 4908376 4905856 4904414 4904693 4906912 4910588 
3546.294 4914373 4916267 4914496 4908089 4897337 4883899 4870108 4858486 
3550.152 4850636 4846998 4846807 4848508 4850552 4851950 4852282 4851956 
3554.009 4851326 4850514 4849215 4846725 4842349 4835893 4827903 4819535 
3557.866 4812393 4807852 4806678 4808705 4813079 4818490 4823511 4827110 
3561.724 4828787 4828685 4827451 4826010 4825603 4827328 4832173 4840540 
3565.581 4852275 4866231 4880816 4893782 4903117 4907294 4905931 4899699 
3569.439 4890303 4879978 4870799 4864107 4860185 4858277 4856832 4853873 
3573.296 4847675 4836981 4821410 4801487 4778643 4755002 4733324 4716335 
3577.154 4706562 4705560 4713403 4728704 4748511 4768985 4786568 4798493 
3581.011 4803739 4802832 4797640 4790085 4781524 4772141 4760981 4746756 
3584.868 4728771 4707723 4685888 4666695 4653584 4648919 4653047 4664255 
3588.726 4679450 4695164 4708726 4718885 4725759 4730307 4733456 4735478 
3592.583 4735819 4733276 4726843 4716173 4702003 4686187 4671140 4659307 
3596.441 4652554 4651643 4656172 4664471 4673965 4681680 4684630 4680809 
3600.298 4669575 4652280 4632034 4613099 4599864 4595452 4601009 4614979 
3604.156 4633971 4653585 4669971 4680775 4685783 4686558 4685632 4685606 
3608.013 4688055 4693314 4700890 4709478 4718008 4725677 4732116 4737273 
3611.870 4741088 4743473 4744229 4743283 4740707 4736872 4732123 4726841 
3615.728 4721249 4715446 4709419 4703428 4697967 4693986 4692623 4695188 
3619.585 4702684 4715767 4734282 4757429 4783491 4810258 4835092 4855640 
3623.443 4870266 4878444 4880988 4879655 4876637 4874039 4873002 4873860 
3627.300 4876207 4879347 4882946 4886919 4891437 4896429 4901112 4903947 
3631.157 4903233 4897765 4887889 4875727 4865015 4859863 4863475 4876875 
3635.015 4898441 4924153 4949229 4969305 4982076 4987699 4988597 4988226 
3638.872 4990031 4996168 5007037 5021257 5036380 5049626 5058879 5063149 
3642.730 5062984 5060439 5058603 5060819 5069668 5086138 5109314 5136055 
3646.587 5162120 5183128 5196187 5200497 5197711 5191190 5184543 5180391 
3650.445 5179427 5180398 5181019 5179116 5173849 5166080 5157846 5151761 
3654.302 5149627 5151820 5157304 5163952 5169751 5173588 5175459 5176630 
3658.159 5178589 5182540 5188735 5196145 5203082 5207565 5208075 5203848 
3662.017 5195081 5182889 5168728 5153961 5139681 5126765 5115515 5106269 
3665.874 5099302 5094819 5093067 5093686 5095624 5096921 5095031 5087291 
3669.732 5071943 5048660 5019336 4987551 4957723 4933939 4918637 4912066 
3673.589 4912371 4916444 4921044 4923749 4923691 4921172 4917070 4912148 
3677.447 4906386 4899087 4889550 4877499 4863748 4850058 4838489 4830763 
3681.304 4827299 4827189 4828387 4828416 4825186 4817567 4805392 4789403 
3685.161 4770922 4751317 4732026 4714428 4699810 4689127 4682908 4680979 
3689.019 4682572 4686507 4692042 4698761 4707044 4717433 4730243 4744671 
3692.876 4758864 4770150 4776181 4775771 4769749 4760924 4753031 4749502 
3696.734 4752076 4760040 4770567 4779621 4783628 4780628 4770972 4756895 
3700.591 4741855 4729112 4720837 4717663 4718707 4722176 4725938 4727993 
3704.448 4726903 4721817 4712684 4700099 4685324 4670192 4656702 4646585 
3708.306 4641056 4640205 4643376 4649115 4655957 4662713 4668799 4674482 
3712.163 4680432 4687511 4696505 4707717 4720745 4734754 4748360 4759880 
3716.021 4767928 4771489 4770434 4765674 4758883 4752205 4747631 4746255 
3719.878 4748037 4751826 4755934 4758581 4758703 4756284 4752098 4747582 
3723.736 4744156 4742992 4744597 4748986 4755817 4764340 4773680 4782577 
3727.593 4789607 4793229 4792284 4786044 4774675 4759078 4740806 4721550 
3731.450 4702891 4686036 4672118 4661865 4656025 4655124 4659227 4667520 
3735.308 4678530 4689988 4699984 4707116 4711407 4714041 4716805 4721213 
3739.165 4727880 4736080 4744129 4750177 4752997 4752640 4750073 4746906 
3743.023 4744453 4743174 4742751 4742429 4741839 4741491 4742625 4746814 
3746.880 4754851 4766240 4778976 4790103 4796808 4797553 4792809 4784839 
3750.738 4776957 4772170 4772144 4776892 4784624 4793050 4800031 4804401 
3754.595 4806171 4806340 4806265 4807280 4810333 4815873 4823812 4833549 
3758.452 4844111 4853957 4861342 4864506 4862126 4853764 4840022 4822554 
3762.310 4803671 4785710 4770545 4759551 4753201 4751447 4754008 4760255 
3766.167 4769267 4779823 4790484 4799555 4805698 4808087 4806902 4802938 
3770.025 4797726 4792461 4787940 4784178 4780556 4776419 4771457 4766043 
3773.882 4761195 4758147 4757892 4760766 4766229 4773304 4780857 4788052 
3777.740 4794720 4801067 4807611 4814400 4820984 4826204 4828484 4826364 
3781.597 4819058 4806730 4790620 4772714 4755566 4741693 4732992 4730705 
3785.454 4735127 4745543 4760403 4777502 4794388 4808644 4818251 4822031 
3789.312 4819787 4812320 4801270 4788665 4776667 4766954 4760525 4757651 
3793.169 4757984 4760815 4765547 4771782 4779533 4789034 4800687 4814597 
3797.027 4830611 4848093 4866126 4883414 4898580 4910199 4916996 4918022 
3800.884 4912834 4901741 4886014 4867820 4849739 4834459 4823977 4819086 
3804.741 4819191 4822306 4825826 4827047 4824035 4816309 4804711 4791163 
3808.599 4778091 4767642 4761361 4759833 4762800 4769563 4779030 4790009 
3812.456 4801276 4811702 4820376 4826553 4829987 4830597 4829021 4825779 
3816.314 4821520 4816557 4811177 4805547 4799903 4794896 4791439 4790545 
3820.171 4793012 4798973 4807815 4818288 4828856 4838175 4845463 4850743 
3824.029 4854695 4858268 4862547 4868081 4875143 4883407 4892262 4900793 
3827.886 4907929 4912675 4914286 4912384 4907290 4900028 4892226 4885731 
3831.743 4882032 4881652 4883967 4887184 4889054 4887392 4881138 4870539 
3835.601 4857269 4843865 4832868 4825872 4823141 4823629 4825452 4826727 
3839.458 4826416 4824743 4823057 4823427 4827557 4836574 4850155 4866664 
3843.316 4883650 4898295 4908221 4911906 4908797 4899545 4885345 4868085 
3847.173 4849799 4832599 4818560 4809307 4805867 4808412 4816170 4827382 
3851.031 4839570 4850146 4857020 4858995 4856160 4849736 4841747 4834321 
3854.888 4829234 4827314 4828838 4833374 4840396 4849420 4859987 4871674 
3858.745 4883945 4895943 4906522 4914457 4918720 4918847 4915100 4908467 
3862.603 4900409 4892547 4886187 4882156 4880446 4880580 4881637 4882734 
3866.460 4883317 4883385 4883492 4884563 4887560 4892986 4900618 4909440 
3870.318 4917986 4924832 4929461 4932267 4934719 4938980 4946559 4957828 
3874.175 4971216 4983404 4990452 4988745 4976666 4955128 4927583 4898963 
3878.032 4874269 4857046 4848549 4847604 4851395 4856814 4861587 4864930 
3881.890 4867798 4871845 4878860 4889677 4903795 4919509 4934538 4946603 
3885.747 4954005 4956104 4953351 4947030 4938664 4930058 4922564 4917045 
3889.605 4913675 4912108 4911443 4910751 4909381 4907096 4904398 4902177 
3893.462 4901284 4901971 4903933 4906068 4907086 4906312 4903929 4901360 
3897.320 4900837 4904566 4913855 4928280 4945662 4962598 4975600 4982151 
3901.177 4981595 4975221 4965878 4956813 4950741 4948916 4951098 4955666 
3905.034 4960607 4964085 4965244 4963990 4961112 4957605 4954404 4951909 
3908.892 4950239 4949129 4948326 4947656 4947066 4946715 4946618 4946587 
3912.749 4946275 4945190 4943102 4940147 4937163 4935488 4936697 4942086 
3916.607 4952100 4965925 4981664 4996407 5007290 5012172 5010381 5002731 
3920.464 4991563 4979549 4969259 4962044 4958118 4956506 4955697 4954352 
3924.322 4951695 4947805 4943111 4938176 4933185 4927979 4922289 4916009 
3928.179 4909714 4904489 4901729 4902612 4907461 4915569 4925354 4934915 
3932.036 4942748 4948383 4952344 4955983 4960495 4966417 4973132 4978991 
3935.894 4981923 4980184 4973300 4962199 4948947 4936283 4926612 4921520 
3939.751 4921222 4925117 4932129 4941213 4951805 4963946 4977692 4992813 
3943.609 5008302 5022236 5032162 5035739 5031481 5019495 5001556 4980935 
3947.466 4961564 4946835 4938997 4938523 4943933 4952714 4962129 4969996 
3951.323 4975374 4978717 4981347 4984651 4989398 4995293 5000974 5004484 
3955.181 5004109 4998903 4989379 4977154 4964832 4954964 4949737 4950151 
3959.038 4956154 4966749 4980279 4994960 5009011 5020864 5029341 5033535 
3962.896 5033079 5028122 5019579 5008911 4998040 4989058 4983727 4982940 
3966.753 4986955 4994800 5004988 5015816 5025793 5034053 5040461 5045448 
3970.611 5049623 5053461 5056838 5058944 5058595 5054641 5046620 5035139 
3974.468 5022044 5009976 5001757 4999367 5003540 5013166 5025848 5038507 
3978.325 5048373 5053708 5054551 5052055 5048335 5045539 5045254 5048024 
3982.183 5053458 5060523 5067863 5074198 5078577 5080225 5078855 5074507 
3986.040 5067709 5059604 5051852 5046287 5044530 5047481 5054962 5065481 
3989.898 5076574 5085478 5089551 5087197 5077898 5062644 5043479 5023154 
3993.755 5004802 4991187 4984597 4986043 4995215 5010535 5029145 5047734 
3997.613 5063110 5073159 5077140 5076006 5071883 5067460 5065028 
##END=
