##TITLE=eSUN_PLA+_White_Filament_r4_ATR-Corrected
##JCAMP-DX=5.01  $$ Nicolet v. 1
##DATATYPE=INFRARED SPECTRUM
##ORIGIN=Curtin University
##OWNER=Nicolet
##LONGDATE=2024/07/11
##TIME=10:06:31
##SPECTROMETER/DATA SYSTEM=Nicolet iS50
##DATA PROCESSING=
Ratio against background
%Transmittance->Absorbance
ATR Correction
Truncated
ElementMultiply or ElementDivide
##COMMENTS=
Number of sample scans: 32
Collection length: 47.27 sec
Sample gain: 1.0
Background collected on: Thu Jul 11 10:03:55 2024 (GMT+08:00);
Number of background scans: 32
Background gain: 1.0
Sample spacing:  1.000
Number of scan points: 16672
Resolution points: 8192
Number of FFT points: 65536
Apodization: N-B strong;
Phase correction: Mertz;
Laser frequency: 15798.3 cm-1
Number of rejected sample scans: 0
Number of rejected background scans: 0
Bench serial number: AUP1200105;
##RESOLUTION=4.000
##XUNITS=1/CM
##YUNITS=ABSORBANCE
##FIRSTX=400.163452
##LASTX=4000.187744
##FIRSTY=0.057907
##MAXX=4000.187744
##MINX=400.163452
##MAXY=1.068387
##MINY=-0.042115
##XFACTOR=1.000000
##YFACTOR=1.000000E-008
##NPOINTS=7468
##DELTAX=0.482125
##ZPD=8192
##XYDATA=(X++(Y..Y))
400.163 5790678 5805688 5823453 5836104 5832929 5804387 5743845 5649165 
404.020 5523557 5375173 5215848 5059088 4917688 4801424 4715115 4657760 
407.877 4622746 4599429 4575538 4540027 4485448 4409381 4314725 4208258 
411.734 4098751 3994143 3899916 3817948 3746873 3682995 3621780 3559232 
415.591 3493093 3423405 3352626 3285164 3226427 3181531 3153871 3143767 
419.448 3147895 3159451 3169570 3169514 3153070 3118361 3068457 3010356 
423.305 2952785 2903298 2865982 2840291 2821716 2803669 2780254 2748412 
427.162 2709147 2667054 2628749 2600677 2587155 2589172 2604288 2627335 
431.019 2651783 2671085 2679935 2674601 2654280 2620340 2576411 2528026 
434.876 2481715 2443842 2419218 2409965 2415047 2430751 2451917 2473612 
438.733 2492521 2507666 2520107 2531798 2544211 2557213 2568919 2576303 
442.590 2576654 2568892 2554344 2536447 2519714 2508060 2503466 2505438 
446.447 2511325 2517444 2520516 2518678 2511932 2501782 2490386 2479709 
450.304 2470965 2464476 2460012 2457161 2455642 2455328 2456116 2457637 
454.161 2459221 2460019 2459302 2456815 2452937 2448597 2444996 2443124 
458.017 2443460 2445764 2449195 2452485 2454287 2453403 2448962 2440592 
461.874 2428510 2413520 2396978 2380054 2364566 2351284 2340034 2329694 
465.731 2318538 2304934 2288095 2268558 2248229 2229908 2216372 2209500 
469.588 2209626 2215457 2224508 2233856 2240892 2243895 2242164 2235788 
473.445 2225438 2211954 2196254 2179317 2162230 2146129 2132034 2120506 
477.302 2111469 2104135 2097253 2089535 2080083 2068732 2056048 2043070 
481.159 2030880 2020120 2010771 2002115 1992971 1982104 1968605 1952222 
485.016 1933473 1913599 1894328 1877523 1864760 1856944 1854036 1854967 
488.873 1857909 1860612 1860983 1857538 1849659 1837597 1822271 1804888 
492.730 1786715 1768920 1752616 1738678 1728395 1722638 1721751 1725273 
496.587 1731847 1739443 1745867 1749392 1749268 1745844 1740326 1734151 
500.444 1728402 1723372 1718642 1713443 1707300 1700470 1694110 1689871 
504.301 1689360 1693314 1701232 1711247 1720604 1726337 1726112 1718816 
508.158 1704888 1686129 1665317 1645494 1629351 1618611 1613730 1613847 
512.015 1617092 1621064 1623525 1622895 1618571 1610900 1600842 1589503 
515.871 1577778 1566186 1555060 1544887 1536550 1531329 1530514 1534769 
519.728 1543491 1554473 1564215 1568695 1564526 1549981 1525595 1494048 
523.585 1459509 1426501 1398896 1378959 1367625 1364167 1366823 1373315 
527.442 1381301 1388694 1393873 1395863 1394437 1390130 1384129 1377942 
531.299 1373003 1370232 1369815 1371196 1373303 1374958 1375260 1373738 
535.156 1370464 1365798 1360252 1354350 1348616 1343591 1339855 1337951 
539.013 1338207 1340510 1344243 1348301 1351320 1352054 1349667 1343915 
542.870 1335171 1324231 1312117 1299913 1288625 1279218 1272560 1269360 
546.727 1269988 1274374 1281848 1291246 1301118 1310047 1316996 1321465 
550.584 1323560 1323797 1322900 1321592 1320410 1319707 1319584 1319958 
554.441 1320579 1321054 1320979 1319873 1317744 1314822 1311654 1308921 
558.298 1307263 1307004 1308038 1309937 1312111 1314074 1315653 1316988 
562.155 1318470 1320504 1323430 1327476 1332827 1339707 1348420 1359112 
566.012 1371621 1385174 1398421 1409708 1417618 1421551 1422131 1421192 
569.869 1421299 1424896 1433536 1447264 1464628 1483106 1499951 1512976 
573.725 1521158 1524799 1525221 1524187 1523335 1523680 1525384 1527850 
577.582 1529969 1530483 1528446 1523561 1516401 1508445 1501844 1498947 
581.439 1501657 1510805 1525791 1544555 1564040 1581013 1592891 1598467 
585.296 1598232 1594076 1588736 1584982 1584932 1589573 1598769 1611405 
589.153 1625876 1640474 1653803 1664936 1673551 1679875 1684574 1688527 
593.010 1692587 1697313 1702820 1708732 1714369 1718967 1722083 1723713 
596.867 1724443 1725208 1727044 1730762 1736737 1744828 1754540 1765194 
600.724 1776201 1787190 1798057 1808864 1819697 1830581 1841315 1851529 
604.581 1860727 1868419 1874305 1878495 1881552 1884579 1888997 1896285 
608.438 1907575 1923354 1943313 1966448 1991379 2016750 2041635 2065635 
612.295 2088856 2111523 2133753 2155276 2175530 2193879 2210026 2224270 
616.152 2237562 2251290 2266948 2285648 2307888 2333486 2361653 2391271 
620.009 2421077 2449806 2476296 2499592 2519127 2534948 2547906 2559652 
623.866 2572426 2588501 2609537 2636097 2667375 2701421 2735719 2767875 
627.723 2796263 2820292 2840317 2857229 2872040 2885459 2897883 2909507 
631.579 2920588 2931648 2943447 2956832 2972390 2990229 3009859 3030319 
635.436 3050454 3069230 3086011 3100664 3113522 3125282 3136830 3149117 
639.293 3163059 3179412 3198695 3221097 3246383 3273835 3302364 3330585 
643.150 3357079 3380566 3400118 3415322 3426338 3433892 3439206 3443811 
647.007 3449315 3457045 3467808 3481686 3497983 3515468 3532718 3548550 
650.864 3562428 3574645 3586259 3598823 3613896 3632636 3655456 3681909 
654.721 3710797 3740473 3769162 3795385 3818151 3837151 3852710 3865661 
658.578 3877181 3888508 3900757 3914750 3930905 3949227 3969325 3990507 
662.435 4011963 4032883 4052664 4071110 4088473 4105547 4123428 4143322 
666.292 4166102 4192042 4220590 4250402 4279667 4306573 4329781 4348772 
670.149 4363920 4376253 4387085 4397607 4408582 4420330 4432843 4446015 
674.006 4459861 4474546 4490356 4507501 4526001 4545660 4566148 4587101 
677.863 4608243 4629397 4650414 4671135 4691233 4710458 4728777 4746518 
681.720 4764430 4783559 4804881 4828912 4855440 4883485 4911507 4937897 
685.577 4961435 4981621 4998738 5013672 5027527 5041333 5055856 5071583 
689.433 5088937 5108390 5130644 5156529 5186984 5222813 5264691 5313151 
693.290 5368655 5431685 5502704 5582010 5669449 5764148 5864276 5966939 
697.147 6068433 6164403 6250372 6322203 6376555 6411306 6425748 6420684 
701.004 6398222 6361445 6313874 6259000 6199861 6138877 6077866 6018214 
704.861 5961185 5907963 5859697 5817351 5781432 5751890 5728147 5709252 
708.718 5694225 5682219 5672576 5664617 5657212 5648507 5635700 5615300 
712.575 5583685 5537870 5476268 5399165 5308684 5208382 5102346 4994384 
716.432 4887225 4782152 4679062 4576823 4473899 4368971 4261335 4151113 
720.289 4039187 3926963 3816070 3708111 3604515 3506469 3414958 3330768 
724.146 3254556 3186836 3128023 3078482 3038590 3008815 2989778 2982132 
728.003 2986520 3003273 3032323 3073158 3124977 3187017 3258850 3340664 
731.860 3433211 3537444 3653990 3782539 3921423 4067574 4216885 4364942 
735.717 4507805 4642759 4768630 4885788 4995752 5100668 5202717 5303691 
739.574 5404724 5506227 5607879 5708823 5807853 5903765 5995666 6083346 
743.431 6167420 6249308 6330929 6414231 6500727 6591078 6685137 6782157 
747.287 6881301 6982063 7084523 7189335 7297338 7409080 7524451 7642516 
751.144 7761653 7879866 7995150 8105682 8209755 8305479 8390532 8461949 
755.001 8516364 8550428 8561499 8548241 8510870 8451068 8371473 8274995 
758.858 8164229 8041112 7906981 7762921 7610158 7450390 7285814 7118840 
762.715 6951660 6785874 6622193 6460618 6300767 6142352 5985633 5831554 
766.572 5681634 5537510 5400467 5271043 5148937 5033189 4922612 4816324 
770.429 4714059 4616255 4523736 4437250 4357026 4282387 4211746 4142930 
774.286 4073720 4002364 3928011 3850834 3771937 3692976 3615778 3541954 
778.143 3472629 3408285 3348717 3293072 3239951 3187585 3134131 3077926 
782.000 3017908 2953766 2886122 2816409 2746633 2679007 2615539 2557682 
785.857 2506164 2460882 2421015 2385215 2351856 2319380 2286560 2252768 
789.714 2218079 2183217 2149335 2117663 2089143 2064139 2042310 2022718 
793.571 2004108 1985297 1965472 1944435 1922622 1900969 1880683 1862987 
797.428 1848952 1839284 1834298 1833904 1837600 1844621 1854009 1864780 
801.285 1876056 1887162 1897592 1906921 1914847 1921018 1925053 1926647 
805.141 1925746 1922647 1917931 1912434 1906954 1902064 1897946 1894365 
808.998 1890866 1886969 1882337 1876919 1870838 1864299 1857369 1849919 
812.855 1841737 1832637 1822694 1812375 1802504 1794049 1787877 1784411 
816.712 1783565 1784734 1787058 1789671 1792049 1794101 1796139 1798599 
820.569 1801798 1805564 1809225 1811648 1811572 1808046 1800741 1790209 
824.426 1777742 1765051 1753748 1744851 1738505 1733985 1730025 1725315 
828.283 1719064 1711243 1702679 1694740 1688867 1686178 1687172 1691760 
832.140 1699538 1710074 1723175 1738943 1757693 1779650 1804710 1832415 
835.997 1862059 1892956 1924777 1957728 1992530 2030298 2072173 2119074 
839.854 2171490 2229488 2292765 2360852 2433239 2509435 2588937 2671135 
843.711 2755231 2840059 2924110 3005525 3082203 3152009 3213096 3264179 
847.568 3304914 3336032 3359444 3378034 3395291 3414940 3440414 3474608 
851.425 3519727 3577387 3648816 3735102 3837383 3956885 4094845 4252254 
855.282 4429578 4626530 4841861 5073326 5317858 5571835 5831405 6092907 
859.139 6353122 6609433 6859756 7102456 7336131 7559452 7771182 7970185 
862.995 8155565 8326789 8483679 8626378 8755264 8870891 8973969 9065417 
866.852 9146485 9218780 9284183 9344647 9401845 9456760 9509420 9558704 
870.709 9602411 9637469 9660301 9667285 9655036 9620754 9562301 9478185 
874.566 9367424 9229300 9063244 8868740 8645472 8393670 8114533 7810743 
878.423 7486690 7148441 6803372 6459410 6124240 5804491 5505167 5229472 
882.280 4978952 4753868 4553681 4377423 4223987 4092204 3980816 3888476 
886.137 3813718 3755034 3710907 3679882 3660562 3651532 3651292 3658286 
889.994 3670866 3687375 3706201 3725894 3745192 3763055 3778695 3791606 
893.851 3801569 3808585 3812783 3814324 3813255 3809578 3803295 3794640 
897.708 3784257 3773315 3763387 3756076 3752688 3753826 3759243 3768047 
901.565 3779047 3791247 3804254 3818342 3834233 3852680 3874112 3898263 
905.422 3924267 3950833 3976645 4000694 4022373 4041474 4058034 4072132 
909.279 4083820 4093119 4100086 4104828 4107481 4108105 4106580 4102606 
913.136 4095805 4085899 4072980 4057514 4040361 4022480 4004678 3987346 
916.993 3970378 3953326 3935564 3916599 3896211 3874498 3851785 3828484 
920.849 3804952 3781385 3757833 3734225 3710399 3686154 3661412 3636247 
924.706 3611062 3586614 3563892 3543972 3527621 3515009 3505499 3497770 
928.563 3490163 3481195 3470027 3456698 3442107 3427589 3414515 3403795 
932.420 3395816 3390435 3387322 3386212 3387001 3389756 3394489 3401019 
936.277 3408901 3417623 3426827 3436537 3447265 3459775 3474789 3492683 
940.134 3513232 3535755 3559361 3583322 3607444 3632129 3658259 3686924 
943.991 3719160 3755704 3796976 3843132 3894139 3949845 4009986 4074153 
947.848 4141888 4212691 4286274 4362543 4441670 4523844 4609043 4696725 
951.705 4785817 4874722 4961665 5045061 5123710 5196892 5264118 5324776 
955.562 5377875 5421906 5454970 5475235 5481276 5472579 5449667 5414125 
959.419 5368399 5315454 5258517 5200754 5145061 5093721 5048272 5009287 
963.276 4976374 4948373 4923650 4900503 4877597 4854114 4829808 4804830 
967.133 4779471 4753910 4728088 4701686 4674184 4645017 4613614 4579539 
970.990 4542491 4502429 4459574 4414553 4368306 4322083 4277263 4235163 
974.847 4196883 4163209 4134626 4111333 4093359 4080572 4072754 4069582 
978.703 4070695 4075764 4084560 4097049 4113356 4133703 4158265 4187059 
982.560 4219916 4256549 4296629 4339944 4386433 4436109 4488929 4544648 
986.417 4602862 4663089 4724913 4788374 4853720 4921524 4992316 5066302 
990.274 5143169 5222113 5302118 5382330 5462362 5542423 5623208 5705582 
994.131 5790224 5877396 5966891 6058182 6150679 6243897 6337652 6431996 
997.988 6527310 6624155 6723365 6826021 6933468 7047057 7167902 7296571 
1001.845 7432882 7575937 7724390 7876911 8032574 8191202 8353328 8520034 
1005.702 8692588 8872259 9060158 9257263 9464543 9682944 9913320 10156246 
1009.559 10411818 10679682 10959197 11249819 11551446 11864613 12190349 
1012.934 12529890 12884164 13253486 13637541 14035575 14446899 14871207 
1016.309 15308723 15759903 16225055 16703729 17194498 17694992 18202122 
1019.683 18712736 19223916 19733236 20238682 20738558 21231422 21716174 
1023.058 22192364 22660496 23122078 23579472 24035512 24492914 24954102 
1026.433 25421082 25895834 26380662 26878480 27392728 27927000 28484378 
1029.809 29066992 29675784 30310726 30971304 31656936 32367160 33101404 
1033.184 33858392 34635504 35428428 36231064 37036036 37835380 38621292 
1036.559 39386552 40124656 40829600 41495684 42117296 42689140 43206392 
1039.934 43665080 44062340 44396536 44667192 44874748 45020408 45105924 
1043.310 45133336 45104824 45022648 44889104 44706812 44479064 44210160 
1046.685 43905648 43572240 43217296 42848196 42471696 42093392 41717772 
1050.060 41348216 40987580 40638464 40303360 39984612 39684296 39404008 
1053.435 39144976 38908204 38694640 38505332 38341360 38203832 38093724 
1056.811 38012024 37960108 37940228 37955992 38012432 38115708 38272408 
1060.186 38488576 38768876 39116244 39531888 40015672 40566712 41183792 
1063.561 41865500 42610168 43415572 44278936 45197004 46166268 47183452 
1066.936 48245492 49349452 50492156 51669864 52878056 54111920 55367000 
1070.312 56639864 57928676 59232944 60552848 61888092 63236988 64596016 
1073.687 65959956 67322624 68677568 70018664 71339856 72634832 73896240 
1077.062 75115304 76281600 77383752 78409888 79348384 80188408 80920104 
1080.437 81534960 82025648 82386712 82614336 82706640 82663496 82486568 
1083.813 82179328 81747184 81197888 80541560 79790096 78956440 78053408 
1087.188 77092856 76085184 75039648 73964904 72869464 71761856 70650048 
1090.563 69540688 68438224 67344680 66260092 65183480 64114000 63051892 
1093.938 61998512 60955912 59925960 58909492 57906072 56914188 55932076 
1097.313 54958420 53993012 53036644 52090816 51157040 50236196 49328400 
1100.689 48433036 47549092 46675716 45812552 44960020 44119288 43292336 
1104.064 42481716 41690432 40921696 40178696 39464324 38781040 38130860 
1107.439 37515484 36936484 36395464 35894184 35434388 35017572 34644764 
1110.814 34316288 34031888 33790992 33592852 33436790 33322072 33247704 
1114.190 33212020 33212518 33245856 33308294 33396410 33507734 33641224 
1117.565 33797332 33977664 34184196 34418864 34682812 34976384 35299004 
1120.940 35649244 36024832 36422312 36836736 37261424 37687836 38105876 
1124.315 38504572 38872716 39199732 39476104 39693804 39846512 39929836 
1127.691 39941576 39881776 39752828 39558972 39305680 38998648 38642876 
1131.066 38242072 37798392 37312700 36785064 36215408 35604012 34951716 
1134.441 34260044 33530918 32766566 31969324 31141684 30286392 29406574 
1137.816 28505954 27588854 26660180 25725260 24789598 23858640 22937648 
1141.192 22031488 21144720 20281484 19445684 18640880 17870256 17136604 
1144.567 16442308 15789257 15178905 14612216 14089590 13610922 13175380 
1147.942 12781537 12427321 12110242 11827561 11576692 11355304 11161542 
1151.317 10994019 10851652 10733550 10638741 10566169 10514650 10482965 
1154.693 10470013 10474908 10497061 10536214 10592376 10665859 10757144 
1158.068 10867010 10996465 11146692 11319010 11514810 11735469 11982413 
1161.443 12257252 12561959 12899217 13272534 13686323 14145906 14657214 
1164.818 15226591 15860520 16565494 17347888 18213964 19169820 20221352 
1168.194 21374210 22633622 24004298 25490328 27094924 28820244 30666908 
1171.569 32633510 34715924 36906612 39194216 41563164 43993724 46462088 
1174.944 48940544 51397668 53798424 56104584 58275508 60269560 62046336 
1178.319 63569160 64807856 65741052 66357736 66658236 66653896 66366124 
1181.695 65824384 65063600 64121104 63033824 61836056 60558128 59226096 
1185.070 57862032 56484724 55110252 53752292 52422416 51130004 49882376 
1188.445 48685016 47541896 46455736 45428052 44459140 43548040 42692428 
1191.820 41889040 41134124 40424224 39756788 39130544 38545416 38001944 
1195.196 37500648 37041356 36622832 36242908 35898784 35587580 35306756 
1198.571 35054336 34828716 34628496 34452092 34297620 34162844 34045248 
1201.946 33942284 33851448 33770432 33697100 33629392 33565456 33503472 
1205.321 33441490 33377374 33308706 33232668 33146214 33046200 32929766 
1208.697 32794636 32639232 32462582 32264122 32043436 31800028 31533528 
1212.072 31243744 30931118 30596772 30242460 29870340 29482424 29080418 
1215.447 28665522 28238734 27801182 27354490 26900864 26443014 25983676 
1218.822 25525212 25069398 24617242 24169300 23725880 23287428 22854524 
1222.198 22427884 22008208 21595992 21191458 20794702 20405826 20025020 
1225.573 19652722 19289462 18935744 18591930 18258114 17934184 17619894 
1228.948 17315076 17019678 16733812 16457771 16191915 15936688 15692489 
1232.323 15459611 15238182 15028009 14828564 14638928 14457983 14284547 
1235.698 14117716 13957042 13802542 13654655 13513982 13380936 13255529 
1239.074 13137296 13025284 12918404 12815547 12715904 12619020 12524791 
1242.449 12433469 12345547 12261639 12182458 12108636 12040703 11978927 
1245.824 11923289 11873534 11829323 11790334 11756529 11728086 11705326 
1249.199 11688518 11677643 11672267 11671626 11674803 11681091 11690201 
1252.575 11702447 11718639 11739877 11767194 11801319 11842622 11890973 
1255.950 11945938 12006853 12072921 12143178 12216544 12291885 12368004 
1259.325 12443807 12518382 12591097 12661454 12729044 12793398 12853912 
1262.700 12909831 12960312 13004486 13041586 13070938 13092069 13104616 
1266.076 13108474 13103731 13090578 13069245 13039762 13001803 12954655 
1269.451 12897263 12828611 12748078 12655704 12552319 12439185 12317613 
1272.826 12188290 12051070 11904946 11748491 11580506 11400662 11209829 
1276.201 11009928 10803436 10592756 10379605 10164853 9948671 9730934 
1279.577 9511762 9291803 9072291 8854813 8640934 8431921 8228732 8032066 
1283.434 7842698 7661583 7490004 7329400 7181152 7046401 6925919 6820247 
1287.292 6729803 6655023 6596464 6554600 6529686 6521532 6529412 6552075 
1291.149 6587951 6635326 6692480 6757728 6829357 6905630 6984720 7064794 
1295.006 7144142 7221263 7294966 7364290 7428460 7486863 7539047 7584860 
1298.864 7624524 7658706 7688433 7714844 7738876 7761027 7781224 7798911 
1302.721 7813334 7823872 7830218 7832588 7831508 7827690 7821771 7814178 
1306.579 7805105 7794678 7782944 7770060 7756198 7741514 7726057 7709753 
1310.436 7692507 7674324 7655497 7636648 7618631 7602334 7588456 7577281 
1314.293 7568605 7561838 7556224 7551051 7545880 7540550 7535206 7530143 
1318.151 7525637 7521977 7519340 7517945 7518118 7520241 7524767 7532041 
1322.008 7542193 7555003 7569983 7586466 7603828 7621789 7640514 7660661 
1325.866 7683257 7709474 7740342 7776484 7818147 7865177 7917174 7973839 
1329.723 8034983 8100655 8171038 8246272 8326317 8410850 8499335 8591130 
1333.581 8685742 8782963 8882996 8986402 9093915 9206355 9324234 9447747 
1337.438 9576660 9710352 9848013 9988790 10132103 10277741 10426039 10577802 
1341.295 10734127 10896128 11064705 11240288 11422845 11611895 11806926 
1344.671 12007511 12213534 12425244 12643106 12867488 13098493 13335742 
1348.046 13578403 13825242 14074937 14326082 14577357 14827403 15074837 
1351.421 15318055 15555316 15784802 16004781 16213682 16410315 16593753 
1354.796 16763338 16918572 17058944 17183884 17292776 17385006 17460136 
1358.172 17518162 17559638 17585940 17599114 17601808 17596840 17586884 
1361.547 17574050 17559688 17544434 17528268 17510750 17491210 17468668 
1364.922 17441852 17408834 17367036 17313092 17243148 17153212 17039696 
1368.297 16900014 16732998 16539389 16322076 16086207 15839255 15590800 
1371.673 15352182 15135804 14954403 14820120 14743547 14732873 14793248 
1375.048 14926386 15130429 15399955 15726350 16098092 16501360 16920808 
1378.423 17340424 17744582 18118956 18451324 18731802 18952862 19109126 
1381.798 19197076 19214972 19162812 19042424 18857476 18613104 18315654 
1385.174 17972014 17589224 17174096 16732986 16271746 15795632 15309303 
1388.549 14816746 14321288 13825639 13332011 12842262 12358147 11881395 
1391.924 11413929 10957883 10515667 10089926 9683418 9298868 8938687 8604833 
1395.781 8298585 8020506 7770442 7547669 7350933 7178666 7029031 6900054 
1399.639 6789667 6695837 6616614 6550218 6495056 6449763 6413185 6384377 
1403.496 6362605 6347251 6337870 6334024 6335341 6341405 6351816 6366114 
1407.354 6383931 6404891 6428671 6454930 6483329 6513523 6545137 6577851 
1411.211 6611467 6645881 6681138 6717317 6754405 6792266 6830574 6868879 
1415.069 6906702 6943644 6979537 7014397 7048444 7082022 7115448 7149011 
1418.926 7182912 7217348 7252440 7288398 7325412 7363601 7403031 7443604 
1422.783 7485115 7527337 7570111 7613543 7657991 7704086 7752685 7804636 
1426.641 7860700 7921349 7986762 8056801 8131201 8209709 8292242 8378964 
1430.498 8470330 8566979 8669684 8779304 8896780 9023210 9160080 9309237 
1434.356 9473030 9654167 9855592 10080294 10331123 10610649 10921257 
1437.731 11265064 11643958 12059512 12512630 13003378 13530637 14091992 
1441.106 14683697 15300845 15937474 16586757 17241212 17892814 18533514 
1444.481 19155612 19752322 20318094 20848662 21340794 21791870 22199648 
1447.857 22562174 22877998 23146574 23368226 23544086 23675592 23763954 
1451.232 23809818 23813344 23774606 23693936 23572216 23410562 23210002 
1454.607 22970850 22692572 22374084 22014430 21613636 21173290 20696550 
1457.982 20187690 19651302 19091826 18513188 17918920 17312490 16697568 
1461.358 16077982 15457515 14839828 14228168 13625456 13034524 12458184 
1464.733 11899406 11361106 10845947 10356092 9893031 9457633 9050132 8670378 
1468.590 8317769 7991395 7689938 7411766 7155028 6917745 6698082 6494377 
1472.448 6305250 6129576 5966431 5815068 5674774 5544942 5424972 5314189 
1476.305 5211807 5116864 5028261 4944855 4865622 4789838 4717181 4647810 
1480.163 4582214 4521085 4465028 4414430 4369222 4328873 4292430 4258649 
1484.020 4226133 4193687 4160475 4126274 4091487 4057052 4024215 3994156 
1487.877 3967704 3945094 3925978 3909612 3895023 3881413 3868153 3854813 
1491.735 3841032 3826312 3809885 3790760 3767933 3740592 3708333 3671299 
1495.592 3630165 3585930 3539838 3493071 3446684 3401562 3358372 3317571 
1499.450 3279410 3243874 3210758 3179706 3150341 3122432 3095874 3070745 
1503.307 3047113 3024947 3003968 2983688 2963531 2943055 2922091 2900865 
1507.165 2879936 2859933 2841344 2824345 2808748 2794115 2779977 2765918 
1511.022 2751773 2737559 2723355 2709235 2695164 2681041 2666729 2652192 
1514.879 2637476 2622737 2608103 2593665 2579390 2565165 2550877 2536530 
1518.737 2522292 2508483 2495440 2483391 2472273 2461678 2450951 2439335 
1522.594 2426244 2411419 2395054 2377756 2360447 2344068 2329468 2317092 
1526.452 2306978 2298776 2291837 2285397 2278796 2271526 2263340 2254220 
1530.309 2244237 2233492 2222019 2209742 2196542 2182344 2167200 2151400 
1534.167 2135430 2119953 2105656 2093101 2082563 2074004 2066943 2060629 
1538.024 2054186 2046730 2037661 2026837 2014577 2001612 1988862 1977153 
1541.881 1967012 1958476 1951135 1944359 1937379 1929679 1920969 1911390 
1545.739 1901190 1890716 1880201 1869669 1859038 1848212 1837175 1826086 
1549.596 1815291 1805115 1795866 1787643 1780349 1773796 1767767 1762184 
1553.454 1757084 1752672 1749162 1746670 1745159 1744383 1743934 1743342 
1557.311 1742150 1740063 1736989 1733065 1728682 1724387 1720774 1718277 
1561.168 1717110 1717088 1717704 1718154 1717553 1715219 1710869 1704767 
1565.026 1697583 1690358 1684102 1679567 1677114 1676619 1677646 1679568 
1568.883 1681827 1683942 1685616 1686716 1687175 1687031 1686428 1685631 
1572.741 1685005 1685003 1685964 1688047 1691157 1694912 1698861 1702593 
1576.598 1705968 1709109 1712381 1716116 1720432 1725088 1729527 1733040 
1580.456 1735035 1735339 1734240 1732495 1731061 1730792 1732212 1735371 
1584.313 1739932 1745340 1751001 1756486 1761511 1765876 1769467 1772109 
1588.170 1773673 1774168 1773843 1773332 1773411 1774965 1778597 1784514 
1592.028 1792384 1801429 1810686 1819305 1826790 1833169 1838900 1844759 
1595.885 1851529 1859765 1869680 1881049 1893319 1905727 1917503 1928045 
1599.743 1936981 1944276 1950191 1955192 1959815 1964478 1969379 1974430 
1603.600 1979277 1983476 1986588 1988454 1989205 1989304 1989359 1990033 
1607.458 1991786 1994834 1999062 2004231 2010051 2016280 2022842 2029733 
1611.315 2036997 2044545 2052142 2059409 2065887 2071224 2075247 2078072 
1615.172 2080059 2081733 2083722 2086507 2090414 2095542 2101845 2109125 
1619.030 2117144 2125633 2134244 2142605 2150203 2156487 2160963 2163318 
1622.887 2163589 2162152 2159732 2157149 2155142 2154094 2154005 2154466 
1626.745 2154944 2154904 2154158 2152844 2151323 2150068 2149347 2149159 
1630.602 2149232 2149271 2149070 2148825 2148986 2150178 2152838 2156950 
1634.459 2161902 2166639 2169971 2171007 2169479 2165879 2161148 2156370 
1638.317 2152333 2149205 2146619 2143807 2140007 2134771 2128148 2120631 
1642.174 2112925 2105708 2099345 2093871 2089016 2084439 2079837 2075181 
1646.032 2070607 2066463 2063097 2060830 2059837 2060131 2061605 2064086 
1649.889 2067289 2070994 2075051 2079464 2084404 2090203 2097190 2105569 
1653.747 2115183 2125458 2135475 2144171 2150595 2154223 2155111 2153950 
1657.604 2151906 2150330 2150480 2153183 2158738 2166932 2177166 2188632 
1661.461 2200674 2212798 2224829 2236868 2249182 2262034 2275595 2289724 
1665.319 2304034 2317979 2330919 2342384 2352197 2360613 2368153 2375596 
1669.176 2383723 2393057 2403832 2415970 2429073 2442700 2456378 2469779 
1673.034 2482713 2495151 2507174 2519008 2531030 2543709 2557593 2573185 
1676.891 2590746 2610279 2631377 2653474 2675883 2698069 2719794 2741248 
1680.749 2762841 2785106 2808386 2832739 2857833 2883053 2907697 2931196 
1684.606 2953291 2974118 2994195 3014236 3035072 3057540 3082360 3110153 
1688.463 3141387 3176251 3214653 3256046 3299569 3344085 3388471 3431826 
1692.321 3473742 3514411 3554593 3595419 3638148 3683858 3733225 3786425 
1696.178 3843243 3903188 3965872 4031084 4099047 4170271 4245405 4325092 
1700.036 4409780 4499550 4594142 4693056 4795722 4901708 5010793 5123113 
1703.893 5239148 5359723 5485856 5618652 5759066 5907774 6065012 6230626 
1707.750 6404099 6584852 6772365 6966550 7167640 7376291 7593312 7819563 
1711.608 8055617 8301693 8557665 8823127 9097461 9380005 9670062 9967022 
1715.465 10270283 10579309 10893560 11212567 11535910 11863184 12193977 
1718.841 12528087 12865400 13206187 13551234 13901831 14259739 14627095 
1722.216 15006214 15399477 15809350 16238478 16689819 17166776 17673164 
1725.591 18213048 18790652 19410178 20075748 20791504 21561742 22390938 
1728.966 23283800 24245158 25280002 26393696 27592418 28883482 30275726 
1732.342 31778920 33402938 35156204 37044172 39068544 41227536 43517300 
1735.717 45933916 48475084 51140236 53929748 56842356 59872608 63008948 
1739.092 66233004 69520680 72843800 76171880 79472888 82713208 85857424 
1742.467 88868800 91711272 94352248 96765568 98932776 100842880 102489992 
1745.843 103871360 104985880 105834328 106420400 106751504 106838664 
1748.736 106695200 106335008 105771528 105017552 104086064 102990928 
1751.629 101746832 100368248 98867712 97254768 95535800 93715424 91798320 
1755.004 89791168 87703544 85547480 83336568 81084480 78804352 76508440 
1758.379 74208816 71917440 69646256 67406872 65209884 63064276 60977368 
1761.754 58955024 57001984 55122064 53318052 51591384 49941836 48367512 
1765.130 46865444 45432292 44065208 42762192 41522084 40343692 39224996 
1768.505 38162456 37150944 36184264 35256140 34361160 33495396 32656258 
1771.880 31841880 31050148 30277884 29520520 28772554 28028280 27282978 
1775.255 26533642 25779452 25021354 24261544 23502276 22745194 21990866 
1778.631 21238888 20488528 19739516 18992626 18250022 17514936 16791122 
1782.006 16081963 15390061 14716931 14063358 13429810 12816945 12226012 
1785.381 11658679 11116809 10602064 10115585 9657820 9228576 8827294 8453080 
1789.239 8104902 7781564 7481636 7203520 6945541 6706002 6483406 6276580 
1793.096 6084593 5906719 5742221 5590066 5448889 5316952 5192302 5073033 
1796.953 4957604 4845056 4735265 4628790 4526832 4430704 4341605 4260112 
1800.811 4186153 4118876 4057034 3999194 3944106 3890917 3839080 3788380 
1804.668 3738564 3689362 3640473 3591645 3542954 3494806 3447907 3403114 
1808.526 3361025 3321763 3284932 3249611 3214707 3179174 3142128 3102938 
1812.383 3061050 3015891 2967029 2914269 2858268 2800770 2744885 2694638 
1816.240 2654410 2627741 2616450 2619821 2634697 2656095 2678388 2696520 
1820.098 2706832 2707486 2698282 2680196 2654843 2624074 2589642 2553237 
1823.955 2516405 2480362 2445902 2413209 2381846 2351040 2320019 2288364 
1827.813 2256312 2224787 2194989 2168008 2144360 2123771 2105064 2086669 
1831.670 2066923 2044537 2018851 1989784 1957899 1924042 1889330 1855044 
1835.528 1822528 1793132 1768054 1747973 1732914 1722186 1714385 1707757 
1839.385 1700622 1691684 1680388 1666834 1651562 1635394 1618978 1602780 
1843.242 1586921 1571299 1555653 1539690 1523187 1505936 1488020 1469749 
1847.100 1451872 1435317 1421081 1409757 1401285 1394685 1388356 1380503 
1850.957 1369858 1356158 1340525 1324944 1311659 1302270 1297029 1294769 
1854.815 1293300 1290238 1283970 1274237 1262069 1249416 1238320 1230295 
1858.672 1225956 1225305 1227919 1233381 1241350 1251259 1261882 1271139 
1862.530 1276283 1274525 1264218 1245395 1220121 1192169 1165731 1144316 
1866.387 1129799 1122113 1119931 1121287 1124696 1129531 1135783 1143540 
1870.244 1152325 1160833 1167107 1169195 1165928 1157297 1144484 1129336 
1874.102 1113800 1099347 1086980 1077379 1071201 1069189 1071921 1079162 
1877.959 1089477 1100051 1107281 1107754 1099509 1082801 1060228 1036014 
1881.817 1014681 999756 992940 993819 1000303 1009502 1018390 1024375 
1885.674 1025446 1020355 1008496 990159 966759 940716 915193 893404 877938 
1890.014 870073 869801 876058 887474 902853 921393 942262 964061 984181 
1894.353 999042 1004711 998133 978375 947285 909125 869546 833930 805983 
1898.693 786935 775821 770300 767941 767113 767320 768971 772709 778714 
1903.032 786295 794040 800184 803031 801628 795883 786719 775594 764343 
1907.372 754549 747194 742374 739231 736290 732103 725954 718180 710294 
1911.712 704296 701586 702120 703685 702698 695041 678253 652807 622919 
1916.051 595679 579330 580781 603347 645423 700777 759832 812081 848483 
1920.391 863275 854818 825774 782064 731653 682692 642231 614636 601220 
1924.730 600343 608602 622136 637853 654159 670689 687250 702663 714302 
1929.070 718465 711610 692217 661645 624468 586903 554780 531481 517107 
1933.410 509109 504053 499543 495463 493445 495297 500887 507267 508969 
1937.749 500647 479734 448404 413881 385870 373077 379848 404050 438086 
1942.089 471389 494337 501027 490470 465517 431279 392169 351621 311835 
1946.428 274954 243376 219853 206211 202204 204792 209038 209562 203007 
1950.768 188999 170426 151498 135921 125152 118495 114039 110242 107442 
1955.108 107294 111297 119339 128457 133399 129424 114799 93128 73036 65433 
1959.929 79487 118036 176633 244291 307509 354279 377029 373953 347582 
1964.269 303191 246631 184149 121095 62777 12805 -28151 -63519 -100115 
1968.609 -145269 -202534 -267798 -327836 -363433 -355966 -294891 -184084 
1972.466 -42200 102696 222360 298326 327741 322809 305645 297080 310834 
1976.806 348104 400170 453755 497378 525416 537514 535057 518335 485279 
1981.145 433349 362903 279850 196612 129666 94728 102431 154161 241746 
1985.485 349751 458698 550062 609917 631089 613874 566138 501198 436215 
1989.824 388467 371433 391186 443349 513537 580440 621354 619137 567103 
1994.164 471379 348757 221027 108589 24275 -29028 -57215 -71706 -84799 
1998.504 -105654 -139152 -185975 -244623 -312995 -389326 -471681 -556839 
2002.361 -638510 -707922 -754607 -769695 -748170 -690958 -605698 -504887 
2006.219 -402090 -309279 -232489 -171668 -122444 -78920 -37435 2050 35344 
2010.558 55587 56394 33583 -13738 -82509 -167116 -260409 -354392 -441553 
2014.898 -514858 -568602 -599835 -609738 -604502 -595193 -594665 -613668 
2018.755 -657063 -720465 -791811 -854695 -895101 -906914 -894381 -870776 
2022.613 -851945 -847973 -857756 -867257 -854485 -798026 -686718 -525499 
2026.470 -335558 -148387 3513 95952 118200 74196 -22104 -151969 -297072 
2030.810 -442227 -575599 -686632 -765357 -804296 -800068 -756904 -687133 
2034.667 -607566 -535409 -481701 -448866 -430387 -413830 -387853 -344873 
2038.524 -284364 -211747 -136298 -67408 -12789 23136 39299 37521 22265 33 
2043.346 -20741 -31746 -25768 609 46044 105258 171297 238491 305740 376254 
2048.168 455546 547149 648696 749646 834151 885344 890872 846706 758406 
2052.508 639969 510845 391960 302303 255437 258365 310730 405879 531771 
2056.847 672229 808551 921499 994140 1015420 982520 902617 791305 669321 
2061.187 557987 474678 429309 423916 453016 506340 571784 638085 696288 
2065.526 740946 769795 783428 784453 776220 761827 743117 720443 693004 
2069.866 659784 621291 580083 541456 511810 497374 501827 525252 563801 
2074.206 611025 659742 703956 740085 767094 785795 798245 806417 812606 
2078.545 818848 827073 838621 853382 869085 881386 884473 873505 846306 
2082.885 805259 757243 711549 677008 658843 656239 662941 669062 664871 
2087.224 644344 607035 558070 506319 460737 427858 409834 404605 407503 
2091.564 413285 418073 420398 420920 421770 425568 434493 450175 473292 
2095.904 503205 537886 573281 603872 623345 626463 611330 580393 541243 
2100.243 504807 482487 483109 509790 558808 620569 681979 730087 755282 
2104.583 753121 724908 676498 616451 553775 496265 449634 417106 399708 
2108.922 396838 406483 425761 451073 478429 503294 521463 528931 522603 
2113.262 500902 464316 415947 361033 306428 259044 224123 203845 196567 
2117.602 197469 200229 199142 191131 176947 160478 147094 141173 143881 
2121.941 152434 160330 159366 141996 103211 41810 -40035 -137428 -244317 
2126.281 -354436 -461711 -560771 -647289 -718171 -772981 -814379 -847906 
2130.138 -881247 -921797 -973828 -1036798 -1104054 -1164845 -1206553 
2133.513 -1219252 -1198682 -1148011 -1076910 -998814 -927168 -872278 -839967 
2137.371 -831679 -846060 -880540 -932268 -998893 -1077359 -1164647 -1257357 
2141.228 -1351660 -1444094 -1531808 -1611693 -1681037 -1736328 -1774371 
2144.604 -1792796 -1791513 -1773246 -1743543 -1709565 -1678676 -1656625 
2147.979 -1647369 -1652935 -1675309 -1716827 -1780983 -1870604 -1987404 
2151.354 -2129296 -2291854 -2468651 -2654889 -2848688 -3052302 -3268947 
2154.729 -3499482 -3735224 -3955703 -4127954 -4211538 -4167481 -3972446 
2158.104 -3628463 -3170192 -2657897 -2162946 -1747310 -1448435 -1274986 
2161.480 -1212111 -1230334 -1295473 -1373867 -1436885 -1462310 -1435937 
2164.855 -1353184 -1219317 -1048602 -862709 -685529 -540283 -443927 -405729 
2168.712 -425636 -495920 -603011 -730507 -861116 -979231 -1072313 -1132577 
2172.570 -1157420 -1151511 -1124316 -1089511 -1060527 -1047044 -1050819 
2175.945 -1063941 -1069846 -1048365 -980858 -857085 -678098 -457859 -219950 
2179.802 7157 196727 328666 393900 393943 339536 246308 131065 9319 -106231 
2184.624 -204994 -278047 -318706 -322090 -288098 -221574 -133018 -37674 
2188.482 47200 105415 124591 98939 29788 -74215 -198549 -324744 -432557 
2192.821 -503005 -521243 -479566 -379353 -231409 -54861 126710 290242 417941 
2197.161 500815 539778 543873 526646 501415 477492 458317 441884 422627 
2201.500 395542 357754 310491 258904 210660 173405 153645 154316 175246 
2205.840 212904 261199 313362 362418 403536 434290 455161 469507 481397 
2210.180 495030 512441 533494 555578 575081 588158 592587 587743 574690 
2214.519 555471 532764 509285 488710 474823 472490 485713 516489 563166 
2218.859 619771 676166 720844 743164 737297 703461 648187 582765 519699 
2223.198 469896 440048 431919 442874 467310 498856 531768 562056 587823 
2227.538 609605 629150 649800 674404 705164 742021 782671 822714 857091 
2231.878 881272 893368 893890 885920 873617 860652 848916 838797 829542 
2236.217 821247 815162 814403 822294 841192 870443 906440 943095 974051 
2240.557 994530 1003026 1001074 992006 979002 963653 945049 921090 889727 
2244.896 851022 807432 763566 724439 693948 673597 662749 659164 660903 
2249.236 667092 678238 695366 718875 747607 779098 810311 839462 866916 
2253.576 895483 929340 971838 1023462 1080741 1136521 1182185 1210150 
2257.433 1216459 1202268 1173373 1138486 1106775 1085054 1076381 1079216 
2261.291 1088408 1096907 1097997 1087194 1063985 1031903 997712 969777 
2265.148 955727 959994 982953 1020443 1065388 1109803 1147428 1175317 
2269.005 1194269 1207699 1220062 1234518 1252024 1270820 1287797 1299933 
2272.863 1305741 1306101 1303890 1302861 1306482 1316743 1334010 1357006 
2276.720 1383735 1411660 1438487 1462092 1481030 1494643 1503547 1510124 
2280.578 1518331 1532943 1558366 1596968 1648088 1707588 1768883 1824482 
2284.435 1867879 1895046 1905032 1899497 1881738 1855537 1824276 1790734 
2288.292 1757267 1725873 1698565 1676662 1660972 1650974 1645301 1641950 
2292.150 1639176 1635853 1631949 1627897 1624330 1621225 1617918 1613310 
2296.007 1606568 1597650 1587770 1578978 1573376 1572190 1575221 1580729 
2299.865 1586340 1589662 1589507 1586052 1580705 1575216 1571120 1568930 
2303.722 1568321 1568393 1568388 1567932 1567321 1567191 1568256 1570913 
2307.580 1575397 1581731 1590127 1600829 1614000 1629279 1645539 1660952 
2311.437 1673329 1680828 1682690 1679503 1673213 1666437 1661897 1661596 
2315.294 1666653 1677173 1692724 1712406 1735248 1760229 1786564 1813910 
2319.152 1842831 1875038 1913253 1960215 2017276 2082652 2150526 2211032 
2323.009 2252157 2262528 2234528 2166504 2063491 1935995 1797828 1663155 
2326.867 1543800 1447422 1376691 1329723 1301553 1285978 1277129 1270709 
2330.724 1264278 1257157 1249799 1243291 1238783 1237325 1239428 1245055 
2334.582 1253526 1263530 1273468 1281796 1287438 1289853 1289233 1286133 
2338.439 1281196 1274947 1267722 1259718 1251358 1243191 1236073 1230689 
2342.296 1227329 1225665 1224809 1223568 1221037 1216830 1211380 1205620 
2346.154 1200637 1197163 1195355 1194767 1194705 1194573 1194148 1193582 
2350.011 1193197 1193048 1192702 1191259 1187648 1181048 1171330 1159180 
2353.869 1145985 1133268 1122314 1113668 1107276 1102515 1098621 1095143 
2357.726 1091972 1089313 1087269 1085769 1084198 1081432 1076223 1067376 
2361.583 1054090 1036240 1014353 989601 963477 937815 914386 894929 880677 
2365.923 872389 870084 872926 879425 887620 895597 901868 905876 907787 
2370.263 908725 909908 912368 916398 921375 925964 928564 928046 924219 
2374.602 918104 911804 907796 908155 913908 924654 938640 953492 966921 
2378.942 977476 984909 990028 994186 998609 1003878 1009827 1015730 1020847 
2383.281 1024930 1028359 1032214 1037674 1045587 1056178 1068812 1082419 
2387.139 1095722 1107528 1117069 1123783 1127202 1127062 1123158 1115827 
2390.996 1106131 1095904 1087516 1083297 1084645 1091611 1102548 1114548 
2394.854 1124229 1128924 1127386 1120149 1109394 1098210 1089512 1085483 
2398.711 1086802 1092780 1101613 1110964 1118471 1122194 1120979 1114519 
2402.569 1103447 1089251 1074181 1060902 1052021 1049729 1055108 1068002 
2406.426 1086954 1109357 1132388 1153214 1169969 1181955 1189659 1194476 
2410.283 1198067 1201814 1206377 1211380 1215632 1217557 1215754 1209727 
2414.141 1200147 1188758 1178046 1170374 1167184 1168639 1173181 1178356 
2417.998 1181329 1180025 1173736 1163286 1150864 1138997 1129819 1124319 
2421.856 1122175 1122098 1122532 1122488 1121892 1121530 1122687 1126143 
2425.713 1131631 1137576 1141402 1140394 1132660 1118005 1098029 1075958 
2429.571 1055502 1039879 1030953 1028701 1031598 1037238 1043084 1047345 
2433.428 1049140 1048737 1047153 1045845 1046345 1050106 1058157 1071024 
2437.285 1088319 1108635 1129591 1148183 1161450 1167302 1165326 1156947 
2441.143 1145173 1133706 1125719 1123030 1125771 1132654 1141758 1151734 
2445.000 1162157 1173830 1187796 1204581 1223293 1241434 1255432 1262000 
2448.858 1259137 1247339 1229346 1209534 1192338 1180886 1175968 1175929 
2452.715 1177549 1176999 1171526 1159853 1142751 1122389 1101580 1083035 
2456.573 1068654 1059318 1055011 1055045 1058453 1064000 1070448 1076602 
2460.430 1081235 1083316 1082095 1077297 1069210 1058945 1048058 1038841 
2464.287 1033694 1034919 1044309 1062400 1088259 1119206 1151066 1178872 
2468.145 1197814 1204433 1197744 1179487 1154202 1127995 1107128 1096324 
2472.002 1097515 1109283 1127233 1145243 1157206 1158699 1148125 1127122 
2475.860 1099915 1072166 1049269 1035168 1031507 1037528 1050417 1066507 
2479.717 1081909 1093483 1099392 1099090 1093290 1083642 1072246 1061213 
2483.574 1052303 1046581 1044325 1045209 1048546 1053873 1061057 1070484 
2487.432 1082711 1098050 1116038 1135177 1153202 1167767 1177160 1181276 
2491.289 1181554 1180715 1181670 1186440 1195364 1207032 1218907 1228572 
2495.147 1234720 1237795 1239815 1243368 1250295 1260775 1273043 1283750 
2499.004 1289386 1287581 1278124 1263031 1246057 1231385 1222375 1220707 
2502.862 1225941 1236017 1247910 1258650 1265979 1268792 1267147 1262199 
2506.719 1255686 1249609 1245773 1245315 1248598 1254985 1263057 1271049 
2510.576 1277268 1280653 1280958 1278855 1275462 1272152 1269944 1269471 
2514.434 1270777 1273676 1277706 1282320 1286876 1290531 1292298 1291170 
2518.291 1286427 1278053 1266855 1254497 1243310 1235566 1233048 1236622 
2522.149 1245901 1259683 1276076 1293020 1308652 1321668 1331192 1337054 
2526.006 1339300 1338284 1334328 1327598 1318221 1306222 1291820 1275864 
2529.864 1259759 1245719 1236102 1232750 1236285 1245574 1257931 1269463 
2533.721 1276524 1276826 1270204 1258797 1246308 1236670 1232588 1234913 
2537.578 1242197 1251686 1260363 1266193 1268714 1268972 1268608 1269275 
2541.436 1271313 1273837 1275144 1273502 1268237 1260208 1251853 1246505 
2545.293 1247397 1256523 1273955 1297655 1323862 1347984 1365649 1373644 
2549.151 1370672 1357504 1336568 1311523 1286226 1264132 1247379 1237052 
2553.008 1232975 1234303 1239893 1248669 1259572 1271516 1283140 1293005 
2556.865 1299557 1301851 1299876 1294890 1289181 1285358 1285617 1290785 
2560.723 1300144 1311465 1322155 1329973 1333866 1334470 1333508 1333175 
2564.580 1335154 1340187 1347829 1357041 1366713 1376071 1384968 1393481 
2568.438 1401524 1408441 1412878 1413402 1408889 1399432 1386220 1371616 
2572.295 1358329 1348574 1343400 1342512 1344551 1347669 1350235 1351318 
2576.153 1350776 1349231 1347591 1346711 1347395 1350163 1355449 1363463 
2580.010 1374110 1386762 1400225 1412871 1422925 1429031 1430763 1428949 
2583.867 1425331 1422267 1421891 1425479 1433094 1443724 1455610 1466953 
2587.725 1476435 1483383 1487918 1490481 1491698 1491975 1491592 1490826 
2591.582 1490198 1490476 1492676 1497481 1505144 1514962 1525368 1534244 
2595.440 1539577 1539932 1535108 1526131 1514901 1503694 1494368 1487988 
2599.297 1484625 1483696 1484434 1486298 1489350 1494178 1501452 1511413 
2603.155 1523450 1536061 1547226 1555010 1558309 1557223 1553143 1548370 
2607.012 1545215 1545457 1549763 1557532 1567364 1577551 1586682 1593991 
2610.869 1599444 1603618 1607346 1611417 1616483 1623026 1631302 1641269 
2614.727 1652558 1664258 1674907 1682852 1686558 1685241 1679364 1670615 
2618.584 1661722 1655636 1654637 1659681 1670179 1684244 1699478 1713829 
2622.442 1726106 1736199 1744744 1752454 1759610 1765763 1769939 1771333 
2626.299 1769714 1765937 1761621 1758876 1759366 1763669 1771256 1780687 
2630.156 1790307 1798852 1806019 1812134 1818039 1824079 1829944 1834491 
2634.014 1836246 1834223 1828429 1820361 1812558 1807884 1808357 1814538 
2637.871 1825339 1838161 1849967 1858232 1861648 1860476 1856139 1850608 
2641.729 1845707 1842485 1841059 1840844 1840930 1840554 1839287 1837271 
2645.586 1834872 1832623 1830988 1830324 1830719 1832087 1834097 1836285 
2649.444 1838065 1838800 1838046 1835596 1831726 1827025 1822161 1817679 
2653.301 1813741 1809935 1805502 1799415 1790985 1779998 1766916 1752713 
2657.158 1738641 1725763 1714769 1705666 1698045 1691002 1683511 1674640 
2661.016 1663574 1649867 1633375 1614338 1593446 1571835 1550864 1532027 
2664.873 1516460 1504853 1497162 1492609 1489979 1487760 1484654 1479693 
2668.731 1472527 1463246 1452421 1440895 1429697 1419930 1412507 1408138 
2672.588 1407092 1408969 1412944 1417638 1421688 1423909 1423744 1421263 
2676.446 1417174 1412447 1407997 1404353 1401561 1399298 1397088 1394563 
2680.303 1391695 1388736 1386253 1384713 1384503 1385751 1388294 1391873 
2684.160 1395975 1400159 1403760 1406165 1406805 1405282 1401570 1396144 
2688.018 1389923 1384169 1379910 1377804 1377852 1379254 1380809 1381183 
2691.875 1379436 1375269 1369097 1361858 1354788 1348962 1345076 1343402 
2695.733 1343787 1345744 1348732 1352119 1355218 1357585 1358733 1358568 
2699.590 1357173 1354909 1352408 1350241 1348862 1348252 1348148 1348008 
2703.448 1347179 1345308 1342249 1338237 1333571 1328431 1322801 1316489 
2707.305 1309131 1300647 1291307 1281919 1273527 1267419 1264413 1264992 
2711.162 1268985 1275777 1284488 1294284 1304348 1314053 1322716 1329600 
2715.020 1333903 1334922 1332392 1326567 1318527 1309785 1302050 1296681 
2718.877 1294288 1294636 1296660 1298949 1300127 1299401 1296640 1292502 
2722.735 1288071 1284678 1283437 1285060 1289914 1297755 1307873 1319274 
2726.592 1330488 1339989 1346396 1348837 1347137 1342016 1334872 1327589 
2730.449 1321923 1319073 1319398 1322404 1326995 1331807 1335715 1338011 
2734.307 1338549 1337530 1335392 1332594 1329537 1326654 1324329 1323113 
2738.164 1323530 1325956 1330337 1336198 1342566 1348147 1351710 1352296 
2742.022 1349603 1343830 1335785 1326516 1317143 1308650 1301781 1296971 
2745.879 1294421 1294143 1295833 1299152 1303439 1308086 1312505 1316198 
2749.737 1318833 1320419 1321074 1321048 1320560 1319704 1318478 1316763 
2753.594 1314531 1311799 1308800 1305965 1303914 1303154 1304176 1306990 
2757.451 1311393 1316602 1321730 1325787 1328016 1328137 1326251 1322996 
2761.309 1319157 1315585 1312891 1311343 1310795 1310903 1311243 1311546 
2765.166 1311626 1311670 1311935 1312748 1314460 1317117 1320639 1324652 
2769.024 1328520 1331534 1332972 1332304 1329305 1324301 1318050 1311704 
2772.881 1306481 1303401 1303154 1305843 1311163 1318483 1327183 1336667 
2776.739 1346547 1356560 1366457 1375706 1383758 1389791 1393088 1393265 
2780.596 1390254 1384604 1377163 1369142 1361790 1356207 1353215 1353188 
2784.453 1356146 1361700 1369151 1377696 1386498 1394966 1402691 1409680 
2788.311 1415934 1421461 1426251 1429976 1432310 1432978 1432103 1430085 
2792.168 1427692 1425758 1424936 1425417 1426936 1428906 1430784 1432427 
2796.026 1434005 1436277 1439976 1445589 1453043 1461579 1469997 1477197 
2799.883 1482344 1485464 1487147 1488418 1490394 1493771 1498662 1504693 
2803.740 1511339 1517911 1524250 1530300 1536296 1542360 1548341 1553826 
2807.598 1558276 1561125 1562091 1561294 1559224 1556662 1554383 1553178 
2811.455 1553530 1555966 1560905 1568705 1579682 1593770 1610510 1628865 
2815.313 1647370 1664409 1678552 1689058 1696000 1700408 1703965 1708443 
2819.170 1715271 1725143 1737880 1752415 1767251 1780841 1791933 1799906 
2823.028 1804874 1807385 1808577 1809655 1811883 1816286 1823524 1833787 
2826.885 1846659 1861382 1876806 1891809 1905561 1917882 1929133 1940264 
2830.742 1952486 1966667 1983362 2002335 2022834 2043868 2064464 2083952 
2834.600 2102046 2118791 2134474 2149351 2163813 2178407 2193897 2211308 
2838.457 2231773 2256022 2284252 2315689 2348843 2381700 2412474 2440097 
2842.315 2464718 2487700 2511154 2537477 2568702 2606145 2650159 2700333 
2846.172 2755769 2815243 2877208 2939746 3000519 3056620 3104935 3142418 
2850.030 3166740 3176422 3171436 3152850 3122680 3083400 3037668 2987733 
2853.887 2935508 2882281 2828952 2776054 2723906 2672903 2623558 2576786 
2857.744 2533728 2495597 2463388 2437504 2417587 2402429 2390379 2379785 
2861.602 2369479 2359208 2349573 2341772 2337090 2336430 2340102 2347702 
2865.459 2358536 2371872 2387314 2404913 2424961 2447762 2473462 2502028 
2869.317 2533306 2567222 2604082 2644491 2689175 2738645 2792841 2850934 
2873.174 2911490 2972728 3032905 3090796 3145833 3197978 3247571 3294900 
2877.031 3340048 3382711 3422227 3457729 3488319 3513312 3532224 3544949 
2880.889 3551768 3553355 3550590 3544455 3535949 3525770 3514352 3501839 
2884.746 3488311 3474054 3459546 3445655 3433334 3423241 3415662 3410165 
2888.604 3405749 3401223 3395721 3388831 3381004 3373194 3366632 3362371 
2892.461 3361022 3362734 3367313 3374600 3384511 3397273 3413037 3431727 
2896.319 3452792 3475159 3497569 3518823 3538340 3556206 3573171 3590361 
2900.176 3608726 3628810 3650616 3673659 3697190 3720523 3743314 3765294 
2904.033 3786470 3806914 3826801 3846520 3866674 3888347 3912733 3941007 
2907.891 3973999 4011954 4054420 4100697 4150055 4202378 4258132 4318467 
2911.748 4384643 4457493 4537167 4622825 4712665 4804553 4896306 4986015 
2915.606 5072196 5153642 5229396 5298539 5360226 5414043 5459883 5498078 
2919.463 5529295 5554221 5573305 5586654 5594141 5595560 5591039 5581224 
2923.321 5567229 5550365 5531919 5512761 5493317 5473788 5454448 5435874 
2927.178 5419137 5405708 5397205 5394985 5399994 5412652 5433064 5461088 
2931.035 5496517 5539138 5588487 5644075 5705273 5771502 5842611 5919230 
2934.893 6002788 6095414 6199368 6316493 6447733 6592674 6749750 6916368 
2938.750 7089606 7266463 7444279 7620693 7793594 7961014 8120649 8270109 
2942.608 8406784 8527876 8630721 8712974 8772680 8808753 8820891 8809891 
2946.465 8777370 8725674 8657421 8575168 8481155 8377076 8264243 8143828 
2950.323 8017027 7885238 7750157 7613538 7477186 7342616 7210826 7082429 
2954.180 6957716 6836679 6719196 6605309 6495215 6389508 6288946 6194571 
2958.037 6107234 6027520 5955266 5889527 5828706 5770695 5713553 5655855 
2961.895 5597057 5537631 5478801 5422168 5369330 5321359 5278785 5241490 
2965.752 5208932 5180239 5154520 5130874 5108586 5087093 5066169 5045926 
2969.610 5026714 5008951 4993108 4979348 4967541 4957418 4948622 4941084 
2973.467 4935222 4931764 4931785 4936435 4946443 4962263 4983943 5011230 
2977.324 5043855 5081669 5124577 5172474 5225223 5282669 5344849 5412052 
2981.182 5485319 5566136 5656481 5758303 5873018 6001328 6142919 6296811 
2985.039 6461589 6635745 6817989 7007155 7202304 7402397 7606081 7811968 
2988.897 8018317 8223326 8425128 8621723 8810724 8989614 9155454 9305466 
2992.754 9437012 9548172 9637690 9705251 9751221 9776410 9781921 9768953 
2996.612 9738667 9692344 9631102 9556241 9469016 9370869 9263290 9147876 
3000.469 9026221 8899706 8769082 8634406 8494912 8349308 8196333 8035518 
3004.326 7867516 7694483 7519496 7345997 7176663 7012868 6854269 6699422 
3008.184 6546357 6393454 6240045 6086593 5934201 5784130 5637298 5494030 
3012.041 5354162 5217535 5084361 4955274 4831122 4712538 4599507 4491242 
3015.899 4386351 4283410 4181426 4080378 3981075 3884877 3793177 3706936 
3019.756 3626278 3550764 3479567 3412011 3347623 3286336 3228230 3173426 
3023.614 3121755 3072951 3026631 2982393 2939880 2898831 2858921 2819696 
3027.471 2780850 2742034 2703350 2665065 2627854 2592218 2558373 2526091 
3031.328 2494616 2463046 2430717 2397638 2364608 2332876 2303842 2278293 
3035.186 2256230 2236556 2217668 2197958 2176341 2152767 2128188 2104260 
3039.043 2082641 2064485 2050061 2038498 2028487 2018351 2006903 1993743 
3042.901 1979322 1964754 1951391 1940348 1931944 1925913 1921087 1916221 
3046.758 1910164 1902456 1893446 1884147 1875951 1869967 1866707 1865700 
3050.615 1865647 1864793 1861325 1854092 1842786 1828144 1811683 1795507 
3054.473 1781646 1771802 1767055 1767724 1773308 1782662 1794134 1806073 
3058.330 1816742 1824868 1829770 1831292 1829802 1826039 1820939 1815302 
3062.188 1809952 1805423 1802086 1799942 1798661 1797586 1795717 1792046 
3066.045 1785894 1777185 1766673 1755849 1746629 1740847 1739596 1743032 
3069.903 1750448 1760360 1771245 1781867 1791533 1800068 1807450 1813606 
3073.760 1818113 1820329 1819737 1816046 1809720 1801502 1792485 1783591 
3077.617 1775201 1767387 1759809 1752332 1745185 1739100 1734988 1733553 
3081.475 1734880 1738120 1741692 1743600 1742154 1736299 1726011 1712088 
3085.332 1696101 1679832 1665029 1653226 1645563 1642724 1644772 1650830 
3089.190 1659450 1668322 1675051 1677531 1674754 1666947 1655756 1643608 
3093.047 1633014 1625716 1622120 1621241 1621203 1619785 1615230 1606896 
3096.905 1595236 1581663 1568191 1556607 1548405 1544283 1544191 1547475 
3100.762 1553027 1559359 1565215 1569441 1571485 1571375 1569903 1568097 
3104.619 1567113 1567762 1570202 1573986 1578239 1581984 1584562 1585798 
3108.477 1585825 1584935 1583159 1579964 1574496 1565814 1553438 1537848 
3112.334 1520461 1503655 1490079 1481945 1480516 1485638 1496001 1509395 
3116.192 1523421 1535980 1545671 1551772 1554353 1553893 1551185 1547097 
3120.049 1542495 1538247 1534877 1532708 1531564 1530963 1530195 1528485 
3123.906 1525507 1521262 1516409 1511920 1508823 1507956 1509624 1513597 
3127.764 1519395 1526243 1533481 1540827 1548143 1555442 1562700 1569657 
3131.621 1575724 1580156 1582048 1580716 1575749 1567358 1556201 1543266 
3135.479 1529929 1517619 1507524 1500441 1496741 1496046 1497580 1500228 
3139.336 1502856 1504560 1504875 1503886 1502096 1500327 1499252 1499514 
3143.194 1501418 1504871 1509599 1515129 1520925 1526428 1531026 1534181 
3147.051 1535565 1534999 1532776 1529435 1525924 1523203 1522064 1522962 
3150.908 1525760 1529953 1534697 1539220 1542941 1545639 1547207 1547877 
3154.766 1547765 1546933 1545361 1543112 1540418 1537702 1535525 1534310 
3158.623 1534195 1534736 1535171 1534400 1531690 1526809 1520358 1513821 
3162.481 1509137 1508138 1512045 1521030 1534153 1549445 1564424 1576694 
3166.338 1584405 1586620 1583401 1575744 1565238 1553669 1542787 1533974 
3170.196 1528132 1525624 1526313 1529733 1535215 1542156 1550066 1558660 
3174.053 1567703 1576867 1585534 1592735 1597310 1598021 1594185 1586014 
3177.910 1574891 1563147 1553670 1549027 1550774 1558874 1571645 1586116 
3181.768 1599078 1607897 1611373 1609931 1605426 1600333 1596871 1596280 
3185.625 1598455 1602274 1606041 1608154 1607788 1604857 1599949 1594056 
3189.483 1587873 1581784 1575896 1570179 1564812 1560364 1557637 1557391 
3193.340 1560258 1566048 1574109 1583350 1592670 1601200 1608726 1615430 
3197.198 1621793 1628244 1634847 1641474 1647621 1652814 1656722 1659344 
3201.055 1660817 1661454 1661317 1660300 1658134 1654549 1649384 1642886 
3204.912 1635591 1628272 1621768 1616692 1613431 1611964 1612024 1613148 
3208.770 1614832 1616354 1617210 1616625 1614123 1609340 1602402 1593966 
3212.627 1585151 1577496 1572532 1571390 1574501 1581395 1590910 1601420 
3216.485 1611222 1619075 1624333 1626928 1627279 1625883 1623105 1618988 
3220.342 1613531 1606681 1598792 1590772 1583905 1579758 1579530 1583730 
3224.199 1592071 1603223 1615266 1626190 1634424 1639135 1640429 1638987 
3228.057 1635910 1632096 1628043 1623934 1619565 1614913 1610357 1606828 
3231.914 1605714 1608424 1615771 1627640 1642658 1658288 1671593 1679783 
3235.772 1681129 1675292 1663583 1648289 1632082 1617293 1605204 1596151 
3239.629 1589582 1584879 1581597 1579986 1580786 1584921 1592838 1604355 
3243.487 1618409 1633459 1647861 1660344 1670306 1677476 1681883 1683330 
3247.344 1681326 1675271 1664956 1650773 1634332 1618030 1604557 1596244 
3251.201 1594258 1598177 1606468 1616625 1626285 1633669 1637902 1639062 
3255.059 1637853 1635084 1631616 1628059 1624905 1622537 1621270 1621183 
3258.916 1622056 1623235 1623814 1622984 1620317 1615966 1610630 1605228 
3262.774 1600468 1596430 1592565 1587801 1581101 1572113 1561405 1550564 
3266.631 1541832 1537343 1538675 1546291 1559515 1576566 1595158 1612815 
3270.489 1627454 1637582 1642703 1643186 1640302 1635937 1632262 1631174 
3274.346 1633884 1640710 1650809 1662736 1674754 1685392 1693651 1699219 
3278.203 1702096 1702489 1700353 1695424 1687535 1676752 1663723 1649833 
3282.061 1636875 1626632 1620402 1618505 1620272 1624087 1627992 1630102 
3285.918 1629174 1624920 1618109 1610316 1603601 1600057 1601074 1607007 
3289.776 1616987 1628966 1640101 1647544 1649131 1643944 1632532 1616836 
3293.633 1599515 1583361 1570779 1563227 1561348 1564954 1573156 1584784 
3297.490 1598206 1611567 1622899 1630322 1632496 1628996 1620398 1608214 
3301.348 1594612 1581837 1571691 1565173 1562591 1563527 1567197 1572706 
3305.205 1579136 1585689 1591757 1596986 1601440 1605486 1609854 1615143 
3309.063 1621677 1629032 1636091 1641311 1643414 1641889 1637355 1631477 
3312.920 1626409 1623914 1624717 1628174 1632509 1635524 1635329 1630833 
3316.778 1622112 1609821 1594950 1578353 1560741 1542871 1525921 1511546 
3320.635 1501815 1498542 1502674 1513781 1530065 1548737 1566805 1581862 
3324.492 1592404 1597948 1598536 1594467 1586107 1574001 1559039 1543005 
3328.350 1528327 1517749 1513521 1516873 1527351 1543320 1562230 1581572 
3332.207 1599437 1614719 1627114 1636509 1642913 1646100 1646104 1643301 
3336.065 1638721 1633882 1630350 1629098 1630172 1632645 1635040 1636059 
3339.922 1635154 1632782 1630264 1628988 1630018 1633277 1637847 1642284 
3343.780 1645278 1645918 1644183 1640508 1635610 1629926 1623590 1616456 
3347.637 1608502 1599851 1591130 1583182 1576880 1572731 1570938 1571175 
3351.494 1572894 1575411 1578051 1580187 1581279 1580866 1578903 1575613 
3355.352 1571783 1568502 1567041 1568256 1572427 1579052 1587152 1595435 
3359.209 1602933 1609106 1614064 1618056 1621408 1624129 1625984 1626611 
3363.067 1626079 1624858 1623885 1624219 1626650 1631190 1637097 1642869 
3366.924 1647189 1649027 1648382 1646158 1643876 1643141 1644900 1649269 
3370.781 1655389 1661602 1666156 1667547 1665084 1658958 1650378 1641015 
3374.639 1632725 1626852 1624077 1623947 1625219 1626130 1624948 1620608 
3378.496 1613098 1603527 1593840 1586301 1582905 1584829 1592201 1604084 
3382.354 1618724 1634050 1647806 1658120 1663528 1663334 1657695 1647608 
3386.211 1634761 1621255 1609175 1599997 1594336 1591918 1591611 1592110 
3390.069 1592234 1591291 1589167 1586235 1583018 1579903 1577333 1575716 
3393.926 1575690 1578039 1583572 1592610 1604801 1618669 1632053 1642460 
3397.783 1647987 1647776 1642408 1633610 1623740 1614859 1608230 1603970 
3401.641 1601144 1598374 1594385 1588479 1580873 1572537 1565041 1560167 
3405.498 1559396 1563562 1572647 1585396 1599565 1612233 1620384 1621710 
3409.356 1615418 1602433 1585573 1568642 1555592 1549449 1551462 1560971 
3413.213 1575911 1593384 1610864 1626635 1640193 1651879 1662390 1672446 
3417.071 1682197 1691276 1698994 1704585 1707472 1707529 1704801 1699539 
3420.928 1692086 1682648 1671465 1658801 1645308 1631744 1619325 1609551 
3424.785 1603951 1603615 1609050 1619627 1633686 1648519 1661119 1668738 
3428.643 1669846 1664451 1654378 1642660 1632687 1627239 1627709 1633789 
3432.500 1643815 1655420 1666442 1675340 1681639 1685317 1686704 1685836 
3436.358 1682354 1675738 1665838 1653242 1639733 1627523 1619134 1616366 
3440.215 1619750 1628424 1640432 1653563 1666088 1677244 1687308 1697260 
3444.073 1707862 1719103 1729908 1738119 1741388 1737842 1726868 1709582 
3447.930 1688308 1666141 1646120 1630371 1619899 1614787 1614423 1618163 
3451.787 1625626 1636745 1651396 1669072 1688537 1707755 1724330 1736093 
3455.645 1741802 1741303 1735916 1727630 1718821 1711354 1706424 1704250 
3459.502 1704430 1706233 1709080 1712496 1716504 1721106 1726451 1732518 
3463.360 1739143 1745980 1752737 1758997 1764609 1769490 1774047 1778954 
3467.217 1785386 1794656 1808093 1826304 1849164 1875282 1902540 1928309 
3471.074 1950395 1967457 1979502 1987669 1993798 1999649 2006447 2014378 
3474.932 2022825 2030610 2036541 2039858 2040457 2038649 2035347 2031611 
3478.789 2028575 2027559 2029803 2036466 2048261 2065241 2086601 2110626 
3482.647 2135199 2158155 2178089 2194377 2207437 2218006 2226844 2234103 
3486.504 2239348 2241885 2241304 2238142 2234217 2232098 2234706 2244109 
3490.362 2260839 2283693 2310080 2336808 2361337 2382140 2399364 2414020 
3494.219 2427445 2440569 2453334 2464819 2473765 2479181 2480984 2479818 
3498.076 2477168 2474552 2473220 2473796 2476577 2481633 2489226 2499723 
3501.934 2513372 2529646 2547070 2563225 2575338 2581030 2579613 2572232 
3505.791 2561800 2551969 2545952 2545002 2548449 2553550 2557117 2556640 
3509.649 2551469 2542998 2534123 2527753 2525651 2527418 2530628 2531863 
3513.506 2527855 2516780 2499003 2476654 2452883 2430635 2411769 2396688 
3517.364 2384599 2374177 2364368 2354487 2344780 2335628 2327623 2320847 
3521.221 2314983 2309294 2302917 2294891 2284529 2271215 2254746 2235325 
3525.078 2213554 2190654 2168143 2147548 2130138 2116387 2105951 2097955 
3528.936 2091378 2085275 2079371 2073703 2068592 2063965 2059265 2053486 
3532.793 2045581 2035006 2022115 2008189 1995245 1985005 1978488 1975352 
3536.651 1974196 1972899 1969571 1963178 1953994 1943454 1933565 1926405 
3540.508 1923294 1924756 1930424 1939231 1949931 1961169 1971722 1980505 
3544.365 1986711 1989610 1989036 1985118 1978639 1970541 1962167 1954600 
3548.223 1948854 1945379 1944656 1946647 1951485 1958946 1968733 1980263 
3552.080 1992644 2004719 2015343 2023418 2028321 2029993 2028884 2025913 
3555.938 2022248 2019001 2016934 2016049 2015773 2014768 2011278 2003583 
3559.795 1990640 1972152 1949204 1923876 1898904 1876951 1860276 1849966 
3563.653 1845951 1847073 1851697 1857949 1864298 1869739 1874095 1877733 
3567.510 1881648 1887036 1895082 1906495 1921275 1938409 1956016 1971677 
3571.367 1983089 1988474 1987484 1981038 1971605 1961882 1954496 1951149 
3575.225 1952156 1956498 1962318 1967371 1969880 1968717 1963652 1955260 
3579.082 1944884 1934158 1924847 1918381 1915588 1916062 1918459 1920171 
3582.940 1918447 1910868 1896509 1876413 1853719 1832692 1817985 1812904 
3586.797 1818558 1833546 1854361 1876291 1894764 1906369 1909178 1902980 
3590.655 1888737 1867881 1842374 1814131 1785392 1758445 1735612 1718640 
3594.512 1708564 1704988 1706384 1710143 1713601 1714336 1711192 1704203 
3598.369 1694632 1684397 1675570 1669792 1668074 1670444 1676143 1683821 
3602.227 1691671 1697943 1701296 1701041 1697562 1692031 1686389 1682570 
3606.084 1682215 1686063 1693791 1704275 1716056 1727600 1737974 1746719 
3609.942 1753883 1759621 1763982 1766613 1767200 1765306 1760929 1754360 
3613.799 1746349 1737792 1729753 1723178 1719314 1719422 1724945 1737074 
3617.656 1756540 1782827 1814158 1847178 1878115 1902958 1918996 1925106 
3621.514 1922228 1912766 1900132 1887737 1878500 1874218 1875731 1882775 
3625.371 1894415 1908942 1924459 1938740 1949973 1957120 1960435 1961377 
3629.229 1962356 1965856 1973607 1985441 1999643 2013081 2022576 2026001 
3633.086 2023284 2016492 2009272 2005562 2008365 2018672 2035340 2055846 
3636.944 2077264 2097297 2115079 2131071 2146556 2162682 2180011 2198057 
3640.801 2215681 2231451 2244450 2254172 2261093 2265801 2269150 2271434 
3644.658 2272788 2273138 2272373 2270651 2268451 2266471 2265520 2266261 
3648.516 2269332 2275102 2283854 2295554 2309883 2326083 2343100 2359643 
3652.373 2374473 2386556 2395350 2400594 2402202 2400023 2393701 2382839 
3656.231 2367328 2347401 2324519 2300836 2279154 2262412 2252713 2251226 
3660.088 2257673 2270469 2287097 2304358 2319015 2328137 2329404 2321618 
3663.946 2305001 2281261 2253676 2226274 2203450 2188641 2183423 2187220 
3667.803 2197303 2209594 2219708 2224228 2221598 2212038 2197470 2180445 
3671.660 2163468 2148102 2135053 2124061 2114522 2105659 2096819 2087620 
3675.518 2077530 2066390 2053891 2040142 2025565 2010898 1997056 1984742 
3679.375 1974202 1965118 1956611 1947497 1936801 1923807 1908453 1891033 
3683.233 1872266 1852817 1833587 1815428 1799490 1786734 1778089 1773641 
3687.090 1772860 1773882 1774410 1771961 1764951 1753058 1737516 1720823 
3690.948 1705709 1694486 1688440 1687560 1691007 1697486 1705784 1714852 
3694.805 1723849 1731573 1736589 1737113 1731706 1720058 1703306 1684434 
3698.662 1667355 1655982 1653176 1659622 1674060 1693398 1714094 1732926 
3702.520 1748057 1758691 1765321 1768579 1769342 1768009 1765148 1761306 
3706.377 1757339 1754004 1751849 1750524 1748938 1745389 1738311 1726946 
3710.235 1711814 1694592 1677902 1664228 1655323 1651897 1653616 1659710 
3714.092 1669312 1681629 1696051 1711536 1726666 1739548 1748226 1751466 
3717.949 1749389 1743576 1736716 1731709 1730725 1734538 1742389 1752598 
3721.807 1763284 1773100 1781498 1788389 1793598 1796351 1795061 1787918 
3725.664 1773997 1753695 1729735 1706109 1687397 1677045 1676313 1683758 
3729.522 1695825 1707933 1716223 1718494 1714942 1707417 1698840 1691698 
3733.379 1687367 1685722 1685703 1685883 1685475 1684592 1684522 1686878 
3737.237 1692939 1702956 1715779 1728820 1739123 1743730 1741061 1731115 
3741.094 1715817 1698274 1682295 1671048 1666716 1669925 1679853 1694723 
3744.951 1712458 1731026 1748924 1764770 1777446 1785671 1788299 1784561 
3748.809 1774682 1759867 1742662 1726071 1713157 1705954 1705181 1710086 
3752.666 1718976 1729627 1740018 1748564 1754334 1756634 1755262 1750129 
3756.524 1741623 1730637 1718819 1708093 1700586 1697583 1699349 1704929 
3760.381 1712261 1718688 1721893 1720023 1712635 1700169 1684186 1666865 
3764.239 1650813 1638665 1632575 1633804 1642559 1657342 1675610 1693821 
3768.096 1708583 1717293 1719027 1714362 1705406 1694629 1684343 1675798 
3771.953 1669207 1664016 1659721 1656232 1654196 1654812 1659154 1667769 
3775.811 1680178 1694815 1709648 1722576 1732118 1737500 1738696 1736223 
3779.668 1730774 1723098 1713976 1704435 1695879 1689790 1687803 1690854 
3783.526 1699189 1711921 1727394 1743608 1758699 1771386 1781098 1787679 
3787.383 1791129 1791077 1786928 1777740 1762991 1742961 1719274 1694797 
3791.240 1673186 1658094 1652150 1656041 1668451 1685983 1704080 1718168 
3795.098 1724879 1722773 1712749 1697791 1682107 1670042 1665106 1669056 
3798.955 1681715 1700916 1723101 1743844 1759007 1765035 1760052 1743978 
3802.813 1718722 1687863 1656110 1628390 1609107 1601304 1605874 1621460 
3806.670 1644758 1671034 1695702 1714886 1726960 1732178 1732882 1732183 
3810.528 1733244 1737993 1746597 1757336 1767401 1773575 1773684 1767126 
3814.385 1755471 1741911 1730442 1724491 1726050 1734881 1748661 1763915 
3818.242 1776950 1785052 1787042 1783379 1775864 1766569 1757452 1749305 
3822.100 1742027 1734811 1726774 1717328 1707009 1697034 1689234 1685375 
3825.957 1686753 1693599 1705149 1719419 1734129 1746691 1755000 1757478 
3829.815 1753621 1743570 1728348 1709443 1688791 1668483 1650698 1637362 
3833.672 1630089 1629474 1635413 1646450 1660338 1674283 1685664 1692682 
3837.530 1694847 1692812 1688233 1682728 1677542 1672869 1668389 1663315 
3841.387 1657483 1651546 1647189 1646290 1650367 1659436 1672097 1685367 
3845.244 1696028 1701363 1700444 1694104 1684891 1675857 1669770 1668189 
3849.102 1671360 1678346 1687949 1698677 1709626 1720000 1729099 1736022 
3852.959 1739773 1739514 1735022 1726891 1716668 1706056 1696629 1689149 
3856.817 1683539 1678869 1674264 1668908 1662893 1656851 1651815 1648689 
3860.674 1648094 1649979 1653997 1659605 1666507 1674446 1683253 1692618 
3864.531 1701987 1710543 1717601 1722513 1725315 1726372 1726549 1726570 
3868.389 1727160 1728515 1730622 1732884 1734771 1735519 1734452 1730883 
3872.246 1724670 1716031 1705809 1695287 1685981 1679073 1675210 1673979 
3876.104 1674446 1675407 1676277 1677199 1679471 1684573 1693687 1706791 
3879.961 1722249 1737140 1748153 1752619 1749587 1739992 1726366 1711841 
3883.819 1699224 1690102 1684812 1682837 1683306 1685596 1689681 1695549 
3887.676 1703072 1711182 1718149 1721720 1720215 1713020 1701253 1687335 
3891.533 1674535 1665549 1662030 1663656 1668799 1674869 1679598 1681553 
3895.391 1680783 1678306 1675841 1674914 1676334 1679698 1683845 1687028 
3899.248 1687628 1684561 1677839 1668402 1658061 1648893 1642805 1641089 
3903.106 1644151 1651380 1661367 1672220 1682122 1689504 1693843 1694993 
3906.963 1693882 1691568 1689383 1688179 1688610 1690689 1694142 1698473 
3910.821 1703407 1708774 1714955 1722525 1732153 1744325 1759043 1775482 
3914.678 1792294 1807316 1818330 1823248 1820758 1810488 1793265 1770779 
3918.535 1745522 1720067 1696707 1677070 1662113 1651745 1645572 1642665 
3922.393 1642329 1644132 1647983 1653948 1662410 1673211 1685920 1699500 
3926.250 1712676 1723781 1731616 1735234 1734500 1729795 1722052 1712360 
3930.108 1701930 1691775 1682854 1675852 1671492 1670131 1672073 1677147 
3933.965 1685106 1695107 1706402 1717884 1728738 1738185 1745580 1750498 
3937.823 1752888 1752891 1751181 1748745 1746928 1746852 1749203 1753836 
3941.680 1759566 1764505 1766489 1763590 1755027 1741156 1723639 1704786 
3945.537 1687238 1672921 1663117 1658184 1657964 1662010 1669887 1681295 
3949.395 1695864 1712977 1731667 1750510 1768249 1783691 1796466 1806610 
3953.252 1814746 1821388 1826788 1830440 1831591 1829337 1823334 1813884 
3957.110 1802327 1790277 1779590 1771300 1765697 1761936 1758797 1754942 
3960.967 1749587 1742601 1734764 1727191 1721341 1718261 1718802 1723096 
3964.824 1731161 1742426 1756044 1770702 1784780 1796406 1803970 1806182 
3968.682 1802734 1794210 1781856 1767361 1752425 1738310 1725748 1715192 
3972.539 1706892 1700997 1697774 1697249 1699130 1702542 1706459 1709660 
3976.397 1711676 1712616 1713769 1716678 1722930 1733059 1746519 1761370 
3980.254 1775172 1785502 1790982 1791599 1788670 1784127 1779956 1777318 
3984.112 1776399 1776374 1775975 1774069 1770201 1764678 1758659 1753694 
3987.969 1751396 1752903 1758802 1768736 1781744 1796118 1809963 1821420 
3991.826 1829286 1833022 1833190 1830978 1827963 1825268 1823295 1821615 
3995.684 1819013 1814242 1806499 1795959 1783851 1771968 1762198 1755758 
3999.541 1753025 1753277 1755295 
##END=
