##TITLE=eSUN_PETG_Black_Filament_r3_ATR-Corrected
##JCAMP-DX=5.01  $$ Nicolet v. 1
##DATATYPE=INFRARED SPECTRUM
##ORIGIN=Curtin University
##OWNER=Nicolet
##LONGDATE=2024/07/10
##TIME=15:17:20
##SPECTROMETER/DATA SYSTEM=Nicolet iS50
##DATA PROCESSING=
Ratio against background
%Transmittance->Absorbance
ATR Correction
Truncated
ElementMultiply or ElementDivide
##COMMENTS=
Number of sample scans: 32
Collection length: 47.29 sec
Sample gain: 1.0
Background collected on: Wed Jul 10 15:13:03 2024 (GMT+08:00);
Number of background scans: 32
Background gain: 1.0
Sample spacing:  1.000
Number of scan points: 16672
Resolution points: 8192
Number of FFT points: 65536
Apodization: N-B strong;
Phase correction: Mertz;
Laser frequency: 15798.3 cm-1
Number of rejected sample scans: 0
Number of rejected background scans: 0
Bench serial number: AUP1200105;
##RESOLUTION=4.000
##XUNITS=1/CM
##YUNITS=ABSORBANCE
##FIRSTX=400.163452
##LASTX=4000.187744
##FIRSTY=0.040608
##MAXX=4000.187744
##MINX=400.163452
##MAXY=1.620809
##MINY=-0.016016
##XFACTOR=1.000000
##YFACTOR=1.000000E-008
##NPOINTS=7468
##DELTAX=0.482125
##ZPD=8192
##XYDATA=(X++(Y..Y))
400.163 4060766 4053886 4059186 4078709 4113128 4159036 4208867 4252453 
404.020 4280076 4286049 4270961 4241675 4208475 4180980 4164247 4156958 
407.877 4152414 4142103 4120161 4086754 4048853 4017960 4005529 4018261 
411.734 4054690 4105015 4154126 4186647 4192255 4169075 4124087 4070708 
415.591 4024315 3997754 3998116 4025739 4075012 4136932 4201820 4261902 
419.448 4312703 4353191 4384908 4410597 4432783 4452828 4470471 4484154 
423.305 4491557 4490624 4480479 4462226 4439081 4415991 4398565 4391797 
427.162 4398821 4420383 4454979 4499729 4551522 4607882 4667104 4727776 
431.019 4787680 4842939 4887819 4915227 4919339 4896743 4848253 4779526 
434.876 4700022 4620906 4552376 4501474 4470784 4458775 4460945 4471645 
438.733 4485447 4497896 4505550 4505618 4495670 4473772 4439020 4392278 
442.590 4336538 4276656 4218522 4167761 4128684 4103659 4093131 4096172 
446.447 4111112 4136019 4168736 4206602 4246159 4283254 4313526 4333518 
450.304 4341678 4338988 4328803 4315923 4305098 4299747 4300995 4307808 
454.161 4317591 4327260 4334270 4337153 4335691 4330701 4323678 4316650 
458.017 4311887 4311719 4318150 4332268 4353682 4380244 4408226 4433195 
461.874 4451129 4459584 4458358 4449154 4435170 4419608 4404776 4391812 
465.731 4380939 4372224 4366213 4364187 4367696 4377733 4393941 4414354 
469.588 4435859 4455309 4470738 4482169 4491531 4501807 4515690 4534452 
473.445 4557412 4582429 4606944 4629208 4649112 4668150 4688634 4712663 
477.302 4741145 4773485 4807972 4842644 4876147 4908330 4940076 4972815 
481.159 5007720 5045214 5084860 5125751 5167009 5208311 5249946 5292634 
485.016 5337003 5383222 5430880 5479223 5527665 5576259 5625934 5678348 
488.873 5735372 5798410 5867850 5942871 6021644 6102010 6182208 6261681 
492.730 6341471 6424216 6513631 6613619 6727200 6855488 6996957 7147309 
496.587 7299788 7446127 7577739 7687101 7768687 7819647 7839835 7831323 
500.444 7797617 7742831 7670931 7585276 7488513 7382551 7268791 7148358 
504.301 7022203 6891217 6756279 6618291 6478188 6337071 6196224 6057253 
508.158 5922068 5792791 5671635 5560539 5460908 5373284 5297198 5231280 
512.015 5173563 5122018 5075016 5031699 4992016 4956459 4925640 4899833 
515.871 4878735 4861426 4846635 4833057 4819570 4805305 4789508 4771392 
519.728 4750078 4724765 4695168 4661894 4626733 4592507 4562425 4539236 
523.585 4524297 4517015 4514851 4513956 4510143 4500071 4482052 4456423 
527.442 4425306 4391971 4359961 4332404 4311413 4297892 4291396 4290255 
531.299 4291709 4292214 4287917 4275372 4252286 4218223 4174942 4126294 
535.156 4077449 4033744 3999466 3976761 3965219 3962138 3963381 3964639 
539.013 3962605 3955724 3944365 3930350 3916074 3903600 3893937 3886829 
542.870 3880998 3874724 3866488 3855535 3842038 3826944 3811625 3797400 
546.727 3785176 3775221 3767187 3760246 3753291 3745204 3735028 3722124 
550.584 3706288 3687780 3667245 3645565 3623608 3602047 3581130 3560714 
554.441 3540384 3519697 3498434 3476780 3455170 3434173 3414157 3395034 
558.298 3376181 3356646 3335425 3311919 3286189 3259015 3231743 3205881 
562.155 3182750 3163191 3147459 3135348 3126360 3119980 3115761 3113352 
566.012 3112401 3112417 3112728 3112484 3110782 3106945 3100594 3091901 
569.869 3081498 3070419 3059836 3050796 3043952 3039368 3036491 3034292 
573.725 3031560 3027318 3021126 3013320 3004977 2997630 2992801 2991632 
577.582 2994479 3000872 3009724 3019643 3029388 3038187 3045773 3052374 
581.439 3058412 3064251 3070056 3075768 3081331 3086849 3092819 3100125 
585.296 3109937 3123352 3141130 3163399 3189607 3218744 3249666 3281604 
589.153 3314503 3349249 3387547 3431536 3483253 3544104 3614428 3693452 
593.010 3779339 3869672 3961734 4052888 4140680 4222802 4296920 4360670 
596.867 4411599 4447435 4466389 4467408 4450369 4416077 4366041 4302201 
600.724 4226705 4141746 4049560 3952539 3853322 3754816 3660044 3571918 
604.581 3492912 3424768 3368375 3323712 3290031 3266036 3250121 3240589 
608.438 3235780 3234235 3234708 3236243 3238150 3240006 3241566 3242757 
612.295 3243630 3244338 3245180 3246596 3249103 3253255 3259443 3267801 
616.152 3278110 3289856 3302383 3315130 3327856 3340718 3354222 3368977 
620.009 3385429 3403668 3423389 3444101 3465402 3487371 3510650 3536367 
623.866 3565731 3599631 3638314 3681476 3728806 3780787 3839481 3908916 
627.723 3994507 4101663 4233663 4389424 4561888 4737684 4898623 5024867 
631.579 5099099 5110675 5058337 4950669 4804044 4638884 4475246 4329195 
635.436 4210594 4122706 4063332 4026868 4006522 3996202 3991577 3990382 
639.293 3992024 3996929 4005828 4019216 4037044 4058607 4082632 4107512 
643.150 4131569 4153438 4172331 4188173 4201489 4213136 4223844 4233969 
647.007 4243337 4251437 4257817 4262461 4266061 4269889 4275438 4283881 
650.864 4295648 4310271 4326604 4343346 4359484 4374715 4389354 4404124 
654.721 4419704 4436413 4454135 4472492 4491216 4510371 4530402 4551998 
658.578 4575617 4601255 4628307 4655744 4682539 4708054 4732286 4755806 
662.435 4779449 4803934 4829545 4856116 4883261 4910762 4938833 4968243 
666.292 5000102 5035482 5074987 5118536 5165421 5214590 5265061 5316299 
670.149 5368384 5421996 5478160 5538111 5603052 5674092 5752259 5838406 
674.006 5933158 6036732 6148749 6268126 6393090 6521328 6650180 6776856 
677.863 6898547 7012534 7116169 7207068 7283275 7343606 7387935 7417318 
681.720 7433948 7440751 7440930 7437442 7432735 7428650 7426642 7428091 
685.577 7434476 7447464 7468721 7499609 7540914 7592705 7654412 7725106 
689.433 7803783 7889683 7982368 8081703 8187782 8300879 8421411 8550127 
693.290 8688179 8837230 8999331 9176732 9371521 9585384 9819472 10074402 
697.147 10350444 10647666 10966030 11305273 11664664 12042654 12436598 
700.522 12842728 13256301 13672049 14084806 14490041 14884460 15266123 
703.897 15634517 15990354 16335179 16670990 16999858 17323646 17643786 
707.272 17961284 18276950 18591780 18907542 19227438 19556622 19902502 
710.647 20274800 20685180 21146746 21673520 22279970 22980748 23790536 
714.021 24723924 25795088 27017268 28401884 29957580 31688992 33595956 
717.396 35672964 37909372 40290280 42797692 45411964 48112320 50875984 
720.771 53675520 56474024 59219344 61837764 64230568 66275012 67833968 
724.146 68775288 68998768 68462336 67196496 65298992 62912636 60195504 
727.521 57295616 54334964 51404012 48562920 45846744 43271332 40839164 
730.896 38543856 36373704 34314444 32351208 30470118 28659418 26909894 
734.270 25215024 23570684 21974676 20426418 18926828 17478464 16085702 
737.645 14754656 13492866 12308376 11208707 10199715 9284707 8464006 7734957 
741.502 7092517 6529844 6039155 5612436 5241978 4920779 4642702 4402556 
745.359 4196046 4019606 3870241 3745216 3641884 3557486 3489181 3434108 
749.216 3389633 3353512 3324093 3300345 3281723 3267978 3258896 3254125 
753.073 3253138 3255323 3260042 3266923 3275839 3286922 3300383 3316386 
756.930 3334826 3355362 3377476 3400712 3424853 3450081 3476938 3506172 
760.787 3538404 3573916 3612487 3653468 3696015 3739465 3783641 3828993 
764.644 3876520 3927454 3982884 4043351 4108688 4178037 4250147 4323674 
768.501 4397572 4471241 4544529 4617504 4690171 4762202 4832809 4900769 
772.358 4964715 5023436 5076226 5123143 5165082 5203696 5241035 5279208 
776.214 5319911 5364199 5412316 5463876 5518130 5574433 5632550 5692905 
780.071 5756527 5824879 5899533 5981982 6073430 6174895 6287355 6411821 
783.928 6549349 6700811 6866690 7046747 7240031 7445036 7660181 7884321 
787.785 8117082 8358843 8610176 8870976 9139293 9410354 9675929 9924372 
791.642 10141268 10310785 10417414 10448086 10394133 10252995 10029289 
795.017 9734879 9387936 9010975 8628178 8262554 7933325 7654168 7432431 
798.874 7269349 7161142 7100538 7078389 7085136 7111810 7150677 7195529 
802.731 7241754 7286446 7328197 7366866 7403160 7438046 7472130 7505285 
806.588 7536561 7564418 7587329 7604363 7615686 7622548 7627097 7631764 
810.445 7638633 7649010 7663227 7680763 7700546 7721369 7742148 7762143 
814.302 7781007 7798741 7815619 7832076 7848587 7865543 7883048 7900913 
818.159 7918682 7935785 7951849 7966963 7981793 7997520 8015528 8036970 
822.016 8062426 8091669 8123871 8157910 8192891 8228489 8265082 8303568 
825.872 8344947 8389920 8438644 8490756 8545709 8603168 8663354 8727120 
829.729 8795737 8870430 8951866 9039818 9133159 9230067 9328522 9426815 
833.586 9523889 9619423 9713768 9807658 9901940 9997401 10094687 10194281 
837.443 10296518 10401481 10508892 10617935 10727209 10834762 10938377 
840.818 11035851 11125497 11206312 11278137 11341474 11397257 11446500 
844.193 11490003 11528324 11561722 11590350 11614360 11634053 11649907 
847.568 11662567 11672801 11681454 11689466 11697852 11707624 11719694 
850.943 11734665 11752661 11773182 11795183 11817264 11838064 11856694 
854.317 11873129 11888362 11904411 11923963 11949991 11985283 12032066 
857.692 12091806 12165190 12252329 12353048 12467191 12594981 12737216 
861.067 12895413 13071805 13269255 13491036 13740624 14021511 14337011 
864.442 14690213 15083891 15520523 16002117 16530016 17104426 17723874 
867.817 18384534 19079478 19798082 20525784 21244072 21931092 22562842 
871.191 23114814 23564174 23891922 24084876 24136808 24048654 23827750 
874.566 23486324 23039648 22504560 21898168 21237232 20537762 19814784 
877.941 19082120 18352092 17635302 16940432 16274330 15642175 15047809 
881.316 14493978 13982636 13514915 13091153 12710814 12372441 12073792 
884.691 11812038 11584012 11386551 11216591 11071254 10947756 10843485 
888.066 10755919 10682798 10622304 10573205 10534848 10506963 10489394 
891.440 10481763 10483279 10492721 10508694 10529902 10555425 10584760 
894.815 10617623 10653565 10691642 10730123 10766498 10797801 10821003 
898.190 10833544 10833526 10819836 10791963 10749803 10693362 10622744 
901.565 10538119 10439981 10329232 10207427 10076766 9940041 9800396 9661127 
905.422 9525267 9395353 9273165 9159561 9054594 8957735 8868233 8785579 
909.279 8709843 8641763 8582609 8533786 8496358 8470582 8455803 8450459 
913.136 8452477 8459731 8470465 8483535 8498438 8515193 8534129 8555669 
916.993 8580261 8608310 8640238 8676479 8717421 8763291 8814057 8869377 
920.849 8928516 8990424 9053805 9117185 9179084 9238172 9293447 9344459 
924.706 9391419 9435259 9477443 9519697 9563670 9610578 9661014 9714955 
928.563 9771921 9831248 9892249 9954439 10017444 10081010 10144965 10209169 
932.420 10273743 10339108 10406160 10476155 10550614 10630997 10718524 
935.795 10814036 10918070 11031044 11153457 11286008 11429588 11585140 
939.170 11753348 11934526 12128504 12334746 12552536 12781242 13020462 
942.545 13270031 13529910 13799854 14079157 14366318 14658980 14953904 
945.920 15247333 15535370 15814602 16082630 16338465 16582692 16817292 
949.294 17045192 17269646 17493584 17719086 17947076 18177232 18407986 
952.669 18636660 18859438 19071366 19266402 19437648 19577890 19680300 
956.044 19739464 19752226 19718314 19640396 19523994 19376742 19207672 
959.419 19026472 18842904 18666316 18505188 18366682 18256150 18176662 
962.794 18128798 18110616 18118124 18145950 18188168 18239064 18293608 
966.168 18347646 18397808 18441274 18475558 18498408 18507750 18501774 
969.543 18478952 18438070 18378114 18298288 18197972 18076814 17934922 
972.918 17772872 17591936 17394026 17181664 16957962 16726583 16491628 
976.293 16257484 16028538 15808778 15601395 15408526 15231209 15069582 
979.668 14923398 14792378 14676572 14576294 14491887 14423265 14369543 
983.043 14328882 14298637 14275752 14257300 14240849 14224738 14208037 
986.417 14190379 14171724 14152172 14131945 14111266 14090556 14070444 
989.792 14051777 14035650 14023371 14016475 14016661 14025660 14045072 
993.167 14076185 14119720 14175855 14244325 14324713 14416790 14520723 
996.542 14637126 14766873 14910714 15068994 15241434 15427235 15625466 
999.917 15835527 16057621 16293019 16544007 16813724 17105674 17423546 
1003.291 17770908 18151268 18568168 19025312 19526606 20076190 20678262 
1006.666 21337056 22056774 22841730 23696766 24627654 25641670 26747978 
1010.041 27957592 29282856 30736122 32327482 34061716 35934464 37927952 
1013.416 40006792 42114412 44171452 46077128 47715024 48964368 49715848 
1016.791 49889112 49447492 48404856 46822696 44798692 42450780 39901556 
1020.166 37265956 34643172 32112888 29734614 27549088 25580946 23841806 
1023.540 22333244 21049272 19978392 19104900 18410050 17872954 17471624 
1026.916 17184002 16989228 16868586 16806326 16789948 16809988 16859610 
1030.291 16933810 17028720 17141088 17267906 17406400 17553988 17708496 
1033.666 17868268 18032354 18200428 18372754 18549892 18732452 18920728 
1037.041 19114430 19312542 19513368 19714738 19914218 20109362 20297858 
1040.417 20477500 20646226 20802074 20943188 21067962 21175254 21264456 
1043.792 21335622 21389430 21427070 21450052 21460222 21459628 21450528 
1047.167 21435260 21416140 21395262 21374362 21354792 21337670 21324054 
1050.542 21315300 21313218 21320078 21338396 21370696 21419198 21485664 
1053.917 21571430 21677512 21804716 21953792 22125320 22319592 22536560 
1057.293 22775766 23036552 23318298 23620650 23943688 24287816 24653586 
1060.668 25041350 25451106 25882372 26334488 26806772 27298894 27810950 
1064.043 28343422 28896910 29471970 30068960 30688084 31329548 31993902 
1067.418 32682008 33395142 34134708 34902008 35698068 36523704 37379656 
1070.794 38266992 39187340 40143012 41136936 42172216 43251860 44378484 
1074.169 45553996 46779756 48056532 49384520 50763260 52191328 53665908 
1077.544 55182300 56733780 58311488 59904744 61501920 63091272 64662260 
1080.919 66206096 67716488 69189080 70620976 72009424 73351344 74642872 
1084.295 75880224 77061008 78185608 79257888 80285184 81276808 82242232 
1087.670 83189040 84121784 85041520 85946544 86832864 87695176 88526600 
1091.045 89318464 90059888 90737744 91337352 91843576 92242048 92519912 
1094.420 92665896 92670128 92523800 92219600 91752744 91122136 90330976 
1097.796 89386592 88299008 87079272 85737720 84283488 82725016 81071272 
1101.171 79333016 77523568 75658920 73757032 71836920 69918152 68020328 
1104.546 66163308 64367324 62653172 61041928 59554680 58211704 57031708 
1107.921 56030620 55220360 54607524 54192008 53965960 53913276 54009716 
1111.297 54224156 54520448 54860056 55204624 55518460 55770260 55934168 
1114.672 55990292 55924852 55730136 55404360 54951132 54378616 53698236 
1118.047 52923172 52067060 51143068 50163424 49139308 48081116 46998556 
1121.422 45900572 44795352 43690108 42591120 41503748 40432560 39381400 
1124.798 38353468 37351196 36376156 35429040 34509884 33618208 32753304 
1128.173 31914348 31100440 30310536 29543238 28796784 28069028 27357766 
1131.548 26661090 25977624 25306808 24648874 24004694 23375546 22762900 
1134.923 22168172 21592612 21037210 20502662 19989276 19497008 19025422 
1138.299 18573810 18141254 17726772 17329380 16948240 16582628 16231968 
1141.674 15895817 15573871 15265994 14972247 14692746 14427641 14176987 
1145.049 13940679 13718361 13509452 13313262 13128959 12955628 12792204 
1148.424 12637387 12489548 12346803 12207092 12068384 11928942 11787545 
1151.800 11643533 11496788 11347619 11196566 11044365 10891826 10739874 
1155.175 10589667 10442557 10300039 10163707 10034999 9915151 9805039 
1158.550 9705213 9615930 9537263 9469236 9411971 9365845 9331585 9310326 
1162.407 9303584 9313182 9341073 9389164 9459188 9552631 9670688 9814284 
1166.265 9983939 10179608 10400251 10643464 10905106 11179226 11458244 
1169.640 11733579 11996357 12238334 12452535 12633684 12778226 12884174 
1173.015 12950793 12978391 12968139 12922053 12842855 12733932 12599097 
1176.391 12442374 12267889 12079737 11882038 11679090 11475319 11275268 
1179.766 11083311 10903438 10738937 10592311 10465300 10359040 10274272 
1183.141 10211434 10170688 10151836 10154263 10176928 10218570 10277952 
1186.516 10354068 10446419 10554811 10679261 10819636 10975409 11145630 
1189.892 11328948 11523873 11729006 11943070 12165063 12394016 12628974 
1193.267 12868929 13112928 13360277 13610654 13864173 14121385 14382999 
1196.642 14649828 14922678 15202343 15489778 15786065 16092375 16409765 
1200.017 16738860 17079682 17431576 17793386 18163892 18542254 18928252 
1203.393 19322420 19725858 20139840 20565524 21003668 21454728 21918952 
1206.768 22396744 22888794 23396208 23920392 24462896 25025216 25608694 
1210.143 26214394 26843234 27495884 28172938 28874884 29602074 30354812 
1213.518 31133330 31937694 32767766 33622928 34501820 35402088 36320108 
1216.894 37250976 38188652 39126284 40056808 40973736 41871844 42748012 
1220.269 43601876 44436008 45255856 46069176 46885228 47713716 48564060 
1223.644 49444584 50362356 51323176 52331616 53391196 54504616 55673808 
1227.019 56900192 58184968 59529460 60935588 62406016 63944180 65553896 
1230.395 67238888 69002272 70846232 72771856 74779104 76866680 79031648 
1233.770 81268568 83568648 85918920 88301824 90695480 93074616 95411616 
1237.145 97677704 99843768 101880968 103761472 105459296 106951880 108221544 
1240.520 109256480 110051176 110605768 110925088 111017728 110895696 
1243.413 110574280 110072216 109411488 108616032 107710648 106719336 
1246.306 105664480 104566360 103443264 102311488 101185464 100077392 
1249.199 98997024 97951832 96947504 95988992 95081464 94230784 93443152 
1252.575 92724224 92077664 91504120 91000488 90560256 90174192 89831360 
1255.950 89519832 89226744 88938384 88639816 88315112 87948088 87523264 
1259.325 87027168 86449416 85783216 85025400 84176224 83239096 82220200 
1262.700 81128136 79973384 78767544 77522368 76248984 74957528 73657048 
1266.076 72355944 71062168 69783376 68526568 67297512 66100096 64936120 
1269.451 63805340 62706136 61636232 60593360 59575576 58581280 57608916 
1272.826 56656784 55723016 54805808 53903716 53015764 52141588 51280944 
1276.201 50433296 49597384 48771260 47952444 47138520 46327620 45518856 
1279.577 44712392 43909148 43110520 42318024 41532948 40756436 39989524 
1282.952 39233188 38488496 37756620 37038876 36336692 35651656 34985468 
1286.327 34339856 33716308 33115792 32538406 31983172 31448000 30929718 
1289.702 30424460 29927934 29435748 28943700 28447866 27944862 27431882 
1293.078 26907000 26369264 25818884 25257218 24686640 24110348 23532118 
1296.453 22955982 22386192 21826974 21282466 20756548 20252712 19773864 
1299.828 19322076 18898370 18502600 18133434 17788420 17464220 17156876 
1303.203 16862214 16576190 16295239 16016486 15737927 15458372 15177479 
1306.579 14895572 14613575 14332955 14055648 13784076 13520968 13269246 
1309.954 13031709 12810630 12607498 12422680 12255346 12103453 11964075 
1313.329 11833593 11708236 11584315 11458651 11328733 11192887 11050310 
1316.704 10901000 10745625 10585312 10421418 10255255 10087929 9920298 
1320.080 9752993 9586548 9421542 9258836 9099508 8944941 8796646 8656307 
1323.937 8525663 8406562 8301124 8211891 8141872 8094710 8074575 8086086 
1327.794 8134203 8223997 8360541 8548594 8792418 9095296 9459084 9883587 
1331.652 10366036 10900640 11478360 12087019 12711565 13334624 13937229 
1335.027 14499898 15003708 15431806 15770541 16010663 16147776 16182397 
1338.402 16119362 15966856 15735421 15436856 15083461 14687243 14259544 
1341.778 13810748 13349968 12885094 12422724 11968302 11526078 11099419 
1345.153 10690805 10302076 9934577 9589282 9266828 8967578 8691646 8438765 
1349.010 8208375 7999617 7811378 7642417 7491436 7357199 7238566 7134494 
1352.868 7044001 6966151 6899960 6844401 6798482 6761271 6732020 6710297 
1356.725 6696010 6689346 6690760 6700789 6720060 6749242 6789179 6840970 
1360.583 6906056 6986239 7083419 7199353 7335313 7491681 7667812 7861954 
1364.440 8071299 8292227 8520436 8751173 8979454 9200341 9409197 9602157 
1368.297 9776236 9929639 10061735 10172901 10264327 10337721 10394960 
1371.673 10437976 10468368 10487330 10495457 10492717 10478549 10452046 
1375.048 10412320 10358914 10292019 10212729 10122998 10025474 9923292 
1378.423 9819775 9718242 9621880 9533694 9456377 9392344 9343548 9311375 
1382.281 9296404 9298459 9316520 9348974 9393795 9448825 9512019 9581473 
1386.138 9655526 9732656 9811427 9890439 9968369 10043991 10116304 10184745 
1389.995 10249271 10310388 10369179 10427137 10485975 10547405 10613117 
1393.371 10684692 10763875 10852811 10954294 11071864 11209759 11372610 
1396.746 11565232 11792308 12058315 12367613 12724593 13133965 13600840 
1400.121 14130650 14728868 15400501 16149481 16977758 17884362 18864208 
1403.496 19906766 20994652 22102722 23197452 24237800 25177136 25966638 
1406.872 26559636 26916326 27007974 26820130 26354084 25626746 24668786 
1410.247 23521540 22232956 20853442 19431686 18011538 16629627 15314430 
1413.622 14086026 12956795 11932460 11013404 10196014 9473771 8838511 
1416.997 8281164 7792665 7364513 6989160 6660329 6372861 6122593 5906030 
1420.855 5720037 5561674 5428233 5317200 5226399 5154007 5098447 5058336 
1424.712 5032335 5019242 5018066 5028260 5049792 5083185 5129311 5189048 
1428.570 5263066 5351482 5453878 5569356 5696714 5834597 5981553 6136109 
1432.427 6296777 6462157 6631058 6802689 6976618 7152614 7330500 7509774 
1436.284 7689465 7868174 8044354 8216662 8384353 8547489 8706961 8864427 
1440.142 9022266 9183461 9351728 9531242 9726434 9941366 10178959 10440335 
1443.999 10724363 11027754 11345617 11672357 12002431 12330890 12653334 
1447.375 12965429 13262436 13538741 13787967 14003339 14178373 14307712 
1450.750 14387493 14415777 14392707 14320356 14202656 14045064 13854194 
1454.125 13637389 13402329 13156581 12907299 12660758 12421957 12194270 
1457.500 11979301 11776985 11586023 11404417 11230060 11061240 10896847 
1460.875 10736335 10579595 10426662 10277349 10131133 9987038 9843688 
1464.251 9699637 9553506 9404356 9251842 9096299 8938674 8780377 8623044 
1468.108 8468297 8317458 8171482 8030767 7895318 7764692 7638293 7515327 
1471.966 7395071 7276762 7159766 7043490 6927492 6811326 6694688 6577250 
1475.823 6458702 6338650 6216579 6091958 5964242 5833094 5698510 5560947 
1479.680 5421380 5281139 5141780 5004783 4871271 4741909 4616854 4495917 
1483.538 4378785 4265259 4155426 4049778 3949125 3854456 3766863 3687180 
1487.395 3616019 3553600 3499755 3453971 3415577 3383860 3358359 3338950 
1491.253 3326110 3320718 3324050 3337412 3362016 3398811 3448511 3511764 
1495.110 3589508 3683254 3795388 3929256 4089284 4280923 4510552 4785235 
1498.968 5112176 5497656 5945342 6454196 7016270 7614948 8224607 8811741 
1502.825 9337946 9764326 10056691 10190545 10154988 9954530 9608494 9147836 
1506.682 8610152 8033913 7453699 6896753 6381879 5919787 5514563 5165394 
1510.540 4868365 4617760 4407222 4230596 4082547 3958770 3856052 3771979 
1514.397 3704576 3651901 3611837 3582114 3560409 3544705 3533398 3525469 
1518.255 3520444 3518207 3518836 3522439 3528981 3538318 3550091 3563799 
1522.112 3578779 3594283 3609489 3623646 3636038 3646186 3653671 3658277 
1525.969 3659930 3658681 3654699 3648132 3639133 3627748 3613893 3597319 
1529.827 3577758 3554945 3528847 3499592 3467675 3433706 3398424 3362530 
1533.684 3326622 3291156 3256556 3223266 3191777 3162615 3136265 3113030 
1537.542 3092958 3075842 3061221 3048591 3037514 3027707 3019102 3011715 
1541.399 3005612 3000786 2997150 2994516 2992676 2991472 2990849 2990895 
1545.257 2991855 2994207 2998527 3005432 3015381 3028453 3044230 3061699 
1549.114 3079468 3096069 3110328 3121723 3130467 3137466 3143894 3150885 
1552.971 3159191 3169019 3180169 3192241 3204823 3217701 3230832 3244324 
1556.829 3258330 3272996 3288524 3305278 3323728 3344418 3367766 3393820 
1560.686 3422252 3452352 3483304 3514512 3545810 3577535 3610446 3645512 
1564.544 3683642 3725562 3771934 3823403 3880863 3945430 4018445 4101214 
1568.401 4194808 4300022 4417412 4547488 4690905 4848567 5021409 5210114 
1572.259 5414690 5634096 5865987 6106687 6351080 6592744 6823986 7036122 
1576.116 7219879 7366118 7466704 7515325 7508153 7444244 7325625 7157095 
1579.973 6945938 6701244 6433297 6152615 5869173 5591715 5327377 5081429 
1583.831 4857485 4657561 4482340 4331386 4203323 4096039 4006952 3933194 
1587.688 3871806 3819991 3775262 3735628 3699698 3666732 3636502 3609188 
1591.546 3585156 3564684 3547938 3534846 3525276 3519069 3516270 3517094 
1595.403 3521989 3531383 3545558 3564439 3587627 3614265 3643422 3674144 
1599.260 3705852 3738380 3772095 3807744 3846223 3888285 3934362 3984443 
1603.118 4038177 4095071 4154690 4216872 4281749 4349708 4421149 4496314 
1606.975 4575131 4657173 4741763 4828020 4914957 5001416 5086021 5167074 
1610.833 5242663 5310604 5368752 5415229 5448482 5467416 5471275 5459583 
1614.690 5432268 5389702 5333078 5264530 5187111 5104605 5020975 4939773 
1618.548 4863866 4795153 4734704 4682952 4639908 4605334 4578663 4559060 
1622.405 4545404 4536471 4531102 4528472 4528152 4530082 4534372 4541025 
1626.262 4549865 4560441 4572260 4584910 4598294 4612602 4628131 4645107 
1630.120 4663428 4682640 4702047 4720914 4738773 4755488 4771307 4786720 
1633.977 4802243 4818392 4835573 4854124 4874320 4896456 4920660 4946829 
1637.835 4974551 5003125 5031697 5059437 5085784 5110527 5133841 5156244 
1641.692 5178521 5201589 5226454 5254044 5285137 5320125 5358961 5400971 
1645.550 5445188 5490426 5535717 5580570 5625067 5669698 5715025 5761524 
1649.407 5809379 5858579 5909198 5961592 6016544 6075033 6137899 6205354 
1653.264 6276890 6351282 6427145 6503498 6580280 6658361 6739491 6825679 
1657.122 6918809 7020238 7130674 7250199 7378520 7515014 7658927 7809320 
1660.979 7965266 8125885 8290678 8459576 8633056 8811878 8996728 9187781 
1664.837 9384610 9586150 9791173 9998573 10207783 10418768 10631830 10847177 
1668.694 11064643 11283619 11503332 11723194 11943163 12163919 12386642 
1672.069 12612738 12843385 13079350 13320892 13567872 13819912 14076467 
1675.445 14336884 14600369 14866176 15133736 15402910 15674055 15947832 
1678.820 16224945 16505629 16789440 17075362 17362266 17649606 17937994 
1682.195 18229336 18526344 18831766 19147482 19473946 19810278 20155096 
1685.570 20507566 20868258 21239416 21624594 22028032 22453816 22905662 
1688.946 23386948 23900974 24451206 25041250 25674558 26354074 27082470 
1692.321 27862644 28698850 29597414 30566912 31617048 32756678 33991836 
1695.696 35324676 36754560 38280980 39907440 41644416 43509992 45527416 
1699.071 47720492 50108336 52701692 55502684 58508240 61716164 65130372 
1702.447 68763408 72634064 76762072 81161264 85834384 90770872 95948168 
1705.822 101334432 106890736 112570200 118315408 124054696 129702128 
1708.715 135161744 140335536 145131248 149465840 153264144 156455072 
1711.608 158972096 160761344 161794544 162080880 161667520 160629120 
1714.501 159049136 157004720 154559392 151767328 148681568 145361360 
1717.394 141872080 138279232 134638784 130990744 127357768 123749840 
1720.287 120171320 116627208 113126216 109680056 106300048 102994384 
1723.180 99766352 96615600 93540264 90539672 87615440 84770744 82008696 
1726.555 79329968 76731832 74208576 71753064 69358912 67021988 64740776 
1729.931 62515448 60346180 58231704 56168608 54151804 52175812 50236340 
1733.306 48331524 46462084 44630536 42839656 41091032 39384088 37716304 
1736.681 36083936 34483548 32912930 31372046 29862824 28388662 26953584 
1740.056 25561642 24216356 22920814 21677742 20489628 19358550 18285984 
1743.432 17272512 16317804 15420805 14580189 13794632 13063060 12384436 
1746.807 11757452 11180177 10649993 10163675 9717944 9309569 8935822 8594039 
1750.664 8281516 7995186 7731674 7487542 7259799 7046289 6845879 6658229 
1754.522 6483362 6321189 6171285 6032807 5904695 5785818 5675145 5571659 
1758.379 5474331 5381923 5293146 5206972 5122953 5041432 4963448 4890381 
1762.237 4823359 4762762 4708045 4657835 4610387 4564104 4517986 4471592 
1766.094 4425140 4379112 4334116 4290696 4249407 4210744 4175093 4142613 
1769.951 4113068 4085727 4059439 4032954 4005333 3976166 3945808 3915186 
1773.809 3885382 3857273 3831304 3807430 3785226 3764196 3743853 3723850 
1777.666 3703866 3683512 3662429 3640253 3616929 3592894 3569070 3546748 
1781.524 3527337 3511905 3500947 3494169 3490551 3488589 3486415 3482248 
1785.381 3474588 3462532 3445911 3425368 3402202 3378170 3355105 3334495 
1789.239 3317221 3303462 3292792 3284444 3277566 3271440 3265490 3259190 
1793.096 3252020 3243452 3233077 3220709 3206675 3191700 3176843 3163172 
1796.953 3151609 3142695 3136630 3133334 3132517 3133655 3135879 3137880 
1800.811 3137925 3134224 3125364 3110882 3091580 3069464 3047268 3027700 
1804.668 3012774 3003300 2999017 2998904 3001763 3006602 3012806 3019890 
1808.526 3027285 3034109 3039336 3041941 3041448 3037936 3032039 3024418 
1812.383 3015413 3004789 2991895 2976206 2957971 2938489 2920175 2905775 
1816.240 2897687 2897058 2903411 2914948 2929330 2944553 2959568 2974412 
1820.098 2989753 3006077 3023276 3040231 3055303 3066625 3072610 3072248 
1823.955 3065164 3051373 3031307 3005702 2975788 2943308 2910473 2879586 
1827.813 2852720 2831171 2815418 2804996 2798991 2796091 2795037 2794334 
1831.670 2792361 2787262 2777192 2760899 2738225 2710554 2680753 2652500 
1835.528 2629378 2613635 2605645 2603550 2604013 2602966 2596739 2582864 
1839.385 2560531 2530559 2495155 2457377 2420653 2388089 2361909 2342872 
1843.242 2330148 2321412 2313503 2303382 2289219 2270841 2249842 2228761 
1847.100 2210141 2195422 2184530 2175999 2167661 2157606 2144941 2129929 
1850.957 2113684 2097441 2082130 2067803 2054012 2040160 2025874 2011326 
1854.815 1997055 1983687 1971644 1960939 1951300 1942338 1933821 1925564 
1858.672 1917631 1909923 1902475 1895189 1888291 1882247 1877785 1875518 
1862.530 1875720 1877924 1881210 1884376 1886520 1887350 1887198 1886535 
1866.387 1885510 1883376 1878847 1870446 1857596 1841149 1823570 1808070 
1870.244 1797468 1792798 1792823 1794147 1792688 1785139 1770520 1750372 
1874.102 1728582 1709584 1697215 1693318 1697618 1708041 1721913 1736702 
1877.959 1750624 1762749 1772623 1779964 1784591 1786296 1785168 1781440 
1881.817 1775442 1767127 1756037 1741066 1721253 1696182 1666797 1635312 
1885.674 1605136 1579695 1561856 1552792 1552233 1558654 1570073 1584702 
1889.531 1601524 1620134 1640520 1662660 1686327 1710909 1735817 1760252 
1893.389 1783686 1805560 1825360 1842412 1856099 1865752 1871008 1871632 
1897.246 1867683 1859038 1845810 1828062 1806468 1782316 1757625 1734794 
1901.104 1716209 1703156 1695810 1692740 1691791 1690739 1688257 1684209 
1904.961 1679927 1677485 1679166 1686469 1699883 1718525 1740311 1761978 
1908.819 1779796 1789741 1788415 1773786 1746118 1708276 1665605 1624750 
1912.676 1592266 1572574 1567207 1574014 1588504 1605560 1621107 1633251 
1916.533 1642930 1652685 1665778 1684384 1709329 1739545 1773217 1807933 
1920.391 1841769 1872785 1899438 1919681 1931490 1932901 1923049 1902532 
1924.248 1874022 1841602 1810476 1785473 1770476 1767653 1777533 1798791 
1928.106 1828951 1864134 1899905 1931089 1952816 1960794 1952397 1926969 
1931.963 1886661 1835685 1780580 1728649 1687759 1664779 1664815 1689872 
1935.821 1738498 1805224 1881584 1957249 2022719 2070730 2098471 2107109 
1939.678 2101248 2086792 2069226 2051860 2036334 2022774 2011654 2004117 
1943.535 2002774 2010105 2027812 2055032 2089034 2125379 2159673 2188562 
1947.393 2210447 2224755 2231675 2230550 2220984 2202826 2178286 2151645 
1951.250 2129746 2118781 2122667 2139870 2163684 2182965 2186101 2163705 
1955.108 2111454 2029946 1923487 1797244 1656045 1503934 1346946 1195119 
1958.965 1064485 974568 944487 984740 1092865 1250521 1427964 1590930 
1962.823 1710796 1770570 1768779 1715304 1626537 1517483 1398219 1272584 
1966.680 1142912 1013222 893712 798951 745493 744234 796581 891714 1009781 
1971.020 1126818 1223303 1288200 1322138 1334843 1341160 1355579 1389126 
1974.877 1446469 1527293 1624742 1728462 1825412 1901471 1944755 1949594 
1978.734 1917650 1859945 1791361 1728047 1681772 1657525 1652895 1661104 
1982.592 1673288 1682680 1685220 1680495 1668568 1649295 1620196 1578816 
1986.449 1524110 1460239 1396157 1344996 1318768 1324433 1360047 1415326 
1990.307 1474162 1521686 1548192 1552994 1543001 1528112 1515678 1506715 
1994.164 1495174 1471514 1427553 1362439 1284105 1207676 1149842 1123230 
1998.021 1130731 1165022 1210195 1248323 1263636 1247345 1197489 1117473 
2001.879 1012358 887158 745759 593026 436898 290097 169590 93416 74906 
2006.219 118658 216970 352251 501300 642150 758969 844633 899154 927737 
2010.558 935278 925380 898394 853253 788317 704376 604661 495772 385317 
2014.898 280942 187295 105472 31337 -42902 -126580 -227343 -348023 -483076 
2019.237 -618811 -733970 -805027 -810658 -739543 -592309 -384049 -140730 
2023.095 105910 324665 490617 589811 619649 589470 515874 420255 324708 
2027.434 248712 205888 203626 240962 310323 397401 485994 559819 606820 
2031.774 620244 600735 554203 490805 421477 356448 302644 263846 240154 
2036.114 229497 227698 230485 234019 236931 240976 251385 275592 321896 
2040.453 395424 496319 617527 746777 868622 969935 1043424 1090624 1120824 
2044.793 1148660 1188268 1249981 1336450 1444048 1563817 1685546 1800066 
2048.650 1900626 1981864 2039725 2069441 2067432 2031744 1965383 1875896 
2052.508 1776563 1682473 1607764 1560621 1541116 1540854 1546988 1547150 
2056.365 1534834 1511493 1486061 1470737 1476358 1507270 1560638 1626890 
2060.222 1694264 1752460 1796546 1826660 1847033 1862214 1874410 1882089 
2064.080 1881013 1866309 1835650 1790868 1738173 1686316 1644333 1618335 
2067.937 1610816 1620109 1642376 1672930 1707995 1745097 1783022 1820636 
2071.795 1856764 1889331 1916551 1937250 1952037 1962808 1972974 1985669 
2075.652 2003194 2025803 2052398 2080582 2108570 2135013 2159938 2183555 
2079.510 2205416 2223223 2232853 2229024 2207666 2167875 2113816 2054258 
2083.367 2001330 1966585 1957781 1975874 2014507 2061656 2103397 2127571 
2087.224 2127482 2102583 2057868 2001042 1939784 1879388 1822807 1771150 
2091.082 1725897 1689646 1666919 1662169 1678473 1714787 1765839 1822378 
2094.939 1873948 1911424 1929836 1929194 1913999 1891123 1868121 1851109 
2098.797 1844573 1850689 1870115 1902030 1944157 1992621 2042555 2088371 
2102.654 2125394 2150512 2163637 2167166 2165721 2164353 2167656 2178106 
2106.511 2196440 2220907 2248426 2274462 2294399 2303422 2297993 2276307 
2110.369 2239425 2191201 2138011 2086948 2044376 2013568 1994269 1982465 
2114.226 1972281 1957756 1935096 1903485 1865223 1824570 1786185 1753697 
2118.084 1728858 1711293 1699417 1690762 1682877 1673185 1659555 1639545 
2121.941 1611446 1573935 1527119 1472656 1414027 1355831 1303301 1261048 
2125.799 1232228 1217437 1214543 1218354 1221316 1214505 1189350 1139241 
2129.656 1061632 958720 837823 709857 587391 481867 402043 352107 332455 
2133.996 339726 368831 413176 465868 518855 564297 594582 604495 592512 
2138.335 562404 522223 482796 453662 440632 443240 455494 467691 471356 
2142.675 461331 438631 409134 381645 363639 359604 369170 388636 412165 
2147.014 434060 449399 455099 448242 426660 387717 330456 255250 164891 
2151.354 63046 -45931 -160334 -280508 -410306 -553398 -712855 -886661 
2155.211 -1068454 -1245960 -1404056 -1525737 -1595813 -1601595 -1536292 
2158.587 -1399305 -1198443 -947552 -666483 -376485 -99526 145978 345767 
2162.444 491973 583234 626310 633198 620490 603142 594251 599699 620515 
2166.784 651913 687451 720015 744842 758334 758677 743534 710970 658846 
2171.123 587804 501984 411549 330270 274322 256163 281444 344684 430816 
2175.463 516768 579266 599762 570561 495895 389696 271886 163354 81309 37960 
2180.285 38199 81804 163441 274584 403752 539190 669155 784889 880310 954679 
2185.106 1009877 1050296 1080185 1102313 1117263 1124058 1120660 1106462 
2188.964 1082216 1050969 1017224 986065 961817 947171 941981 943956 948500 
2193.303 950250 944924 931263 911841 894052 887375 901518 941929 1007870 
2197.643 1090396 1175882 1248492 1296694 1315832 1310807 1292906 1276396 
2201.500 1272078 1284453 1309462 1337730 1357251 1358940 1338653 1298565 
2205.358 1244863 1185802 1128410 1077807 1036715 1006947 989742 986897 
2209.215 999678 1029093 1074219 1133245 1202896 1280305 1362783 1448731 
2213.073 1536186 1624071 1710417 1793663 1871964 1944394 2009456 2065331 
2216.930 2108415 2134003 2136744 2112954 2061816 1987232 1896965 1801579 
2220.788 1711273 1634469 1575740 1536911 1517291 1516011 1532402 1565818 
2224.645 1614428 1674657 1740144 1803531 1857270 1896719 1920569 1931197 
2228.502 1932669 1929780 1925578 1921932 1919257 1918760 1921965 1931839 
2232.360 1950397 1978132 2012314 2047627 2076887 2094107 2095346 2080570 
2236.217 2052455 2015749 1974940 1934162 1896333 1864709 1843394 1837597 
2240.075 1852569 1892365 1957252 2043026 2140119 2236178 2317881 2374047 
2243.932 2397368 2386307 2344046 2278099 2198026 2114442 2036655 1972269 
2247.790 1926065 1900081 1893598 1904201 1927854 1960476 1997871 2036583 
2251.647 2073474 2106277 2133095 2153207 2166576 2174629 2179257 2182794 
2255.504 2186760 2191967 2198116 2204765 2211463 2218914 2228243 2240932 
2259.362 2257119 2275745 2293646 2307117 2312841 2310035 2300376 2288419 
2263.219 2279443 2278125 2286511 2303841 2326745 2351216 2373804 2393174 
2267.077 2409678 2425127 2441056 2458133 2475591 2492025 2505908 2516564 
2270.934 2524424 2531129 2538609 2549014 2563751 2584001 2610437 2643422 
2274.792 2682526 2726676 2773476 2819603 2861004 2894133 2916420 2927253 
2278.649 2927818 2920987 2910528 2900361 2893964 2894148 2902753 2920583 
2282.506 2947163 2980806 3018329 3055677 3088236 3112086 3124408 3124310 
2286.364 3112602 3091824 3065116 3036029 3007336 2981062 2957995 2937964 
2290.221 2919749 2901827 2882673 2861522 2838586 2815434 2794325 2777681 
2294.079 2766956 2761910 2760215 2758176 2751560 2737317 2714326 2684137 
2297.936 2650372 2617698 2590305 2571155 2560983 2558987 2563152 2571254 
2301.793 2581426 2592284 2603147 2613452 2622688 2630502 2636517 2640762 
2305.651 2643228 2644353 2644389 2643740 2642707 2642043 2642681 2645887 
2309.508 2652867 2664321 2680106 2699076 2719238 2738460 2754833 2767231 
2313.366 2775427 2780024 2781991 2782744 2783765 2786862 2793864 2806577 
2317.223 2826070 2852393 2884265 2919750 2956670 2994157 3032916 3075297 
2321.081 3123788 3179275 3239105 3296450 3341144 3362155 3350745 3303190 
2324.938 3221912 3115245 2995341 2875365 2766678 2676993 2609201 2562091 
2328.795 2531596 2512775 2501196 2493911 2489346 2486908 2486267 2487050 
2332.653 2488744 2490915 2493394 2496367 2499982 2504273 2508757 2512686 
2336.510 2515172 2515803 2514639 2512489 2510379 2509324 2509682 2511367 
2340.368 2513626 2515717 2517087 2517700 2517988 2518697 2520592 2524159 
2344.225 2529512 2536459 2544454 2552841 2560732 2567317 2571975 2574347 
2348.083 2574676 2573808 2572932 2573348 2575793 2580227 2585605 2590267 
2351.940 2592484 2591289 2586759 2580475 2574742 2572173 2574588 2582638 
2355.797 2595527 2611170 2627029 2640500 2649746 2653663 2652185 2645861 
2359.655 2635812 2623314 2609552 2595586 2581968 2568893 2555967 2542731 
2363.512 2528666 2513826 2498885 2485129 2473978 2466798 2464048 2465506 
2367.370 2470041 2476330 2483209 2490243 2497650 2506196 2516451 2528603 
2371.227 2542033 2555622 2568099 2578616 2586968 2593575 2599062 2603810 
2375.084 2607534 2609251 2607625 2601628 2591036 2576918 2561528 2547759 
2378.942 2538298 2535031 2538365 2547156 2559009 2570996 2580214 2584839 
2382.799 2583962 2578275 2569380 2559454 2550634 2544622 2542203 2543527 
2386.657 2548029 2554955 2563434 2572719 2581952 2590223 2596339 2599095 
2390.514 2597354 2590990 2580579 2567906 2555254 2545092 2539104 2537827 
2394.372 2540533 2545541 2550861 2554831 2556208 2554419 2549178 2540240 
2398.229 2527268 2510385 2490184 2468416 2447653 2431062 2421299 2419774 
2402.086 2425880 2437220 2450212 2461099 2467056 2466931 2461209 2451928 
2405.944 2441574 2432800 2427615 2427326 2432197 2441692 2454338 2467930 
2409.801 2479706 2487071 2488215 2482847 2472265 2459225 2447025 2438610 
2413.659 2435365 2437038 2441636 2446505 2449091 2447785 2442151 2432852 
2417.516 2421050 2407925 2394550 2381721 2370257 2361069 2355020 2352725 
2421.374 2354293 2359217 2366483 2375091 2384104 2392867 2400895 2407348 
2425.231 2410811 2409572 2402180 2388321 2369351 2348445 2329663 2316620 
2429.088 2311008 2311763 2315308 2316953 2312514 2300407 2281949 2261165 
2432.946 2242954 2231400 2228053 2231790 2238972 2245349 2247393 2243386 
2436.803 2233736 2220414 2206057 2193132 2183271 2177474 2176064 2179119 
2440.661 2186467 2197856 2212811 2230764 2250918 2272737 2295537 2318698 
2444.518 2340995 2360895 2376324 2385378 2386752 2380697 2369044 2355073 
2448.375 2342583 2334991 2334430 2341445 2355002 2373323 2394089 2415216 
2452.233 2434650 2450453 2460574 2463171 2456882 2441604 2418507 2390140 
2456.090 2359614 2330009 2303361 2280595 2261501 2245456 2231927 2220982 
2459.948 2212881 2208054 2206323 2206814 2208037 2208569 2207419 2204494 
2463.805 2200492 2196463 2193318 2191504 2190774 2190760 2191096 2191717 
2467.663 2192863 2194868 2197835 2201813 2206578 2212322 2219556 2229016 
2471.520 2241015 2254892 2268567 2278859 2282343 2276776 2262190 2241169 
2475.377 2218295 2198614 2185762 2180820 2181847 2185112 2186392 2183104 
2479.235 2174861 2163791 2153322 2146689 2145680 2150358 2159158 2170034 
2483.092 2181243 2192213 2203154 2214682 2226970 2239500 2250808 2259211 
2486.950 2263192 2262216 2256881 2248874 2240487 2234286 2232520 2236751 
2490.807 2247506 2264224 2285184 2307808 2329045 2346336 2357884 2363365 
2494.665 2363661 2360493 2355770 2351027 2346900 2343557 2340813 2338644 
2498.522 2337276 2336890 2337222 2337470 2336084 2331590 2323200 2311598 
2502.379 2299052 2288833 2284106 2286842 2296799 2311880 2328767 2344424 
2506.237 2356889 2366136 2373450 2380709 2389126 2398854 2408945 2418138 
2510.094 2425567 2431578 2437575 2445268 2455756 2468777 2482495 2494158 
2513.952 2500994 2501388 2495354 2484578 2471624 2459205 2449127 2442312 
2517.809 2438685 2437855 2439458 2443620 2450644 2461070 2475114 2492738 
2521.667 2513464 2536614 2561266 2586481 2610845 2632809 2650448 2661969 
2525.524 2666017 2662359 2651916 2636932 2620145 2604476 2591986 2583713 
2529.381 2579582 2578657 2579973 2582842 2587164 2593600 2602959 2616009 
2533.239 2632521 2651733 2671695 2690110 2704549 2713295 2715465 2711562 
2537.096 2702997 2692121 2681482 2673573 2670064 2671950 2679123 2690507 
2540.954 2704303 2718140 2729394 2735862 2735931 2729410 2717350 2702383 
2544.811 2687863 2677416 2673680 2677920 2689243 2705257 2722534 2737691 
2548.668 2748199 2753299 2753733 2751543 2749230 2749186 2752921 2761122 
2552.526 2773167 2787906 2803400 2817598 2828244 2833667 2832751 2825581 
2556.383 2813447 2798816 2784643 2773924 2768529 2768790 2773458 2780085 
2560.241 2785810 2788457 2787286 2783128 2778012 2774670 2775175 2780521 
2564.098 2790233 2802608 2815432 2826877 2835841 2842549 2848004 2853706 
2567.956 2860613 2869166 2878674 2887933 2895640 2901086 2904349 2906494 
2571.813 2908876 2912736 2918532 2925677 2932695 2937832 2939679 2937899 
2575.670 2933167 2927477 2923004 2921825 2924913 2932089 2941776 2951607 
2579.528 2958705 2960566 2955440 2942850 2923645 2900276 2876130 2855246 
2583.385 2841337 2837073 2843267 2858731 2880301 2903966 2925640 2942338 
2587.243 2952592 2956673 2956061 2952649 2948048 2943303 2938900 2935175 
2591.100 2932372 2931261 2932538 2936689 2943453 2951824 2960296 2967271 
2594.958 2971591 2973186 2972687 2971367 2970337 2970438 2971723 2974007 
2598.815 2977016 2980973 2986346 2993995 3004451 3017727 3032843 3048337 
2602.672 3062386 3073517 3080894 3084515 3085059 3083546 3080994 3078512 
2606.530 3076952 3077157 3079910 3085789 3094895 3106821 3120413 3134083 
2610.387 3145990 3154585 3158958 3158891 3154855 3147908 3139346 3130677 
2614.245 3123205 3118331 3116894 3119499 3125857 3135157 3145879 3156374 
2618.102 3165098 3171195 3174598 3176066 3176588 3177200 3178543 3180646 
2621.959 3183142 3185542 3187433 3188706 3189499 3190156 3191002 3192267 
2625.817 3194178 3197100 3201473 3207773 3216232 3226693 3238270 3249636 
2629.674 3259233 3265766 3268687 3268408 3266117 3263360 3261597 3261692 
2633.532 3263663 3266972 3270615 3273684 3275622 3276150 3275274 3273104 
2637.389 3269666 3264868 3258684 3251318 3243303 3235547 3229209 3225372 
2641.247 3224709 3227441 3233099 3240831 3249475 3258007 3265739 3272483 
2645.104 3278517 3284436 3290763 3297851 3305411 3312784 3318814 3322498 
2648.961 3323130 3320808 3316405 3311333 3307226 3305314 3306052 3309040 
2652.819 3313060 3316630 3318337 3317392 3313677 3307687 3300321 3292534 
2656.676 3285044 3278394 3272730 3268096 3264257 3260925 3257510 3253387 
2660.534 3247767 3240158 3230389 3218858 3206489 3194408 3183674 3174906 
2664.391 3168059 3162562 3157525 3152161 3146140 3139701 3133604 3128785 
2668.249 3125972 3125419 3126775 3129257 3131831 3133569 3133816 3132336 
2672.106 3129236 3124925 3119911 3114778 3109998 3106072 3103227 3101666 
2675.963 3101195 3101626 3102568 3103646 3104606 3105447 3106280 3107340 
2679.821 3108894 3110985 3113579 3116329 3118779 3120416 3120713 3119319 
2683.678 3116144 3111334 3105370 3098975 3092953 3088107 3084905 3083411 
2687.536 3083279 3083859 3084449 3084646 3084366 3084114 3084502 3086190 
2691.393 3089306 3093532 3097970 3101520 3103203 3102567 3099886 3095958 
2695.250 3091818 3088492 3086549 3085991 3086479 3087453 3088436 3089309 
2699.108 3090192 3091451 3093427 3096202 3099723 3103704 3107852 3112066 
2702.965 3116346 3120976 3126143 3131991 3138256 3144496 3149937 3153925 
2706.823 3155942 3155933 3154320 3152052 3150207 3149984 3152103 3156824 
2710.680 3163733 3171899 3180059 3187031 3192003 3194777 3195743 3195802 
2714.538 3195880 3196744 3198670 3201421 3204310 3206562 3207538 3206941 
2718.395 3204975 3202109 3198955 3196180 3194172 3193229 3193536 3195352 
2722.252 3198893 3204501 3212300 3222216 3233768 3246133 3258261 3269244 
2726.110 3278338 3285372 3290533 3294469 3297774 3301007 3304351 3307725 
2729.967 3310746 3313042 3314325 3314668 3314443 3314219 3314608 3316125 
2733.825 3318972 3323042 3327942 3333114 3337869 3341646 3343998 3344718 
2737.682 3343870 3341893 3339420 3337422 3336881 3338738 3343584 3351532 
2741.540 3362081 3374140 3386334 3397233 3405650 3410926 3413088 3412705 
2745.397 3410767 3408352 3406516 3405926 3406926 3409528 3413416 3418128 
2749.254 3423162 3428028 3432342 3436040 3439109 3441795 3444397 3447272 
2753.112 3450533 3454151 3457770 3460876 3462815 3463036 3461104 3457018 
2756.969 3451043 3443926 3436714 3430693 3427136 3427114 3431090 3439002 
2760.827 3449874 3462180 3474059 3483757 3490058 3492523 3491529 3488142 
2764.684 3483658 3479285 3475846 3473867 3473492 3474842 3478166 3483672 
2768.542 3491549 3501716 3513596 3526266 3538573 3549599 3558880 3566546 
2772.399 3573212 3579683 3586439 3593578 3600566 3606666 3611121 3613558 
2776.256 3614195 3613639 3612683 3611964 3611689 3611775 3611804 3611605 
2780.114 3611236 3611131 3611965 3614368 3618641 3624598 3631687 3639187 
2783.971 3646443 3653217 3659622 3666173 3673306 3681431 3690502 3699995 
2787.829 3709140 3717002 3722828 3726340 3727756 3727991 3728406 3730653 
2791.686 3736028 3745412 3758762 3775238 3793403 3811605 3828467 3843436 
2795.543 3856662 3869061 3881695 3895464 3910617 3926666 3942608 3957427 
2799.401 3970269 3981113 3990369 3998920 4007608 4016970 4026971 4037243 
2803.258 4047136 4056149 4063974 4070697 4076548 4081805 4086631 4091083 
2807.116 4095171 4099059 4102948 4107300 4112433 4118646 4125882 4133929 
2810.973 4142385 4150997 4159719 4168849 4178715 4189734 4202031 4215403 
2814.831 4229274 4242880 4255546 4266834 4276746 4285560 4293854 4302267 
2818.688 4311342 4321532 4333218 4346785 4362789 4381765 4404277 4430514 
2822.545 4460215 4492506 4525990 4558998 4590122 4618601 4644790 4670013 
2826.403 4696376 4726142 4761182 4802273 4849066 4900085 4953454 5007235 
2830.260 5060227 5112183 5163757 5216152 5270653 5328370 5389989 5455867 
2834.118 5526250 5601582 5682561 5770029 5864672 5966934 6076711 6193688 
2837.975 6317347 6447580 6584798 6730063 6884727 7050226 7227479 7416767 
2841.833 7617555 7828735 8048887 8276587 8510531 8749615 8992726 9238584 
2845.690 9485686 9732345 9976847 10217667 10453527 10683605 10907214 
2849.065 11123717 11332149 11531107 11718778 11893032 12051777 12193413 
2852.440 12316722 12421363 12507440 12575372 12625635 12658371 12673429 
2855.816 12670413 12648971 12609117 12551494 12477632 12389746 12290506 
2859.191 12182623 12068481 11949933 11828052 11703502 11576617 11447800 
2862.566 11317707 11187422 11058410 10932294 10810621 10694605 10584979 
2865.941 10481868 10384840 10293067 10205518 10121263 10039651 9960551 
2869.317 9884243 9811517 9743264 9680483 9623831 9573603 9529658 9491568 
2873.174 9458734 9430641 9407096 9388342 9374996 9368125 9368885 9378316 
2877.031 9397212 9425925 9464136 9511209 9566160 9627910 9695589 9768429 
2880.889 9846126 9928372 10015141 10106348 10201842 10301412 10404830 
2884.264 10511833 10622217 10735618 10851541 10969258 11087809 11205953 
2887.639 11322528 11436298 11546347 11651807 11752099 11846747 11935434 
2891.015 12017910 12094186 12164576 12229558 12289864 12346127 12398808 
2894.390 12448236 12494265 12536995 12576455 12613265 12648439 12683563 
2897.765 12720369 12760642 12805766 12856652 12913537 12976158 13044031 
2901.140 13116559 13193430 13274622 13360679 13452382 13550545 13655791 
2904.516 13767993 13886333 14009109 14134175 14259215 14382462 14502916 
2907.891 14620696 14736575 14851898 14967935 15085547 15205082 15326543 
2911.266 15449755 15574780 15702011 15831983 15965274 16102038 16242030 
2914.641 16384210 16527510 16670698 16813124 16954712 17095938 17237646 
2918.017 17380738 17525744 17672456 17820052 17966974 18111318 18251010 
2921.392 18384230 18509670 18626786 18735534 18836520 18930172 19016858 
2924.767 19096308 19167960 19230958 19284892 19329938 19367146 19398330 
2928.142 19425554 19450388 19473530 19494476 19511670 19523076 19526920 
2931.518 19522014 19508172 19486142 19457212 19422778 19384142 19342318 
2934.893 19297914 19251374 19203008 19152686 19100156 19044602 18985006 
2938.268 18920152 18849040 18771042 18686030 18594360 18496634 18393620 
2941.643 18285986 18174226 18058838 17940066 17818318 17693752 17566628 
2945.019 17437042 17305264 17171494 17036286 16900278 16764030 16627832 
2948.394 16491739 16355108 16217218 16077431 15935510 15791997 15647888 
2951.769 15504718 15363923 15226425 15092635 14962296 14834888 14709753 
2955.144 14586316 14464124 14342666 14221300 14099227 13975681 13850099 
2958.520 13722430 13593502 13464490 13337123 13213326 13094550 12981842 
2961.895 12875468 12774849 12678647 12584630 12490211 12392589 12289497 
2965.270 12179668 12063249 11941824 11818030 11694705 11574399 11458392 
2968.645 11346761 11238573 11132547 11027542 10922889 10818384 10713947 
2972.021 10609045 10502725 10393578 10280337 10162368 10040282 9915723 
2975.396 9791104 9668759 9550431 9436727 9327244 9220830 9116206 9012218 
2979.253 8908270 8804058 8699602 8594839 8489654 8384090 8278105 8171808 
2983.111 8065396 7958955 7852589 7746393 7640788 7536482 7434744 7337127 
2986.968 7245213 7160126 7082364 7011555 6946842 6887007 6831056 6778075 
2990.825 6727364 6678077 6629104 6579260 6527417 6473139 6416732 6359496 
2994.683 6303218 6249558 6199599 6153183 6109358 6066566 6023493 5979401 
2998.540 5934490 5889601 5845930 5804201 5764822 5727541 5691723 5656570 
3002.398 5621393 5585519 5548440 5509583 5468494 5424947 5379096 5331608 
3006.255 5283417 5235716 5189283 5144499 5101313 5059339 5018309 4978097 
3010.113 4938921 4901090 4864729 4829670 4795325 4761112 4726659 4692049 
3013.970 4657800 4624646 4593144 4563274 4534489 4505855 4476744 4446957 
3017.827 4417125 4388389 4361861 4338019 4316428 4295660 4273835 4249276 
3021.685 4221179 4189967 4157315 4125540 4096967 4073290 4055003 4041489 
3025.542 4030939 4021119 4009622 3994691 3975641 3952866 3928020 3903357 
3029.400 3881411 3863853 3851421 3843172 3837207 3830858 3821910 3809092 
3033.257 3792609 3773951 3755590 3740091 3729585 3725190 3727065 3734477 
3037.115 3746126 3760368 3775527 3789936 3802341 3812004 3819171 3825086 
3040.972 3831873 3842192 3858646 3882860 3915396 3955500 4001504 4051550 
3044.829 4104025 4157963 4213251 4269873 4327891 4386870 4445958 4504075 
3048.687 4560343 4614194 4665539 4714501 4760856 4804063 4842822 4875675 
3052.544 4901168 4918580 4928144 4930928 4928766 4923441 4916360 4908089 
3056.402 4898619 4887485 4874301 4859242 4843276 4827939 4815099 4806324 
3060.259 4802372 4802971 4806914 4812394 4817653 4821600 4824169 4826245 
3064.116 4829373 4834986 4843909 4855731 4868980 4881455 4890845 4895473 
3067.974 4894691 4889018 4879871 4869066 4858396 4849294 4842638 4838967 
3071.831 4838218 4840297 4844488 4849703 4854456 4857066 4856106 4850845 
3075.689 4841641 4830089 4818555 4809777 4806091 4808694 4817346 4830273 
3079.546 4844624 4856726 4863117 4860914 4848494 4825623 4793782 4755886 
3083.404 4715629 4676948 4643111 4615789 4594960 4578687 4563976 4547400 
3087.261 4526378 4499650 4467831 4432867 4397595 4364797 4336660 4314410 
3091.118 4298363 4288267 4283595 4283628 4287829 4295144 4304407 4313950 
3094.976 4322045 4327230 4328963 4327593 4324664 4322317 4322714 4327214 
3098.833 4335998 4347671 4359995 4370211 4376134 4376655 4372293 4364723 
3102.691 4356302 4349259 4344922 4343122 4342586 4341231 4336911 4328158 
3106.548 4314802 4297680 4278770 4260090 4243385 4229566 4218381 4208670 
3110.406 4198788 4186925 4171774 4152835 4130459 4105783 4080584 4056752 
3114.263 4035841 4018743 4005628 3995669 3987578 3979762 3970997 3960517 
3118.120 3948398 3935222 3922054 3909947 3899731 3891864 3886591 3883733 
3121.978 3883172 3884666 3887981 3892681 3898342 3904313 3910009 3914928 
3125.835 3918773 3921307 3922541 3922303 3920231 3915885 3908839 3898911 
3129.693 3886301 3871758 3856464 3841734 3828835 3818496 3810950 3805815 
3133.550 3802311 3799480 3796444 3792510 3787304 3780782 3773169 3764753 
3137.407 3755863 3746663 3737278 3727581 3717432 3706660 3695300 3683529 
3141.265 3671746 3660408 3649977 3640698 3632626 3625503 3618903 3612322 
3145.122 3605226 3597325 3588481 3578842 3568923 3559409 3551176 3545060 
3148.980 3541685 3541039 3542738 3545711 3548761 3550654 3550694 3548611 
3152.837 3544801 3539822 3534294 3528465 3522344 3515718 3508660 3501547 
3156.695 3495312 3491039 3489758 3491804 3496804 3503457 3510027 3514666 
3160.552 3516083 3513612 3507410 3498143 3486962 3475068 3463721 3454154 
3164.409 3447542 3444874 3446710 3453152 3463649 3477261 3492655 3508463 
3168.267 3523524 3536685 3546984 3553257 3554465 3549843 3539268 3523752 
3172.124 3505507 3487496 3473017 3464553 3463148 3468075 3477038 3486964 
3175.982 3494908 3498989 3498690 3494794 3489028 3483142 3478680 3476442 
3179.839 3476538 3478513 3481645 3484972 3487576 3488710 3487746 3484673 
3183.697 3479976 3474683 3470146 3467597 3467917 3471104 3476426 3482518 
3187.554 3488005 3491663 3492960 3491863 3488739 3484204 3478845 3473094 
3191.411 3467309 3461761 3456710 3452167 3448025 3443838 3439226 3433875 
3195.269 3427969 3422235 3417899 3416386 3418725 3425256 3435536 3448363 
3199.126 3462248 3475910 3488490 3499619 3509162 3516979 3522765 3525940 
3202.984 3526035 3522973 3517265 3510042 3502708 3496549 3492271 3489757 
3206.841 3488201 3486525 3483780 3479508 3474014 3468214 3463491 3461078 
3210.698 3461903 3466306 3473797 3483189 3492824 3500706 3505260 3505382 
3214.556 3500994 3492988 3483168 3473684 3466558 3463056 3463554 3467395 
3218.413 3473446 3480264 3486767 3492200 3496268 3498739 3499645 3498856 
3222.271 3496435 3492656 3488120 3483703 3480446 3479028 3479844 3482709 
3226.128 3487010 3492123 3497314 3502146 3506222 3509290 3511010 3511117 
3229.986 3509557 3506755 3503712 3501666 3501980 3505380 3511822 3520199 
3233.843 3528865 3535974 3540149 3540853 3538302 3533233 3526568 3519097 
3237.700 3511406 3503998 3497722 3493468 3492238 3494694 3500586 3508615 
3241.558 3516735 3522775 3525183 3523680 3519389 3514303 3510626 3509583 
3245.415 3511152 3514000 3516132 3515816 3512301 3506324 3499695 3494721 
3249.273 3493231 3495990 3502458 3511048 3519576 3526040 3529038 3528191 
3253.130 3523874 3517279 3510030 3503929 3500535 3500798 3504812 3511724 
3256.988 3519644 3526395 3529882 3528845 3523455 3514965 3505587 3497646 
3260.845 3492759 3491592 3493670 3497943 3503335 3509083 3515055 3521350 
3264.702 3527970 3534413 3539572 3542181 3541239 3536645 3529409 3521382 
3268.560 3514665 3510809 3510239 3512055 3514461 3515357 3513287 3507882 
3272.417 3499909 3491144 3483712 3479500 3479680 3484417 3493115 3504431 
3276.275 3516640 3528018 3537142 3543084 3545733 3545652 3544325 3543287 
3280.132 3544086 3547616 3553855 3562057 3570887 3579106 3586034 3591927 
3283.990 3597643 3604410 3613166 3624013 3636069 3647526 3656262 3660419 
3287.847 3658843 3651668 3640008 3625875 3611706 3599803 3592080 3589632 
3291.704 3592730 3600795 3612543 3626166 3639770 3651387 3659547 3663263 
3295.562 3662141 3656381 3646832 3634682 3621509 3608950 3598730 3592139 
3299.419 3589963 3592404 3598962 3608650 3620383 3633231 3646633 3660266 
3303.277 3673869 3686848 3698249 3706664 3710768 3709769 3704026 3695057 
3307.134 3685398 3677796 3674543 3676630 3683443 3693294 3703689 3712332 
3310.991 3717769 3719505 3718076 3714687 3710778 3707837 3707363 3710472 
3314.849 3717976 3729947 3745406 3762190 3777210 3787079 3789243 3782830 
3318.706 3769271 3752164 3736240 3726070 3724533 3732007 3746238 3763184 
3322.564 3778443 3788677 3792697 3791574 3788313 3786556 3789446 3798638 
3326.421 3813752 3832538 3851514 3866816 3875169 3874642 3865097 3848197 
3330.279 3826966 3805188 3786454 3773530 3767889 3769579 3777673 3790725 
3334.136 3807376 3826564 3847529 3869355 3890838 3910058 3924811 3932865 
3337.993 3932945 3924922 3910099 3890705 3869354 3848159 3828313 3810089 
3341.851 3793317 3777815 3763958 3752645 3745001 3741801 3743057 3747759 
3345.708 3754066 3760079 3764364 3766364 3766542 3765980 3765862 3766906 
3349.566 3769236 3772284 3775140 3776925 3777013 3775197 3771500 3766239 
3353.423 3759747 3752590 3745409 3738992 3734099 3731385 3730986 3732571 
3357.281 3735287 3737935 3739454 3738963 3736177 3731232 3724664 3717226 
3361.138 3709786 3703349 3698967 3697418 3699229 3704182 3711378 3719148 
3364.995 3725628 3729170 3729098 3725891 3721092 3716750 3714832 3716234 
3368.853 3720865 3727570 3734998 3742073 3748635 3755463 3763817 3774741 
3372.710 3788341 3803564 3818344 3830147 3836640 3836510 3829573 3816802 
3376.568 3799918 3781057 3762364 3745840 3733158 3725491 3723600 3727301 
3380.425 3735680 3747129 3759627 3771245 3780602 3787202 3791261 3793469 
3384.282 3794470 3794873 3794919 3794907 3795504 3797691 3802954 3812364 
3388.140 3826420 3844169 3863540 3881602 3895417 3903008 3903851 3899144 
3391.997 3891136 3882503 3875531 3871556 3870952 3873419 3878414 3885526 
3395.855 3894660 3905982 3919561 3935225 3952561 3970898 3989600 4008137 
3399.712 4026264 4043738 4060547 4076598 4091891 4106470 4120708 4135042 
3403.570 4149869 4165293 4180932 4196031 4209603 4220938 4229887 4237152 
3407.427 4244084 4252295 4263147 4277398 4294990 4315288 4337340 4360285 
3411.284 4383508 4406671 4429621 4452105 4473874 4494756 4514922 4534968 
3415.142 4555956 4579030 4605102 4634281 4665762 4697880 4728597 4756019 
3418.999 4778857 4796812 4810444 4820955 4829772 4838217 4847343 4857727 
3422.857 4869496 4882488 4896095 4909530 4921821 4932390 4940981 4948167 
3426.714 4955201 4963623 4975065 4990304 5009204 5030448 5051901 5071294 
3430.572 5086707 5097056 5102348 5103171 5100499 5094930 5086713 5075443 
3434.429 5060663 5042115 5020266 4996343 4972205 4949878 4931079 4916725 
3438.286 4906514 4899184 4892782 4885155 4874487 4859754 4840909 4818833 
3442.144 4794942 4770976 4748468 4728724 4712498 4700239 4691851 4686736 
3446.001 4683693 4680884 4675978 4666545 4650675 4627674 4598519 4565745 
3449.859 4533015 4504088 4481804 4467020 4458572 4453527 4448351 4439934 
3453.716 4426657 4408771 4388029 4366908 4347763 4331892 4319389 4309276 
3457.573 4299962 4289976 4278229 4264299 4248268 4230536 4211882 4193035 
3461.431 4174835 4158094 4143602 4131714 4122618 4116008 4111368 4108058 
3465.288 4105515 4103219 4100651 4097055 4091557 4083213 4071409 4056484 
3469.146 4039846 4023913 4011719 4005700 4007165 4015423 4028162 4041944 
3473.003 4053273 4059735 4060594 4056605 4049599 4041681 4034316 4028050 
3476.861 4022670 4017619 4012568 4007751 4003963 4002293 4003629 4008494 
3480.718 4016687 4027548 4040131 4053394 4066306 4077941 4087482 4094392 
3484.575 4098529 4100342 4101183 4102592 4106329 4113520 4124312 4137815 
3488.433 4151952 4164502 4173574 4178061 4177901 4173961 4167463 4159691 
3492.290 4151620 4144070 4137874 4134021 4133782 4138421 4148573 4163857 
3496.148 4182505 4201565 4217678 4227744 4230173 4225107 4214580 4201894 
3500.005 4190601 4183560 4182252 4186441 4194520 4204152 4212975 4219366 
3503.863 4222561 4222736 4220941 4218418 4216585 4216592 4219441 4225660 
3507.720 4235538 4248848 4264937 4282801 4301078 4318525 4334231 4347825 
3511.577 4359460 4369684 4379088 4387858 4395732 4401992 4405963 4407215 
3515.435 4406105 4403628 4401270 4400183 4400846 4402745 4404524 4404504 
3519.292 4401411 4395041 4386485 4377734 4371251 4368908 4371560 4378703 
3523.150 4388876 4400158 4410758 4419763 4426931 4432851 4438425 4444600 
3527.007 4452197 4461830 4474053 4489169 4507289 4528174 4551224 4575222 
3530.865 4598689 4620175 4638474 4652787 4662917 4669081 4671782 4671804 
3534.722 4669954 4667403 4665613 4665923 4669567 4677114 4688313 4701956 
3538.579 4716269 4729486 4740363 4748351 4753885 4757691 4760323 4761674 
3542.437 4760930 4756819 4748410 4735579 4719573 4702680 4688000 4678248 
3546.294 4675311 4679641 4690357 4705609 4723182 4740809 4756637 4769024 
3550.152 4776720 4778766 4774742 4765025 4751083 4735415 4721225 4711706 
3554.009 4709321 4715146 4728609 4747568 4769085 4789833 4807028 4818513 
3557.866 4823144 4820428 4810546 4793998 4771911 4745784 4717719 4690139 
3561.724 4665597 4646221 4633300 4627103 4626671 4630144 4635224 4639648 
3565.581 4641505 4639795 4633933 4623893 4609807 4591848 4570110 4544693 
3569.439 4515960 4484876 4453132 4422993 4397149 4378045 4367521 4366041 
3573.296 4372573 4384721 4399078 4411929 4420007 4421164 4414751 4401729 
3577.154 4384241 4365155 4347419 4333288 4324203 4320188 4320246 4322487 
3581.011 4324777 4325286 4322854 4317481 4310129 4302446 4296385 4293153 
3584.868 4293303 4295920 4299234 4300911 4298765 4291426 4278966 4262557 
3588.726 4244581 4227580 4213839 4204604 4199926 4198791 4199452 4200077 
3592.583 4199186 4196154 4191275 4185465 4180179 4176813 4176479 4179781 
3596.441 4186742 4197121 4210258 4225592 4242511 4260576 4279272 4298173 
3600.298 4316674 4334361 4350681 4365166 4377496 4387349 4394542 4398802 
3604.156 4400041 4398136 4393245 4385847 4376752 4367065 4358249 4351765 
3608.013 4349065 4351515 4359915 4374749 4395554 4421153 4449606 4478318 
3611.870 4504542 4525923 4541164 4550187 4554295 4555778 4557100 4560125 
3615.728 4565617 4573072 4580973 4587371 4590722 4590334 4586391 4579854 
3619.585 4571784 4563034 4554257 4545960 4538747 4534065 4533804 4540090 
3623.443 4554535 4577476 4607523 4641492 4675254 4704614 4726434 4739345 
3627.300 4743803 4741931 4736788 4731285 4727589 4726867 4729180 4733626 
3631.157 4739040 4744071 4747591 4748779 4747350 4743415 4737629 4730962 
3635.015 4724479 4719062 4715182 4712890 4711653 4710775 4709698 4707938 
3638.872 4705531 4702789 4700256 4698344 4697400 4697476 4698471 4700038 
3642.730 4701642 4702538 4701817 4698472 4691655 4680893 4666422 4649149 
3646.587 4630630 4612655 4596842 4584324 4575386 4569607 4566179 4563969 
3650.445 4561983 4559399 4555593 4549994 4542189 4531818 4519002 4504017 
3654.302 4487636 4470815 4454490 4439146 4424771 4410780 4396201 4380124 
3658.159 4361653 4340600 4317191 4292096 4266538 4241975 4220298 4203154 
3662.017 4192121 4188126 4191070 4199609 4211543 4224214 4235281 4243235 
3665.874 4247884 4250165 4251659 4253691 4256859 4260776 4264633 4267353 
3669.732 4268825 4269736 4271596 4275693 4282690 4291625 4300315 4305755 
3673.589 4305394 4297857 4283675 4265153 4245189 4226585 4210844 4197637 
3677.447 4185618 4172995 4158869 4143664 4129370 4118965 4115413 4120657 
3681.304 4134990 4156813 4183077 4209843 4233097 4249330 4255965 4251683 
3685.161 4236455 4211469 4179249 4143102 4106779 4073965 4047414 4028593 
3689.019 4017363 4012411 4011582 4012557 4013433 4012916 4010116 4004494 
3692.876 3995584 3983009 3966605 3946787 3924658 3902287 3882359 3867473 
3696.734 3859822 3860552 3869689 3886110 3907898 3932758 3958207 3981844 
3700.591 4001291 4014460 4019661 4016034 4003854 3984856 3962019 3939217 
3704.448 3920224 3908043 3904086 3907878 3917508 3930061 3942656 3953039 
3708.306 3960164 3964091 3965829 3966483 3967137 3968446 3970663 3973700 
3712.163 3977418 3981553 3985916 3990053 3993258 3994773 3993778 3989905 
3716.021 3983406 3975391 3967602 3962133 3960817 3964954 3974926 3990169 
3719.878 4009435 4031057 4053435 4075112 4094939 4112191 4126187 4136402 
3723.736 4142456 4144246 4141934 4136088 4127798 4118580 4110147 4104105 
3727.593 4101659 4103355 4109068 4117710 4127685 4136979 4143829 4146824 
3731.450 4145585 4140640 4133552 4126118 4120180 4116855 4116168 4117106 
3735.308 4117891 4116264 4110536 4099779 4084155 4065076 4044585 4025004 
3739.165 4008622 3997226 3992166 3994040 4002812 4017902 4037941 4060899 
3743.023 4084336 4105366 4121568 4131350 4134363 4131739 4125461 4118009 
3746.880 4111512 4107304 4105973 4107329 4111067 4116896 4124879 4135210 
3750.738 4147927 4162447 4177571 4191475 4202283 4208680 4210471 4208421 
3754.595 4204418 4200643 4199050 4200802 4206015 4213963 4223114 4231579 
3758.452 4237361 4238659 4234281 4223753 4207637 4187810 4167163 4149159 
3762.310 4137033 4133063 4137800 4149995 4166914 4185015 4201102 4212726 
3766.167 4218643 4218684 4213205 4202691 4187692 4168886 4147389 4124966 
3770.025 4103976 4086760 4075216 4069999 4070493 4075217 4082607 4091536 
3773.882 4101931 4114482 4130167 4149219 4170676 4192360 4211497 4225441 
3777.740 4232774 4233481 4228870 4220918 4211408 4201538 4191691 4182035 
3781.597 4172839 4165145 4160381 4160037 4164977 4174972 4188558 4203398 
3785.454 4217225 4228341 4236101 4240734 4243064 4243990 4244054 4243397 
3789.312 4241888 4239323 4235739 4231084 4225231 4217776 4208323 4196716 
3793.169 4183584 4170438 4159610 4153550 4153975 4161015 4173166 4187449 
3797.027 4200563 4209976 4214718 4215564 4214588 4214051 4215425 4218776 
3800.884 4222735 4225247 4224517 4219754 4211655 4202197 4193849 4188795 
3804.741 4188486 4193155 4202132 4214022 4227092 4239793 4250787 4259288 
3808.599 4264812 4267475 4267860 4266885 4265689 4265516 4267157 4271028 
3812.456 4276856 4283840 4290774 4296088 4298305 4296306 4289467 4278035 
3816.314 4263227 4247145 4232488 4221980 4217791 4220944 4230967 4245924 
3820.171 4262523 4277258 4286683 4288549 4281879 4267383 4247051 4223714 
3824.029 4200570 4180736 4166865 4160437 4161936 4170494 4184022 4199686 
3827.886 4214459 4225996 4232904 4235077 4233397 4229388 4224543 4220049 
3831.743 4216570 4214262 4213242 4213759 4216165 4220917 4228198 4237644 
3835.601 4248384 4258814 4267344 4272666 4273960 4271287 4265352 4257302 
3839.458 4248376 4239657 4231915 4225541 4220564 4216785 4213894 4211485 
3843.316 4209349 4207461 4206343 4206805 4209842 4216628 4227573 4242692 
3847.173 4261109 4281065 4300542 4317292 4329389 4335769 4336194 4331461 
3851.031 4323165 4313480 4304630 4298516 4296068 4297392 4301729 4307691 
3854.888 4314180 4320605 4327215 4334941 4344780 4357285 4372143 4387910 
3858.745 4402436 4413317 4418884 4418307 4411990 4401313 4387966 4373488 
3862.603 4359034 4345169 4332326 4320886 4311362 4304451 4300743 4300400 
3866.460 4303275 4308583 4315431 4322937 4330223 4336721 4341865 4345130 
3870.318 4346106 4344713 4341345 4336884 4332698 4330196 4330313 4333171 
3874.175 4338082 4343773 4348938 4352747 4355239 4357099 4359288 4362454 
3878.032 4366557 4370937 4374607 4376733 4377343 4377161 4377402 4379173 
3881.890 4382726 4387218 4391077 4392310 4389566 4382635 4372638 4361847 
3885.747 4352903 4348052 4348539 4354312 4364077 4376001 4387888 4397690 
3889.605 4403738 4404905 4400674 4391177 4377497 4361526 4345749 4332882 
3893.462 4325413 4324744 4331117 4343344 4359136 4375756 4390684 4402279 
3897.320 4410033 4414767 4417978 4421548 4426643 4433888 4442594 4451396 
3901.177 4458607 4462927 4463704 4461269 4456523 4450727 4445022 4439968 
3905.034 4435642 4432019 4429152 4427586 4428199 4432201 4440364 4452676 
3908.892 4468076 4484625 4500102 4512524 4520705 4524430 4524468 4521844 
3912.749 4517542 4512162 4505833 4498665 4490816 4482951 4476311 4471987 
3916.607 4471126 4474048 4480514 4489303 4499053 4508180 4515508 4520264 
3920.464 4522248 4521590 4518997 4515190 4511007 4507145 4503962 4501231 
3924.322 4498394 4494634 4489552 4483319 4477072 4472748 4472469 4477694 
3928.179 4488665 4503902 4520496 4534634 4542812 4542767 4533935 4517692 
3932.036 4496697 4474215 4453216 4435838 4423126 4415054 4410872 4409419 
3935.894 4409357 4409469 4409086 4408006 4406806 4406903 4409974 4417585 
3939.751 4430582 4448475 4469228 4489733 4506237 4515759 4516446 4508548 
3943.609 4494075 4476503 4459799 4447466 4441758 4443589 4452358 4466176 
3947.466 4482495 4498712 4512423 4521813 4525817 4524315 4518188 4508888 
3951.323 4498594 4489734 4484583 4484821 4491216 4503476 4520138 4538796 
3955.181 4556560 4570560 4578561 4579039 4571800 4557600 4538146 4515458 
3959.038 4491946 4469777 4451041 4437430 4430161 4429905 4436492 4448820 
3962.896 4464856 4482192 4498252 4511095 4519682 4524196 4525731 4525755 
3966.753 4525549 4525898 4526799 4527727 4528034 4527449 4526137 4524607 
3970.611 4523509 4523235 4523702 4524346 4524382 4523120 4520318 4516054 
3974.468 4510777 4504903 4498811 4492773 4486908 4481759 4478056 4476692 
3978.325 4478506 4483906 4492527 4503127 4514000 4523536 4530583 4535100 
3982.183 4537897 4540452 4544483 4550995 4560233 4571425 4583027 4593277 
3986.040 4600654 4604412 4604643 4602242 4598674 4595458 4593801 4594384 
3989.898 4597205 4601658 4606776 4611556 4615170 4617302 4617996 4617725 
3993.755 4617195 4617073 4617753 4619125 4620540 4620811 4618554 4612475 
3997.613 4601960 4587458 4570546 4553850 4540429 4532991 4533007 
##END=
