##TITLE=eSUN_PLA+_White_Filament_r6_ATR-Corrected
##JCAMP-DX=5.01  $$ Nicolet v. 1
##DATATYPE=INFRARED SPECTRUM
##ORIGIN=Curtin University
##OWNER=Nicolet
##LONGDATE=2024/07/11
##TIME=10:16:32
##SPECTROMETER/DATA SYSTEM=Nicolet iS50
##DATA PROCESSING=
Ratio against background
%Transmittance->Absorbance
ATR Correction
Truncated
ElementMultiply or ElementDivide
##COMMENTS=
Number of sample scans: 32
Collection length: 47.28 sec
Sample gain: 1.0
Background collected on: Thu Jul 11 10:14:47 2024 (GMT+08:00);
Number of background scans: 32
Background gain: 1.0
Sample spacing:  1.000
Number of scan points: 16672
Resolution points: 8192
Number of FFT points: 65536
Apodization: N-B strong;
Phase correction: Mertz;
Laser frequency: 15798.3 cm-1
Number of rejected sample scans: 0
Number of rejected background scans: 0
Bench serial number: AUP1200105;
##RESOLUTION=4.000
##XUNITS=1/CM
##YUNITS=ABSORBANCE
##FIRSTX=400.163452
##LASTX=4000.187744
##FIRSTY=0.060562
##MAXX=4000.187744
##MINX=400.163452
##MAXY=1.083043
##MINY=-0.037090
##XFACTOR=1.000000
##YFACTOR=1.000000E-008
##NPOINTS=7468
##DELTAX=0.482125
##ZPD=8192
##XYDATA=(X++(Y..Y))
400.163 6056230 5974392 5913575 5867288 5825415 5779365 5723530 5655373 
404.020 5574477 5481279 5376497 5261545 5139435 5015264 4895676 4787038 
407.877 4693537 4615796 4551178 4495341 4444476 4397082 4354351 4318955 
411.734 4292884 4275417 4262268 4246510 4220908 4180524 4124676 4056983 
415.591 3983907 3912038 3845720 3785744 3729820 3674161 3615817 3554120 
419.448 3491204 3430929 3377226 3332185 3295331 3263803 3233803 3202132 
423.305 3167607 3131574 3097535 3069916 3052759 3048389 3056812 3075474 
427.162 3099776 3123760 3141183 3146550 3136161 3109115 3067750 3017433 
431.019 2965790 2920947 2889765 2875912 2879416 2896282 2919913 2942988 
434.876 2959719 2967356 2966734 2961478 2956395 2955465 2960422 2970156 
438.733 2981356 2989831 2992239 2987214 2975895 2961260 2947050 2936233 
442.590 2930086 2927781 2926958 2924581 2918123 2906342 2889647 2869736 
446.447 2849028 2829859 2813816 2801439 2792258 2785204 2779066 2773087 
450.304 2767289 2762619 2760797 2763788 2773255 2789775 2812417 2838549 
454.161 2864201 2884802 2896276 2896029 2883726 2861441 2833214 2803993 
458.017 2778414 2759538 2748278 2743235 2741368 2738940 2732700 2720697 
461.874 2702866 2680894 2657785 2636764 2621370 2613695 2614343 2622116 
465.731 2634353 2647333 2657102 2660250 2654719 2640276 2618552 2592696 
469.588 2566545 2543590 2525987 2513977 2505825 2498348 2488020 2472094 
473.445 2449546 2421382 2390360 2360028 2333669 2313293 2299235 2290270 
477.302 2284225 2278824 2272396 2264269 2254745 2244687 2235007 2226191 
481.159 2218061 2209746 2200071 2187858 2172442 2153929 2133361 2112539 
485.016 2093707 2078932 2069582 2065770 2066235 2068518 2069625 2066853 
488.873 2058636 2045006 2027601 2009146 1992674 1980680 1974605 1974638 
492.730 1979957 1989113 2000388 2011896 2022192 2029757 2033407 2032484 
496.587 2027232 2018851 2009379 2000997 1995324 1992625 1991591 1989691 
500.444 1984092 1972720 1955269 1933368 1910174 1889229 1873363 1863755 
504.301 1859791 1859496 1860449 1860685 1859223 1856150 1852262 1848542 
508.158 1845812 1844557 1845092 1847638 1852392 1859302 1867875 1876893 
512.015 1884608 1889091 1888920 1883665 1874169 1862228 1850012 1839215 
515.871 1830533 1823447 1816587 1808372 1797741 1784558 1769699 1754707 
519.728 1741255 1730603 1723335 1719283 1717727 1717682 1718173 1718394 
523.585 1717785 1715977 1712738 1707765 1701076 1692501 1681917 1669291 
527.442 1654858 1639253 1623628 1609528 1598685 1592522 1591757 1595970 
531.299 1603578 1612093 1618679 1620898 1617295 1607750 1593491 1576661 
535.156 1559786 1545121 1534238 1527749 1525356 1526052 1528502 1531378 
539.013 1533728 1535090 1535558 1535597 1535765 1536450 1537707 1539213 
542.870 1540491 1541106 1540959 1540304 1539640 1539435 1539835 1540550 
546.727 1540952 1540371 1538512 1535670 1532703 1530689 1530493 1532267 
550.584 1535376 1538543 1540363 1539798 1536556 1531121 1524470 1517600 
554.441 1511165 1505333 1499979 1494877 1490335 1486991 1485734 1487318 
558.298 1492056 1499603 1509163 1519747 1530644 1541545 1552514 1563607 
562.155 1574509 1584216 1591216 1593860 1591011 1582599 1569964 1555587 
566.012 1542555 1533810 1531432 1536211 1547586 1563921 1582997 1602456 
569.869 1620223 1634757 1645180 1651310 1653657 1653363 1652093 1651742 
573.725 1654118 1660470 1671222 1685720 1702374 1718937 1733093 1743007 
577.582 1747892 1748191 1745553 1742442 1741605 1745443 1755526 1772259 
581.439 1794921 1821835 1850794 1879446 1905666 1927823 1944894 1956483 
585.296 1962822 1964636 1963072 1959500 1955366 1951921 1950052 1950191 
589.153 1952303 1955979 1960614 1965531 1970112 1973884 1976484 1977702 
593.010 1977577 1976436 1974969 1974207 1975338 1979415 1987068 1998205 
596.867 2012011 2027073 2041809 2054902 2065662 2074163 2081124 2087567 
600.724 2094424 2102188 2110794 2119761 2128449 2136357 2143353 2149718 
604.581 2156000 2162828 2170727 2179947 2190588 2202632 2216113 2231176 
608.438 2248072 2267009 2288021 2310838 2334910 2359467 2383758 2407228 
612.295 2429670 2451205 2472179 2492966 2513774 2534547 2555015 2574790 
616.152 2593570 2611260 2628008 2644107 2659846 2675365 2690639 2705565 
620.009 2720167 2734779 2750159 2767362 2787459 2811159 2838413 2868327 
623.866 2899209 2928986 2955712 2978098 2995826 3009631 3021067 3032115 
627.723 3044700 3060312 3079735 3102991 3129414 3157845 3186870 3215032 
631.579 3241087 3264154 3283864 3300409 3314450 3326978 3339050 3351473 
635.436 3364570 3378075 3391200 3402886 3412230 3418864 3423278 3426857 
639.293 3431655 3439907 3453410 3472963 3498089 3527096 3557494 3586709 
643.150 3612672 3634326 3651692 3665575 3677090 3687172 3696321 3704675 
647.007 3712320 3719685 3727799 3738167 3752365 3771485 3795598 3823622 
650.864 3853551 3883041 3910154 3933864 3954288 3972472 3989853 4007731 
654.721 4026867 4047329 4068708 4090348 4111689 4132332 4152059 4170733 
658.578 4188180 4204251 4218879 4232237 4244816 4257305 4270464 4284863 
662.435 4300755 4318046 4336421 4355544 4375175 4395276 4415829 4436744 
666.292 4457683 4478033 4497032 4513914 4528172 4539669 4548690 4555878 
670.149 4562143 4568518 4576070 4585813 4598532 4614690 4634201 4656401 
674.006 4680058 4703609 4725485 4744540 4760327 4773263 4784573 4795946 
677.863 4809177 4825706 4846337 4871050 4898894 4928272 4957163 4983580 
681.720 5005952 5023532 5036652 5046658 5055736 5066367 5080787 5100450 
685.577 5125745 5155932 5189435 5224235 5258346 5290184 5318818 5343989 
689.433 5366095 5386138 5405594 5426318 5450413 5479972 5516857 5562404 
693.290 5617228 5681184 5753468 5832822 5917679 6006398 6097242 6188296 
697.147 6277381 6361941 6439090 6505767 6559029 6596407 6616276 6618140 
701.004 6602789 6572248 6529560 6478359 6422336 6364728 6307866 6253024 
704.861 6200486 6149875 6100635 6052440 6005485 5960500 5918597 5880947 
708.718 5848460 5821532 5799899 5782624 5768026 5753826 5737220 5715124 
712.575 5684478 5642680 5588030 5520032 5439493 5348316 5249091 5144595 
716.432 5037282 4929014 4820937 4713593 4607074 4501235 4395880 4290885 
720.289 4186342 4082662 3980611 3881305 3786000 3695900 3611887 3534392 
724.146 3463478 3399074 3341257 3290571 3247984 3214714 3191846 3179945 
728.003 3178912 3188115 3206795 3234510 3271502 3318706 3377435 3448897 
731.860 3533649 3631332 3740735 3860103 3987559 4121417 4260267 4402849 
735.717 4547764 4693339 4837606 4978608 5114661 5244782 5368712 5486873 
739.574 5600065 5709237 5815260 5918993 6021289 6123043 6225111 6328047 
743.431 6431845 6535779 6638485 6738356 6834080 6925183 7012290 7097065 
747.287 7181795 7268754 7359665 7455330 7555569 7659411 7765450 7872195 
751.144 7978239 8082364 8183503 8280604 8372581 8458196 8535977 8604208 
755.001 8660858 8703668 8730314 8738643 8726975 8694305 8640450 8566049 
758.858 8472370 8361195 8234631 8094995 7944749 7786404 7622372 7454854 
762.715 7285668 7116222 6947662 6780999 6617358 6458060 6304545 6158128 
766.572 6019683 5889356 5766567 5650098 5538479 5430300 5324501 5220457 
770.429 5117896 5016765 4917120 4819097 4723004 4629319 4538655 4451608 
774.286 4368463 4289041 4212626 4138159 4064594 3991300 3918273 3846164 
778.143 3775905 3708351 3643798 3581834 3521421 3461290 3400352 3338107 
782.000 3274695 3210810 3147361 3085134 3024550 2965614 2907998 2851223 
785.857 2794786 2738289 2681495 2624324 2566960 2509908 2454082 2400718 
789.714 2351195 2306725 2267998 2234955 2206774 2182131 2159596 2138131 
793.571 2117391 2097728 2080027 2065202 2053825 2045849 2040629 2037201 
797.428 2034647 2032488 2030776 2030007 2030774 2033396 2037633 2042642 
801.285 2047157 2049916 2050050 2047344 2042348 2036101 2029707 2024044 
805.141 2019392 2015500 2011735 2007430 2002228 1996246 1990114 1984711 
808.998 1980854 1978979 1978976 1980219 1981758 1982681 1982362 1980740 
812.855 1978244 1975664 1973880 1973540 1974857 1977537 1980782 1983539 
816.712 1984683 1983283 1978786 1971149 1960832 1948728 1935996 1923844 
820.569 1913274 1904936 1898997 1895179 1892868 1891332 1889926 1888275 
824.426 1886340 1884354 1882694 1881718 1881578 1882194 1883251 1884319 
828.283 1884957 1884842 1883845 1882023 1879615 1876981 1874575 1872914 
832.140 1872562 1874117 1878168 1885202 1895683 1909951 1928213 1950646 
835.997 1977395 2008565 2044279 2084615 2129653 2179472 2234232 2294164 
839.854 2359566 2430695 2507576 2589856 2676680 2766755 2858572 2950681 
843.711 3041955 3131702 3219521 3304968 3387135 3464445 3534643 3595236 
847.568 3644168 3680507 3704995 3720211 3730189 3739848 3754211 3777807 
851.425 3814307 3866585 3936784 4026576 4137223 4269501 4423539 4598641 
855.282 4793261 5005176 5231718 5470118 5717678 5971854 6230175 6490185 
859.139 6749382 7005281 7255526 7498083 7731218 7953480 8163456 8359679 
862.995 8540528 8704406 8850088 8977129 9086069 9178551 9257048 9324412 
866.852 9383317 9435923 9483585 9526940 9566104 9600830 9630688 9655082 
870.709 9673128 9683582 9684755 9674638 9650948 9611381 9553672 9475723 
874.566 9375520 9251189 9100976 8923459 8717750 8483858 8222982 7937798 
878.423 7632476 7312657 6985060 6656975 6335608 6027375 5737320 5468696 
882.280 5223020 5000280 4799567 4619651 4459584 4318933 4197843 4096801 
886.137 4016183 3955950 3915381 3892937 3886424 3893060 3909753 3933319 
889.994 3960673 3989053 4016226 4040645 4061488 4078683 4092645 4104096 
893.851 4113716 4121899 4128602 4133357 4135434 4134016 4128509 4118776 
897.708 4105281 4089139 4071991 4055777 4042413 4033455 4029763 4031391 
901.565 4037615 4047174 4058559 4070495 4082071 4092985 4103448 4114065 
905.422 4125588 4138770 4154154 4172001 4192192 4214178 4236974 4259228 
909.279 4279369 4295875 4307537 4313719 4314461 4310457 4302803 4292772 
913.136 4281477 4269722 4257977 4246330 4234635 4222536 4209513 4194888 
916.993 4177919 4157937 4134506 4107672 4077948 4046373 4014263 3982942 
920.849 3953480 3926551 3902391 3880901 3861739 3844490 3828674 3813780 
924.706 3799274 3784729 3769895 3754811 3739875 3725666 3712738 3701343 
928.563 3691244 3681798 3672184 3661796 3650612 3639314 3629161 3621617 
932.420 3617801 3618127 3622131 3628721 3636527 3644482 3652146 3659820 
936.277 3668376 3678854 3692126 3708510 3727773 3749195 3771890 3795016 
940.134 3818103 3841119 3864521 3889130 3915966 3946041 3980179 4018854 
943.991 4062130 4109696 4160963 4215269 4272048 4330939 4391900 4455096 
947.848 4520881 4589677 4661898 4737951 4818072 4902347 4990582 5082205 
951.705 5176216 5271198 5365437 5457120 5544459 5625824 5699708 5764738 
955.562 5819497 5862570 5892646 5908730 5910328 5897676 5871767 5834282 
959.419 5787322 5733230 5674339 5612913 5551092 5490855 5434001 5382076 
963.276 5336256 5297293 5265432 5240474 5221781 5208351 5198835 5191656 
967.133 5185039 5177259 5166815 5152713 5134592 5112672 5087578 5059983 
970.990 5030353 4998766 4964998 4928835 4890324 4850131 4809447 4769907 
974.847 4733154 4700547 4672982 4650942 4634611 4624147 4619749 4621565 
978.703 4629526 4643157 4661511 4683428 4707780 4733971 4762082 4792902 
982.560 4827590 4867233 4912411 4963039 5018342 5077241 5138602 5201632 
986.417 5265864 5331146 5397390 5464548 5532384 5600771 5669803 5739923 
990.274 5811867 5886546 5964776 6047033 6133329 6223245 6316026 6410778 
994.131 6506610 6602750 6698531 6793555 6887637 6980985 7074242 7168475 
997.988 7265062 7365521 7471169 7583026 7701602 7826948 7958733 8096400 
1001.845 8239292 8386786 8538356 8693741 8852939 9016364 9184796 9359376 
1005.702 9541379 9732076 9932505 10143380 10365183 10598258 10842967 
1009.077 11099815 11369417 11652425 11949325 12260437 12585819 12925430 
1012.452 13279253 13647409 14030172 14427811 14840488 15268153 15710419 
1015.826 16166809 16636801 17119940 17615812 18123756 18642632 19170614 
1019.201 19705004 20242646 20780248 21314930 21844570 22367956 22884714 
1022.576 23395016 23899324 24398222 24892448 25383008 25871360 26359550 
1025.951 26850214 27346378 27851332 28368328 28900438 29450366 30020314 
1029.326 30611942 31226206 31863440 32523338 33205136 33907680 34629460 
1032.702 35368644 36122788 36888696 37662232 38438264 39210752 39973076 
1036.077 40718280 41439472 42129980 42783488 43394156 43956764 44466896 
1039.452 44921004 45316748 45652844 45929216 46146728 46306996 46412044 
1042.827 46464224 46465736 46418480 46324060 46183936 45999736 45773960 
1046.203 45510400 45214452 44892972 44553716 44204508 43852416 43503204 
1049.578 43161252 42829452 42509920 42204200 41913556 41638928 41380928 
1052.953 41139680 40915008 40706632 40514584 40339424 40182424 40045560 
1056.328 39931400 39842968 39783636 39757112 39767496 39818968 39915716 
1059.704 40061584 40259884 40513332 40824424 41195440 41628824 42126928 
1063.079 42691652 43323652 44021756 44782604 45601052 46470852 47385956 
1066.454 48341420 49334064 50362192 51425008 52521516 53649892 54807180 
1069.829 55989836 57194268 58417612 59657932 60914040 62184812 63468492 
1073.205 64762396 66062780 67365008 68663840 69953176 71225920 72473480 
1076.580 73685992 74852616 75962472 77005616 77973632 78859272 79655920 
1079.955 80356328 80952392 81434872 81794912 82025112 82120992 82081608 
1083.330 81909584 81610720 81193328 80667792 80045984 79340384 78563240 
1086.706 77725360 76835536 75900352 74925200 73915312 72877088 71818272 
1090.081 70747528 69673016 68600912 67534592 66474820 65420868 64372068 
1093.456 63329100 62294340 61271100 60262500 59270060 58293276 57329892 
1096.831 56377064 55432528 54495644 53567372 52649736 51744704 50853504 
1100.207 49976172 49111964 48259868 47419440 46591036 45775836 44975328 
1103.582 44190996 43424060 42675704 41947480 41241792 40562036 39912412 
1106.957 39297344 38720872 38185824 37693624 37244232 36836540 36468852 
1110.332 36139468 35847036 35590764 35370436 35186152 35037836 34924944 
1113.708 34845960 34798296 34778376 34781996 34805056 34844352 34898104 
1117.083 34966316 35050572 35153480 35277868 35426156 35599724 35798772 
1120.458 36022420 36268864 36535548 36819216 37115712 37419976 37725852 
1123.833 38026368 38313936 38580832 38819592 39023332 39185920 39302160 
1127.208 39367812 39379796 39336112 39235952 39079548 38868012 38603028 
1130.584 38286704 37921328 37509300 37053008 36554692 36016252 35439200 
1133.959 34824572 34173136 33485582 32762888 32006546 31218656 30401816 
1137.334 29559106 28693816 27809578 26910446 26001120 25086946 24173882 
1140.709 23268112 22375622 21501764 20650946 19826738 19031942 18268898 
1144.085 17539806 16846802 16191928 15576988 15003343 14471780 13982469 
1147.460 13535054 13128744 12762401 12434620 12143676 11887592 11664168 
1150.835 11471091 11306097 11167131 11052357 10960256 10889494 10838972 
1154.210 10807687 10794851 10799909 10822609 10862941 10921165 10997657 
1157.586 11092904 11207534 11342463 11498950 11678684 11883646 12115958 
1160.961 12377658 12670569 12996407 13357128 13755298 14194594 14679839 
1164.336 15216953 15812419 16472796 17204146 18011938 18901120 19876506 
1167.711 20943086 22106250 23371606 24744386 26228854 27827594 29541016 
1171.087 31367216 33301970 35338844 37468968 39681012 41960688 44290396 
1174.462 46648900 49011388 51349540 53631956 55824732 57892060 59797280 
1177.837 61504584 62980932 64198720 65138136 65789032 66151816 66236788 
1181.212 66062488 65653264 65036820 64242124 63298048 62232752 61073260 
1184.588 59845256 58572672 57277088 55977036 54687516 53419884 52182196 
1187.963 50979972 49817156 48696892 47622144 46595636 45619748 44695972 
1191.338 43824604 43004580 42233816 41509520 40828984 40189916 39590876 
1194.713 39031060 38510112 38027652 37582816 37174116 36799364 36455960 
1198.089 36141236 35852812 35588832 35348056 35129680 34933104 34757640 
1201.464 34602148 34464984 34343900 34236132 34138596 34048052 33961352 
1204.839 33875580 33788000 33696256 33598192 33491898 33375626 33247748 
1208.214 33106648 32950788 32778698 32589066 32380826 32153306 31906306 
1211.590 31640174 31355602 31053582 30735100 30400994 30051904 29688316 
1214.965 29310838 28920462 28518718 28107650 27689602 27266822 26841108 
1218.340 26413596 25984774 25554774 25123748 24692262 24261444 23832976 
1221.715 23408770 22990718 22580312 22178564 21785920 21402442 21027940 
1225.091 20662096 20304546 19954998 19613176 19279048 18952792 18634874 
1228.466 18326006 18027004 17738572 17461138 17194692 16938860 16693008 
1231.841 16456471 16228701 16009372 15798347 15595545 15400808 15213829 
1235.216 15034206 14861476 14695278 14535442 14381979 14235066 14094834 
1238.592 13961306 13834250 13713241 13597690 13487068 13380903 13279015 
1241.967 13181369 13088121 12999424 12915383 12835915 12760749 12689446 
1245.342 12621549 12556669 12494654 12435737 12380534 12330013 12285283 
1248.717 12247416 12217137 12194718 12179902 12172030 12170248 12173776 
1252.093 12182127 12195184 12213178 12236407 12265096 12299159 12338129 
1255.468 12381281 12427842 12477274 12529367 12584381 12642790 12705007 
1258.843 12771115 12840542 12912101 12984057 13054466 13121538 13183874 
1262.218 13240597 13291302 13335800 13373961 13405477 13429849 13446477 
1265.594 13454898 13454820 13446347 13429728 13405271 13373099 13332990 
1268.969 13284412 13226616 13158879 13080683 12991840 12892477 12782903 
1272.344 12663467 12534429 12395933 12248014 12090716 11924055 11748195 
1275.719 11563355 11369924 11168464 10959862 10745369 10526548 10305206 
1279.094 10083131 9861822 9642324 9425197 9210590 8998583 8789448 8583895 
1282.952 8383148 8188787 8002621 7826389 7661618 7509569 7371210 7247332 
1286.809 7138530 7045241 6967696 6905885 6859595 6828440 6812049 6810043 
1290.667 6822091 6847803 6886542 6937252 6998378 7067823 7143204 7222005 
1294.524 7301900 7380897 7457416 7530303 7598760 7662249 7720484 7773444 
1298.382 7821366 7864741 7904226 7940532 7974302 8005932 8035505 8062786 
1302.239 8087252 8108227 8125029 8137151 8144461 8147292 8146414 8142966 
1306.096 8138128 8132864 8127638 8122303 8116168 8108303 8097945 8084776 
1309.954 8069228 8052252 8035198 8019263 8005285 7993422 7983371 7974441 
1313.811 7966047 7957764 7949602 7941815 7934800 7928886 7924193 7920633 
1317.669 7917986 7916090 7914836 7914288 7914710 7916461 7919986 7925767 
1321.526 7934320 7946068 7961312 7980077 8002180 8027199 8054608 8083987 
1325.384 8115067 8147930 8182963 8220716 8261823 8306902 8356464 8410924 
1329.241 8470654 8535879 8606685 8682901 8764075 8849552 8938576 9030522 
1333.098 9125116 9222460 9323025 9427310 9535763 9648492 9765361 9886064 
1336.956 10010403 10138400 10270361 10406649 10547556 10693017 10842615 
1340.331 10995769 11151907 11310836 11472859 11638734 11809426 11985785 
1343.706 12168337 12357231 12552270 12753090 12959391 13170880 13387285 
1347.082 13608204 13832945 14060540 14289862 14519732 14749125 14977163 
1350.457 15203023 15425815 15644430 15857466 16063294 16260220 16446644 
1353.832 16621251 16782998 16931188 17065426 17185540 17291638 17384152 
1357.207 17463748 17531418 17588220 17635288 17673644 17704104 17727380 
1360.583 17744036 17754660 17759902 17760540 17757406 17751236 17742450 
1363.958 17730998 17716090 17696028 17668318 17629674 17576448 17504946 
1367.333 17411926 17295028 17153116 16986502 16797096 16588502 16365977 
1370.708 16136555 15908813 15692797 15499619 15340854 15227792 15170553 
1374.083 15177141 15252630 15398586 15612715 15888922 16217594 16586199 
1377.459 16979992 17382980 17778974 18152688 18490718 18782278 19019438 
1380.834 19196944 19311834 19362740 19349572 19273140 19135066 18937878 
1384.209 18685038 18380996 18031136 17641608 17219084 16770425 16302180 
1387.584 15820184 15329251 14832990 14333975 13833942 13334188 12835988 
1390.960 12340789 11850486 11367401 10894298 10434339 9990874 9567282 
1394.335 9166678 8791640 8443993 8124672 7833843 7571023 7335299 7125538 
1398.192 6940378 6778279 6637449 6515883 6411409 6321845 6245190 6179841 
1402.050 6124549 6078386 6040732 6011021 5988760 5973472 5964650 5961840 
1405.907 5964532 5972184 5984148 5999623 6017786 6037860 6059313 6081925 
1409.765 6105900 6131699 6159875 6190854 6224743 6261268 6299837 6339739 
1413.622 6380328 6421213 6462227 6503425 6544871 6586499 6628050 6669060 
1417.479 6709078 6747773 6785154 6821555 6857569 6893911 6931228 6969955 
1421.337 7010288 7052297 7095961 7141282 7188385 7237332 7288257 7341177 
1425.194 7396110 7453087 7512328 7574236 7639415 7708631 7782615 7861913 
1429.052 7946815 8037401 8133561 8235159 8342203 8454887 8573771 8699739 
1432.909 8834226 8979139 9136917 9310476 9502915 9717335 9956516 10222765 
1436.767 10517926 10843635 11201491 11593317 12021082 12486573 12990810 
1440.142 13533482 14112510 14723913 15362002 16019806 16689573 17363146 
1443.517 18032364 18689240 19326302 19936834 20515066 21056296 21556750 
1446.892 22013548 22424568 22788452 23104692 23373688 23596582 23774894 
1450.268 23910060 24003000 24053972 24062700 24028740 23951808 23831940 
1453.643 23669408 23464398 23216810 22926398 22593122 22217776 21802332 
1457.018 21350088 20865202 20352056 19814662 19256406 18680304 18089300 
1460.393 17486670 16876036 16261226 15645821 15032986 14425354 13825364 
1463.769 13235648 12659159 12099225 11559124 11041604 10548649 10081210 
1467.144 9639630 9223802 8833589 8468837 8129282 7814384 7523095 7253934 
1471.001 7005086 6774681 6561031 6362770 6178832 6008336 5850556 5704827 
1474.859 5570508 5447038 5333876 5230358 5135696 5048815 4968456 4893398 
1478.716 4822586 4755354 4691442 4630864 4573644 4519646 4468518 4419685 
1482.573 4372632 4327090 4283203 4241392 4202202 4165934 4132519 4101423 
1486.431 4071838 4043047 4014658 3986872 3960386 3936100 3914876 3897078 
1490.288 3882477 3870208 3858967 3847268 3833718 3817171 3796798 3772160 
1494.146 3743093 3709811 3672830 3632974 3591320 3549034 3507198 3466620 
1498.003 3427747 3390605 3354929 3320280 3286302 3252817 3219935 3187983 
1501.861 3157484 3128985 3102882 3079390 3058444 3039752 3022824 3007043 
1505.718 2991773 2976454 2960607 2943996 2926590 2908613 2890415 2872493 
1509.575 2855258 2838968 2823587 2808799 2794068 2778813 2762670 2745609 
1513.433 2727999 2710581 2694212 2679562 2666908 2655959 2645950 2635837 
1517.290 2624542 2611353 2596023 2578839 2560524 2542039 2524370 2508275 
1521.148 2494246 2482325 2472200 2463322 2454915 2446184 2436443 2425235 
1525.005 2412339 2397860 2382117 2365597 2348809 2332229 2316220 2301016 
1528.863 2286798 2273695 2261803 2251249 2242048 2234180 2227499 2221712 
1532.720 2216441 2211183 2205370 2198518 2190197 2180226 2168652 2155812 
1536.577 2142277 2128741 2115888 2104223 2094020 2085227 2077567 2070549 
1540.435 2063738 2056697 2049104 2040717 2031398 2021064 2009833 1997965 
1544.292 1985976 1974466 1964089 1955315 1948278 1942724 1938116 1933817 
1548.150 1929235 1924054 1918273 1912098 1905856 1899785 1894022 1888515 
1552.007 1883142 1877766 1872381 1866988 1861618 1856240 1850758 1844992 
1555.865 1838815 1832221 1825338 1818445 1811877 1805920 1800708 1796230 
1559.722 1792371 1788939 1785807 1782891 1780164 1777621 1775289 1773216 
1563.579 1771583 1770655 1770754 1772215 1775141 1779400 1784477 1789637 
1567.437 1794037 1796983 1798102 1797443 1795368 1792481 1789341 1786353 
1571.294 1783711 1781372 1779213 1777191 1775318 1773791 1772905 1773020 
1575.152 1774473 1777486 1782152 1788386 1795857 1804080 1812432 1820262 
1579.009 1826986 1832193 1835758 1837851 1838821 1839188 1839426 1839933 
1582.866 1840913 1842438 1844476 1846936 1849725 1852722 1855812 1858859 
1586.724 1861758 1864398 1866791 1869061 1871370 1873972 1877106 1880935 
1590.581 1885561 1890982 1897121 1903817 1910929 1918242 1925581 1932816 
1594.439 1939920 1946984 1954184 1961759 1969915 1978757 1988215 1998078 
1598.296 2008039 2017806 2027132 2035925 2044128 2051763 2058747 2064980 
1602.154 2070316 2074752 2078397 2081649 2085047 2089086 2094103 2100033 
1606.011 2106433 2112475 2117313 2120309 2121248 2120483 2118832 2117356 
1609.868 2117073 2118718 2122566 2128490 2136069 2144788 2154224 2164085 
1613.726 2174222 2184533 2194883 2204976 2214429 2222844 2229954 2235746 
1617.583 2240463 2244557 2248559 2252945 2257966 2263704 2270089 2277021 
1621.441 2284491 2292515 2301177 2310461 2320130 2329694 2338468 2345707 
1625.298 2350813 2353504 2353840 2352270 2349321 2345630 2341635 2337665 
1629.156 2333882 2330399 2327321 2324777 2322823 2321403 2320274 2319103 
1633.013 2317591 2315558 2313120 2310670 2308800 2308025 2308571 2310327 
1636.870 2312761 2315152 2316742 2317009 2315778 2313154 2309429 2304977 
1640.728 2300130 2295060 2289842 2284492 2279037 2273523 2268052 2262757 
1644.585 2257807 2253406 2249768 2247095 2245496 2244926 2245127 2245677 
1648.443 2246092 2245982 2245234 2244103 2243117 2242937 2244151 2247003 
1652.300 2251336 2256655 2262265 2267641 2272584 2277264 2282157 2287816 
1656.157 2294612 2302641 2311725 2321433 2331283 2340822 2349771 2357958 
1660.015 2365350 2372029 2378218 2384250 2390646 2397995 2406865 2417637 
1663.872 2430470 2445114 2461058 2477569 2493926 2509428 2523619 2536202 
1667.730 2547105 2556390 2564248 2570982 2576970 2582588 2588226 2594178 
1671.587 2600707 2608009 2616401 2626213 2637887 2651808 2668098 2686594 
1675.445 2706638 2727337 2747656 2766796 2784410 2800621 2815972 2831173 
1679.302 2846888 2863541 2881243 2899920 2919400 2939622 2960677 2982743 
1683.159 3006100 3030976 3057592 3086152 3116823 3149705 3184772 3221679 
1687.017 3259734 3297975 3335367 3371083 3404840 3437031 3468648 3500987 
1690.874 3535251 3572250 3612243 3655089 3700460 3748092 3797947 3850105 
1694.732 3904536 3961040 4019058 4077978 4137488 4197858 4260197 4326220 
1698.589 4397784 4476351 4562418 4655426 4753955 4856308 4961239 5068324 
1702.447 5178252 5292383 5412316 5539328 5674001 5816205 5965334 6120689 
1706.304 6281898 6449166 6623305 6805455 6996933 7198791 7411713 7635873 
1710.161 7870849 8115966 8370258 8632918 8903348 9181472 9467680 9762733 
1714.019 10067595 10383059 10709550 11046824 11394081 11749952 12112704 
1717.394 12480492 12851696 13225044 13599865 13976352 14355519 14739256 
1720.769 15130123 15531041 15944937 16374475 16821978 17289572 17779416 
1724.145 18294082 18836694 19410870 20020700 20670462 21364526 22107550 
1727.520 22904494 23760850 24682360 25674936 26744106 27894896 29132140 
1730.895 30461056 31888070 33421284 35070136 36844204 38751208 40795232 
1734.270 42975732 45288132 47725916 50283152 52956312 55744476 58647256 
1737.646 61661548 64777948 67978784 71238112 74524208 77803040 81041416 
1741.021 84208456 87275216 90213448 92994944 95592472 97981760 100143848 
1744.396 102065656 103739120 105158592 106318864 107214776 107842744 
1747.289 108203552 108304320 108158496 107783576 107197992 106418512 
1750.182 105459680 104334760 103057864 101644864 100112864 98478160 96753944 
1753.557 94948776 93067232 91111864 89086016 86995992 84851704 82665992 
1756.933 80452784 78225288 75994944 73771440 71563360 69378896 67226488 
1760.308 65114532 63050972 61042792 59095724 57214256 55401908 53661316 
1763.683 51994236 50401276 48881556 47432820 46051608 44734080 43476592 
1767.058 42276364 41131364 40039924 38999900 38008152 37060064 36149960 
1770.434 35271756 34419804 33589584 32777784 31982070 31200414 30430516 
1773.809 29669554 28914336 28161812 27409696 26656712 25902524 25147260 
1777.184 24390776 23632262 22870320 22103530 21331284 20554686 19776750 
1780.559 19002218 18236512 17484664 16750462 16036081 15342383 14669673 
1783.935 14018358 13389303 12783805 12203109 11647931 11118308 10613777 
1787.310 10133833 9678520 9248436 8844614 8467964 8118625 7795803 7497866 
1791.167 7222818 6968768 6734341 6518552 6320312 6138081 5969539 5811845 
1795.025 5662231 5518626 5380269 5247529 5121669 5003940 4895006 4794607 
1798.882 4701690 4614915 4533177 4455897 4382932 4314204 4249314 4187323 
1802.740 4126836 4066471 4005360 3943485 3881653 3821119 3763054 3708020 
1806.597 3655887 3605843 3556969 3508621 3460830 3414206 3369895 3329040 
1810.454 3292475 3260392 3232238 3206775 3182326 3156909 3128780 3096595 
1814.312 3059994 3019662 2977368 2935773 2897781 2865955 2841807 2825443 
1818.169 2815592 2809920 2805694 2800372 2791930 2779054 2761118 2738086 
1822.027 2710531 2679491 2646599 2613672 2582390 2553757 2527735 2503118 
1825.884 2478016 2450449 2419420 2385393 2350476 2317845 2290737 2271175 
1829.741 2259130 2252195 2246056 2235664 2216656 2186479 2145293 2095763 
1833.599 2042424 1990582 1944957 1908562 1882308 1864942 1853747 1845525 
1837.456 1837630 1828678 1818838 1809474 1802380 1798925 1799290 1802275 
1841.314 1805556 1806328 1802237 1792000 1775733 1754758 1731118 1706706 
1845.171 1682787 1659574 1636412 1612072 1585316 1555410 1522460 1487448 
1849.029 1452290 1419312 1390926 1369046 1354788 1348142 1348000 1352352 
1852.886 1358841 1365234 1369862 1371925 1371325 1368712 1364984 1361022 
1856.743 1357659 1355440 1354728 1355624 1357886 1360819 1363453 1364471 
1860.601 1362687 1357415 1348729 1337479 1325097 1313023 1302351 1293268 
1864.458 1285267 1277301 1268376 1258048 1246554 1234767 1223986 1215205 
1868.316 1209060 1205513 1204127 1204299 1205452 1207348 1209969 1213283 
1872.173 1217285 1221674 1226008 1229752 1232401 1233651 1233508 1232153 
1876.031 1230041 1227636 1225281 1222931 1220056 1215593 1208247 1196803 
1879.888 1180874 1161389 1140829 1122919 1111697 1110364 1120102 1139078 
1883.745 1162751 1184563 1197620 1196405 1178176 1143711 1097198 1045128 
1887.603 994913 953367 925507 913990 918864 937978 967639 1003255 1040346 
1891.942 1074925 1104261 1126857 1142435 1151544 1155046 1153557 1146935 
1895.800 1134336 1114440 1085987 1048443 1002572 950704 896515 844679 799777 
1900.139 765800 744927 737292 740778 751401 764290 774622 778931 775970 
1904.479 767071 755799 747116 746030 756080 778590 811908 851969 893027 
1908.819 929035 954863 967305 965404 950668 926354 896848 866953 841234 
1913.158 823372 816177 820578 836021 859949 888367 915955 937330 947960 
1917.498 945442 929947 904525 873990 843740 818259 799897 788379 781495 
1921.837 775945 768824 758525 745225 730396 715975 703272 692533 682388 
1926.177 670888 655870 635907 610715 581291 549605 518545 491070 470296 
1930.517 458451 456475 463126 474635 484954 487580 476910 450794 411687 
1934.856 366481 324895 296225 286353 295671 318910 347306 371545 385291 
1939.196 387084 380337 371766 368681 376376 397027 429858 472231 521416 
1943.535 575373 632942 693149 753378 809403 854805 882017 883741 854769 
1947.875 793252 702316 589810 468378 353560 261387 205286 192253 220784 
1952.215 280593 354188 421704 465769 476360 452735 402411 338051 273196 
1956.554 218463 180307 161752 164483 190299 241348 318019 416088 524172 
1960.894 624638 696171 720455 687133 597598 465530 313238 165531 44661 
1965.233 -34776 -66770 -53708 -4580 67706 148096 221573 275568 302652 303034 
1970.055 284795 262916 254740 274492 327485 408406 501488 586323 644355 
1974.395 665935 653537 622838 596024 596512 640403 731903 861006 1006406 
1978.734 1141260 1239472 1281455 1257963 1170527 1031777 862221 686780 
1982.592 529719 410213 337746 311711 322729 357445 402397 448075 489490 
1986.931 525394 554796 575197 581896 569672 535880 483883 424080 372848 
1991.271 347942 364015 427662 535772 675193 826562 967918 1079282 1145476 
1995.611 1158149 1115831 1023812 893178 739085 578973 429513 303518 207469 
1999.950 140087 93444 55327 13283 -41239 -109980 -187845 -263977 -325443 
2004.290 -360962 -364045 -334984 -280638 -212334 -144104 -88271 -53790 
2008.147 -44081 -57394 -88468 -129959 -174846 -218568 -259513 -299508 
2012.005 -342772 -393908 -456351 -530086 -610341 -688250 -751342 -786801 
2015.862 -783256 -733678 -636967 -498449 -328460 -141243 47508 221981 367513 
2020.202 471005 521723 512424 441488 314212 143366 -51785 -248669 -426209 
2024.541 -570454 -676635 -749881 -801625 -842884 -879356 -907120 -914279 
2028.399 -886563 -813867 -697699 -553591 -408113 -291610 -228750 -230033 
2032.256 -288832 -382932 -481586 -554529 -579773 -549312 -469166 -356685 
2036.114 -234662 -125796 -47509 -10146 -14482 -53456 -113328 -177519 -229707 
2040.453 -258057 -256716 -226888 -174690 -109184 -38849 28743 87892 133418 
2044.793 160940 167509 154084 127542 102442 97761 132022 215929 345905 
2049.132 502757 656736 777151 842934 848565 804672 733341 660479 607850 
2053.472 587616 599612 633571 673718 704670 716123 704376 671021 620631 
2057.812 558398 489485 419429 354697 302573 270116 262092 279230 317682 
2062.151 370383 429498 488996 546401 602534 659203 717086 773487 822530 
2066.491 856594 869177 857180 822053 768840 704711 636371 569363 507355 
2070.830 453262 409793 379904 365866 368192 384481 409704 437412 461920 
2075.170 480295 493834 507195 526703 557634 602241 658804 722038 784775 
2079.510 839991 882411 909119 919672 915455 898959 873366 842078 808767 
2083.849 776497 747518 722488 700358 678432 653291 622020 583137 537364 
2088.189 487475 437646 392312 354952 327292 309267 299426 295754 296685 
2092.528 301587 311148 326623 349038 378241 412550 448290 481331 508021 
2096.868 526612 537881 544913 551781 562255 577817 597430 617735 634528 
2101.208 644159 645043 638009 625935 612419 600905 593479 591236 594333 
2105.547 602397 614856 630428 646783 660244 666649 662833 648156 625918 
2109.887 603153 589152 592236 617109 662506 721184 781770 832029 862146 
2114.226 867087 846740 805056 747774 680924 609516 537843 469923 410397 
2118.566 363974 334535 323624 329195 345341 363344 373885 369587 346841 
2122.906 306579 253237 193061 131572 72055 14514 -43742 -107083 -179355 
2127.245 -262497 -355386 -453353 -549038 -634019 -700237 -742489 -759098 
2131.103 -752680 -729127 -695988 -660591 -628303 -601431 -579977 -562446 
2134.960 -547659 -535382 -525947 -519492 -514934 -509261 -499316 -483516 
2138.817 -464723 -450926 -454054 -486696 -557322 -666013 -802630 -948213 
2142.675 -1079651 -1175042 -1219760 -1209979 -1152994 -1064924 -967185 
2146.050 -881455 -826700 -815823 -854889 -941869 -1067001 -1214148 -1363698 
2149.907 -1496935 -1600905 -1672417 -1720585 -1764211 -1827690 -1933184 
2153.283 -2094600 -2312504 -2574522 -2858011 -3135913 -3381677 -3571929 
2156.658 -3686676 -3708950 -3622797 -3417144 -3090515 -2659232 -2158108 
2160.033 -1638302 -1153834 -751831 -461516 -291442 -230019 -250963 -319436 
2163.891 -398985 -458987 -480357 -457563 -400077 -327217 -263718 -232587 
2167.748 -249804 -319690 -435249 -580194 -733733 -875558 -990450 -1069977 
2171.605 -1112177 -1118775 -1092394 -1034722 -946744 -830224 -691424 -542421 
2175.463 -400559 -285406 -214089 -195993 -230788 -308088 -410721 -518660 
2179.320 -613087 -678677 -706307 -693259 -643495 -567568 -480870 -401718 
2183.178 -347049 -327834 -345523 -390100 -442999 -482111 -488998 -455226 
2187.035 -385089 -293405 -200732 -124858 -75229 -50040 -38171 -24976 813 
2191.375 42004 91234 134546 156841 148411 109388 49500 -14462 -64688 -88000 
2196.197 -79506 -43498 8837 63601 108234 134792 141388 131355 112043 92025 
2201.018 79652 81166 100061 136585 187962 248442 309735 362281 395929 402289 
2205.840 375981 316579 229758 126580 22598 -65562 -122717 -138730 -110084 
2210.180 -39944 63494 189300 326626 466049 599989 721511 823354 897690 
2214.519 937634 939372 905056 843973 771916 707370 666694 659439 685732 
2218.859 735775 794192 844099 872427 872617 845547 797341 737310 674295 
2223.198 615927 567491 532537 512651 507885 515794 531909 550184 565080 
2227.538 573131 575000 574835 578740 591804 615581 646642 677801 700769 
2231.878 709807 704186 688564 670896 659423 658888 669325 686391 704184 
2236.217 718255 727810 736302 749661 773410 810120 858236 912672 966802 
2240.557 1015172 1055066 1087146 1114087 1138951 1163236 1186011 1204201 
2244.414 1213615 1210412 1192400 1159601 1114151 1059822 1001273 943425 
2248.272 891038 848313 818731 804333 806039 823160 853646 894288 941073 
2252.611 989416 1034725 1072472 1099026 1111613 1109312 1093058 1065420 
2256.469 1030525 993029 957374 927147 904392 889623 881843 878851 877550 
2260.808 874684 867221 853511 833515 809448 785483 766857 758545 763970 
2265.148 783701 815456 854542 895184 932114 961744 982985 996905 1006140 
2269.488 1013851 1023003 1035725 1053222 1075674 1102525 1132403 1163407 
2273.345 1193336 1219930 1241606 1257356 1267190 1271781 1272035 1268714 
2277.202 1262150 1252459 1239898 1225621 1211905 1202306 1201307 1213202 
2281.060 1241495 1287864 1351771 1430184 1517816 1607838 1692506 1764005 
2284.917 1815969 1844034 1847000 1827010 1789362 1741417 1691378 1646507 
2288.775 1611796 1589142 1577314 1572573 1570075 1564930 1553798 1535181 
2292.632 1509882 1480406 1450494 1423941 1403845 1392133 1389109 1393643 
2296.490 1403458 1415701 1427588 1436808 1441822 1442040 1437666 1429534 
2300.347 1418863 1407146 1395811 1386336 1379937 1377503 1379656 1386515 
2304.204 1397906 1413362 1432087 1453273 1475805 1498476 1520083 1539373 
2308.062 1555398 1567555 1575817 1580522 1582407 1582356 1581341 1580200 
2311.919 1579892 1581249 1585027 1591782 1601515 1613645 1627107 1640497 
2315.777 1652756 1663391 1672790 1682069 1692719 1706077 1723248 1745034 
2319.634 1772323 1806284 1848421 1899643 1959171 2023334 2085002 2134249 
2323.491 2160281 2154082 2110921 2031859 1923625 1797616 1667160 1545045 
2327.349 1441126 1360766 1304652 1269662 1250444 1241404 1237886 1236719 
2331.206 1236295 1235964 1235500 1234918 1234399 1234317 1235269 1237865 
2335.064 1242303 1248169 1254366 1259398 1261814 1260733 1256107 1248656 
2338.921 1239609 1230191 1221350 1213637 1207199 1202055 1198244 1195876 
2342.779 1195022 1195606 1197266 1199352 1201233 1202275 1202223 1201015 
2346.636 1198760 1195513 1191241 1185874 1179395 1171960 1164209 1156825 
2350.493 1150840 1146979 1145749 1147198 1151059 1156790 1163699 1170871 
2354.351 1177479 1182487 1184987 1184329 1180204 1172760 1162565 1150320 
2358.208 1136736 1122225 1106958 1090985 1074399 1057603 1041135 1025612 
2362.066 1011356 998180 985372 972038 957349 941264 924574 908940 896330 
2366.405 888541 886507 890232 898628 910059 922740 935198 946482 956074 
2370.745 963856 969929 974568 978154 981369 984990 989763 996143 1004123 
2375.084 1013052 1021850 1029198 1034051 1035788 1034590 1031076 1026366 
2378.942 1021583 1017706 1015379 1015043 1016715 1020379 1025862 1033077 
2382.799 1041954 1052503 1064732 1078588 1093729 1109493 1124827 1138338 
2386.657 1148698 1154872 1156545 1154290 1149538 1144208 1140284 1139241 
2390.514 1141673 1147158 1154439 1161909 1167955 1171622 1172716 1171950 
2394.372 1170573 1170022 1171269 1174555 1179192 1183783 1186632 1186557 
2398.229 1183259 1177830 1172319 1169218 1170506 1176670 1186562 1197311 
2402.086 1205248 1207012 1200658 1186440 1166596 1145016 1125986 1113218 
2405.944 1108977 1113841 1126808 1145668 1167661 1189950 1209886 1225384 
2409.801 1235178 1238747 1236675 1230253 1221331 1211743 1202702 1194710 
2413.659 1187451 1180262 1172569 1164501 1156819 1150705 1147308 1147003 
2417.516 1149232 1152571 1155393 1156474 1155659 1153669 1152074 1152280 
2421.374 1155186 1160576 1167501 1174569 1180681 1185488 1189257 1192638 
2425.231 1196264 1200290 1204244 1207533 1209563 1210161 1209620 1208208 
2429.088 1206022 1202475 1196403 1186786 1173281 1156962 1140362 1127025 
2432.946 1120217 1121833 1131534 1146531 1162434 1174608 1179598 1176167 
2436.803 1165485 1150514 1134739 1121043 1110747 1103715 1098787 1094512 
2440.661 1090005 1085301 1081070 1078079 1076788 1076771 1076886 1075683 
2444.518 1071903 1065093 1055712 1045141 1035320 1028336 1025862 1028971 
2448.375 1037799 1051433 1068123 1085314 1100234 1110436 1114430 1112285 
2452.233 1105558 1097236 1090702 1088904 1093472 1104229 1119266 1135626 
2456.090 1150128 1160170 1164446 1162987 1156794 1147486 1136709 1125806 
2459.948 1115756 1107070 1100129 1095120 1092245 1091725 1093711 1098279 
2463.805 1105430 1114795 1125774 1137254 1147732 1155555 1159102 1157354 
2467.663 1149977 1137555 1121370 1103090 1084533 1067394 1053135 1043139 
2471.520 1038704 1040817 1049788 1064887 1083843 1103083 1118340 1125800 
2475.377 1123276 1111120 1092454 1072400 1056692 1050150 1055105 1070937 
2479.235 1094244 1119999 1142787 1158428 1164652 1161396 1150633 1135219 
2483.092 1118489 1103217 1091359 1083688 1080031 1079551 1081133 1083780 
2486.950 1086945 1090619 1095127 1101045 1108781 1118137 1128731 1139597 
2490.807 1150002 1159276 1167337 1174365 1180687 1186436 1191260 1194573 
2494.665 1195590 1193806 1189272 1182846 1175783 1169729 1166224 1166299 
2498.522 1170415 1178366 1189494 1202604 1216457 1229605 1240790 1248919 
2502.379 1253462 1254266 1251781 1246769 1240211 1233080 1226115 1219911 
2506.237 1214847 1211234 1209241 1209020 1210513 1213662 1218309 1224370 
2510.094 1232007 1241523 1253198 1266916 1281979 1296848 1309542 1317927 
2513.952 1320583 1317227 1308903 1297852 1286790 1278027 1272898 1271386 
2517.809 1272246 1273393 1272649 1268248 1259252 1245776 1228927 1210605 
2521.667 1193309 1179742 1172263 1172428 1180622 1195768 1215667 1237295 
2525.524 1257691 1274542 1286574 1293690 1296496 1295879 1292625 1287081 
2529.381 1279441 1269713 1258252 1245448 1231860 1217895 1203732 1189530 
2533.239 1175589 1162874 1152955 1147769 1149227 1158147 1173993 1194681 
2537.096 1217114 1238090 1255088 1267203 1274890 1279847 1283862 1288338 
2540.954 1293574 1298957 1303123 1304854 1303387 1298732 1291687 1283539 
2544.811 1275534 1268781 1263834 1260899 1259687 1259755 1260557 1261658 
2548.668 1262742 1263827 1264954 1266450 1268578 1271511 1275352 1280041 
2552.526 1285621 1292094 1299442 1307393 1315459 1322749 1328251 1331124 
2556.383 1331212 1329260 1326938 1326519 1330003 1338568 1351875 1368339 
2560.241 1385369 1400287 1411095 1416845 1417791 1414987 1409681 1402927 
2564.098 1395448 1387606 1379907 1372955 1367678 1364828 1364878 1367623 
2567.956 1372384 1378130 1383955 1389421 1394605 1399963 1406013 1412808 
2571.813 1419994 1426872 1432657 1436811 1439266 1440253 1440081 1438917 
2575.670 1436550 1432816 1427602 1421470 1415724 1412244 1413131 1419971 
2579.528 1433299 1452357 1475011 1498415 1519508 1535766 1545638 1548903 
2583.385 1546441 1539985 1531627 1523362 1516526 1511677 1508563 1506282 
2587.243 1503843 1500466 1495896 1490621 1485474 1481456 1479140 1478372 
2591.100 1478430 1478018 1476022 1471770 1465473 1458250 1451679 1447447 
2594.958 1446749 1450023 1456887 1466361 1477224 1488424 1499219 1509216 
2598.815 1518293 1526238 1532616 1536778 1538093 1535975 1530467 1522230 
2602.672 1512549 1503110 1495503 1490955 1489735 1491306 1494477 1497684 
2606.530 1499817 1500427 1500030 1499887 1501601 1506381 1514623 1525473 
2610.387 1537098 1547106 1553269 1554415 1550710 1543818 1536484 1531624 
2614.245 1531661 1537748 1549449 1565014 1581905 1597511 1609994 1618534 
2618.102 1623416 1625757 1626971 1628257 1630362 1633445 1637296 1641509 
2621.959 1645742 1649712 1653233 1655953 1657493 1657242 1654855 1650243 
2625.817 1643785 1636434 1629336 1623816 1620900 1621276 1625214 1632766 
2629.674 1643690 1657553 1673652 1690803 1707476 1721944 1732761 1739208 
2633.532 1741626 1741351 1740535 1741218 1744728 1751317 1759992 1769106 
2637.389 1776911 1782438 1785632 1787290 1788487 1790057 1792028 1793680 
2641.247 1793838 1791516 1786579 1779818 1772894 1767773 1766032 1768570 
2645.104 1775202 1784989 1796534 1808396 1819355 1828527 1835162 1838769 
2648.961 1839059 1835977 1829951 1821862 1812923 1804480 1797589 1792676 
2652.819 1789538 1787417 1785268 1782181 1777636 1771500 1764102 1755889 
2656.676 1747369 1738820 1730358 1721911 1713390 1704705 1695652 1686050 
2660.534 1675659 1664164 1651253 1636854 1620985 1604002 1586389 1568711 
2664.391 1551440 1534916 1519248 1504472 1490587 1477683 1466064 1456133 
2668.249 1448465 1443427 1441127 1441324 1443376 1446334 1449292 1451409 
2672.106 1452316 1451986 1450706 1448878 1446816 1444555 1441944 1438578 
2675.963 1434287 1429033 1423149 1417110 1411519 1406770 1403008 1400071 
2679.821 1397627 1395317 1392853 1390092 1386979 1383496 1379599 1375357 
2683.678 1370998 1367060 1364381 1363888 1366384 1372158 1380871 1391497 
2687.536 1402578 1412655 1420518 1425580 1427811 1427589 1425508 1422207 
2691.393 1418202 1414014 1410205 1407378 1406032 1406419 1408288 1410934 
2695.250 1413248 1414015 1412424 1408155 1401687 1393960 1386158 1379403 
2699.108 1374356 1371244 1369933 1370023 1371083 1372650 1374271 1375522 
2702.965 1376076 1375659 1374282 1372207 1369976 1368089 1366936 1366436 
2706.823 1366153 1365335 1363245 1359467 1354198 1348110 1342347 1338000 
2710.680 1335840 1336105 1338442 1342197 1346572 1350975 1355172 1359151 
2714.538 1363104 1367132 1371171 1374837 1377576 1378859 1378348 1376078 
2718.395 1372531 1368464 1364778 1362267 1361314 1361911 1363657 1365979 
2722.252 1368466 1370971 1373788 1377428 1382328 1388583 1395653 1402342 
2726.110 1407252 1409046 1407046 1401524 1393650 1385226 1378161 1373812 
2729.967 1372783 1374663 1378311 1382290 1385272 1386442 1385505 1382671 
2733.825 1378543 1373828 1369139 1365026 1361975 1360372 1360492 1362512 
2737.682 1366367 1371802 1378450 1385781 1393381 1400883 1408149 1415142 
2741.540 1421789 1427886 1433067 1436795 1438336 1437107 1432795 1425325 
2745.397 1415284 1403574 1391438 1380164 1370996 1364799 1362045 1362708 
2749.254 1366421 1372457 1380025 1388279 1396417 1403774 1409740 1413862 
2753.112 1415744 1415133 1412001 1406533 1399224 1390971 1382799 1375900 
2756.969 1371327 1369773 1371409 1375753 1381828 1388285 1393837 1397569 
2760.827 1399053 1398455 1396218 1392916 1388862 1384002 1378083 1370913 
2764.684 1362758 1354415 1347257 1342951 1342721 1347099 1355541 1366620 
2768.542 1378418 1389192 1397761 1403909 1408017 1410900 1413189 1415071 
2772.399 1416283 1416232 1414498 1411015 1406164 1400735 1395583 1391304 
2776.256 1388121 1385961 1384545 1383771 1383722 1384856 1387733 1392911 
2780.114 1400542 1410366 1421780 1433674 1444901 1454286 1460893 1464152 
2783.971 1464051 1461055 1456237 1451016 1446830 1444931 1446032 1450226 
2787.829 1457049 1465435 1474162 1482023 1487874 1490939 1490794 1487513 
2791.686 1481805 1474963 1468728 1464972 1465263 1470228 1479526 1491594 
2795.543 1504304 1515500 1523773 1528794 1531404 1533217 1535838 1540301 
2799.401 1546841 1554755 1562945 1570396 1576609 1581704 1586360 1591233 
2803.258 1596777 1603047 1609724 1616376 1622757 1628867 1634838 1640774 
2807.116 1646448 1651304 1654520 1655370 1653560 1649589 1644625 1640349 
2810.973 1638506 1640317 1646273 1655906 1668122 1681326 1693912 1704772 
2814.831 1713321 1719640 1724486 1728907 1733983 1740538 1748980 1759158 
2818.688 1770507 1782239 1793615 1804248 1814060 1823363 1832680 1842560 
2822.545 1853289 1864821 1876870 1888944 1900500 1911214 1921049 1930308 
2826.403 1939694 1950035 1962294 1977223 1995131 2015725 2038083 2060757 
2830.260 2082108 2100827 2116204 2128496 2138827 2148942 2160646 2175328 
2834.118 2193696 2215544 2239985 2265904 2292200 2318204 2343580 2368386 
2837.975 2392850 2417019 2440827 2464043 2486368 2507735 2528276 2548569 
2841.833 2569477 2592058 2617374 2646293 2679321 2716626 2757944 2802886 
2845.690 2850861 2901379 2953944 3007892 3062210 3115263 3164764 3207937 
2849.547 3241893 3264165 3273290 3269062 3252611 3225906 3191361 3151298 
2853.405 3107405 3060848 3012481 2962992 2913420 2865081 2819426 2777945 
2857.262 2741505 2710493 2684530 2662811 2644273 2628063 2613495 2600298 
2861.120 2588540 2578590 2570979 2566271 2564902 2567135 2572770 2581226 
2864.977 2591507 2602674 2613846 2624751 2635913 2648515 2664394 2685417 
2868.834 2713201 2748610 2791780 2841955 2897851 2957892 3020545 3084439 
2872.692 3148505 3211891 3273962 3334147 3391993 3446987 3498768 3547020 
2876.549 3591686 3632870 3670830 3705848 3738106 3767522 3793571 3815552 
2880.407 3832524 3843785 3848987 3848518 3843254 3834599 3823903 3812585 
2884.264 3801371 3790657 3780394 3770256 3759978 3749312 3738249 3726938 
2888.122 3715682 3704887 3695076 3686769 3680374 3676007 3673485 3672233 
2891.979 3671493 3670695 3669697 3669036 3669884 3673754 3682089 3695682 
2895.836 3714420 3737230 3762255 3787404 3810832 3831292 3848257 3862020 
2899.694 3873402 3883658 3894245 3906671 3922185 3941735 3965471 3992674 
2903.551 4021898 4051097 4078286 4102068 4122192 4139689 4156566 4175472 
2907.409 4198739 4227844 4263186 4304091 4349263 4397291 4447259 4498942 
2911.266 4552872 4609983 4671414 4738073 4810363 4888194 4970839 5057192 
2915.124 5145722 5234565 5321824 5405510 5483869 5555513 5619590 5675912 
2918.981 5724769 5766767 5802511 5832411 5856409 5874010 5884603 5887835 
2922.838 5883978 5874216 5860687 5845999 5832879 5823237 5818028 5816845 
2926.696 5818494 5821269 5823934 5826092 5828290 5832074 5839304 5851862 
2930.553 5871127 5898047 5933184 5977057 6030114 6092844 6165385 6247443 
2934.411 6338051 6435879 6539698 6648953 6764172 6887008 7019756 7164505 
2938.268 7322193 7491885 7670593 7853698 8035701 8211297 8376240 8527873 
2942.125 8665072 8787766 8896429 8991227 9071755 9136703 9184141 9211956 
2945.983 9218153 9201650 9162495 9102033 9022716 8927930 8821179 8705731 
2949.840 8584226 8458340 8328918 8196481 8061454 7924558 7787218 7651216 
2953.698 7518605 7391161 7270103 7155882 7047973 6945250 6846308 6749734 
2957.555 6654575 6560550 6468007 6377944 6291550 6210097 6134297 6064493 
2961.413 6000226 5940615 5884403 5830582 5778264 5726989 5676693 5627539 
2965.270 5579815 5533766 5489636 5447824 5408760 5372997 5341239 5314103 
2969.127 5291810 5274270 5260940 5250896 5243259 5237220 5232471 5229218 
2972.985 5228158 5230216 5236339 5247215 5263053 5283570 5308011 5335526 
2976.842 5365297 5396863 5430462 5466829 5507182 5552825 5604900 5664129 
2980.700 5730732 5804704 5885945 5974743 6071873 6178652 6296603 6427123 
2984.557 6571045 6728465 6898556 7079622 7269703 7466660 7668473 7873395 
2988.415 8079874 8286478 8491687 8693790 8890706 9080075 9259313 9425656 
2992.272 9576288 9708747 9820832 9911051 9978624 10023788 10047387 10051212 
2996.129 10037433 10008389 9966158 9912342 9847718 9772283 9685478 9586459 
2999.987 9474771 9350820 9215938 9072559 8923524 8771633 8618672 8465252 
3003.844 8310701 8153584 7992482 7826729 7656912 7484849 7313011 7143801 
3007.702 6978552 6817536 6659721 6503462 6347437 6191268 6035676 5882485 
3011.559 5733826 5591508 5456127 5327093 5202883 5081399 4961092 4841209 
3015.417 4722227 4605594 4493330 4387433 4289118 4198723 4115452 4037828 
3019.274 3963939 3892026 3820758 3749580 3678520 3608423 3540193 3474857 
3023.131 3413110 3355083 3300546 3248737 3198647 3149269 3099760 3049700 
3026.989 2999069 2948380 2898372 2850140 2804587 2762489 2724091 2689157 
3030.846 2657048 2626832 2597372 2567735 2537348 2505872 2473472 2440568 
3034.704 2407815 2375951 2345856 2318184 2293510 2272066 2253732 2237985 
3038.561 2223954 2210566 2196765 2181762 2165098 2146762 2127071 2106690 
3042.418 2086377 2066901 2048886 2032701 2018551 2006323 1995731 1986438 
3046.276 1978270 1971226 1965635 1961960 1960712 1961934 1965054 1968821 
3050.133 1971625 1971711 1967990 1960410 1949924 1938419 1928020 1920462 
3053.991 1916628 1916284 1918342 1921387 1924146 1926021 1926921 1927235 
3057.848 1927220 1926763 1925175 1921602 1915158 1905678 1893798 1881083 
3061.706 1869702 1861694 1858519 1860592 1867102 1876374 1886133 1894413 
3065.563 1899903 1902232 1902129 1900769 1899470 1899160 1899892 1900984 
3069.420 1901190 1899374 1894957 1888226 1880339 1872954 1867385 1864560 
3073.278 1864047 1864784 1865076 1863665 1859938 1854401 1848337 1843417 
3077.135 1840915 1841421 1844511 1849082 1853809 1857545 1859584 1859937 
3080.993 1858955 1857207 1855230 1853366 1851792 1850580 1849750 1849252 
3084.850 1848961 1848503 1847435 1845307 1841904 1837339 1832212 1827426 
3088.708 1823873 1822259 1822814 1825236 1828739 1832377 1835197 1836459 
3092.565 1835634 1832502 1826783 1818329 1807005 1792820 1776107 1757707 
3096.422 1738971 1721625 1707591 1698502 1695242 1697762 1704807 1714465 
3100.280 1724334 1732438 1737589 1739847 1740274 1740669 1742731 1747565 
3104.137 1755150 1764552 1773988 1781770 1786635 1788164 1786668 1783002 
3107.995 1778072 1772379 1766058 1758932 1750635 1741124 1730766 1720384 
3111.852 1711013 1703749 1699564 1698887 1701783 1707678 1715572 1724064 
3115.709 1731692 1737408 1740595 1741723 1742065 1743318 1747010 1753865 
3119.567 1763340 1773552 1781955 1786148 1784748 1778075 1767973 1757323 
3123.424 1748873 1744446 1744411 1747648 1752313 1756528 1759075 1759662 
3127.282 1758789 1757181 1755163 1752735 1749466 1744946 1739311 1733517 
3131.139 1728972 1727179 1729168 1735027 1743726 1753553 1762544 1769316 
3134.997 1773261 1774723 1774848 1775048 1776532 1780153 1785936 1793322 
3138.854 1801153 1807996 1812395 1813032 1809272 1801313 1790262 1777964 
3142.711 1766760 1758813 1755633 1757801 1764699 1774766 1786061 1796484 
3146.569 1804407 1808688 1808754 1804634 1796750 1786022 1773747 1761723 
3150.426 1751822 1745788 1744670 1748469 1755952 1765055 1773347 1778986 
3154.284 1781237 1780927 1779918 1780677 1785017 1793618 1805508 1818590 
3158.141 1830256 1838501 1842706 1843762 1843651 1844728 1848512 1855186 
3161.999 1863422 1870897 1875124 1874411 1868374 1858020 1845103 1831588 
3165.856 1818836 1807527 1797501 1788727 1781291 1776011 1774155 1777041 
3169.713 1785354 1798757 1815613 1833478 1849507 1861251 1867223 1867027 
3173.571 1861374 1851787 1840204 1828672 1819131 1813085 1811472 1814617 
3177.428 1822017 1832483 1844372 1855945 1865697 1872836 1877232 1879226 
3181.286 1879478 1878385 1876158 1872776 1868174 1862502 1856304 1850372 
3185.143 1845562 1842408 1840922 1840654 1840773 1840516 1839446 1837658 
3189.000 1835623 1834176 1833972 1835481 1838897 1844200 1851081 1859303 
3192.858 1868440 1877967 1887217 1895399 1901812 1906102 1908182 1908481 
3196.715 1907717 1906597 1905682 1905336 1905634 1906662 1908562 1911580 
3200.573 1915889 1921414 1927468 1932986 1936559 1937055 1933892 1927649 
3204.430 1919769 1912479 1908137 1908704 1915227 1927925 1945821 1967358 
3208.288 1990317 2012294 2030710 2043241 2047984 2044081 2032048 2013903 
3212.145 1992990 1973338 1958735 1951783 1953297 1962036 1975326 1989940 
3216.002 2002917 2012612 2018688 2022127 2024442 2027050 2030578 2034984 
3219.860 2039521 2043324 2045806 2047001 2047426 2047971 2049317 2052019 
3223.717 2055935 2060720 2065571 2069784 2072653 2073592 2072122 2067896 
3227.575 2060815 2051138 2039570 2027294 2015667 2006046 1999223 1995428 
3231.432 1994086 1994307 1995202 1996271 1997808 2000627 2005632 2013530 
3235.290 2024009 2035807 2046935 2055216 2059016 2057897 2052771 2045695 
3239.147 2039237 2035729 2036609 2042098 2051075 2061765 2072013 2080117 
3243.004 2084995 2086515 2085178 2082128 2078411 2075032 2072415 2070551 
3246.862 2068883 2066483 2062498 2056405 2048180 2038501 2028492 2019606 
3250.719 2013023 2009377 2008473 2009394 2010774 2011454 2010747 2009054 
3254.577 2007482 2007790 2011523 2019579 2031545 2045870 2059938 2071140 
3258.434 2077363 2077780 2073112 2065528 2057755 2052557 2051567 2055050 
3262.292 2061737 2069522 2076125 2079965 2080744 2079328 2077506 2076956 
3266.149 2078679 2082435 2086796 2089872 2089884 2086258 2079564 2071759 
3270.006 2065194 2061958 2063021 2068109 2075663 2083747 2090557 2095069 
3273.864 2097161 2097305 2096183 2094167 2091205 2087051 2081541 2075160 
3277.721 2069140 2065257 2065274 2070307 2080226 2093655 2108137 2121091 
3281.579 2130309 2134860 2134964 2131966 2127575 2123237 2119628 2116725 
3285.436 2113743 2109921 2104860 2098870 2092855 2088221 2086084 2087230 
3289.293 2091473 2098040 2105760 2113427 2120332 2126432 2132080 2138150 
3293.151 2145363 2153963 2163597 2173322 2181710 2187406 2189334 2187048 
3297.008 2180835 2171637 2160873 2150205 2140944 2134212 2130406 2129364 
3300.866 2130163 2131651 2132440 2131530 2128443 2123577 2117988 2113353 
3304.723 2111362 2113103 2118869 2127849 2138445 2148655 2156722 2161810 
3308.581 2163961 2164187 2163879 2164283 2165935 2168589 2171255 2172863 
3312.438 2172656 2170599 2167404 2164265 2162339 2162307 2164027 2166773 
3316.295 2169352 2170906 2170932 2169685 2167891 2166342 2165596 2165844 
3320.153 2166705 2167902 2169055 2170364 2172165 2175051 2179088 2183932 
3324.010 2188565 2191633 2191884 2188701 2182238 2173727 2164923 2157806 
3327.868 2154045 2154715 2160132 2169862 2182888 2197834 2212987 2226622 
3331.725 2236978 2242762 2243142 2238341 2229355 2217978 2206284 2196091 
3335.583 2188610 2184214 2182487 2182825 2184577 2187565 2191823 2197507 
3339.440 2204385 2211579 2217607 2220771 2219743 2214104 2204597 2193142 
3343.297 2181921 2173048 2167693 2165969 2167058 2169823 2173208 2176830 
3347.155 2180780 2185575 2191442 2198155 2204802 2210246 2213393 2213813 
3351.012 2211877 2208644 2205489 2203585 2203383 2204794 2207018 2209106 
3354.870 2210315 2210249 2208885 2206482 2203343 2199719 2195958 2192681 
3358.727 2190804 2191639 2196620 2206802 2222335 2242431 2265046 2287558 
3362.584 2307103 2321460 2329254 2330211 2325007 2314817 2300955 2284791 
3366.442 2267558 2250516 2234977 2222427 2213998 2210473 2211685 2216604 
3370.299 2223507 2230448 2236029 2239820 2242659 2246213 2252402 2262588 
3374.157 2276763 2293373 2309570 2322057 2328048 2326119 2316687 2301784 
3378.014 2284356 2267345 2252855 2241887 2234236 2229199 2226070 2224716 
3381.872 2225511 2229128 2235864 2245003 2254806 2262756 2266085 2263059 
3385.729 2253403 2238595 2221507 2205658 2193918 2188077 2188195 2193065 
3389.586 2200718 2209331 2217640 2225289 2232393 2239226 2245524 2250512 
3393.444 2252898 2251448 2245510 2235574 2223032 2210087 2198808 2190827 
3397.301 2186545 2185370 2185886 2186733 2186804 2185913 2184474 2183457 
3401.159 2183606 2185312 2188252 2191744 2195121 2198225 2201558 2206255 
3405.016 2213564 2224197 2237813 2252774 2266285 2275284 2277177 2270985 
3408.874 2257533 2239583 2221056 2206082 2197918 2198160 2206490 2221020 
3412.731 2238896 2257192 2273474 2286247 2294854 2299234 2299490 2295849 
3416.588 2288436 2277664 2264178 2249009 2233631 2219515 2207926 2199647 
3420.446 2194873 2193388 2194687 2198528 2204661 2213006 2223219 2234517 
3424.303 2245416 2254015 2258181 2256459 2248329 2234838 2218232 2201623 
3428.161 2188089 2179948 2178029 2181587 2188571 2196434 2202707 2205982 
3432.018 2205749 2202793 2198381 2193911 2190374 2188164 2187155 2187046 
3435.875 2187515 2188573 2190313 2192793 2195759 2198552 2200098 2199411 
3439.733 2195880 2189792 2182383 2175597 2171459 2171637 2176628 2185799 
3443.590 2197359 2209072 2218729 2224925 2227078 2225814 2222208 2217755 
3447.448 2213741 2211118 2210488 2212177 2216233 2222818 2231924 2243330 
3451.305 2256493 2270369 2283426 2293873 2299852 2299917 2293359 2280616 
3455.163 2263141 2243524 2224858 2210314 2202382 2202398 2210367 2225003 
3459.020 2243959 2264843 2285351 2304180 2320675 2334975 2347381 2358008 
3462.877 2366600 2372408 2374383 2371868 2364630 2353576 2340386 2327403 
3466.735 2316996 2311124 2310710 2315652 2324459 2335101 2345431 2353861 
3470.592 2359678 2363557 2366830 2371412 2378637 2389079 2402062 2415891 
3474.450 2428533 2438476 2445098 2449101 2452180 2456536 2463715 2474411 
3478.307 2487840 2502410 2515954 2526853 2534274 2538495 2540535 2541814 
3482.165 2543527 2546496 2551015 2557225 2565211 2575300 2587907 2603396 
3486.022 2621758 2642444 2664372 2686132 2706325 2723785 2737767 2748222 
3489.879 2755408 2760063 2763212 2766033 2769749 2775481 2783938 2795239 
3493.737 2808748 2823217 2837161 2849186 2858655 2865765 2871674 2878127 
3497.594 2886850 2899049 2914761 2932901 2951451 2967915 2980009 2986263 
3501.452 2986213 2980743 2971557 2960901 2950881 2943192 2938519 2936899 
3505.309 2937706 2939921 2942552 2944745 2945636 2944489 2940249 2931871 
3509.167 2918443 2899596 2876065 2849758 2823686 2801284 2785587 2778420 
3513.024 2779702 2787529 2798737 2809617 2817001 2818835 2814475 2804442 
3516.881 2790052 2772870 2754392 2735876 2718341 2702465 2688724 2677080 
3520.739 2667072 2657786 2648070 2637106 2624525 2610789 2596873 2584118 
3524.596 2573522 2565489 2559640 2555203 2551227 2547121 2542787 2538583 
3528.454 2534996 2532252 2530053 2527570 2523646 2517022 2506709 2492208 
3532.311 2473280 2450293 2423915 2395273 2365833 2337497 2312094 2291255 
3536.168 2275895 2266025 2260757 2258722 2258566 2259468 2261334 2264654 
3540.026 2270069 2277878 2287405 2297398 2305931 2311141 2311801 2307575 
3543.883 2299093 2287749 2275091 2262717 2251807 2243029 2236550 2232251 
3547.741 2229477 2227657 2226182 2224815 2223733 2223617 2225256 2229020 
3551.598 2234527 2240288 2243984 2243285 2236482 2223596 2206587 2188918 
3555.456 2174663 2167048 2167569 2175584 2188526 2203158 2216325 2226122 
3559.313 2231999 2234312 2233729 2230573 2224734 2215949 2204421 2191274 
3563.170 2178400 2168301 2162823 2162528 2165947 2170158 2171553 2167042 
3567.028 2155207 2136790 2114500 2092219 2073758 2062041 2058304 2062298 
3570.885 2072468 2086599 2102342 2117623 2130666 2140280 2145622 2146392 
3574.743 2142707 2135238 2125101 2113760 2102766 2093607 2087162 2083923 
3578.600 2083422 2084737 2086460 2087150 2085796 2082121 2076737 2070822 
3582.458 2065761 2062538 2061180 2060807 2059604 2055777 2047905 2035710 
3586.315 2020154 2002922 1985904 1970473 1957001 1944983 1933373 1921483 
3590.172 1909206 1897395 1887329 1880224 1876393 1875126 1874523 1872581 
3594.030 1867458 1858500 1846359 1832721 1819527 1808512 1800146 1794190 
3597.887 1789451 1784770 1779486 1773718 1768419 1764868 1764066 1766366 
3601.745 1771382 1777981 1784810 1790724 1795034 1797521 1798389 1797869 
3605.602 1796067 1792984 1788607 1783201 1777467 1772228 1768451 1766667 
3609.459 1766625 1767418 1767666 1766292 1762777 1757772 1752948 1750289 
3613.317 1751491 1757125 1766369 1777397 1787689 1795319 1799254 1799822 
3617.174 1798280 1796301 1795340 1796294 1799396 1804658 1812153 1822455 
3621.032 1836304 1854455 1876827 1902440 1929448 1955387 1978029 1995974 
3624.889 2008768 2017198 2022407 2025779 2028264 2030226 2031725 2032592 
3628.747 2032594 2031634 2029541 2026204 2021563 2015763 2009206 2003160 
3632.604 1999050 1998462 2002336 2010808 2022808 2036618 2050164 2062030 
3636.461 2071763 2079962 2087955 2097258 2108824 2122885 2138517 2154301 
3640.319 2168329 2178828 2184388 2184531 2179596 2171050 2161462 2154124 
3644.176 2152328 2158917 2175021 2199814 2230461 2262789 2292337 2315594 
3648.034 2330888 2338557 2340608 2339727 2338428 2338418 2339979 2342756 
3651.891 2345755 2347894 2348130 2345726 2339929 2330507 2317888 2303423 
3655.749 2289546 2279304 2275623 2280077 2292193 2309219 2326619 2339413 
3659.606 2343388 2336399 2318801 2293249 2263672 2234116 2207782 2186417 
3663.463 2170351 2158774 2150161 2142862 2135304 2126464 2115824 2103619 
3667.321 2090747 2078501 2068456 2061660 2058286 2057571 2057903 2057569 
3671.178 2055227 2050704 2044750 2039041 2035118 2034103 2036009 2039939 
3675.036 2044129 2046765 2046009 2040689 2029975 2013658 1992019 1965899 
3678.893 1937100 1907940 1881209 1859298 1843540 1833665 1827784 1823063 
3682.750 1816552 1806310 1791822 1774196 1755333 1737320 1721253 1707184 
3686.608 1694038 1680420 1665060 1647449 1627676 1606616 1585196 1564637 
3690.465 1546099 1531214 1521783 1519845 1526787 1542625 1565771 1592672 
3694.323 1618755 1639359 1651175 1653159 1646496 1634572 1621223 1609839 
3698.180 1602351 1598773 1597558 1596318 1592700 1585181 1573351 1558126 
3702.038 1541350 1525364 1512521 1504593 1502460 1505802 1513309 1523172 
3705.895 1533473 1542983 1551516 1559978 1569670 1581798 1596262 1611501 
3709.752 1624548 1632023 1631229 1621318 1603742 1582126 1561005 1544601 
3713.610 1535646 1534839 1541040 1552250 1566186 1581321 1596747 1612016 
3717.467 1626246 1638117 1645684 1647105 1641281 1628484 1610741 1590967 
3721.325 1572485 1557710 1547515 1541452 1537816 1534939 1531600 1527712 
3725.182 1524022 1521690 1521476 1523592 1527429 1532190 1537139 1542152 
3729.040 1547552 1553790 1561054 1568631 1575099 1578749 1578066 1572663 
3732.897 1563476 1552600 1542634 1535889 1533589 1535798 1541444 1549092 
3736.754 1557341 1565518 1573310 1580967 1588638 1595911 1601935 1605608 
3740.612 1605953 1602442 1595401 1585703 1574939 1564987 1557550 1554507 
3744.469 1556911 1565530 1579890 1598642 1619231 1638398 1652580 1659078 
3748.327 1656393 1645264 1628474 1610250 1595375 1587712 1589384 1600383 
3752.184 1618630 1640702 1662682 1681101 1693168 1697333 1692937 1680331 
3756.042 1660745 1636228 1609535 1583831 1562022 1546458 1538359 1537713 
3759.899 1543431 1553716 1566797 1581091 1595338 1608647 1620046 1628451 
3763.756 1632716 1632119 1626470 1616801 1605063 1593739 1585160 1580788 
3767.614 1580877 1584520 1590107 1596275 1602255 1608363 1615495 1624711 
3771.471 1636491 1650245 1664382 1676769 1685471 1689451 1688782 1684854 
3775.329 1679432 1674313 1670432 1667852 1665764 1662929 1658323 1651643 
3779.186 1643279 1634445 1626621 1621186 1618964 1620094 1623920 1629152 
3783.043 1634246 1637556 1638031 1635162 1629443 1621949 1614227 1607870 
3786.901 1603830 1602248 1602236 1602339 1600831 1596560 1589245 1579633 
3790.758 1569145 1559200 1550838 1544238 1538764 1533429 1527446 1520725 
3794.616 1514105 1509145 1507459 1510303 1517756 1528881 1541889 1554634 
3798.473 1565262 1572475 1575864 1575670 1572755 1568175 1563135 1558807 
3802.331 1556232 1556252 1559247 1565094 1573257 1582837 1592902 1602882 
3806.188 1612457 1621793 1631017 1640053 1648314 1654666 1657731 1656423 
3810.045 1650385 1640304 1627837 1615341 1605216 1599488 1599346 1605034 
3813.903 1615814 1630197 1645951 1660420 1670757 1674225 1669033 1654694 
3817.760 1632342 1604789 1576008 1550137 1530661 1519499 1516574 1520112 
3821.618 1527166 1534593 1539899 1541640 1539674 1534766 1528245 1521813 
3825.475 1517042 1515430 1517898 1524884 1535685 1548756 1561742 1572029 
3829.333 1577670 1577805 1573200 1565979 1558873 1554302 1553421 1555706 
3833.190 1559465 1562238 1562191 1558682 1552593 1545939 1541104 1539913 
3837.047 1543006 1549719 1558372 1567143 1574710 1580596 1585239 1589651 
3840.905 1594784 1601242 1608846 1616798 1623802 1628429 1629483 1626304 
3844.762 1618983 1608458 1596555 1585704 1578492 1577043 1582375 1594132 
3848.620 1610424 1628189 1644119 1655456 1660688 1660020 1655021 1648062 
3852.477 1641372 1636331 1633003 1630603 1627635 1622925 1616060 1607749 
3856.334 1599256 1592257 1587979 1587029 1589112 1593260 1598338 1603367 
3860.192 1607828 1611774 1615463 1619269 1623140 1626754 1629284 1629862 
3864.049 1627855 1623300 1616870 1609908 1603889 1600092 1598830 1599625 
3867.907 1601066 1601317 1598929 1593446 1585776 1578207 1573626 1574599 
3871.764 1582267 1595907 1612790 1628993 1640445 1644265 1639622 1628093 
3875.622 1612828 1597860 1586338 1580078 1578900 1581184 1584533 1586987 
3879.479 1587470 1586278 1584529 1583843 1585507 1590040 1597172 1605825 
3883.336 1614571 1621904 1626354 1626556 1621338 1610075 1592597 1569905 
3887.194 1543999 1517974 1495612 1480616 1475964 1483115 1501503 1528911 
3891.051 1561560 1594914 1624793 1648043 1662952 1669659 1669592 1665316 
3894.909 1659554 1654624 1651831 1651345 1652253 1653123 1652584 1649971 
3898.766 1645597 1640544 1636259 1633969 1634027 1635587 1637185 1637009 
3902.624 1633673 1627034 1617911 1608174 1599871 1594609 1592886 1594049 
3906.481 1596559 1598480 1598273 1595268 1589831 1583255 1577332 1573971 
3910.338 1574504 1579355 1588012 1599132 1610831 1621146 1628571 1632333 
3914.196 1632586 1630076 1626099 1621768 1617828 1614491 1611322 1607839 
3918.053 1603516 1598314 1592612 1587172 1582674 1579709 1578553 1579193 
3921.911 1581420 1584933 1589536 1594927 1600634 1606107 1610807 1614471 
3925.768 1617282 1620015 1623813 1629713 1638178 1648589 1659266 1667936 
3929.625 1672308 1671001 1664171 1653433 1641457 1631267 1625101 1624077 
3933.483 1627631 1634305 1641993 1648697 1653072 1654565 1653306 1650058 
3937.340 1645703 1641255 1637714 1635807 1635928 1638039 1641456 1645268 
3941.198 1648080 1648875 1647046 1642843 1637095 1631240 1626717 1624620 
3945.055 1625412 1629029 1634850 1642100 1650011 1657951 1665272 1671525 
3948.913 1676143 1678725 1678944 1676928 1672956 1667661 1661770 1656062 
3952.770 1651332 1648201 1647331 1649265 1654254 1662038 1671398 1680417 
3956.627 1686526 1687340 1681256 1668259 1650002 1629796 1611349 1598117 
3960.485 1591994 1593075 1599694 1609322 1619391 1628230 1635374 1641340 
3964.342 1646950 1652748 1658493 1663285 1666141 1666542 1664887 1662607 
3968.200 1661734 1663994 1670251 1680241 1692626 1705585 1717499 1727370 
3972.057 1734917 1740246 1743463 1744193 1741904 1736050 1726656 1714627 
3975.915 1701691 1689923 1680974 1675323 1672226 1670033 1666988 1662052 
3979.772 1655477 1648821 1644174 1643374 1647089 1654695 1664434 1674323 
3983.629 1682695 1688883 1693153 1696251 1698764 1700836 1702176 1702315 
3987.487 1701320 1699911 1699276 1700816 1705267 1712401 1720994 1729294 
3991.344 1735781 1739838 1741611 1742076 1742046 1741721 1740408 1736901 
3995.202 1730118 1720059 1708072 1696711 1688986 1687197 1692162 1702988 
3999.059 1717430 1732787 1746677 1758094 
##END=
