##TITLE=eSUN_ABS+_Black_Filament_r3_ATR-Corrected
##JCAMP-DX=5.01  $$ Nicolet v. 1
##DATATYPE=INFRARED SPECTRUM
##ORIGIN=Curtin University
##OWNER=Nicolet
##LONGDATE=2024/07/18
##TIME=10:34:17
##SPECTROMETER/DATA SYSTEM=Nicolet iS50
##DATA PROCESSING=
Ratio against background
%Transmittance->Absorbance
ATR Correction
Truncated
ElementMultiply or ElementDivide
##COMMENTS=
Number of sample scans: 32
Collection length: 47.28 sec
Sample gain: 1.0
Background collected on: Thu Jul 18 10:32:45 2024 (GMT+08:00);
Number of background scans: 32
Background gain: 1.0
Sample spacing:  1.000
Number of scan points: 16672
Resolution points: 8192
Number of FFT points: 65536
Apodization: N-B strong;
Phase correction: Mertz;
Laser frequency: 15798.3 cm-1
Number of rejected sample scans: 0
Number of rejected background scans: 0
Bench serial number: AUP1200105;
##RESOLUTION=4.000
##XUNITS=1/CM
##YUNITS=ABSORBANCE
##FIRSTX=400.163452
##LASTX=4000.187744
##FIRSTY=0.023856
##MAXX=4000.187744
##MINX=400.163452
##MAXY=0.366085
##MINY=0.000569
##XFACTOR=1.000000
##YFACTOR=1.000000E-009
##NPOINTS=7468
##DELTAX=0.482125
##ZPD=8192
##XYDATA=(X++(Y..Y))
400.163 23855890 24278930 24630022 24852636 24916288 24824840 24608790 
403.538 24314876 23994620 23694036 23449698 23283842 23203454 23199554 
406.913 23251194 23329790 23408712 23468938 23502726 23510316 23493816 
410.288 23447804 23356200 23193956 22937238 22575734 22123622 21619142 
413.663 21117282 20672054 20319208 20065622 19891304 19762490 19649796 
417.038 19543506 19460430 19437070 19513698 19715988 20040988 20453696 
420.412 20896178 21301694 21612506 21791804 21829084 21738342 21552098 
423.787 21310836 21055106 20816828 20615500 20455760 20330626 20225638 
427.162 20127252 20029078 19936698 19864808 19830566 19842896 19893920 
430.537 19956804 19992996 19965954 19857172 19678294 19467040 19279366 
433.912 19169074 19169182 19280410 19472304 19696244 19902322 20054896 
437.286 20139964 20161898 20134720 20071788 19981550 19868590 19740522 
440.661 19614362 19518046 19484078 19539324 19693570 19933910 20227430 
444.036 20531094 20805574 21025520 21183856 21287700 21350806 21384862 
447.411 21395980 21385656 21355114 21310824 21265232 21234078 21231388 
450.786 21262664 21323404 21399180 21470488 21517356 21523022 21475398 
454.161 21367942 21200186 20980714 20730478 20483764 20285788 20182994 
457.535 20211046 20382106 20678994 21057838 21459436 21826204 22117490 
460.910 22318852 22440792 22510584 22558166 22605578 22663128 22727752 
464.285 22792050 22849742 22898878 22940826 22976172 23002460 23013732 
467.660 23004956 22976584 22938960 22910810 22912818 22958548 23046424 
471.035 23156940 23257480 23312784 23298082 23208342 23061430 22892506 
474.409 22743152 22648150 22625900 22673762 22769914 22880648 22970790 
477.784 23011980 22989882 22905794 22775606 22623922 22478230 22361946 
481.159 22290330 22268176 22292264 22354564 22447686 22567566 22713790 
484.534 22886500 23081402 23286056 23479458 23636132 23733898 23762150 
487.909 23727512 23653010 23571950 23516996 23509358 23551896 23629226 
491.284 23714702 23782030 23816014 23820296 23817120 23841026 23927710 
494.658 24101688 24367166 24704574 25073122 25419734 25690970 25846752 
498.033 25869810 25770700 25584800 25362750 25156796 25006634 24930174 
501.408 24920414 24951154 24988412 25003560 24984152 24937820 24888944 
504.783 24869142 24905656 25012168 25185476 25407710 25653362 25897602 
508.158 26123102 26323258 26501592 26668300 26836112 27016726 27217748 
511.532 27441748 27685868 27942312 28200778 28450548 28684758 28903112 
514.907 29113206 29329606 29569522 29847756 30172674 30544934 30960140 
518.282 31414334 31908930 32453428 33062998 33751076 34520844 35358036 
521.657 36230040 37091480 37895948 38608688 39217100 39733340 40189760 
525.032 40628376 41086992 41589372 42140824 42729848 43335340 43935256 
528.406 44514192 45066848 45597864 46117728 46638576 47169004 47712412 
531.781 48265748 48821572 49370024 49902184 50412504 50900804 51372516 
535.156 51838500 52312276 52807732 53335412 53900316 54500332 55126684 
538.531 55764812 56396864 57003988 57569016 58078488 58524708 58907804 
541.906 59235596 59523980 59794208 60068704 60367084 60701396 61073896 
545.281 61478004 61901508 62332420 62765108 63202688 63657528 64146660 
548.655 64684704 65275960 65910072 66560908 67191880 67764520 68249416 
552.030 68633456 68923864 69144320 69326984 69500648 69681288 69866200 
555.405 70034920 70156288 70197400 70134288 69958064 69676632 69311072 
558.780 68889128 68437752 67977064 67517640 67059784 66595084 66108152 
562.155 65578752 64984164 64300844 63507208 62586768 61530556 60338800 
565.529 59021224 57596164 56088548 54528292 52948936 51386748 49879796 
568.904 48465440 47177612 46042772 45076296 44281020 43647408 43156648 
572.279 42785072 42508260 42304068 42153072 42037864 41940828 41842660 
575.654 41722564 41559720 41335776 41038212 40662444 40212812 39702496 
579.029 39152448 38588700 38038892 37528536 37075828 36688272 36360136 
582.404 36073972 35803936 35522728 35208336 34849864 34449732 34022452 
585.778 33589808 33175052 32797922 32470204 32195016 31967368 31775332 
589.153 31602316 31428974 31236712 31010992 30746018 30447192 30132010 
592.528 29826290 29556952 29343768 29192580 29092538 29020324 28947860 
595.903 28852872 28725932 28572464 28408698 28252664 28115402 27995986 
599.278 27882238 27757128 27607344 27431054 27239854 27054566 26897264 
602.652 26781996 26709402 26665858 26629596 26578996 26500896 26395590 
606.027 26276226 26164258 26082048 26046042 26062244 26125508 26221324 
609.402 26329840 26430364 26504782 26541044 26534076 26486148 26405860 
612.777 26306042 26201396 26105454 26028900 25979282 25961512 25979768 
616.152 26038816 26143848 26299366 26505668 26756348 27036120 27321538 
619.527 27583976 27794714 27930124 27975906 27929156 27797766 27597676 
622.901 27350082 27077952 26803090 26545022 26319380 26136974 26003194 
626.276 25918280 25877752 25874070 25898720 25944042 26004876 26077896 
629.651 26161330 26252686 26348266 26442116 26527180 26596572 26645232 
633.026 26671136 26675028 26659734 26628298 26583124 26525082 26453854 
636.401 26369064 26271574 26164046 26051436 25940318 25837394 25748198 
639.775 25676272 25622686 25586794 25566870 25562090 25572730 25600566 
643.150 25648174 25717390 25807982 25915702 26033124 26149978 26256422 
646.525 26345470 26415936 26473286 26528920 26596672 26688830 26812006 
649.900 26964396 27136780 27315054 27485672 27640554 27780462 27915162 
653.275 28060248 28231464 28438008 28678866 28941518 29205338 29447900 
656.650 29652280 29812834 29937592 30045954 30163564 30314480 30515162 
660.024 30770308 31073248 31409550 31762722 32119532 32474388 32829736 
663.399 33194434 33579388 33993460 34439760 34914204 35406404 35902584 
666.774 36389136 36856740 37302008 37728700 38145684 38563928 38993088 
670.149 39438616 39900948 40376448 40860584 41350376 41847136 42356808 
673.524 42887268 43445708 44034392 44649536 45281908 45920536 46557580 
676.898 47192420 47833124 48494216 49192036 49938344 50736668 51580972 
680.273 52458908 53358316 54274248 55214040 56198324 57258060 58427932 
683.648 59739688 61216368 62870988 64708860 66732400 68948184 71372568 
687.023 74035680 76983256 80276960 83994616 88230720 93098776 98733824 
690.398 105294800 112964496 121944376 132445024 144668240 158783024 
693.290 174894416 193006976 212983888 234507456 257046912 279845280 
696.183 301939648 322228160 339593888 353064800 361977216 366084800 
699.076 365572544 360974272 353029216 342535264 330236096 316759968 
701.969 302601408 288131104 273616288 259242736 245133456 231362880 
704.861 217970096 204970864 192369440 180168960 168377632 157011840 
707.754 146093984 135648496 125697848 116260808 107352888 98989264 91187712 
711.129 83969688 77358600 71375696 66034308 61333932 57256892 53767592 
714.504 50814432 48335016 46261844 44529064 43076980 41856148 40828344 
717.878 39966060 39249928 38665240 38198804 37836048 37559980 37352004 
721.253 37194008 37071860 36978312 36914856 36890436 36918856 37014084 
724.628 37185600 37435228 37756908 38138484 38565784 39027280 39516208 
728.003 40031852 40577640 41158172 41776228 42431916 43122980 43847592 
731.378 44606924 45407384 46259568 47176008 48166660 49234560 50373100 
734.752 51566304 52791776 54025812 55249648 56453376 57637776 58812304 
738.127 59991036 61186816 62406644 63649996 64909800 66177124 67446520 
741.502 68721048 70014368 71348784 72751432 74248080 75858584 77594368 
744.877 79459936 81455528 83581424 85839952 88234768 90769136 93441904 
748.252 96246368 99170632 102201680 105329144 108549072 111863208 115274640 
751.627 118781560 122370248 126012504 129667104 133285536 136819776 
754.519 140228224 143477520 146539760 149386464 151983328 154287312 
757.412 156248896 157817280 158948128 159608864 159782528 159467344 
760.305 158675488 157430656 155766880 153726352 151358112 148713616 
763.197 145842672 142788864 139586432 136261392 132834632 129327120 
766.090 125763688 122175496 118597192 115062736 111599576 108224880 
768.983 104944000 101753272 98643304 95604304 92628512 89711480 86851896 
772.358 84050336 81308232 78628360 76015552 73477560 71024080 68665848 
775.732 66411756 64266904 62230768 60298108 58459392 56703496 55018860 
779.107 53395436 51825248 50303244 48828292 47404180 46039172 44745052 
782.482 43534012 42414892 41389492 40451592 39587740 38781376 38017740 
785.857 37288220 36591708 35933244 35319936 34756164 34241368 33769044 
789.232 33329648 32914012 32516188 32134730 31770762 31425946 31099840 
792.606 30789512 30491042 30201978 29923654 29661846 29424966 29221494 
795.981 29056850 28932626 28846826 28796646 28780300 28798496 28853164 
799.356 28945224 29072510 29228692 29404724 29592556 29788522 29995772 
802.731 30224792 30490554 30808122 31188470 31635356 32144662 32705396 
806.106 33302366 33918968 34539860 35153844 35755848 36348340 36941424 
809.481 37550928 38193884 38883528 39623384 40404140 41203972 41993428 
812.855 42742128 43426892 44036132 44570428 45039756 45456752 45831132 
816.230 46166860 46462580 46715240 46924724 47097032 47244844 47385084 
819.605 47535508 47710892 47922404 48177252 48482184 48845272 49277484 
822.980 49792500 50405256 51129768 51977996 52957684 54071432 55314700 
826.355 56673184 58120512 59617628 61114864 62557264 63892692 65079436 
829.729 66091576 66920616 67571528 68056616 68387624 68571304 68607824 
833.104 68494000 68227912 67814952 67269216 66613732 65876336 65085388 
836.479 64265540 63435904 62610620 61800280 61013996 60260892 59549484 
839.854 58887152 58278852 57726388 57228040 56779196 56372248 55996912 
843.229 55639920 55285524 54916604 54516388 54070648 53569652 53008928 
846.604 52388836 51711932 50981836 50201140 49371264 48494324 47574184 
849.978 46618304 45637736 44645820 43655572 42677888 41719704 40784716 
853.353 39874488 38991064 38138412 37322776 36551388 35829944 35160000 
856.728 34537404 33952404 33392198 32845120 32304666 31773000 31261512 
860.103 30788822 30375014 30035832 29776378 29588258 29450256 29333880 
863.478 29211280 29063980 28888338 28697408 28515680 28371610 28287244 
866.852 28270942 28314388 28396038 28488568 28568876 28625836 28664100 
870.227 28701298 28762266 28870028 29038688 29270386 29555680 29878524 
873.602 30222198 30574046 30927916 31283468 31643822 32012160 32389906 
876.977 32776516 33170432 33571388 33981872 34407852 34857944 35341908 
880.352 35868968 36445808 37075672 37756960 38483068 39241740 40016052 
883.727 40785400 41527744 42223412 42857676 43422480 43916444 44342584 
887.101 44703308 44997404 45215780 45341968 45354048 45230468 44955544 
890.476 44524352 43945952 43242080 42445020 41591824 40720296 39864200 
893.851 39051948 38305432 37640864 37070144 36601088 36237864 35981620 
897.226 35831784 35786960 35847616 36017860 36306804 36727168 37293192 
900.601 38016772 38903504 39950488 41146028 42471292 43904544 45424472 
903.975 47012500 48653428 50333200 52036060 53741444 55423284 57050188 
907.350 58588692 60006028 61273504 62366372 63264788 63951804 64413324 
910.725 64638428 64622276 64368144 63889956 63211524 62363644 61379092 
914.100 60287228 59110552 57863892 56556412 55196252 53794312 52367376 
917.475 50937296 49528804 48164768 46862836 45632416 44475676 43388684 
920.849 42365640 41401376 40493548 39642708 38851160 38121332 37454316 
924.224 36848744 36300976 35806016 35358776 34954672 34591384 34268232 
927.599 33986476 33748664 33557760 33416342 33326230 33287528 33298962 
930.974 33357882 33460836 33603624 33781304 33988120 34216620 34458012 
934.349 34702288 34938792 35158340 35354240 35524268 35670624 35800320 
937.724 35923176 36050348 36191660 36354060 36539712 36746908 36969756 
941.098 37201496 37435828 37669668 37904256 38145144 38399624 38674688 
944.473 38973548 39293932 39628196 39965988 40297648 40619292 40934764 
947.848 41256308 41601636 41989564 42435192 42946400 43523576 44162148 
951.223 44856368 45604596 46411828 47290664 48259168 49337436 50543904 
954.598 51892324 53390776 55042604 56848100 58806212 60916360 63178240 
957.972 65591708 68154408 70859856 73694672 76635912 79650216 82693536 
961.347 85713024 88650568 91447536 94048888 96405984 98478152 100231944 
964.722 101639896 102679712 103335056 103597248 103467360 102958024 
967.615 102093216 100905720 99434008 97717768 95795696 93703984 91476552 
970.990 89146736 86747464 84311864 81871736 79455904 77089360 74792632 
974.364 72582872 70475880 68487008 66631504 64923048 63371644 61980832 
977.739 60746780 59658376 58699396 57851472 57097956 56424780 55822336 
981.114 55284596 54808708 54393568 54040236 53751480 53531604 53385400 
984.489 53317324 53329744 53421544 53588276 53822816 54116500 54460908 
987.864 54849008 55274704 55732472 56216492 56719448 57232048 57743424 
991.239 58240992 58712292 59144664 59526784 59849504 60106512 60295700 
994.613 60419744 60486300 60508700 60505584 60501112 60525144 60613508 
997.988 60806804 61147636 61675960 62422816 63403340 64611988 66020800 
1001.363 67580768 69229872 70900744 72530400 74067176 75474008 76729240 
1004.738 77824208 78760560 79547864 80203152 80751800 81230120 81688816 
1008.113 82195952 82839760 83728864 84988456 86749736 89131520 92215552 
1011.487 96015832 100451392 105326368 110330048 115060264 119072336 
1014.380 121947760 123366912 123167800 121372704 118174936 113892336 
1017.273 108902280 103577744 98240096 93133880 88423160 84202024 80511744 
1020.648 77357984 74723296 72575376 70873720 69572552 68626104 67991216 
1024.022 67630712 67512016 67603912 67871080 68269416 68742528 69223944 
1027.398 69642080 69928472 70025280 69891544 69505016 68860944 67968672 
1030.773 66848060 65527088 64040496 62429540 60741468 59026876 57336652 
1034.148 55716504 54203720 52823336 51588900 50503988 49565964 48768800 
1037.523 48105424 47567756 47145756 46826144 46592064 46424388 46304908 
1040.899 46218396 46155840 46113792 46093284 46096400 46123376 46170308 
1044.274 46230024 46293268 46352400 46402992 46446004 46486380 46531664 
1047.649 46589588 46666004 46764204 46885128 47027916 47189800 47366872 
1051.024 47554080 47745480 47936008 48122488 48306088 48492876 48693496 
1054.400 48920488 49185164 49493804 49845972 50234884 50650232 51081704 
1057.775 51522992 51973548 52438316 52925608 53443808 53998736 54592480 
1061.150 55223536 55888584 56583552 57304556 58047392 58806548 59573716 
1064.525 60338356 61088296 61811988 62501004 63151472 63764200 64343596 
1067.901 64895652 65424824 65933712 66421276 66884420 67320320 67728408 
1071.276 68113672 68489456 68878784 69316144 69846440 70522688 71401968 
1074.651 72539552 73981240 75755984 77869144 80295424 82976440 85818336 
1078.026 88695880 91458248 93941224 95981808 97436536 98197992 98208320 
1081.402 97466272 96024608 93980944 91462016 88607456 85554560 82427992 
1084.777 79333728 76357464 73564952 71003560 68703808 66681208 64937668 
1088.152 63463704 62241496 61247556 60455876 59840116 59374876 59036636 
1091.527 58804792 58661748 58595084 58597664 58668924 58813052 59037364 
1094.903 59348740 59750324 60239304 60806152 61436072 62111228 62813864 
1098.278 63527428 64237648 64931160 65593488 66207760 66754608 67213248 
1101.653 67565376 67797992 67906592 67897232 67784984 67591816 67342416 
1105.028 67059824 66761776 66459416 66156192 65850280 65535500 65203844 
1108.404 64846976 64456044 64022264 63536996 62992752 62384520 61711948 
1111.779 60980512 60201692 59392036 58569560 57750968 56948592 56169484 
1115.154 55415624 54686772 53982604 53305156 52659140 52050524 51484612 
1118.529 50964200 50489312 50057556 49666716 49317116 49012548 48759824 
1121.905 48566236 48436500 48369912 48359936 48395820 48466116 48562672 
1125.280 48683284 48831448 49015152 49241488 49513740 49828864 50177924 
1128.655 50549084 50932064 51320948 51716624 52125360 52556280 53017344 
1132.030 53513340 54044996 54610588 55208708 55840208 56509584 57223312 
1135.406 57987912 58807184 59680204 60602756 61568344 62572456 63614248 
1138.781 64698876 65835512 67035720 68310056 69665944 71106752 72633152 
1142.156 74244632 75942608 77731576 79619600 81617600 83737728 85992288 
1145.531 88392872 90949888 93674192 96576800 99670384 102967824 106483032 
1148.906 110228736 114215984 118452448 122941520 127681416 132664888 
1151.800 137879152 143307936 148933344 154739344 160714768 166856064 
1154.693 173168208 179663232 186356512 193261200 200381584 207706688 
1157.586 215203536 222813152 230446176 237981040 245263280 252108608 
1160.479 258308944 263643680 267896656 270874144 272425056 272455808 
1163.372 270938784 267913040 263476784 257776144 250991584 243324576 
1166.265 234987744 226193904 217149856 208049472 199070000 190369808 
1169.158 182086704 174338912 167224272 160819200 155178128 150331936 
1172.051 146288720 143034944 140540224 138761856 137649568 137149536 
1174.944 137206048 137762192 138758224 140132272 141819984 143757664 
1177.837 145885984 148154816 150528688 152990464 155543984 158215632 
1180.730 161052464 164120176 167496704 171266384 175510928 180300944 
1183.623 185688752 191701920 198340336 205573984 213344272 221564128 
1186.516 230120256 238876336 247675952 256350016 264724912 272633120 
1189.409 279924512 286473248 292181856 296979360 300816224 303659296 
1192.302 305488128 306295424 306090784 304902816 302781376 299792288 
1195.196 296011936 291519552 286391232 280698464 274509952 267894448 
1198.089 260924608 253677520 246232432 238668512 231060544 223478720 
1200.982 215988288 208651408 201529680 194685456 188182080 182083200 
1203.875 176450896 171343584 166814096 162906592 159654272 157077408 
1206.768 155181568 153958224 153387152 153439936 154084768 155291424 
1209.661 157032096 159282576 162018128 165210768 168825056 172817808 
1212.554 177139344 181737872 186563664 191572048 196723680 201982032 
1215.447 207309504 212663808 217997184 223258512 228396960 233367920 
1218.340 238135936 242676032 246971696 251011408 254784160 258277632 
1221.233 261476432 264364272 266926560 269153664 271043232 272601472 
1224.126 273841664 274783840 275449632 275861184 276037824 275995904 
1227.019 275749664 275312512 274698752 273924704 273007584 271964512 
1229.912 270809184 269551648 268197088 266748848 265210208 263587056 
1232.805 261888800 260127840 258317552 256469184 254591440 252688496 
1235.698 250762368 248813696 246843744 244854592 242848912 240829008 
1238.592 238795568 236747472 234682160 232596608 230487856 228354016 
1241.485 226194032 224007792 221795456 219558032 217296048 215009856 
1244.378 212699040 210360352 207986896 205568144 203089232 200533568 
1247.271 197885360 195131840 192265920 189287136 186200592 183016080 
1250.164 179744928 176397872 172983504 169506816 165970032 162372608 
1253.057 158714224 154996720 151224928 147408960 143562976 139704512 
1255.950 135851520 132021768 128230560 124491352 120816920 117220248 
1258.843 113715680 110318800 107044768 103907056 100915688 98076432 95391152 
1262.218 92859384 90479048 88247840 86162736 84220200 82414416 80738184 
1265.594 79182288 77737576 76395640 75150048 73996456 72931928 71954584 
1268.969 71062032 70251520 69520160 68864976 68282944 67771592 67327328 
1272.344 66945792 66621468 66347844 66119200 65930172 65777660 65659508 
1275.719 65573752 65517576 65486872 65475872 65479196 65493188 65516472 
1279.094 65551280 65601760 65672480 65766640 65884240 66022484 66176272 
1282.470 66339536 66506236 66671640 66832432 66986984 67135992 67282536 
1285.845 67432168 67592032 67769104 67966808 68183208 68408488 68626648 
1289.220 68817608 68962520 69047720 69068144 69027080 68933648 68798928 
1292.595 68631216 68433512 68203408 67935200 67622464 67261608 66854024 
1295.971 66405728 65927112 65431380 64932592 64444668 63979328 63546024 
1299.346 63149484 62790172 62463780 62163916 61883816 61619948 61373856 
1302.721 61152328 60966204 60826660 60742116 60715392 60743128 60816708 
1306.096 60924772 61056112 61200236 61348292 61491640 61620600 61723588 
1309.472 61788072 61801144 61751872 61632944 61441796 61180580 60856584 
1312.847 60480820 60068616 59636980 59203924 58785584 58393804 58033904 
1316.222 57704376 57398064 57105920 56820372 56539404 56267084 56012920 
1319.597 55788560 55602780 55459440 55355160 55280316 55223128 55172076 
1322.973 55120100 55064368 55006996 54951940 54903988 54865864 54839036 
1326.348 54822876 54816256 54818092 54827652 54843968 54865380 54888876 
1329.723 54909704 54922196 54920336 54899192 54857028 54795948 54722536 
1333.098 54647820 54585480 54549020 54549352 54591844 54675496 54793208 
1336.474 54934476 55088464 55247748 55410328 55579688 55763164 55968004 
1339.849 56198644 56454492 56729056 57012344 57293624 57564364 57820364 
1343.224 58062076 58293944 58522880 58755344 58996616 59249236 59513228 
1346.599 59786868 60066592 60348512 60628532 60903312 61169844 61426224 
1349.975 61671592 61905752 62128456 62339920 62540272 62729784 62908940 
1353.350 63079796 63246012 63413412 63590364 63788272 64020416 64301452 
1356.725 64646840 65070608 65584736 66197932 66914440 67733256 68647976 
1360.100 69645592 70705368 71796968 72880128 73903384 74808032 75531672 
1363.476 76016424 76217456 76110432 75695928 75000280 74070992 72969272 
1366.851 71761272 70508944 69264512 68066736 66941552 65904504 64963260 
1370.226 64120112 63373244 62716776 62140056 61628988 61166800 60737176 
1373.601 60326892 59927604 59536220 59153980 58782784 58424200 58076352 
1376.977 57735896 57398776 57063884 56734880 56421844 56139468 55904276 
1380.352 55731344 55630120 55602948 55644704 55743612 55884236 56049004 
1383.727 56219804 56379424 56510376 56595604 56618224 56562992 56418372 
1387.102 56177652 55841120 55415912 54914820 54354688 53753796 53130028 
1390.478 52499756 51876408 51271616 50694028 50150424 49645592 49182360 
1393.853 48762272 48385580 48051840 47760388 47510244 47300084 47128880 
1397.228 46993808 46892636 46822336 46780576 46766956 46783372 46834560 
1400.603 46927228 47069616 47269620 47533200 47863752 48260536 48720088 
1403.979 49234768 49794432 50386652 50996876 51608836 52205600 52769712 
1407.354 53285080 53738488 54120576 54427920 54661912 54828596 54936068 
1410.729 54992576 55003756 54972456 54897992 54778796 54614792 54409904 
1414.104 54172380 53914724 53650972 53393196 53149324 52920724 52703772 
1417.479 52491340 52276140 52053044 51820928 51582456 51343652 51112860 
1420.855 50900676 50719280 50583892 50511904 50521556 50629676 50849144 
1424.230 51186356 51642216 52213144 52895388 53687480 54591724 55612972 
1427.605 56755572 58019848 59400384 60885580 62460648 64110480 65822444 
1430.980 67586264 69392896 71232104 73091608 74957424 76816648 78661632 
1434.356 80491968 82315136 84143560 85990824 87867528 89779528 91729336 
1437.731 93719856 95757944 97857656 100039344 102327360 104746712 107318208 
1441.106 110057744 112975800 116078720 119369840 122850840 126519768 
1443.999 130370456 134392064 138569248 142884608 147323808 151879488 
1446.892 156555616 161370064 166352592 171537968 176949184 182576224 
1449.785 188347120 194099616 199564432 204367248 208057152 210165472 
1452.678 210280384 208121328 203592256 196800272 188041280 177758592 
1455.572 166490128 154806976 143254976 132300928 122294016 113448680 
1458.465 105849136 99473192 94223824 89961624 86530488 83775440 81554096 
1461.840 79741936 78235344 76950832 75824752 74808824 73867248 72973160 
1465.215 72104848 71245184 70381776 69507960 68624200 67738800 66866048 
1468.590 66023468 65226420 64483576 63791952 63134544 62481112 61792892 
1471.966 61030396 60162108 59173956 58074196 56893128 55677868 54483816 
1475.341 53363456 52358712 51495744 50784500 50222536 49799480 49503464 
1478.716 49325468 49260480 49307664 49470428 49754208 50167880 50723392 
1482.091 51436548 52326656 53415440 54725056 56277528 58094052 60196180 
1485.467 62609584 65367944 68518272 72127456 76286528 81112232 86742192 
1488.842 93318568 100959944 109720744 119543480 130214216 141336912 
1491.735 152335984 162501520 171071136 177343328 180794752 181177456 
1494.628 178569216 173361488 166187920 157813264 149011824 140464112 
1497.521 132689968 126025720 120635024 116540352 113663400 111862008 
1500.414 110960632 110771328 111109808 111804392 112701968 113669896 
1503.307 114593936 115375160 115924712 116161936 116013488 115417064 
1506.200 114326352 112715984 110585192 107957488 104878400 101410344 
1509.093 97629544 93621208 89476232 85286680 81139848 77112376 73264448 
1512.469 69636224 66248484 63105716 60202044 57526500 55067972 52816680 
1515.844 50765244 48906108 47231420 45730296 44389440 43192560 42122140 
1519.219 41160132 40289972 39497856 38774172 38113688 37514972 36978684 
1522.594 36504708 36090420 35729944 35414936 35135780 34885004 34658300 
1525.969 34454804 34276856 34126436 34004072 33906756 33827864 33758904 
1529.345 33691824 33620808 33543780 33462498 33381592 33306506 33243072 
1532.720 33195186 33165154 33153046 33157482 33175870 33205320 33243130 
1536.095 33287432 33337004 33391528 33450682 33513792 33579664 33646544 
1539.470 33712180 33774948 33834540 33891260 33946084 33999752 34052212 
1542.846 34103092 34151520 34196632 34239572 34282100 34327116 34377288 
1546.221 34434384 34498960 34570424 34647608 34729852 34817400 34911004 
1549.596 35012292 35122744 35244308 35379448 35531708 35705284 35904440 
1552.971 36130804 36381872 36648652 36916404 37166180 37378220 37535952 
1556.347 37627444 37647228 37595060 37474228 37289948 37048700 36758136 
1559.722 36427984 36070584 35700124 35332212 34980780 34657428 34369268 
1563.097 34119396 33907152 33729036 33579944 33454210 33345640 33247742 
1566.472 33155308 33063370 32969360 32873180 32777280 32686352 32606438 
1569.848 32544330 32506362 32497994 32524678 32590374 32697804 32848168 
1573.223 33040174 33270604 33534986 33828836 34150020 34499920 34884708 
1576.598 35315192 35805980 36374068 37036988 37810512 38706288 39727448 
1579.973 40864496 42091600 43363836 44619140 45783880 46781688 47545028 
1583.349 48025652 48203096 48087444 47717916 47155652 46474620 45750160 
1586.724 45049624 44426848 43918404 43544324 43311288 43215792 43249028 
1590.099 43400596 43659656 44017048 44463828 44991196 45590268 46253280 
1593.474 46976896 47764316 48629340 49595988 50696984 51969308 53447052 
1596.850 55153884 57097464 59263836 61614892 64087228 66593088 69023552 
1600.225 71254752 73157232 74608608 75506920 75783248 75410824 74408120 
1603.600 72835528 70786168 68372840 65714776 62926516 60108664 57346612 
1606.975 54707988 52244632 49992736 47973040 46191784 44641728 43305072 
1610.351 42157532 41172372 40324368 39590708 38953064 38396740 37910052 
1613.726 37484888 37116076 36800916 36538368 36326440 36161252 36034672 
1617.101 35935276 35850608 35770072 35686952 35600068 35511616 35425824 
1620.476 35345520 35270204 35197780 35124532 35048192 34970168 34895440 
1623.852 34831800 34786620 34766068 34772424 34804864 34859852 34933156 
1627.227 35020208 35116908 35220520 35329704 35446164 35575088 35726136 
1630.602 35912476 36148844 36448752 36821400 37270320 37792932 38381792 
1633.977 39026548 39714108 40429208 41153108 41860552 42521084 43099944 
1637.353 43562156 43877544 44025280 43997924 43802028 43456372 42989336 
1640.728 42433768 41821636 41181040 40533344 39893292 39270540 38672300 
1644.103 38105416 37577832 37098224 36675532 36315792 36020456 35785076 
1647.478 35599032 35448324 35318332 35197752 35080680 34967800 34864804 
1650.854 34779612 34718960 34685844 34678788 34692696 34720584 34756416 
1654.229 34796176 34838600 34883180 34929212 34975448 35019684 35060720 
1657.604 35098660 35135340 35174068 35218404 35269920 35329384 35395060 
1660.979 35465796 35540680 35620068 35705108 35795592 35889724 35983440 
1664.354 36071944 36150696 36217956 36275100 36325832 36374316 36422832 
1667.730 36470320 36512540 36543448 36557492 36552052 36526880 36484976 
1671.105 36430476 36366736 36296380 36221684 36144728 36069192 36000028 
1674.480 35942600 35901056 35877568 35870628 35876220 35889044 35903104 
1677.855 35914000 35917900 35912148 35895224 35867704 35831628 35792372 
1681.231 35757708 35736544 35736072 35760252 35807452 35870672 35939792 
1684.606 36004308 36057252 36096612 36125132 36149140 36174972 36207700 
1687.981 36249416 36300448 36360148 36427588 36502188 36582996 36668224 
1691.356 36754852 36839704 36920780 36998652 37077928 37166508 37273636 
1694.732 37406760 37569648 37759508 37968740 38186956 38404876 38616572 
1698.107 38822272 39027180 39240148 39471048 39728528 40017272 40338188 
1701.482 40687820 41061288 41453456 41860956 42283768 42724396 43187956 
1704.857 43680516 44207184 44770456 45371064 46006936 46675736 47376132 
1708.233 48108596 48876324 49685140 50542992 51458740 52443060 53507552 
1711.608 54664864 55928124 57308840 58814508 60447776 62205548 64081356 
1714.983 66068724 68165120 70374960 72709736 75184640 77814728 80608128 
1718.358 83563240 86669064 89907256 93257912 96703480 100231944 103834424 
1721.734 107503584 111228592 114992880 118773488 122542848 126272600 
1724.627 129935280 133505944 136961408 140278368 143431280 146392144 
1727.520 149131376 151620928 153836544 155759424 157378128 158686496 
1730.413 159683616 160370288 160748240 160817760 160576192 160018928 
1733.306 159140192 157935936 156406592 154559056 152406368 149964528 
1736.199 147248864 144270448 141036736 137553936 133832696 129894016 
1739.092 125773656 121519656 117189000 112839344 108522888 104283480 
1741.985 100155288 96167600 92346272 88716376 85300464 82116408 79174680 
1745.360 76477600 74019576 71790848 69781264 67983712 66394984 65015540 
1748.736 63847220 62889980 62140212 61588540 61221784 61023852 60978212 
1752.111 61070104 61288476 61626916 62083532 62660024 63361532 64195872 
1755.486 65170952 66295320 67575872 69018584 70628248 72410032 74371736 
1758.861 76523464 78879240 81455328 84267328 87326680 90637240 94193520 
1762.237 97979960 101973048 106143288 110459904 114892440 119412072 
1765.130 123991248 128602552 133215096 137794768 142303152 146698192 
1768.023 150936832 154977840 158783488 162321968 165566480 168496048 
1770.916 171092224 173339024 175222384 176730320 177854176 178590896 
1773.809 178943808 178923344 178545520 177832032 176807904 175498912 
1776.702 173930416 172124960 170100624 167870272 165441936 162821904 
1779.595 160016224 157035136 153893664 150611616 147210384 143710608 
1782.488 140128432 136474960 132758528 128988240 125177040 121344576 
1785.381 117516000 113718864 109977248 106308096 102718600 99207336 95767272 
1788.756 92390000 89070616 85810392 82616640 79503480 76488432 73590640 
1792.132 70826368 68207208 65737672 63415168 61230952 59173292 57232488 
1795.507 55402368 53682328 52076548 50589824 49223200 47971408 46820876 
1798.882 45753844 44751368 43798668 42889988 42028296 41223424 40487672 
1802.257 39829948 39252192 38748824 38306268 37907516 37536048 37178868 
1805.633 36827732 36481092 36140692 35810972 35495880 35197732 34915700 
1809.008 34646148 34383064 34120744 33854240 33582420 33306982 33032938 
1812.383 32765676 32508806 32261654 32019648 31775266 31521756 31257432 
1815.758 30988366 30729074 30501328 30326956 30222856 30194130 30231752 
1819.134 30313292 30408660 30486536 30522950 30504442 30431292 30314950 
1822.509 30173722 30026356 29887350 29761970 29646390 29528252 29393316 
1825.884 29230144 29037538 28826806 28620976 28448798 28335634 28293942 
1829.259 28316664 28376018 28430442 28434664 28354376 28176272 27912290 
1832.635 27596456 27275116 26994212 26787792 26670690 26636396 26661568 
1836.010 26713106 26754664 26755016 26692162 26555802 26349636 26089590 
1839.385 25803058 25523144 25281830 25103272 24996790 24955488 24956982 
1842.760 24972208 24972124 24938450 24865864 24761978 24642540 24525074 
1846.135 24423010 24344872 24296092 24282370 24310608 24389866 24526464 
1849.511 24718440 24951650 25200610 25430080 25606534 25703154 25709150 
1852.886 25630654 25490076 25321044 25162170 25050408 25015696 25075352 
1856.261 25231044 25466456 25749446 26036678 26281920 26447994 26516664 
1859.636 26491324 26397702 26275384 26165056 26096602 26085196 26127516 
1863.012 26210404 26316938 26433236 26552284 26672110 26790984 26906422 
1866.387 27013808 27110194 27197616 27286368 27392520 27532938 27717986 
1869.762 27945292 28199458 28455560 28685920 28868774 28991136 29050430 
1873.137 29049550 28995332 28894696 28756704 28594528 28426704 28276076 
1876.513 28164526 28105910 28100764 28135292 28188640 28238474 28272408 
1879.888 28291656 28308780 28339648 28395768 28477286 28574800 28674054 
1883.263 28766770 28855594 28951968 29070274 29215056 29372432 29510408 
1886.638 29587232 29568538 29442728 29232076 28986882 28772688 28645824 
1890.014 28634460 28725954 28870846 28999018 29044204 28962880 28749988 
1893.389 28438520 28088252 27766390 27527582 27397590 27369040 27402628 
1896.764 27442736 27433592 27338380 27151348 26901542 26644860 26448500 
1900.139 26368630 26431690 26623906 26892018 27157412 27339422 27375284 
1903.515 27238160 26936994 26510024 26006726 25472756 24939448 24424758 
1906.890 23941546 23509344 23156846 22921900 22835240 22907794 23116034 
1910.265 23403128 23690596 23900936 23979002 23909670 23717378 23455848 
1913.640 23184234 22947648 22762574 22618268 22488322 22348348 22192028 
1917.016 22035134 21909824 21852964 21886454 22011018 22202144 22421242 
1920.391 22626576 22789280 22894710 22944566 22947380 22910310 22834188 
1923.766 22711270 22530272 22283336 21968566 21594768 21178338 20743654 
1927.141 20318400 19937694 19640156 19468984 19459594 19631196 19973302 
1930.517 20440888 20959536 21444348 21823436 22062794 22175474 22216328 
1933.892 22255096 22347584 22509330 22709786 22882964 22961846 22907818 
1937.267 22729778 22481130 22236452 22053772 21950306 21894418 21824852 
1940.642 21682810 21448950 21159428 20902644 20780904 20873892 21205606 
1944.018 21736250 22379546 23040654 23648112 24175616 24634646 25056730 
1947.393 25460010 25838592 26155860 26368208 26443030 26380990 26209742 
1950.768 25969928 25689750 25367944 24968230 24438650 23734166 22845840 
1954.143 21804482 20682010 19570088 18564176 17742590 17167302 16882640 
1957.519 16919746 17280952 17933632 18789020 19702218 20490638 20977004 
1960.894 21036832 20641038 19866168 18875432 17871618 17045872 16527746 
1964.269 16370246 16546814 16979386 17553644 18142672 18615168 18854440 
1967.644 18763828 18295492 17466566 16368069 15145500 13968740 12976887 
1971.020 12250844 11784172 11516166 11369362 11312990 11391553 11737315 
1974.395 12527942 13934956 16052593 18855174 22188956 25798024 29362554 
1977.770 32560020 35113444 36834648 37635176 37544432 36682168 35257144 
1981.145 33528134 31775892 30251650 29135552 28494424 28275580 28333536 
1984.521 28476198 28528596 28384448 28021282 27502958 26929278 26400310 
1987.896 25974780 25656008 25394946 25122232 24771926 24313814 23753006 
1991.271 23129816 22499122 21913408 21405292 20984788 20640046 20348306 
1994.646 20083446 19826048 19562920 19286148 18988106 18660612 18284012 
1998.021 17845694 17338622 16774951 16191194 15648369 15214077 14952102 
2001.397 14891886 15028002 15305984 15653705 15998214 16305069 16581921 
2004.772 16886686 17288338 17831436 18488098 19142098 19602552 19664890 
2008.147 19181332 18135358 16660823 15031043 13573029 12590246 12256217 
2011.522 12576945 13370837 14328347 15098018 15401886 15108714 14278442 
2014.898 13127085 11957472 11044775 10559900 10526105 10836670 11310890 
2018.273 11785251 12173275 12492160 12818507 13235021 13750128 14276260 
2021.648 14638520 14651617 14195617 13292831 12116967 10956923 10116312 
2025.023 9827876 10167837 11050424 12255196 13503375 14531868 15153385 
2028.399 15279246 14930426 14211696 13298198 12409843 11788689 11648742 
2031.774 12134242 13255137 14866684 16669322 18291210 19390476 19773122 
2035.149 19448538 18634450 17670680 16909290 16595649 16812294 17471342 
2038.524 18385052 19337620 20163690 20777564 21174076 21388606 21470504 
2041.900 21455680 21375408 21264816 21177262 21175740 21313518 21605332 
2045.275 22020040 22496234 22985430 23492936 24104246 24956666 26182856 
2048.650 27814732 29734474 31668246 33264004 34197772 34281440 33509490 
2052.025 32059300 30222886 28328254 26650278 25351426 24455768 23879980 
2055.401 23481314 23131498 22752580 22335220 21911990 21528578 21213586 
2058.776 20971318 20784800 20641526 20544936 20518798 20597178 20804936 
2062.151 21139652 21568026 22029936 22463198 22818366 23077874 23255354 
2065.526 23392340 23535728 23728634 23995016 24334370 24720348 25106798 
2068.902 25431394 25631378 25655980 25481564 25124490 24643878 24131788 
2072.277 23694890 23422226 23368804 23533828 23869006 24290324 24709278 
2075.652 25050610 25274644 25374418 25371954 25298980 25188236 25059962 
2079.027 24928182 24797270 24675814 24574572 24513038 24509362 24583434 
2082.403 24743840 24990108 25306324 25661222 26010300 26302634 26487764 
2085.778 26529820 26415462 26162920 25814272 25428394 25055588 24725794 
2089.153 24433222 24141470 23795860 23350216 22787152 22132932 21455748 
2092.528 20853670 20426524 20252978 20367258 20755242 21353026 22068608 
2095.904 22796686 23443846 23939250 24247722 24369296 24340836 24223810 
2099.279 24092742 24016062 24042294 24184312 24419730 24699234 24966918 
2102.654 25176146 25311582 25386394 25436434 25498694 25594832 25718284 
2106.029 25838800 25914858 25915116 25833706 25694072 25538676 25412894 
2109.405 25342684 25327852 25340178 25339284 25291568 25185938 25037762 
2112.780 24883714 24764510 24712458 24738168 24832786 24973098 25136188 
2116.155 25302914 25463312 25606866 25719258 25771662 25727144 25545082 
2119.530 25198258 24682054 24022180 23268642 22486352 21735338 21060924 
2122.906 20482998 19999352 19588984 19221088 18859280 18468354 18009332 
2126.281 17447234 16754333 15923528 14975514 13966413 12980990 12118678 
2129.656 11465364 11068673 10921593 10959432 11075548 11153192 11093143 
2133.031 10847998 10425212 9892514 9339665 8866023 8543281 8410373 8469058 
2136.889 8700851 9073385 9558442 10131562 10775041 11465826 12180704 
2140.264 12886383 13545985 14110904 14528939 14744690 14712812 14405616 
2143.639 13832917 13044676 12134790 11216617 10404388 9776645 9364749 
2147.014 9150311 9083748 9112953 9217724 9409141 9732866 10222107 10881200 
2150.872 11646175 12398249 12978753 13233472 13043591 12355505 11176128 
2154.247 9569578 7638672 5534598 3458686 1696784 601987 568795 1922539 
2158.104 4799029 9010780 14034063 19111382 23480742 26598560 28272404 
2161.480 28639540 28076276 27034560 25938218 25098690 24703794 24809502 
2164.855 25393024 26348942 27534836 28771358 29873448 30671468 31054944 
2168.230 30989086 30524776 29768634 28837452 27805332 26678894 25398850 
2171.605 23895916 22139842 20210934 18307952 16725464 15762826 15641864 
2174.981 16417870 17960886 19985902 22148124 24139530 25765408 26964884 
2178.356 27784810 28318112 28652090 28839488 28901052 28848072 28717900 
2181.731 28576870 28507262 28567966 28767740 29039562 29270070 29339760 
2185.106 29178618 28800106 28314126 27886222 27691960 27844334 28358298 
2188.482 29134106 29986552 30694386 31066838 30991196 30463018 29577428 
2191.857 28496882 27403052 26451544 25738416 25296724 25099084 25092060 
2195.232 25209588 25405400 25643718 25907614 26180682 26439560 26652490 
2198.607 26789506 26829322 26773226 26645592 26485010 26326258 26190850 
2201.983 26074226 25962584 25839054 25713540 25627282 25655094 25875562 
2205.358 26344736 27060072 27947822 28872038 29670204 30197714 30377236 
2208.733 30218686 29819196 29328736 28906610 28666270 28652368 28826834 
2212.108 29094776 29340298 29466900 29428476 29239232 28959812 28674678 
2215.484 28456640 28347290 28345512 28415530 28498970 28542182 28503944 
2218.859 28373542 28168072 27932038 27726702 27622246 27683450 27963428 
2222.234 28483280 29225252 30128370 31100642 32035612 32844440 33482920 
2225.609 33972992 34397856 34888244 35578024 36573428 37920132 39595652 
2228.985 41518804 43583332 45687044 47760036 49777460 51749240 53707312 
2232.360 55680792 57679752 59692000 61676980 63581384 65342972 66901608 
2235.735 68200376 69193128 69842032 70124016 70029896 69563336 68741144 
2239.110 67591784 66154072 64482504 62646992 60735244 58840372 57054488 
2242.486 55445584 54044856 52840088 51780724 50790616 49792964 48724056 
2245.861 47545628 46245300 44832280 43327004 41762720 40182360 38645372 
2249.236 37218852 35975608 34970096 34225328 33718664 33390112 33160332 
2252.611 32958456 32748350 32539126 32374394 32308896 32375112 32566198 
2255.987 32830044 33091754 33277434 33343736 33285614 33132960 32930658 
2259.362 32716148 32508262 32309226 32111458 31913654 31725548 31565656 
2262.737 31448368 31375714 31334314 31305748 31279576 31268258 31306606 
2266.112 31439304 31691424 32051024 32456476 32813698 33026620 33036824 
2269.488 32846752 32526660 32190986 31959042 31913434 32076572 32406208 
2272.863 32818060 33217628 33531002 33724056 33802176 33796080 33747296 
2276.238 33690696 33651704 33645952 33683836 33773044 33917696 34113612 
2279.613 34346316 34590900 34820304 35013760 35165344 35285748 35400024 
2282.989 35536460 35716660 35945760 36209308 36474524 36700000 36843556 
2286.364 36875224 36783300 36580152 36298180 35985908 35692936 35457152 
2289.739 35294116 35193212 35123568 35046268 34932448 34776368 34599396 
2293.114 34441024 34342072 34328520 34394284 34504152 34604472 34642844 
2296.490 34587652 34441212 34232808 34009228 33813024 33669556 33579232 
2299.865 33524960 33483438 33440330 33396088 33366416 33371594 33426620 
2303.240 33530604 33666760 33806140 33916456 33972136 33960124 33880516 
2306.615 33744840 33572292 33386334 33212990 33077308 33002778 33006820 
2309.990 33097554 33272688 33519242 33817196 34143656 34477240 34798376 
2313.366 35090536 35340164 35536420 35675012 35762004 35815412 35864296 
2316.741 35941052 36073140 36273440 36538764 36855020 37210092 37602676 
2320.116 38051932 38588004 39235612 39990012 40799428 41561376 42140424 
2323.491 42400992 42244380 41637788 40623844 39309204 37840368 36370116 
2326.867 35028068 33899180 33019062 32377086 31934318 31641334 31453892 
2330.242 31340148 31282038 31268910 31292432 31343448 31412746 31492442 
2333.617 31579346 31674438 31780738 31897552 32020014 32135822 32230678 
2336.992 32292802 32318254 32312844 32290712 32269538 32263622 32278516 
2340.368 32310862 32349222 32380472 32393950 32386198 32359772 32322348 
2343.743 32280904 32239444 32197482 32152220 32099556 32039090 31972344 
2347.118 31903486 31834450 31763852 31687136 31598348 31493786 31377402 
2350.493 31260408 31159766 31092106 31066666 31080910 31120392 31162136 
2353.869 31183882 31170642 31120722 31044238 30958548 30880646 30820892 
2357.244 30778828 30744550 30703894 30643264 30552720 30428330 30267896 
2360.619 30070610 29834068 29557370 29243032 28901212 28551068 28217570 
2363.994 27926700 27698406 27540338 27448224 27407126 27399504 27410076 
2367.370 27431938 27465240 27514114 27581946 27667712 27763362 27857034 
2370.745 27937192 27996154 28032528 28050750 28057742 28061342 28066234 
2374.120 28075006 28087824 28105252 28128512 28160512 28203770 28260324 
2377.495 28329366 28408072 28490468 28569894 28637284 28684108 28701916 
2380.871 28685674 28634132 28553774 28458052 28365056 28293862 28259894 
2384.246 28268938 28317206 28391804 28477650 28561986 28639294 28712892 
2387.621 28789364 28875234 28969764 29061650 29133388 29163452 29137568 
2390.996 29053096 28921744 28768280 28622758 28513214 28459380 28468536 
2394.372 28535914 28647846 28784394 28923704 29043652 29123154 29144368 
2397.747 29096394 28978216 28802154 28594680 28391002 28227890 28133214 
2401.122 28116878 28167648 28257032 28350058 28417926 28450960 28464444 
2404.497 28492992 28580922 28763594 29054462 29435076 29859708 30267270 
2407.873 30598416 30811614 30896614 30870980 30774698 30654542 30551460 
2411.248 30489874 30476064 30498776 30538532 30572870 30583176 30555936 
2414.623 30483956 30364342 30199718 29997242 29771254 29541676 29334714 
2417.998 29177950 29096362 29104798 29206284 29387136 29620460 29868118 
2421.374 30089840 30248682 30321112 30299804 30196926 30039562 29864886 
2424.749 29709838 29603100 29558648 29574854 29636466 29721262 29805934 
2428.124 29872760 29911144 29917664 29893374 29843482 29775102 29699156 
2431.499 29630474 29588120 29591996 29658216 29792128 29986836 30219744 
2434.875 30458018 30665790 30812854 30878628 30859716 30764230 30611840 
2438.250 30426076 30230960 30046610 29889070 29768168 29690384 29656074 
2441.625 29663928 29707812 29781010 29874720 29981546 30094006 30205678 
2445.000 30311576 30408764 30496986 30578328 30657450 30740446 30830404 
2448.375 30927918 31027656 31120660 31197002 31249954 31278010 31286758 
2451.751 31283122 31273298 31256012 31223570 31164580 31070240 30940622 
2455.126 30787942 30636308 30513614 30442304 30432612 30478548 30563636 
2458.501 30666120 30768808 30864916 30956800 31051482 31153856 31259540 
2461.876 31356622 31427040 31456802 31440188 31384472 31305358 31222864 
2465.252 31150930 31097142 31057044 31022560 30984538 30940096 30890842 
2468.627 30843088 30801794 30767226 30733226 30690032 30627368 30540660 
2472.002 30431860 30312988 30200656 30113586 30068032 30076002 30142830 
2475.377 30267804 30443478 30657476 30892294 31127242 31340182 31510468 
2478.753 31622056 31665426 31639348 31551316 31417142 31258636 31102038 
2482.128 30973928 30896394 30883354 30935072 31038650 31166684 31286382 
2485.503 31365868 31384670 31337750 31238738 31113480 30993452 30904772 
2488.878 30861966 30864132 30897610 30941540 30974968 30980704 30949494 
2492.254 30879520 30774004 30640506 30489202 30334130 30192526 30083860 
2495.629 30026856 30033418 30105898 30233528 30393382 30556564 30696826 
2499.004 30797984 30860240 30899934 30945620 31026100 31162396 31356350 
2502.379 31590432 31831150 32038938 32179512 32235966 32210964 32127314 
2505.755 32018490 31918102 31850442 31826284 31840280 31879000 31924836 
2509.130 31964880 31991142 32002174 32000352 31989362 31973228 31958278 
2512.505 31951554 31964120 32005406 32083000 32195538 32332420 32474094 
2515.880 32598220 32684274 32721896 32712090 32667134 32604526 32543458 
2519.256 32497748 32475848 32479826 32507632 32556276 32621286 32697518 
2522.631 32778606 32857996 32930702 32994312 33051468 33107534 33168964 
2526.006 33237320 33307776 33368070 33404484 33405326 33368948 33303368 
2529.381 33227570 33162032 33124108 33120222 33146672 33190332 33236780 
2532.757 33273898 33296752 33305950 33304754 33296462 33283320 33265230 
2536.132 33245922 33232752 33237420 33272338 33346516 33458714 33595580 
2539.507 33734852 33848252 33912656 33915536 33858584 33756980 33635980 
2542.882 33522070 33437748 33395782 33397854 33436600 33497260 33565508 
2546.258 33629960 33685652 33734488 33782648 33836128 33895556 33952648 
2549.633 33993312 34000696 33963900 33885348 33782456 33684500 33623824 
2553.008 33622848 33684668 33790124 33904180 33988516 34016844 33985104 
2556.383 33913528 33839660 33804120 33835124 33940604 34107580 34309268 
2559.759 34516492 34709560 34880236 35030500 35164540 35281824 35371904 
2563.134 35417396 35401960 35318204 35174088 34993012 34807688 34651788 
2566.509 34549620 34511200 34531456 34595860 34685400 34786472 34889968 
2569.884 34995704 35105876 35222516 35343692 35461584 35563512 35636792 
2573.260 35671460 35664324 35621436 35556772 35487772 35432144 35401952 
2576.635 35400032 35420932 35453648 35486208 35512592 35534312 35561692 
2580.010 35609808 35692812 35817692 35981044 36168080 36356344 36522260 
2583.385 36646160 36715004 36727788 36690480 36616796 36523072 36426580 
2586.760 36343792 36288320 36269848 36294492 36362820 36470788 36610440 
2590.136 36770548 36937044 37096424 37232812 37333660 37388368 37392132 
2593.511 37346140 37261404 37155852 37052484 36974068 36938716 36954560 
2596.886 37021432 37129776 37266372 37418596 37577044 37735652 37891480 
2600.261 38039648 38172988 38282048 38356296 38388376 38378628 38333720 
2603.637 38268984 38201376 38148020 38119644 38120716 38147500 38192884 
2607.012 38247740 38305312 38361912 38417364 38474012 38533440 38596304 
2610.387 38660344 38720196 38770512 38807036 38829960 38844028 38859344 
2613.762 38887580 38938136 39013812 39109436 39210380 39297740 39352632 
2617.138 39362844 39326108 39252356 39159372 39068232 38997732 38959816 
2620.513 38958268 38989696 39048196 39127028 39222540 39333548 39460176 
2623.888 39602624 39758896 39925612 40097540 40270264 40438760 40599572 
2627.263 40748204 40879660 40987792 41066188 41110560 41120004 41099084 
2630.639 41057556 41008340 40966140 40942736 40945988 40978256 41037320 
2634.014 41117832 41213396 41318240 41428912 41541184 41652672 41758052 
2637.389 41849888 41919456 41958132 41960084 41926204 41863108 41784924 
2640.764 41709440 41654256 41631724 41647768 41699404 41777484 41867864 
2644.140 41956632 42032088 42085748 42113512 42116004 42096028 42060672 
2647.515 42019288 41984260 41967156 41978256 42022680 42097620 42192452 
2650.890 42290236 42373020 42424672 42436120 42406996 42344204 42259584 
2654.265 42166552 42075048 41991268 41916408 41848728 41783396 41716040 
2657.641 41641996 41557432 41459228 41345660 41216360 41073960 40922396 
2661.016 40767136 40614768 40470496 40338516 40219484 40113924 40019764 
2664.391 39934628 39855852 39781168 39707472 39634016 39560456 39489152 
2667.766 39423860 39368884 39328704 39304984 39295792 39297212 39303120 
2671.142 39308476 39311088 39313324 39320508 39338324 39370984 39418784 
2674.517 39476768 39537340 39591612 39634152 39663496 39684412 39704684 
2677.892 39733504 39777388 39838272 39911680 39987688 40053708 40097220 
2681.267 40108568 40083228 40022284 39931972 39822588 39704344 39588280 
2684.643 39481936 39392036 39323276 39279708 39265036 39281288 39328024 
2688.018 39399928 39487340 39575616 39650004 39695832 39706180 39680460 
2691.393 39626504 39557668 39488352 39431108 39393496 39375448 39373072 
2694.768 39377624 39381260 39377216 39363472 39341684 39318772 39304728 
2698.144 39309996 39343276 39408020 39500068 39608072 39712972 39795512 
2701.519 39840024 39837408 39791172 39713500 39622468 39537620 39473688 
2704.894 39439204 39436596 39463924 39517884 39595316 39694036 39809584 
2708.269 39934652 40058288 40166004 40245424 40287808 40292000 40263752 
2711.645 40213644 40153572 40093296 40037928 39989800 39947876 39912264 
2715.020 39883536 39863436 39852928 39850600 39853388 39857204 39858776 
2718.395 39858216 39858200 39864240 39880444 39909144 39948192 39992584 
2721.770 40036420 40076920 40114808 40153180 40197640 40249384 40306300 
2725.146 40361168 40404368 40427504 40426704 40405996 40374520 40345276 
2728.521 40330900 40339056 40370980 40422188 40483148 40544128 40596148 
2731.896 40635060 40660224 40674988 40684044 40691872 40700168 40707168 
2735.271 40707400 40694788 40662928 40610136 40539224 40459644 40385024 
2738.646 40328960 40302448 40310204 40349036 40409496 40478052 40541460 
2742.022 40589576 40617204 40624436 40615876 40597804 40576908 40558252 
2745.397 40545892 40541064 40543660 40551252 40560440 40567276 40569308 
2748.772 40564644 40554328 40541088 40529620 40524096 40528836 40545660 
2752.147 40576348 40620904 40678708 40748312 40827952 40913112 40998576 
2755.523 41077560 41144280 41194488 41227504 41245776 41255172 41261436 
2758.898 41270724 41287120 41313260 41350016 41398804 41459160 41531952 
2762.273 41616324 41710688 41811808 41916004 42019680 42119788 42212720 
2765.648 42295352 42363768 42413128 42439604 42442248 42424368 42394320 
2769.024 42363124 42343696 42343652 42366808 42408696 42461836 42516976 
2772.399 42568520 42614576 42658916 42705952 42758320 42816328 42876088 
2775.774 42932416 42982580 43027800 43075036 43133068 43209428 43307676 
2779.149 43424860 43552876 43682008 43803828 43916148 44020200 44121704 
2782.525 44225364 44334216 44445692 44555224 44656548 44744996 44818344 
2785.900 44876968 44923152 44958332 44983172 44996420 44996912 44983508 
2789.275 44956844 44920588 44879524 44840836 44812120 44802972 44821364 
2792.650 44875092 44968212 45099512 45261124 45438768 45615060 45772476 
2796.026 45898696 45990328 46053508 46102072 46152668 46219084 46308256 
2799.401 46417024 46534700 46645956 46735760 46795312 46823332 46827828 
2802.776 46824008 46831196 46868116 46950428 47087344 47279868 47521392 
2806.151 47798048 48091488 48382184 48653300 48892608 49094932 49261788 
2809.527 49398764 49513696 49613644 49703924 49787348 49866824 49946240 
2812.902 50032468 50134088 50260992 50420308 50614008 50838424 51084264 
2816.277 51340340 51596944 51849692 52101892 52361620 52641780 52953292 
2819.652 53303920 53694488 54122124 54580740 55064704 55570640 56099060 
2823.028 56652080 57233172 57843164 58482316 59147540 59838096 60553580 
2826.403 61297260 62075524 62897512 63773408 64712436 65721988 66806824 
2829.778 67967488 69201136 70500184 71853720 73249208 74674952 76122168 
2833.153 77588936 79080360 80608832 82188512 83834232 85554792 87355264 
2836.529 89233584 91186240 93209008 95302280 97469168 99715504 102047464 
2839.904 104468336 106977328 109570816 112243336 114990416 117811560 
2842.797 120711896 123701816 126796024 130011928 133367496 136874832 
2845.690 140536784 144337424 148238576 152173712 156047616 159743312 
2848.583 163130112 166079648 168478752 170243120 171325936 171719024 
2851.476 171450720 170580176 169187456 167366416 165216656 162834576 
2854.369 160310224 157719744 155123968 152567168 150078272 147673840 
2857.262 145361312 143141264 141011376 138966672 137002400 135115280 
2860.155 133306112 131580680 129950864 128431824 127037672 125776248 
2863.048 124645440 123632224 122715056 121869544 121075592 120321784 
2865.941 119608496 118943496 118339632 117805312 117345504 116955640 
2868.834 116627784 116349896 116113288 115911224 115739896 115597456 
2871.728 115481688 115389992 115320336 115272232 115247600 115250136 
2874.621 115284920 115355880 115466128 115617504 115811720 116052216 
2877.514 116344336 116694696 117108720 117587976 118128464 118720984 
2880.407 119353520 120015648 120702640 121416696 122167504 122969120 
2883.300 123836656 124780240 125803784 126903368 128068848 129285352 
2886.193 130537376 131811280 133096960 134390000 135690816 137004064 
2889.086 138336672 139694320 141080096 142490976 143920624 145358640 
2891.979 146795264 148223632 149643744 151061376 152486832 153932096 
2894.872 155407024 156917872 158467136 160054720 161680080 163344688 
2897.765 165052528 166809680 168622720 170495952 172432160 174429872 
2900.658 176487408 178601744 180770800 182994832 185275264 187614624 
2903.551 190016848 192486256 195027840 197647504 200351088 203145392 
2906.444 206035744 209029440 212132976 215354992 218706032 222199104 
2909.337 225849072 229670176 233675424 237873200 242264048 246839088 
2912.230 251577728 256445056 261393632 266362784 271283104 276078912 
2915.124 280677024 285010144 289022240 292671168 295927520 298772896 
2918.017 301195168 303186752 304743552 305863008 306550048 306815072 
2920.910 306677664 306164192 305308032 304144320 302710112 301041056 
2923.803 299171552 297133376 294957440 292670208 290295808 287851936 
2926.696 285351872 282803648 280212864 277584192 274923936 272240352 
2929.589 269545568 266852416 264176160 261528256 258918144 256349264 
2932.482 253816672 251309248 248809584 246295424 243746816 241147600 
2935.375 238491824 235784592 233041408 230284608 227537952 224821728 
2938.268 222148560 219521920 216938160 214389872 211868624 209368432 
2941.161 206885120 204417536 201964592 199525904 197101696 194693520 
2944.054 192306784 189950304 187635872 185375776 183177008 181041248 
2946.947 178960832 176921904 174908048 172903776 170901088 168899728 
2949.840 166908272 164941120 163013696 161138640 159322032 157563536 
2952.733 155856544 154190288 152555232 150943248 149351072 147780416 
2955.626 146236784 144727856 143260688 141840832 140470000 139145648 
2958.520 137862208 136609888 135379088 134160000 132945072 131731600 
2961.413 130521400 129322928 128148752 127015176 125937360 124927440 
2964.306 123988280 123112424 122280232 121466576 120641424 119779552 
2967.199 118865472 117896520 116883736 115847128 114811136 113797168 
2970.092 112819784 111884472 110987312 110119272 109269208 108426208 
2972.985 107582968 106732832 105872120 104997368 104107152 103199432 
2975.878 102274560 101333992 100381328 99420688 98457568 97496688 96545176 
2979.253 95607232 94687656 93787864 92907192 92040976 91181744 90322272 
2982.628 89457840 88589464 87724920 86876744 86059392 85285000 84560224 
2986.004 83885040 83253232 82656880 82089624 81547416 81030880 80541160 
2989.379 80079264 79642576 79227168 78828608 78446160 78084952 77756272 
2992.754 77477336 77264776 77134296 77095336 77152928 77307824 77559384 
2996.129 77905504 78344592 78870576 79472624 80134376 80832720 81544120 
2999.505 82245016 82917032 83548784 84134168 84668720 85146744 85557200 
3002.880 85883624 86104792 86198992 86149560 85948152 85597848 85114760 
3006.255 84524480 83860344 83156648 82446192 81755232 81102696 80500872 
3009.630 79955976 79471416 79050272 78694696 78406688 78189448 78045888 
3013.006 77980296 78001680 78125120 78372384 78771200 79350296 80135136 
3016.381 81141904 82374864 83827696 85485976 87332624 89351680 91530200 
3019.756 93856672 96319120 98900136 101576320 104317648 107089928 109854424 
3023.131 112571320 115195648 117679592 119967688 122002600 123725920 
3026.024 125086936 126047176 126585168 126695456 126387600 125678536 
3028.917 124592848 123159432 121412440 119394192 117156440 114756024 
3031.811 112252984 109701728 107146632 104618664 102136608 99712072 97354248 
3035.186 95074224 92885712 90802544 88836904 86993728 85272728 83666280 
3038.561 82163920 80755648 79433136 78191160 77026352 75936680 74920128 
3041.936 73974792 73100168 72295824 71563880 70906832 70327864 69829368 
3045.312 69414072 69082224 68834048 68667264 68578592 68562544 68613488 
3048.687 68727424 68904944 69153640 69486272 69919448 70468328 71139552 
3052.062 71930120 72823968 73796640 74819864 75867656 76921816 77971888 
3055.437 79014928 80050168 81076944 82088432 83073176 84014568 84893272 
3058.813 85690248 86386336 86967832 87422192 87741848 87921128 87955568 
3062.188 87840432 87570496 87140160 86546568 85791928 84889544 83863992 
3065.563 82752984 81600144 80450200 79339632 78293040 77319328 76416144 
3068.938 75573112 74779832 74027776 73313840 72636600 71996872 71392264 
3072.313 70823392 70289992 69797304 69355072 68977088 68677936 68467744 
3075.689 68351384 68326272 68383864 68514336 68708408 68958816 69259640 
3079.064 69604544 69982992 70382504 70786240 71176424 71535504 71846824 
3082.439 72094400 72262640 72334432 72293120 72122904 71813112 71358072 
3085.814 70758928 70023792 69166072 68204040 67160104 66058428 64925948 
3089.190 63786580 62660924 61561164 60493368 59455964 58447072 57467300 
3092.565 56524380 55634072 54814660 54083852 53451692 52915840 52465024 
3095.940 52081720 51749796 51457612 51202392 50986904 50817760 50701348 
3099.315 50641964 50641416 50700916 50819964 50996352 51220960 51476968 
3102.691 51738104 51971812 52145760 52235856 52231464 52135844 51967064 
3106.066 51745200 51489836 51212852 50918404 50604368 50267432 49905676 
3109.441 49517736 49104780 48666184 48202064 47715428 47215376 46720152 
3112.816 46257724 45856996 45542148 45321708 45185304 45104896 45041976 
3116.192 44959604 44833136 44654220 44433004 44188816 43944912 43718800 
3119.567 43520620 43352184 43212428 43098264 43008840 42942668 42897832 
3122.942 42867404 42840804 42805748 42750724 42668528 42558648 42427688 
3126.317 42287720 42152964 42038052 41955508 41914296 41917652 41964216 
3129.693 42043940 42141876 42239420 42317404 42361604 42365020 42329788 
3133.068 42265628 42186240 42105876 42034160 41975816 41932032 41901080 
3136.443 41881592 41873880 41878276 41893724 41916136 41938020 41947140 
3139.818 41932984 41886860 41807124 41700332 41579024 41459076 41354788 
3143.194 41276116 41224908 41194512 41174200 41151736 41118728 41073148 
3146.569 41020896 40972272 40939124 40929268 40943380 40974708 41011620 
3149.944 41042204 41060640 41067892 41074504 41095952 41148100 41240720 
3153.319 41376128 41545628 41732752 41917268 42079324 42202628 42277024 
3156.695 42299552 42275264 42214504 42131500 42041788 41958412 41888720 
3160.070 41833592 41788152 41744652 41697352 41645824 41595372 41555804 
3163.445 41535572 41537900 41556436 41577360 41584884 41566896 41522732 
3166.820 41463628 41410572 41385724 41403812 41467024 41562288 41666360 
3170.196 41753892 41804964 41809376 41768396 41690576 41586620 41466604 
3173.571 41337036 41203640 41072932 40954540 40861596 40807104 40801912 
3176.946 40849308 40945404 41078628 41233068 41391028 41535600 41652756 
3180.321 41731944 41766512 41753828 41696816 41603172 41485588 41359080 
3183.697 41240572 41144656 41083824 41066120 41095504 41171424 41288712 
3187.072 41436612 41599368 41758604 41895140 41994044 42049304 42063172 
3190.447 42047304 42019112 41995164 41988976 42006324 42048000 42108120 
3193.822 42178724 42250012 42310292 42347452 42348500 42302156 42204488 
3197.198 42062020 41893864 41728528 41597544 41526280 41523904 41582380 
3200.573 41675840 41770856 41836724 41854836 41823956 41757864 41677856 
3203.948 41605376 41554208 41526876 41519228 41523500 41535436 41557124 
3207.323 41596648 41663132 41763476 41896724 42052596 42214996 42362880 
3210.698 42477144 42544840 42559236 42523492 42447464 42346512 42238400 
3214.074 42141020 42065676 42020496 42004408 42010376 42027436 42044716 
3217.449 42055192 42057432 42055932 42058936 42074580 42107480 42155576 
3220.824 42212368 42266868 42308180 42329032 42328216 42309784 42281760 
3224.199 42253736 42231096 42216604 42205176 42188680 42156428 42099376 
3227.575 42014208 41904332 41781640 41663120 41570804 41522452 41530960 
3230.950 41597144 41710332 41849708 41987812 42096716 42154208 42149568 
3234.325 42086396 41980248 41856856 41744696 41669076 41646560 41682260 
3237.700 41768472 41889860 42025448 42155220 42262916 42338568 42378064 
3241.076 42382820 42356584 42306980 42242204 42173644 42113260 42074224 
3244.451 42066964 42096700 42161672 42253260 42358516 42462804 42555824 
3247.826 42633228 42697236 42752732 42804124 42851656 42887208 42900676 
3251.201 42881280 42826556 42743280 42650096 42571660 42531644 42544056 
3254.577 42609372 42712384 42828436 42930080 42996608 43018432 42998884 
3257.952 42950724 42890868 42834224 42791028 42765636 42760376 42775392 
3261.327 42812340 42871912 42952116 43045156 43137008 43209484 43244964 
3264.702 43233516 43177440 43092020 43002680 42937624 42920316 42961464 
3268.078 43057308 43190036 43335532 43467576 43566592 43623628 43640124 
3271.453 43625764 43595196 43563608 43542408 43536080 43542488 43552372 
3274.828 43554084 43535876 43492160 43426708 43353628 43294752 43272680 
3278.203 43303912 43392028 43524528 43677596 43822076 43936464 44011984 
3281.579 44056800 44091204 44138732 44214556 44320924 44443264 44560608 
3284.954 44651924 44708688 44737376 44759440 44801412 44885980 45022288 
3288.329 45203520 45410348 45616832 45799976 45946492 46054796 46132376 
3291.704 46192304 46250440 46318732 46406328 46517956 46653424 46808100 
3295.080 46970964 47127464 47261892 47359460 47411324 47414412 47372112 
3298.455 47290584 47175496 47031356 46861536 46670348 46468268 46271700 
3301.830 46101880 45980152 45919976 45923288 45978820 46064092 46152220 
3305.205 46217652 46243168 46218232 46140808 46012668 45839816 45630604 
3308.581 45398740 45161308 44938768 44750484 44607432 44510388 44448072 
3311.956 44400900 44349748 44280592 44191148 44089124 43986280 43893712 
3315.331 43816076 43749624 43687132 43621664 43552784 43486268 43431740 
3318.706 43397036 43384184 43387084 43394636 43396512 43387508 43371464 
3322.082 43358704 43360352 43385132 43432732 43495784 43562140 43621144 
3325.457 43666984 43699212 43721112 43738016 43751516 43762512 43769652 
3328.832 43774288 43779828 43792540 43817300 43854812 43899160 43938856 
3332.207 43960004 43951684 43909548 43838144 43749864 43661112 43588400 
3335.583 43545952 43540524 43575292 43645392 43741164 43848468 43950920 
3338.958 44033660 44087244 44111976 44117424 44120380 44137356 44178992 
3342.333 44242904 44314716 44372152 44394320 44369528 44301552 44207728 
3345.708 44112288 44035676 43986360 43957840 43932272 43888180 43811040 
3349.083 43701048 43572404 43451620 43365460 43335900 43372448 43470568 
3352.459 43614612 43780916 43944312 44081076 44173100 44208900 44186600 
3355.834 44113072 44003884 43882512 43773504 43699088 43674068 43703152 
3359.209 43781216 43895444 44028292 44162108 44279904 44367536 44413176 
3362.584 44409208 44353320 44249400 44109272 43949712 43791144 43652540 
3365.960 43546888 43482000 43458808 43475720 43529536 43618320 43738756 
3369.335 43885696 44049136 44213672 44361816 44476616 44547592 44571004 
3372.710 44552492 44501720 44428812 44340788 44242948 44136556 44025192 
3376.085 43917024 43823124 43758372 43734876 43758644 43827856 43931580 
3379.461 44053344 44175140 44280480 44358372 44403956 44418836 44410616 
3382.836 44390956 44374752 44374952 44401616 44457760 44538772 44633228 
3386.211 44726200 44804524 44860536 44894340 44911152 44918928 44921040 
3389.586 44916548 44898036 44856828 44788036 44694676 44589936 44494904 
3392.962 44431372 44415896 44455472 44543616 44664600 44796420 44916208 
3396.337 45005184 45051604 45051848 45011472 44945076 44872860 44818748 
3399.712 44803620 44840404 44927368 45048628 45174464 45271168 45309444 
3403.087 45274124 45167176 45008120 44825768 44650840 44506460 44405544 
3406.463 44350776 44338092 44362400 44418124 44500856 44602604 44710424 
3409.838 44805236 44865852 44875800 44828912 44733184 44609936 44487840 
3413.213 44393676 44344484 44344568 44385676 44452228 44528000 44602752 
3416.588 44671340 44733992 44791076 44839412 44872472 44882184 44863172 
3419.964 44818468 44760192 44708448 44684852 44704928 44772820 44877184 
3423.339 44994560 45094672 45151776 45151120 45094068 44997932 44891368 
3426.714 44804896 44763228 44777248 44843472 44943324 45053044 45148856 
3430.089 45215536 45250008 45261180 45265776 45283388 45328792 45407384 
3433.465 45514160 45635504 45752192 45846168 45902368 45913040 45877332 
3436.840 45802160 45699500 45584360 45472844 45380560 45319848 45298604 
3440.215 45319280 45378160 45466204 45571904 45682116 45784592 45870640 
3443.590 45933768 45971736 45983352 45970720 45935832 45884340 45822232 
3446.966 45757528 45697508 45648072 45611468 45585448 45564376 45541992 
3450.341 45512292 45474104 45430128 45387196 45354164 45337032 45339124 
3453.716 45358428 45390588 45428308 45467096 45503656 45538568 45572188 
3457.091 45604760 45634028 45656692 45668964 45670248 45664448 45658876 
3460.467 45663940 45686376 45727260 45780340 45831768 45864412 45864052 
3463.842 45824772 45751284 45657536 45563296 45488684 45448260 45449492 
3467.217 45491092 45567876 45673704 45803376 45952528 46117496 46288684 
3470.592 46452356 46587856 46672508 46686816 46619252 46471808 46260488 
3473.968 46013540 45765268 45550664 45398444 45326412 45338636 45425528 
3477.343 45565756 45729440 45884384 46002196 46064664 46068428 46026316 
3480.718 45965400 45919808 45921180 45989736 46125884 46309196 46502576 
3484.093 46660556 46742380 46723364 46601084 46396844 46150416 45909908 
3487.469 45721776 45618532 45613280 45701076 45857764 46050976 46245704 
3490.844 46413552 46534468 46601616 46616992 46591096 46534872 46459776 
3494.219 46373680 46281592 46186624 46094736 46014764 45961524 45951976 
3497.594 46003824 46131300 46336500 46610156 46927932 47254000 47548268 
3500.969 47772760 47902412 47929484 47867584 47747104 47608516 47490388 
3504.345 47418824 47400196 47420976 47452416 47461584 47423520 47331020 
3507.720 47196916 47050552 46927056 46856532 46852412 46910300 47009108 
3511.095 47121624 47223136 47299348 47350260 47384136 47414296 47449988 
3514.470 47494568 47545420 47599044 47652204 47705976 47764208 47829316 
3517.846 47898528 47963068 48011032 48033608 48031764 48017284 48014588 
3521.221 48049100 48139236 48286492 48472712 48663460 48818848 48904600 
3524.596 48902980 48815492 48663716 48478160 48292204 48132996 48019460 
3527.971 47960532 47958160 48007420 48098320 48214720 48334524 48432892 
3531.347 48487316 48483428 48421684 48316920 48197152 48094880 48037520 
3534.722 48040704 48105020 48217836 48359572 48510192 48654820 48785460 
3538.097 48900292 48999064 49081032 49142208 49176512 49178844 49146060 
3541.472 49080064 48987164 48878364 48765784 48664096 48586976 48546204 
3544.848 48549896 48597592 48681440 48782652 48877104 48937612 48941956 
3548.223 48879564 48754404 48585184 48399780 48228428 48095652 48015028 
3551.598 47986220 47996260 48025476 48050340 48052000 48015512 47935780 
3554.973 47814224 47659976 47486496 47310920 47150516 47020688 46930948 
3558.349 46884076 46872920 46883288 46895960 46890644 46852120 46773812 
3561.724 46660476 46526912 46393816 46283680 46211960 46184280 46193324 
3565.099 46222080 46249516 46257348 46235484 46186332 46122068 46060956 
3568.474 46019192 46006048 46022372 46060996 46110604 46161800 46208148 
3571.850 46246812 46276344 46293932 46292740 46266656 46211172 46129428 
3575.225 46034136 45945520 45883496 45862588 45885492 45940636 46006904 
3578.600 46063544 46097356 46109180 46111980 46125884 46168516 46247832 
3581.975 46357980 46482724 46600280 46693532 46751820 46773768 46763048 
3585.351 46723924 46657980 46564600 46445236 46307732 46168364 46053580 
3588.726 45989112 45995288 46077536 46224752 46410000 46599008 46759752 
3592.101 46869044 46918148 46911436 46861904 46785984 46698752 46611876 
3595.476 46532208 46463700 46408068 46365060 46331500 46302096 46270480 
3598.852 46229272 46176012 46114396 46053616 46007808 45989888 46008948 
3602.227 46063908 46145552 46238288 46325156 46393956 46440388 46469492 
3605.602 46491456 46517856 46554116 46597636 46638472 46663668 46663748 
3608.977 46637580 46596256 46559980 46550668 46586712 46673172 46802692 
3612.353 46957532 47116004 47262320 47388688 47499796 47605016 47715080 
3615.728 47831844 47951620 48062900 48156180 48227736 48283480 48337268 
3619.103 48403436 48488296 48587772 48685056 48758116 48788992 48772092 
3622.478 48717304 48645668 48581072 48542584 48532700 48542372 48551432 
3625.854 48540048 48496196 48420484 48324068 48224028 48135004 48065788 
3629.229 48016264 47980868 47951536 47923432 47894452 47866576 47843036 
3632.604 47828420 47828568 47852040 47910636 48014068 48169676 48374148 
3635.979 48611000 48852908 49065712 49219168 49296936 49298128 49241972 
3639.354 49155952 49069788 49006364 48980636 48997448 49059944 49172744 
3642.730 49342228 49575172 49867756 50203468 50550676 50865748 51105364 
3646.105 51238264 51254904 51167952 51009340 50818756 50631636 50473564 
3649.480 50355420 50278684 50241508 50244024 50287864 50376820 50508388 
3652.855 50670864 50844016 51000232 51112496 51161128 51136236 51040664 
3656.231 50885652 50687348 50461612 50222600 49983052 49754356 49549280 
3659.606 49378692 49249352 49163276 49114200 49090148 49076588 49063524 
3662.981 49046708 49030128 49023816 49037652 49077160 49139604 49213208 
3666.356 49281952 49330916 49348928 49334612 49293084 49235252 49172508 
3669.732 49114640 49066804 49031104 49009192 49000456 49006760 49029516 
3673.107 49066444 49111916 49155148 49179676 49167796 49104176 48979872 
3676.482 48794392 48558520 48291104 48017376 47764344 47557376 47413536 
3679.857 47339884 47328996 47360448 47404224 47427640 47404064 47320160 
3683.233 47181808 47012900 46848984 46728276 46680464 46717500 46831256 
3686.608 46994728 47172336 47327876 47435884 47485392 47482532 47442776 
3689.983 47382492 47315132 47243736 47164128 47068756 46952968 46819632 
3693.358 46681112 46557060 46470524 46439672 46475220 46574180 46723228 
3696.734 46898796 47071292 47211660 47293144 47297300 47214728 47047204 
3700.109 46809596 46527408 46235112 45970796 45769180 45656380 45642128 
3703.484 45719528 45864232 46042972 46219876 46364492 46461268 46507124 
3706.859 46515196 46503676 46493660 46498956 46524600 46567588 46618052 
3710.235 46666624 46706608 46737612 46763428 46789380 46818760 46851440 
3713.610 46882220 46902872 46905800 46887556 46849412 46797316 46742796 
3716.985 46698032 46673912 46679968 46722548 46804700 46926340 47082524 
3720.360 47264404 47456380 47638004 47785664 47876452 47890656 47818464 
3723.736 47661748 47436276 47169348 46896424 46657272 46485176 46406312 
3727.111 46431888 46557364 46763492 47022080 47299224 47562744 47786908 
3730.486 47952728 48049960 48075016 48029904 47920960 47761432 47569260 
3733.861 47368532 47188548 47057948 46999308 47023212 47122688 47276624 
3737.237 47451252 47612436 47732732 47798972 47814200 47795352 47763864 
3740.612 47742840 47746952 47780556 47841356 47921460 48012064 48107036 
3743.987 48200760 48288368 48362968 48411384 48418896 48368604 48247716 
3747.362 48053916 47795896 47497312 47193720 46927192 46738236 46657172 
3750.738 46698208 46857056 47110892 47426260 47765204 48093276 48386520 
3754.113 48633252 48830984 48984300 49098040 49176936 49221212 49231512 
3757.488 49211908 49168564 49112120 49053996 49002916 48961828 48927924 
3760.863 48896456 48864460 48833352 48811096 48808876 48833248 48883572 
3764.239 48947148 49003156 49029484 49010564 48945224 48848368 48745188 
3767.614 48663340 48620696 48621900 48655656 48700476 48736556 48750900 
3770.989 48742328 48720628 48697632 48682616 48675056 48666980 48646796 
3774.364 48608696 48556296 48505288 48478752 48498992 48578648 48714672 
3777.740 48887608 49067312 49219992 49319816 49353848 49326336 49257244 
3781.115 49175880 49113860 49098036 49144204 49254300 49415592 49605100 
3784.490 49794288 49955752 50069168 50126628 50130552 50092048 50026892 
3787.865 49947748 49864448 49782420 49702572 49627116 49558880 49502408 
3791.240 49459912 49431116 49409824 49388012 49356604 49312372 49258408 
3794.616 49204308 49161980 49138680 49132232 49131216 49117752 49075644 
3797.991 48998776 48894420 48784332 48697304 48659656 48688128 48783032 
3801.366 48929448 49101740 49273064 49421972 49536404 49614884 49662600 
3804.741 49688256 49700920 49706960 49710788 49714220 49716364 49712648 
3808.117 49698792 49671144 49629964 49580716 49535740 49510532 49521084 
3811.492 49576924 49680808 49825844 49998268 50181964 50361020 50520216 
3814.867 50646484 50726264 50747408 50701404 50589436 50427752 50247928 
3818.242 50091944 50001512 50005352 50107924 50284224 50486700 50660000 
3821.618 50758824 50765224 50692752 50580192 50476476 50422372 50435916 
3824.993 50508112 50608820 50700532 50751360 50746124 50688848 50598744 
3828.368 50498808 50409708 50342308 50298288 50272716 50260332 50257756 
3831.743 50264744 50283100 50312336 50349036 50385996 50412896 50418052 
3835.119 50392700 50331316 50234812 50110400 49973900 49845372 49746956 
3838.494 49697384 49708480 49779724 49899236 50044612 50191992 50319492 
3841.869 50412912 50468832 50492496 50494628 50487708 50481964 50487240 
3845.244 50510648 50558744 50636004 50741544 50867076 50995024 51099216 
3848.620 51152940 51134896 51038596 50875484 50674068 50471848 50305492 
3851.995 50201444 50167488 50192708 50252268 50315664 50355648 50355236 
3855.370 50311776 50233160 50138200 50049408 49989956 49979224 50029720 
3858.745 50142144 50305196 50495572 50682336 50832508 50920616 50933828 
3862.121 50877400 50771104 50646048 50534568 50464088 50450856 50497004 
3865.496 50593712 50723852 50867224 51004044 51118060 51198280 51237964 
3868.871 51236292 51198272 51132748 51052400 50971904 50903028 50856348 
3872.246 50837960 50849576 50889500 50952060 51028656 51108716 51180456 
3875.622 51232884 51257136 51249480 51211092 51149520 51074696 50998660 
3878.997 50929224 50871836 50827152 50792128 50762532 50733316 50699724 
3882.372 50658436 50604544 50536320 50452300 50355400 50254644 50163540 
3885.747 50099348 50077972 50109920 50196276 50329088 50492616 50666804 
3889.123 50832692 50975260 51085988 51161276 51201364 51208640 51186680 
3892.498 51140380 51075724 51001348 50926824 50862396 50816028 50793324 
3895.873 50796020 50822796 50871660 50939696 51023720 51119348 51219800 
3899.248 51315092 51392684 51440464 51451088 51424804 51372924 51314648 
3902.624 51273404 51270812 51319404 51419604 51558240 51714524 51864060 
3905.999 51987620 52075576 52128724 52155716 52170164 52182608 52199596 
3909.374 52221928 52244672 52262064 52272252 52275352 52276320 52281296 
3912.749 52295084 52317444 52342476 52358960 52352568 52309652 52220312 
3916.125 52081712 51900152 51691272 51479284 51293632 51163068 51111964 
3919.500 51152112 51278588 51470176 51692356 51903760 52069164 52164672 
3922.875 52187032 52149888 52080428 52007068 51952728 51926396 51923392 
3926.250 51930972 51936284 51931920 51920328 51911536 51917768 51946428 
3929.625 51997224 52059584 52119136 52162992 52185244 52189224 52185676 
3933.001 52185364 52196728 52219800 52247564 52271036 52282552 52279812 
3936.376 52267800 52253896 52246036 52247328 52254792 52262000 52261808 
3939.751 52250032 52228436 52201980 52176328 52154844 52136576 52117104 
3943.126 52092636 52063172 52034920 52018916 52026224 52062092 52121412 
3946.502 52188444 52241464 52259044 52230496 52159460 52066164 51978372 
3949.877 51925916 51927800 51985940 52085268 52197708 52291424 52342620 
3953.252 52340224 52292056 52219688 52153388 52123552 52152196 52248948 
3956.627 52409912 52618924 52851404 53079368 53276980 53423232 53505520 
3960.003 53522596 53483220 53403644 53305216 53209072 53129712 53073616 
3963.378 53037960 53012040 52983672 52944064 52891972 52837840 52796168 
3966.753 52786044 52819572 52898644 53013532 53142424 53257788 53333308 
3970.128 53350908 53304740 53203204 53066496 52921764 52796412 52714868 
3973.504 52691684 52731736 52827748 52963432 53116948 53265632 53389484 
3976.879 53475592 53520816 53531244 53519244 53501528 53494824 53512864 
3980.254 53561376 53641060 53743068 53852324 53948408 54008844 54011984 
3983.629 53943220 53800096 53594580 53353088 53113348 52914836 52789964 
3987.005 52753592 52799192 52900112 53016188 53106132 53138584 53099204 
3990.380 52993296 52842524 52676724 52524540 52407360 52337608 52320204 
3993.755 52355160 52443592 52587432 52788628 53045312 53349048 53680776 
3997.130 54012780 54312532 54547072 54689948 54724432 54648984 54474096 
4000.506 54223020 
##END=
