##TITLE=eSUN_ABS+_Black_Filament_r5_ATR-Corrected
##JCAMP-DX=5.01  $$ Nicolet v. 1
##DATATYPE=INFRARED SPECTRUM
##ORIGIN=Curtin University
##OWNER=Nicolet
##LONGDATE=2024/07/18
##TIME=10:42:17
##SPECTROMETER/DATA SYSTEM=Nicolet iS50
##DATA PROCESSING=
Ratio against background
%Transmittance->Absorbance
ATR Correction
Truncated
ElementMultiply or ElementDivide
##COMMENTS=
Number of sample scans: 32
Collection length: 47.28 sec
Sample gain: 1.0
Background collected on: Thu Jul 18 10:40:59 2024 (GMT+08:00);
Number of background scans: 32
Background gain: 1.0
Sample spacing:  1.000
Number of scan points: 16672
Resolution points: 8192
Number of FFT points: 65536
Apodization: N-B strong;
Phase correction: Mertz;
Laser frequency: 15798.3 cm-1
Number of rejected sample scans: 0
Number of rejected background scans: 0
Bench serial number: AUP1200105;
##RESOLUTION=4.000
##XUNITS=1/CM
##YUNITS=ABSORBANCE
##FIRSTX=400.163452
##LASTX=4000.187744
##FIRSTY=0.021573
##MAXX=4000.187744
##MINX=400.163452
##MAXY=0.360803
##MINY=0.001394
##XFACTOR=1.000000
##YFACTOR=1.000000E-009
##NPOINTS=7468
##DELTAX=0.482125
##ZPD=8192
##XYDATA=(X++(Y..Y))
400.163 21572628 22135160 22677976 23125030 23418152 23530880 23472466 
403.538 23279278 23000584 22682872 22359274 22043364 21732920 21413318 
406.913 21068588 20690774 20289116 19896114 19565746 19362416 19344728 
410.288 19544688 19953126 20513782 21136044 21713876 22156610 22409676 
413.663 22464836 22351716 22117810 21805286 21436900 21015440 20538412 
417.038 20016414 19489188 19027006 18714180 18621984 18780698 19163512 
420.412 19691202 20253896 20743006 21081140 21238924 21234268 21119128 
423.787 20956106 20799914 20684202 20619940 20600932 20613330 20643048 
427.162 20680854 20722050 20765652 20810588 20854748 20892928 20916156 
430.537 20911750 20865676 20766432 20611568 20411876 20193032 19992312 
433.912 19848732 19789566 19819788 19917688 20039840 20135372 20162808 
437.286 20104428 19971638 19797326 19621714 19475502 19370344 19296886 
440.661 19234698 19165758 19086614 19012928 18973862 18998922 19104522 
444.036 19284964 19513248 19751048 19962386 20125672 20238966 20316146 
447.411 20377754 20439424 20503832 20559426 20585414 20559976 20468812 
450.786 20309862 20093746 19839924 19572476 19315360 19090042 18914686 
454.161 18802832 18762624 18795476 18894510 19045100 19227584 19422052 
457.535 19613258 19795324 19971452 20150722 20341422 20544618 20749052 
460.910 20932266 21065374 21123142 21093098 20983258 20823150 20656410 
464.285 20531272 20487574 20544972 20698272 20918282 21161020 21378702 
467.660 21532778 21602964 21590610 21516598 21413898 21318178 21259260 
471.035 21254202 21305290 21401260 21521242 21640344 21735874 21790740 
474.409 21796954 21754452 21670270 21555352 21422076 21282934 21150890 
477.784 21039848 20966116 20947316 20999782 21133536 21347524 21626078 
481.159 21939708 22250124 22519514 22719888 22840412 22889298 22889530 
484.534 22869944 22855728 22860716 22886148 22922980 22958936 22984390 
487.909 22996458 22999632 23003704 23020250 23060772 23134940 23250146 
491.284 23409532 23609234 23834520 24057896 24241268 24343364 24330932 
494.658 24190508 23935760 23606994 23260690 22954802 22731892 22609162 
498.033 22576790 22606126 22662802 22720296 22767722 22810104 22861316 
501.408 22936126 23042092 23178304 23337728 23512542 23698674 23896312 
504.783 24107066 24329940 24557872 24778554 24978158 25146910 25282602 
508.158 25391038 25481194 25560090 25627458 25676432 25697074 25684820 
511.532 25646798 25604710 25591154 25641662 25783796 26029622 26372654 
514.907 26791350 27256966 27742140 28227142 28703126 29170520 29636240 
518.282 30110436 30604652 31130364 31698272 32315954 32984626 33695628 
521.657 34428544 35152848 35833240 36437604 36945984 37356016 37684676 
525.032 37964360 38234792 38534268 38891336 39319740 39817684 40370596 
528.406 40956768 41553432 42142452 42714224 43268700 43814556 44365068 
531.781 44933904 45529836 46153392 46795940 47441220 48070376 48667048 
535.156 49223396 49742556 50239084 50734360 51250916 51804732 52400212 
538.531 53027468 53664616 54283376 54856964 55367496 55811132 56198896 
541.906 56552624 56898340 57258124 57644184 58057280 58488692 58926184 
545.281 59360416 59788860 60217360 60656564 61117368 61605988 62121652 
548.655 62657400 63203752 63752324 64298548 64840824 65377420 65902576 
552.030 66403284 66860564 67252696 67561832 67779464 67909864 67968584 
555.405 67977992 67960888 67933008 67899800 67855480 67785264 67669320 
558.780 67487728 67224680 66871292 66426768 65898024 65297560 64640024 
562.155 63938068 63197852 62417996 61588196 60693324 59717344 58648064 
565.529 57481328 56221484 54880856 53477684 52034020 50575568 49131392 
568.904 47735232 46423560 45233192 44195188 43329740 42640668 42114800 
572.279 41724316 41432948 41203080 41002500 40808172 40606408 40390620 
575.654 40158008 39906404 39633492 39336932 39015100 38667752 38295832 
579.029 37900324 37481592 37040068 36577788 36100632 35620224 35152876 
582.404 34716620 34325920 33986872 33694292 33432518 33179610 32914714 
585.778 32624114 32305778 31968866 31630184 31307768 31015416 30759056 
589.153 30536656 30340988 30163452 29997292 29839064 29687286 29540664 
592.528 29396100 29248622 29092900 28926286 28750780 28573790 28406384 
595.903 28258960 28137504 28040546 27958700 27877806 27782476 27661010 
599.278 27507480 27322398 27110554 26878590 26633456 26381308 26129144 
602.652 25885556 25661138 25467208 25312706 25201148 25129084 25086858 
606.027 25062414 25045618 25031968 25023300 25025222 25042500 25074854 
609.402 25115022 25151174 25172392 25174448 25163900 25156914 25173658 
612.777 25229688 25328762 25459360 25598510 25720004 25804782 25849388 
616.152 25867450 25885094 25931122 26025694 26172346 26355968 26546984 
619.527 26709810 26813114 26836194 26772708 26629268 26421532 26169630 
622.901 25894410 25615230 25349250 25110318 24909424 24754006 24648028 
626.276 24592820 24588410 24633918 24727974 24866512 25040836 25235158 
629.651 25426780 25588788 25696136 25732068 25694014 25595092 25460986 
633.026 25322764 25207324 25130338 25092360 25080550 25074844 25055456 
636.401 25009810 24935790 24841310 24740048 24646192 24569782 24514622 
639.775 24478768 24457394 24446140 24443474 24452266 24478482 24528758 
643.150 24607920 24716166 24848414 24994484 25141402 25276314 25389050 
646.525 25474960 25535394 25576720 25608598 25641216 25682598 25737228 
649.900 25805838 25886004 25973984 26066048 26159788 26254318 26350338 
653.275 26449386 26553762 26665930 26788102 26922258 27069864 27231542 
656.650 27407294 27597130 27801306 28020694 28257496 28513862 28791978 
660.024 29092224 29413494 29752870 30106998 30473114 30849652 31236270 
663.399 31632666 32037220 32446242 32854460 33256420 33649188 34034200 
666.774 34417884 34809908 35219992 35654088 36111704 36585852 37065196 
670.149 37538580 37999144 38446824 38888124 39333456 39792936 40272432 
673.524 40772008 41286116 41806560 42326840 42844008 43361072 43885964 
676.898 44429308 45002168 45613636 46269832 46974292 47728260 48532428 
680.273 49387776 50296852 51264544 52298812 53410860 54614388 55924412 
683.648 57354860 58917124 60619180 62466400 64465052 66625892 68969248 
687.023 71528440 74351392 77501368 81055912 85107792 89766208 95160784 
690.398 101445736 108801576 117433600 127562416 139406224 153155936 
693.290 168940960 186790528 206590752 228042368 250623616 273572608 
696.183 295902784 316468736 334096160 347755456 356743488 360803296 
699.076 360139200 355321856 347129184 336388864 323860832 310179808 
701.969 295842304 281220128 266584608 252127024 237975632 224207600 
704.861 210859520 197939552 185439968 173350912 161670400 150410160 
707.754 139595936 129261840 119444344 110175408 101479488 93372848 85866632 
711.129 78969216 72687088 67024312 61978724 57538564 53679376 50363460 
714.504 47542708 45163116 43170204 41513476 40148384 39036016 38140804 
717.878 37428044 36862584 36408960 36034416 35712272 35424792 35164752 
721.253 34934720 34743572 34602608 34521524 34505696 34555624 34667628 
724.628 34836440 35056672 35324380 35636888 35991940 36386544 36815932 
728.003 37273664 37752892 38247904 38755956 39278416 39821132 40393076 
731.378 41004924 41667108 42388316 43174768 44030200 44955808 45951064 
734.752 47013404 48138208 49318692 50545628 51808004 53093316 54389120 
738.127 55683640 56967224 58232412 59475584 60697292 61903136 63104852 
741.502 64319820 65570124 66879728 68271840 69765088 71371808 73097384 
744.877 74941824 76902408 78976824 81165032 83469880 85895568 88445280 
748.252 91119408 93914296 96823424 99839240 102955432 106168480 109477008 
751.627 112879168 116369728 119936192 123556424 127198192 130819600 
754.519 134371328 137799328 141047888 144061328 146787008 149177872 
757.412 151193920 152803888 153985264 154724384 155014848 154856352 
760.305 154254080 153218176 151764304 149913760 147694688 145141808 
763.197 142296512 139206096 135922192 132498112 128985960 125432848 
766.090 121877168 118347336 114860872 111426968 108049560 104730736 
768.983 101473688 98283200 95164616 92121968 89156080 86263864 83439616 
772.358 80677784 77975568 75335240 72764272 70274088 67876960 65582432 
775.732 63395128 61313292 59329496 57432996 55612268 53857904 52165024 
779.107 50533736 48969312 47479824 46074728 44760988 43541072 42411848 
782.482 41364348 40386556 39465776 38592508 37761820 36973316 36229832 
785.857 35532592 34879460 34262916 33671140 33092066 32518126 31949834 
789.232 31397510 30879222 30415590 30023658 29711198 29474084 29296580 
792.606 29155108 29024490 28883038 28717318 28523832 28308662 28085268 
795.981 27871444 27685798 27545258 27462394 27444312 27491736 27599270 
799.356 27756340 27949308 28163254 28385286 28606306 28823050 29038412 
802.731 29261272 29504452 29782038 30105314 30479874 30903368 31366270 
806.106 31854254 32353192 32854288 33357524 33872348 34414260 34998760 
809.481 35634316 36317952 37034732 37761260 38473372 39152536 39791400 
812.855 40392932 40966684 41521004 42057584 42567868 43034548 43436936 
816.230 43757752 43988864 44134324 44209364 44236964 44243624 44255600 
819.605 44295876 44383212 44531536 44749920 45043028 45412732 45860164 
822.980 46388912 47007240 47728396 48567420 49535376 50632624 51843700 
826.355 53135572 54463336 55777260 57033880 58203308 59271392 60235980 
829.729 61099384 61858952 62502532 63008464 63351312 63510916 63480540 
833.104 63270928 62908440 62429192 61869552 61258148 60611560 59934696 
836.479 59225684 58482120 57707752 56915576 56128196 55374036 54681252 
839.854 54071476 53555040 53128108 52774396 52469436 52186652 51902880 
843.229 51603032 51280496 50934592 50566248 50173888 49750616 49285024 
846.604 48764668 48180860 47532012 46825464 46074448 45294388 44497360 
849.978 43688992 42867952 42028864 41166460 40280248 39376392 38467536 
853.353 37570132 36700420 35871832 35092852 34367072 33693944 33070438 
856.728 32491520 31950642 31440682 30954380 30486260 30034024 29599238 
860.103 29187172 28804430 28456130 28143584 27862970 27606834 27366648 
863.478 27137640 26921092 26725322 26564150 26452336 26400896 26412578 
866.852 26480526 26589020 26717128 26844808 26956908 27047390 27119826 
870.227 27185702 27260346 27358350 27489816 27658654 27862984 28097586 
873.602 28356920 28637316 28937644 29258200 29599148 29958542 30332082 
876.977 30714880 31103742 31499696 31908714 32340572 32805298 33310038 
880.352 33855888 34438724 35050664 35684248 36334592 37000464 37681748 
883.727 38375988 39075276 39764472 40423860 41033244 41576808 42046152 
887.101 42439948 42760248 43007144 43174752 43249180 43211544 43042720 
890.476 42729832 42270324 41673340 40958436 40151896 39283192 38383256 
893.851 37483568 36616548 35815516 35112464 34535056 34103084 33824676 
897.226 33696840 33707300 33839992 34080124 34419496 34858332 35405228 
900.601 36073684 36878368 37830608 38935800 40191536 41587920 43108376 
903.975 44732032 46434812 48190652 49972216 51749992 53492068 55163616 
907.350 56727540 58147072 59388564 60425600 61240528 61826108 62182920 
910.725 62317192 62236252 61947764 61458676 60777664 59918508 58902144 
914.100 57757140 56517364 55217264 53887136 52548640 51214248 49888348 
917.475 48571576 47265136 45974288 44709452 43484540 42314228 41209908 
920.849 40177396 39215948 38320168 37482304 36695732 35957896 35271448 
924.224 34644520 34087564 33610640 33219226 32911218 32675822 32495196 
927.599 32347568 32213386 32079208 31942702 31812028 31704314 31639722 
930.974 31636060 31703576 31841770 32039512 32277786 32533936 32785974 
934.349 33016906 33216904 33384644 33525820 33651624 33775312 33908780 
937.724 34060316 34232592 34422844 34625172 34832932 35041788 35251700 
941.098 35465888 35689328 35925380 36173816 36429584 36684740 36931436 
944.473 37165684 37389224 37610324 37840804 38093112 38376300 38694484 
947.848 39046608 39428876 39837312 40271416 40734384 41234988 41785072 
951.223 42399316 43092212 43877560 44766448 45766900 46882760 48114368 
954.598 49459840 50917088 52486444 54172720 55986332 57941344 60051924 
957.972 62328512 64773224 67377072 70118992 72967272 75881072 78812912 
961.347 81711160 84521016 87186720 89652800 91867560 93785256 95369320 
964.722 96593536 97442528 97910744 98000248 97719488 97082568 96109504 
968.097 94827232 93270216 91479840 89501936 87383576 85169296 82897920 
971.472 80601800 78306992 76034840 73804224 71632864 69537912 67535568 
974.847 65640272 63863912 62215004 60698564 59315932 58064588 56938252 
978.221 55927924 55022392 54210312 53482168 52831820 52256960 51758664 
981.596 51339556 51001572 50743996 50562920 50451488 50401412 50405184 
984.971 50457916 50557576 50705124 50902548 51151204 51450180 51795684 
988.346 52181292 52598720 53039652 53495760 53959576 54423920 54881228 
991.721 55322412 55737288 56114744 56443428 56713060 56914976 57043716 
995.095 57097844 57082068 57009768 56905728 56807888 56766348 56839364 
998.470 57085804 57555884 58281544 59269068 60498688 61926284 63492844 
1001.845 65133892 66789052 68408264 69953904 71398704 72723176 73912872 
1005.220 74958016 75854816 76609344 77240280 77782080 78286808 78826448 
1008.595 79493456 80401400 81680384 83467408 85887376 89025624 92897240 
1011.970 97417136 102381448 107467856 112261776 116307456 119177968 
1014.862 120549392 120258648 118330080 114962168 110480968 105276048 
1017.755 99736760 94203744 88940688 84126040 79860128 76179152 73073992 
1021.130 70506480 68424576 66773816 65504408 64574764 63951888 63607448 
1024.505 63513452 63637064 63936672 64361432 64851552 65343276 65773040 
1027.880 66082084 66220320 66148704 65840460 65281832 64472532 63425548 
1031.255 62166880 60734312 59175064 57542136 55890216 54270876 52729344 
1034.630 51300544 50007764 48862256 47864284 47005976 46274716 45657180 
1038.006 45141824 44721084 44390740 44147868 43988932 43906616 43888880 
1041.381 43919624 43980632 44054756 44128268 44192116 44242008 44276640 
1044.756 44296440 44302508 44296284 44280712 44261700 44247824 44250524 
1048.131 44281144 44348624 44457100 44604844 44784216 44984484 45194572 
1051.507 45404952 45609640 45806328 45995996 46182248 46370752 46569732 
1054.882 46788728 47039288 47332332 47676072 48074072 48523304 49014516 
1058.257 49534356 50069052 50607848 51145776 51684316 52230348 52792556 
1061.632 53378636 53992624 54633288 55295276 55969740 56646792 57316672 
1065.008 57971324 58604608 59213588 59797168 60356952 60894716 61412136 
1068.383 61907828 62377520 62813660 63208668 63557648 63863664 64139656 
1071.758 64410336 64710104 65080204 65564872 66209384 67057712 68152680 
1075.133 69534408 71236696 73280104 75662064 78346248 81254584 84266136 
1078.509 87222200 89941840 92241784 93958976 94970424 95207040 94658888 
1081.884 93371360 91435416 88974144 86128056 83041512 79852552 76683424 
1085.259 73635448 70784848 68182800 65856600 63815192 62053884 60560476 
1088.634 59319072 58312412 57521068 56923256 56494060 56205232 56028132 
1092.010 55935940 55906720 55926380 55988336 56094272 56250332 56466472 
1095.385 56752328 57115804 57561096 58088140 58690780 59357784 60072260 
1098.760 60812680 61553620 62267532 62925628 63501612 63971840 64319744 
1102.135 64536064 64621336 64584792 64444216 64221568 63941240 63624672 
1105.510 63289212 62945404 62598088 62247588 61891984 61527756 61151780 
1108.886 60759692 60346292 59903876 59423980 58897136 58316544 57678972 
1112.261 56986848 56248216 55475764 54685044 53892012 53111072 52353908 
1115.636 51628772 50941040 50292964 49685664 49118792 48592288 48106788 
1119.011 47663444 47264448 46911468 46605588 46346228 46130944 45956744 
1122.387 45820068 45719560 45655524 45630956 45649508 45714464 45826600 
1125.762 45983208 46178524 46404956 46655316 46924740 47211388 47516444 
1129.137 47842896 48193800 48570428 48972208 49396844 49841628 50304720 
1132.512 50786552 51289336 51817452 52375800 52968640 53599236 54269000 
1135.888 54978216 55725976 56511228 57333560 58193432 59093560 60038680 
1139.263 61036636 62096316 63228056 64440468 65740088 67129872 68609328 
1142.638 70176280 71828880 73567760 75397816 77327312 79368400 81533736 
1146.013 83835824 86286480 88896720 91677880 94643360 97806888 101182664 
1149.389 104781296 108608376 112661664 116931104 121402208 126057744 
1152.282 130882952 135867936 141010128 146314384 151792320 157462160 
1155.175 163347216 169475376 175876368 182577856 189598576 196939696 
1158.068 204575216 212442880 220436880 228406064 236155168 243453936 
1160.961 250049440 255684224 260115232 263135648 264590288 264389664 
1163.854 262514832 259017056 254012016 247670496 240205728 231860416 
1166.747 222892448 213560352 204109920 194763152 185711408 177111776 
1169.640 169087120 161729488 155103504 149251168 144194320 139937472 
1172.533 136469216 133763608 131781744 130474464 129784200 129648608 
1175.426 130002840 130780992 131917728 133350312 135019184 136872160 
1178.319 138866464 140973712 143182368 145499776 147952800 150585744 
1181.212 153456608 156633136 160187872 164193056 168715328 173810496 
1184.105 179518272 185856864 192819424 200369936 208442576 216942176 
1186.999 225746224 234709328 243669088 252452560 260885264 268800352 
1189.892 276046624 282495072 288043200 292614272 296156928 298641888 
1192.785 300059488 300419744 299749984 298095104 295513920 292075360 
1195.678 287853792 282925568 277366176 271250560 264653712 257652128 
1198.571 250324048 242748592 235004704 227169280 219316608 211519440 
1201.464 203849168 196378352 189180272 182327824 175891328 169934528 
1204.357 164511952 159667296 155432176 151828848 148870736 146564480 
1207.250 144910144 143900640 143520112 143744336 144541072 145873840 
1210.143 147705040 150000192 152730368 155871632 159402528 163301456 
1213.036 167541952 172091312 176910416 181954608 187176672 192528928 
1215.929 197965376 203442224 208917744 214351200 219702928 224933552 
1218.822 230004944 234881312 239530304 243925712 248046912 251879120 
1221.715 255412544 258640352 261557664 264161344 266449488 268423856 
1224.608 270091104 271462208 272552320 273379072 273959872 274310176 
1227.501 274443072 274369696 274100608 273648032 273025248 272247584 
1230.395 271330688 270289312 269136320 267882704 266537392 265108320 
1233.288 263602496 262026816 260387744 258691040 256941968 255145840 
1236.181 253307696 251433408 249529040 247600064 245651152 243685936 
1239.074 241705584 239711584 237705072 235688720 233665872 231640800 
1241.967 229616448 227592928 225566640 223529152 221468624 219370352 
1244.860 217219344 215001504 212703728 210314384 207823280 205221152 
1247.753 202499248 199650704 196670240 193555184 190305520 186924320 
1250.646 183416704 179791200 176057952 172229952 168321568 164347952 
1253.539 160324000 156262000 152171872 148060864 143935072 139802240 
1256.432 135674080 131568048 127506912 123516936 119623944 115850056 
1259.325 112210568 108714312 105364920 102164024 99113192 96216328 93477768 
1262.700 90901248 88487144 86231328 84125432 82159368 80322592 78607408 
1266.076 77009104 75525456 74155432 72897864 71750280 70708992 69769208 
1269.451 68925568 68171376 67498896 66899024 66362068 65878592 65441608 
1272.826 65046980 64693876 64382956 64115516 63890464 63704728 63553332 
1276.201 63431540 63336132 63266740 63224912 63211948 63226396 63263820 
1279.577 63316128 63374772 63433452 63490876 63551336 63623756 63717820 
1282.952 63840820 63994728 64175868 64376132 64585960 64797276 65005592 
1286.327 65209940 65411644 65612488 65811692 66005664 66187204 66346952 
1289.702 66476076 66567020 66615388 66619852 66580192 66496888 66368492 
1293.078 66191180 65959372 65667644 65313360 64899392 64435220 63936480 
1296.453 63422128 62911100 62418024 61951412 61513120 61100556 60709672 
1299.828 60338304 59987564 59662128 59368312 59112360 58899040 58730664 
1303.203 58608276 58532140 58501992 58517200 58574788 58668768 58789968 
1306.579 58926260 59064720 59193780 59303924 59387968 59439792 59452488 
1309.954 59417852 59327048 59172308 58949952 58662312 58318644 57932936 
1313.329 57521720 57100752 56682104 56273956 55880860 55505228 55148712 
1316.704 54813348 54501360 54214568 53954268 53720712 53513916 53333276 
1320.080 53178148 53047516 52939328 52850560 52776484 52712540 52653780 
1323.455 52596948 52539968 52482556 52425540 52370740 52320404 52277308 
1326.830 52244708 52225368 52220644 52229956 52249112 52271788 52290308 
1330.205 52297840 52290104 52266936 52230808 52186584 52138792 52091252 
1333.581 52046424 52007072 51977404 51963372 51972164 52010296 52081088 
1336.956 52183764 52313764 52464420 52630704 52810980 53007744 53225308 
1340.331 53467924 53735336 54022292 54319908 54617708 54908368 55189660 
1343.706 55465092 55741636 56027172 56325384 56635620 56951968 57265808 
1347.082 57568288 57853084 58116852 58359980 58584088 58791944 58986200 
1350.457 59169772 59345348 59516812 59687588 59861124 60039784 60224548 
1353.832 60415740 60613976 60820900 61040612 61279880 61548500 61858308 
1357.207 62223968 62660768 63185200 63811080 64548008 65397204 66348144 
1360.583 67376672 68444936 69502560 70492144 71353704 72031560 72479704 
1363.958 72666392 72576792 72214064 71598608 70765304 69760424 68636488 
1367.333 67447256 66242724 65065100 63947476 62912776 61974864 61140740 
1370.708 60411084 59781300 59242480 58781452 58382616 58028816 57703868 
1374.083 57393964 57088120 56777864 56456484 56119044 55762140 55385632 
1377.459 54993548 54595360 54205624 53842020 53522508 53262028 53070728 
1380.834 52953264 52909024 52933936 53021236 53161260 53341704 53544964 
1384.209 53750116 53931660 54062604 54118732 54081640 53940944 53696568 
1387.584 53357220 52937596 52456148 51930772 51377892 50810528 50238012 
1390.960 49667308 49103284 48550156 48012044 47493836 47001080 46539560 
1394.335 46115032 45731828 45392620 45097904 44847120 44638604 44471116 
1397.710 44343600 44255400 44205716 44193076 44214844 44269040 44354264 
1401.085 44471612 44625312 44822648 45072456 45382852 45758964 46201216 
1404.461 46703988 47256180 47843252 48448440 49055116 49647996 50213060 
1407.836 50736872 51205948 51607048 51927220 52155676 52286736 52321052 
1411.211 52266776 52138760 51956196 51739532 51507412 51274432 51050076 
1414.586 50839188 50642596 50458344 50282840 50110728 49935892 49750848 
1417.962 49549652 49328368 49087368 48832352 48574360 48328372 48111592 
1421.337 47940736 47830952 47794880 47842756 47982552 48219840 48557816 
1424.712 48997228 49536920 50174616 50908572 51738376 52665748 53693592 
1428.087 54824092 56057424 57389876 58814364 60320416 61896228 63529244 
1431.463 65207676 66919924 68655184 70403736 72157752 73912144 75665664 
1434.838 77420624 79182144 80956208 82748744 84564888 86409328 88288280 
1438.213 90210680 92189152 94240320 96382040 98633072 101010656 103530792 
1441.588 106208408 109057504 112092160 115323704 118759304 122398368 
1444.481 126230808 130238024 134395792 138680656 143077488 147585856 
1447.375 152224720 157030512 162047856 167312096 172821984 178510608 
1450.268 184215712 189663152 194470912 198181664 200320544 200474928 
1453.161 198367376 193910624 187224656 178619776 168553856 157573840 
1456.054 146253296 135130784 124656040 115154048 106810648 99682928 93725888 
1459.429 88829136 84849992 81637744 79050824 76962528 75263840 73862256 
1462.804 72680760 71656432 70738736 69887904 69073544 68272568 67469048 
1466.179 66653924 65825380 64988488 64155504 63342736 62567248 61842232 
1469.555 61172892 60552632 59961544 59368920 58738060 58032820 57227304 
1472.930 56311544 55295720 54208980 53093476 51996724 50962684 50025948 
1476.305 49208508 48520900 47964824 47537988 47236952 47059380 47003636 
1479.680 47068860 47253824 47558460 47985612 48543032 49244480 50109292 
1483.056 51159408 52417636 53905056 55640892 57644660 59939784 62559000 
1486.431 65549388 68978104 72935856 77538360 82920968 89222600 96558288 
1489.806 104978440 114421792 124670832 135327104 145816000 155434256 
1492.699 163436624 169149072 172087280 172047424 169148208 163810064 
1495.592 156675632 148496496 140014448 131866184 124526064 118292632 
1498.485 113304408 109575048 107030752 105542984 104951528 105081256 
1501.378 105752816 106791808 108036112 109341344 110582272 111652256 
1504.271 112459328 112922976 112971680 112545000 111598056 110107768 
1507.165 108076144 105532824 102530528 99140160 95442864 91523848 87467408 
1510.540 83353088 79254328 75236104 71354536 67656448 64178704 60947764 
1513.915 57979388 55278256 52838112 50643776 48673020 46900944 45303480 
1517.290 43861508 42560376 41391008 40345708 39415952 38590644 37856220 
1520.666 37197752 36601972 36059600 35565460 35118092 34717492 34362616 
1524.041 34050456 33775720 33532654 33315678 33121970 32950308 32801382 
1527.416 32675576 32572520 32489508 32422680 32366932 32317478 32271084 
1530.791 32225616 32181606 32140120 32103140 32072260 32048072 32030162 
1534.167 32016978 32006818 31998300 31992282 31990796 31998164 32019212 
1537.542 32058060 32116614 32193858 32285452 32384970 32484718 32577510 
1540.917 32657392 32720116 32763232 32786730 32792796 32786508 32775636 
1544.292 32770452 32780956 32815590 32878324 32967140 33074744 33190548 
1547.667 33303480 33405490 33493712 33571584 33647388 33733236 33841228 
1551.043 33981404 34158840 34373756 34620052 34886836 35159308 35421228 
1554.418 35656972 35853432 36000912 36093144 36125816 36095548 35999508 
1557.793 35835612 35605364 35314816 34976772 34609984 34236264 33876816 
1561.168 33548594 33261850 33019938 32820232 32656714 32521124 32404982 
1564.544 32299876 32197494 32091256 31976692 31852834 31723432 31596686 
1567.919 31483538 31394936 31338074 31315032 31322368 31352856 31398990 
1571.294 31455948 31524122 31607718 31713306 31847264 32013338 32212130 
1574.669 32442600 32703984 32998436 33332646 33718960 34173704 34715936 
1578.045 35364656 36136088 37039524 38074096 39223728 40454644 41714532 
1581.420 42935780 44042644 44961296 45630292 46010084 46088288 45881652 
1584.795 45432408 44802348 44064496 43293804 42560168 41922160 41423460 
1588.170 41090788 40934336 40948836 41116248 41410608 41802208 42261952 
1591.546 42766000 43297996 43850820 44427580 45041484 45714888 46477848 
1594.921 47365464 48414556 49659216 51126268 52830964 54772032 56928372 
1598.296 59256624 61689284 64135620 66485180 68614896 70398920 71722512 
1601.671 72493752 72655504 72191672 71128896 69532456 67496280 65133036 
1605.047 62559700 59887940 57216180 54624396 52173872 49907204 47850140 
1608.422 46013652 44397064 42990128 41776816 40737384 39850656 39095220 
1611.797 38450228 37895620 37412152 36983680 36596676 36242444 35916732 
1615.172 35619128 35351032 35113896 34907328 34728108 34570952 34430348 
1618.548 34301508 34182136 34072848 33975668 33893656 33829412 33785024 
1621.923 33760908 33757016 33771220 33799480 33836328 33873928 33904096 
1625.298 33919976 33918052 33900692 33875404 33854616 33853328 33884640 
1628.673 33958136 34078176 34243812 34451192 34695332 34973020 35283468 
1632.049 35628680 36013512 36444272 36927688 37469348 38070628 38726976 
1635.424 39423524 40134728 40824132 41449200 41966560 42339256 42542960 
1638.799 42568508 42422704 42124372 41699212 41174876 40576600 39925620 
1642.174 39240660 38540620 37846680 37182168 36570812 36031392 35574272 
1645.550 35198504 34893096 34640720 34423392 34227416 34046552 33881152 
1648.925 33735272 33614536 33522330 33459876 33426608 33420608 33439030 
1652.300 33477868 33530954 33590100 33646116 33691312 33722160 33740208 
1655.675 33751296 33763196 33781192 33806220 33833208 33853468 33859056 
1659.051 33846256 33819668 33790876 33775324 33787724 33836696 33922932 
1662.426 34039868 34176764 34322536 34469220 34612252 34748840 34875800 
1665.801 34987324 35075740 35133132 35154780 35142496 35104556 35054700 
1669.176 35007888 34976080 34964580 34971364 34988720 35005784 35013036 
1672.552 35003824 34976868 34934000 34880400 34821352 34761752 34704860 
1675.927 34651892 34602680 34556176 34511624 34469144 34430600 34398856 
1679.302 34377764 34370192 34377368 34397864 34427988 34463392 34500144 
1682.677 34536628 34573536 34612856 34657120 34706248 34757340 34805236 
1686.052 34843896 34869512 34881584 34883876 34883572 34888788 34906440 
1689.428 34940184 34989912 35053228 35126108 35205728 35291572 35384996 
1692.803 35489664 35608824 35745256 35899060 36067536 36245940 36427484 
1696.178 36605496 36774840 36933964 37085100 37234628 37391604 37566692 
1699.553 37768880 38003720 38272104 38570004 38891172 39230068 39584112 
1702.929 39955244 40348920 40773508 41235804 41738736 42280320 42852876 
1706.304 43446440 44051284 44661332 45277492 45907128 46564328 47266564 
1709.679 48033116 48880836 49823428 50870612 52027272 53294204 54668668 
1713.054 56144136 57712752 59365556 61096208 62902816 64791060 66774108 
1716.430 68872048 71107568 73500488 76062144 78793544 81683520 84714376 
1719.805 87865728 91119624 94462776 97886360 101381520 104936072 108530496 
1723.180 112138016 115727536 119266424 122726512 126084968 129323824 
1726.073 132427824 135380112 138161024 140746752 143112000 145232272 
1728.966 147087328 148662288 149947696 150938784 151634032 152032672 
1731.859 152133904 151935904 151435600 150627936 149508144 148072832 
1734.752 146322880 144265232 141912128 139281408 136394160 133273064 
1737.646 129941520 126424296 122748240 118944000 115045272 111088336 
1740.539 107110000 103145104 99225376 95380216 91636376 88019552 84555200 
1743.914 81267704 78180344 75312112 72676768 70281232 68124664 66200896 
1747.289 64499192 63006832 61712208 60607116 59685416 58943692 58379376 
1750.664 57988880 57766616 57703752 57789784 58011768 58357336 58813928 
1754.040 59371164 60021904 60763644 61599716 62539496 63597968 64793544 
1757.415 66146700 67676648 69400472 71332872 73484984 75865712 78479816 
1760.790 81326960 84402176 87693944 91187856 94867096 98716384 102721784 
1764.165 106871112 111149472 115536120 120001576 124506664 129004328 
1767.058 133444696 137780784 141970896 145981552 149784048 153351344 
1769.951 156653616 159656208 162321504 164612768 166500864 167970528 
1772.844 169023104 169677136 169963056 169917440 169575312 168964736 
1775.738 168103488 166999376 165651120 164053120 162199648 160088864 
1778.631 157726992 155128720 152318112 149325376 146183904 142925568 
1781.524 139578064 136162144 132692280 129177776 125626192 122044168 
1784.417 118441384 114827896 111217472 107623752 104061528 100544296 
1787.310 97084376 93691288 90370400 87122328 83944472 80832840 77785808 
1790.685 74807432 71910336 69113704 66441648 63916372 61554612 59363428 
1794.060 57340184 55475788 53757428 52172428 50709540 49359044 48110560 
1797.436 46953544 45875560 44863688 43906452 42994180 42121084 41284924 
1800.811 40487552 39734548 39034700 38398964 37837948 37358188 36959664 
1804.186 36633972 36364684 36131608 35914944 35700980 35483460 35262188 
1807.561 35040040 34818212 34593208 34358752 34108148 33838584 33554448 
1810.937 33265442 32983154 32715276 32461114 32211776 31953942 31676602 
1814.312 31377248 31064160 30756224 30476820 30248764 30087564 29999730 
1817.687 29983414 30029226 30123134 30245718 30373012 30477450 30531604 
1821.062 30514852 30419502 30255300 30046328 29826630 29627710 29470378 
1824.438 29358968 29283716 29225876 29168132 29098930 29015448 28919872 
1827.813 28814012 28695744 28558706 28396306 28207722 28000424 27789934 
1831.188 27594338 27426512 27289356 27173318 27061758 26937400 26790368 
1834.563 26620660 26438392 26258328 26094810 25956500 25847000 25765940 
1837.938 25710124 25676862 25662142 25657544 25650352 25623830 25561776 
1841.314 25453710 25299750 25112606 24914762 24733174 24591158 24503458 
1844.689 24472812 24490492 24538946 24596570 24641604 24656240 24629286 
1848.064 24561020 24462350 24355120 24265146 24218156 24229458 24300746 
1851.439 24420702 24568946 24724950 24874722 25013134 25141622 25261950 
1854.815 25370050 25455624 25506158 25514688 25489632 25455606 25448302 
1858.190 25500912 25629378 25822612 26042326 26235912 26353974 26369276 
1861.565 26287090 26143244 25991068 25881984 25848460 25896146 26005224 
1864.940 26140784 26267876 26361392 26413820 26433744 26440888 26459864 
1868.316 26514216 26621568 26791200 27022500 27303574 27612392 27920454 
1871.691 28198218 28423984 28589706 28703656 28788086 28870376 28971898 
1875.066 29097160 29230110 29334920 29366564 29284306 29066302 28718370 
1878.441 28279100 27810024 27385344 27074310 26923868 26950928 27137924 
1881.817 27440976 27801710 28162456 28479470 28729140 28907408 29024594 
1885.192 29097644 29143152 29177284 29214346 29269244 29356252 29482088 
1888.567 29641022 29809538 29948498 30012972 29967934 29804694 29545900 
1891.942 29241710 28952682 28727190 28584326 28508708 28458850 28389018 
1895.318 28269372 28099372 27905984 27727758 27594196 27509080 27447666 
1898.693 27368468 27234406 27030242 26772902 26503672 26270746 26110530 
1902.068 26031424 26015840 26030370 26043216 26038222 26017858 25996568 
1905.443 25988492 25993698 25995120 25961928 25861428 25671492 25388202 
1908.819 25027622 24620882 24208338 23830900 23527174 23327734 23252384 
1912.194 23302362 23457110 23673590 23889318 24040444 24076080 23974052 
1915.569 23748158 23442994 23119058 22833472 22622194 22493444 22428900 
1918.944 22395090 22355054 22279912 22152200 21969364 21738314 21478658 
1922.320 21218112 20991874 20834378 20771836 20809724 20929556 21089820 
1925.695 21242538 21349850 21400576 21417462 21448766 21547206 21749176 
1929.070 22055038 22430754 22820684 23171004 23451960 23667772 23851474 
1932.445 24045450 24279642 24554508 24841804 25093408 25264406 25329714 
1935.821 25292398 25182084 25039726 24903800 24798972 24730210 24691380 
1939.196 24671190 24661902 24663666 24681382 24724004 24798446 24907192 
1942.571 25048352 25214680 25396112 25581254 25755164 25905796 26022158 
1945.946 26098160 26134426 26133248 26096330 26022994 25903688 25724970 
1949.322 25471448 25131962 24703422 24196674 23634742 23050380 22478624 
1952.697 21956306 21510982 21160240 20905884 20738018 20636336 20581678 
1956.072 20562716 20585718 20668716 20834378 21093910 21428836 21787562 
1959.447 22096032 22283832 22321186 22239174 22129118 22114412 22304566 
1962.823 22742682 23389466 24124586 24794026 25259100 25444662 25353750 
1966.198 25063402 24676486 24290028 23965376 23730254 23591700 23566896 
1969.573 23691272 24007762 24540228 25257890 26063692 26803284 27306130 
1972.948 27438202 27141228 26455334 25514140 24515626 23682212 23234934 
1976.323 23353572 24149098 25627452 27666442 30000270 32269262 34083156 
1979.699 35126608 35231268 34421312 32900270 30996752 29083838 27494316 
1983.074 26442392 26004232 26111170 26601362 27268944 27920912 28402762 
1986.449 28619658 28529774 28147950 27535770 26796036 26060044 25464774 
1989.824 25124792 25102028 25384522 25897186 26513066 27098616 27547072 
1993.200 27800978 27856748 27752138 27535662 27248604 26912870 26528754 
1996.575 26084636 25571154 24984776 24333294 23628578 22889352 22127908 
1999.950 21358080 20596442 19863192 19186340 18601304 18146306 17869520 
2003.325 17819082 18036654 18549286 19349494 20381746 21537566 22663332 
2006.701 23589196 24166062 24303734 23991358 23292126 22324766 21234668 
2010.076 20166546 19250464 18586028 18234902 18218516 18510648 19039576 
2013.451 19697814 20370922 20973694 21474116 21899812 22316316 22785394 
2016.826 23312986 23827822 24181676 24209038 23791846 22925964 21748214 
2020.202 20507424 19492586 18936716 18941024 19445368 20252196 21108544 
2023.577 21790226 22176764 22264944 22164622 22023734 21976118 22097488 
2026.952 22384866 22780822 23211562 23609852 23948752 24228290 24478312 
2030.327 24724984 24988660 25273728 25572528 25867058 26139134 26368520 
2033.703 26537930 26625282 26613736 26489686 26250880 25912820 25515066 
2037.078 25109948 24767028 24547856 24489156 24590030 24805828 25047292 
2040.453 25208514 25186292 24912414 24368148 23591968 22666812 21701598 
2043.828 20812202 20112138 19699578 19666186 20080124 20976338 22329780 
2047.204 24033232 25891244 27646676 29027398 29833532 29989928 29573392 
2050.579 28780100 27862400 27055158 26518872 26312496 26403806 26691006 
2053.954 27048154 27364544 27569104 27638016 27584500 27435334 27217554 
2057.329 26954190 26663816 26368692 26098390 25883036 25744182 25682416 
2060.705 25678452 25692750 25681538 25613016 25479214 25298608 25109022 
2064.080 24953430 24868384 24871312 24957334 25099358 25254292 25371198 
2067.455 25399030 25293178 25030760 24608714 24053144 23416984 22768466 
2070.830 22179046 21708758 21392720 21241476 21240094 21361650 21575958 
2074.206 21857506 22188724 22554548 22938456 23321572 23681500 23997842 
2077.581 24260342 24475704 24664528 24859920 25089724 25370506 25695256 
2080.956 26032830 26334106 26544332 26620186 26540854 26315720 25983254 
2084.331 25599240 25223528 24904686 24672368 24530414 24464978 24448108 
2087.707 24452406 24453504 24436046 24391696 24317962 24215528 24089940 
2091.082 23951794 23820506 23721046 23677910 23709060 23815698 23979874 
2094.457 24165386 24328278 24428648 24442188 24366692 24218102 24022310 
2097.832 23805912 23587904 23375772 23172146 22975328 22789230 22621494 
2101.208 22489104 22412478 22417834 22529364 22766326 23134904 23618246 
2104.583 24172084 24724850 25190058 25487878 25567632 25430350 25129522 
2107.958 24760046 24428590 24223932 24191078 24323732 24576324 24887736 
2111.333 25204056 25491350 25733438 25917002 26018068 25997492 25807864 
2114.708 25422900 24852916 24160402 23449692 22838770 22421888 22240664 
2118.084 22269958 22432028 22627078 22767258 22802820 22728360 22570682 
2121.459 22367014 22145226 21915824 21675794 21420666 21153682 20888244 
2124.834 20637736 20406182 20176318 19918758 19603862 19217398 18775234 
2128.209 18314026 17877358 17488152 17133936 16766187 16324056 15766796 
2131.585 15106245 14419179 13830924 13476878 13451808 13777153 14386281 
2134.960 15143177 15890088 16490674 16857906 16959842 16798594 16397417 
2138.335 15776850 14962462 13991120 12930566 11876135 10942203 10237938 
2141.710 9844293 9798521 10096717 10705676 11579688 12669413 13919919 
2145.086 15260147 16595446 17806624 18761182 19337010 19446250 19050452 
2148.461 18167996 16862574 15236724 13415545 11538822 9752665 8191797 
2151.836 6954571 6076168 5508821 5128200 4762913 4257994 3538112 2664846 
2155.694 1846319 1394241 1645552 2847223 5067016 8140392 11705978 15311335 
2159.551 18570432 21262934 23353878 24941084 26143602 27035980 27623552 
2162.926 27867678 27736416 27245106 26474982 25558030 24635534 23810906 
2166.302 23129190 22576712 22107386 21684756 21302390 20995696 20813128 
2169.677 20790486 20907214 21086804 21208826 21156730 20872890 20406574 
2173.052 19915574 19632826 19793400 20548084 21898550 23672478 25563688 
2176.427 27219536 28345366 28784016 28553868 27825094 26859100 25927364 
2179.802 25233392 24879816 24854162 25059036 25360992 25637922 25816426 
2183.178 25883006 25872518 25845284 25848830 25898432 25968592 25997920 
2186.553 25920338 25691962 25317930 24872738 24478008 24272750 24360630 
2189.928 24771260 25439216 26221494 26941630 27454872 27698244 27717496 
2193.303 27645262 27650818 27877700 28396042 29176798 30120838 31088846 
2196.679 31956784 32642894 33115432 33373966 33427682 33277012 32919302 
2200.054 32357052 31620484 30772934 29901312 29091108 28396096 27822258 
2203.429 27338666 26897312 26466932 26056458 25712098 25501390 25474230 
2206.804 25637790 25951040 26336618 26713714 27030370 27279260 27491622 
2210.180 27716628 27986878 28304926 28636270 28927306 29125746 29202314 
2213.555 29154470 28999770 28762024 28460802 28109814 27729790 27358962 
2216.930 27059288 26909524 26978252 27298082 27843018 28523456 29207306 
2220.305 29751186 30044610 30045132 29787192 29377084 28968418 28721978 
2223.681 28769874 29186320 29979470 31087528 32403414 33796332 35150536 
2227.056 36392576 37512808 38566752 39662416 40927876 42475244 44364520 
2230.431 46587772 49069164 51685448 54296896 56780540 59052980 61077576 
2233.806 62854976 64408816 65756796 66898904 67806392 68428840 68709856 
2237.182 68607400 68112960 67267168 66153204 64885916 63588044 62358888 
2240.557 61253788 60267880 59339504 58371544 57261844 55933876 54361612 
2243.932 52575592 50655492 48703664 46818472 45074532 43507456 42120536 
2247.307 40897816 39818152 38869212 38049860 37361152 36801576 36354604 
2250.683 35986624 35653908 35315672 34946468 34548192 34148896 33796432 
2254.058 33538848 33406966 33400580 33485356 33602352 33688764 33699292 
2257.433 33625448 33497612 33373770 33316556 33368270 33530102 33758752 
2260.808 33978396 34107732 34086996 33897800 33569068 33161658 32745800 
2264.184 32376688 32077562 31844206 31655382 31491090 31348926 31243938 
2267.559 31201494 31238224 31351004 31514138 31686678 31832912 31938192 
2270.934 32016634 32103584 32242682 32460362 32754380 33091676 33419944 
2274.309 33688968 33870500 33967712 34013848 34053760 34126716 34246648 
2277.685 34398748 34544524 34638072 34645712 34559188 34401604 34221764 
2281.060 34079196 34028892 34105888 34317408 34642856 35040108 35454532 
2284.435 35833040 36130740 36318292 36384244 36334008 36187248 35974048 
2287.810 35730544 35494548 35300072 35173360 35128428 35164204 35263684 
2291.186 35397664 35528568 35619472 35640424 35574532 35419324 35186968 
2294.561 34897892 34577128 34249088 33934092 33647944 33401106 33199002 
2297.936 33042342 32926328 32842160 32778506 32726560 32682780 32652616 
2301.311 32650240 32693956 32801066 32979894 33223838 33511576 33810252 
2304.687 34082824 34297008 34432892 34487700 34474264 34418336 34351388 
2308.062 34302384 34291820 34327560 34404096 34504980 34608448 34694140 
2311.437 34750368 34777132 34787076 34799168 34833884 34905108 35016232 
2314.812 35160208 35324200 35494328 35661200 35821892 35975820 36124740 
2318.188 36269360 36412620 36565040 36749500 37002412 37364944 37867072 
2321.563 38507012 39235596 39954820 40533908 40839192 40770620 40289728 
2324.938 39430324 38291352 37011624 35739076 34599000 33672344 32986152 
2328.313 32520868 32224942 32039940 31916790 31827788 31764806 31731926 
2331.688 31735700 31776544 31847074 31932316 32016714 32086548 32135166 
2335.064 32159212 32162022 32147248 32122164 32094668 32073636 32067056 
2338.439 32080464 32113720 32161214 32211132 32250430 32266836 32253228 
2341.814 32209094 32139790 32054364 31962250 31872272 31790924 31724204 
2345.189 31676148 31650268 31647872 31665924 31696976 31730130 31753578 
2348.565 31757534 31739082 31700142 31649306 31595468 31546194 31506226 
2351.940 31474266 31447202 31422458 31398744 31377916 31361092 31347082 
2355.315 31331134 31304546 31256870 31180582 31072476 30937040 30784732 
2358.690 30628930 30481454 30350372 30236486 30135690 30039140 29938276 
2362.066 29824898 29693680 29544046 29380114 29210256 29047852 28907734 
2365.441 28804242 28747638 28739630 28772096 28828294 28886286 28925338 
2368.816 28931228 28900862 28841098 28766122 28692578 28632738 28594282 
2372.191 28578122 28580772 28597818 28625704 28662166 28704394 28748898 
2375.567 28791966 28830758 28865996 28904010 28955562 29031358 29138812 
2378.942 29275254 29426694 29571560 29686060 29754182 29771658 29748690 
2382.317 29705728 29665676 29644864 29648338 29669372 29694888 29711060 
2385.692 29710964 29696872 29678300 29667856 29674170 29699870 29740150 
2389.068 29785252 29825406 29851712 29859940 29847698 29813840 29757790 
2392.443 29680998 29588352 29488254 29393916 29319870 29277780 29272168 
2395.818 29299778 29350752 29411138 29469592 29519816 29562210 29601018 
2399.193 29642302 29689896 29744218 29800854 29854240 29896834 29921266 
2402.569 29921946 29894034 29839144 29764728 29685780 29624756 29604380 
2405.944 29640654 29735104 29870048 30012530 30122976 30170318 30142928 
2409.319 30056536 29948092 29863286 29839428 29890934 30004050 30142800 
2412.694 30262776 30328408 30326316 30267748 30183216 30109362 30075014 
2416.070 30092138 30156650 30249036 30347904 30435020 30498582 30533704 
2419.445 30540534 30520456 30477416 30417930 30352558 30295590 30260648 
2422.820 30256264 30281620 30325500 30371624 30404210 30416294 30413406 
2426.195 30411674 30428476 30477730 30558798 30658284 30752684 30820028 
2429.571 30847444 30837152 30805380 30775250 30768746 30796914 30857786 
2432.946 30936446 31012398 31065048 31079924 31052432 30986292 30890544 
2436.321 30777820 30661148 30552840 30463200 30400886 30371226 30375152 
2439.696 30411266 30472862 30552450 30639904 30726980 30804842 30867332 
2443.072 30908758 30927362 30924546 30906712 30885120 30872024 30879448 
2446.447 30913904 30973834 31050990 31132932 31210148 31279218 31345130 
2449.822 31417932 31508152 31616896 31733566 31833034 31884338 31859878 
2453.197 31745546 31550798 31307772 31062278 30864472 30750524 30735960 
2456.573 30808762 30937148 31079436 31197304 31267590 31285464 31263486 
2459.948 31222540 31182748 31154192 31136446 31119952 31092874 31050404 
2463.323 30997426 30951222 30933410 30962836 31047334 31178556 31331964 
2466.698 31475096 31574614 31606718 31565304 31460460 31317330 31169462 
2470.073 31048244 30979736 30975506 31037934 31156212 31312320 31483528 
2473.449 31646814 31779948 31866792 31898428 31874560 31804136 31702582 
2476.824 31587824 31477920 31384726 31313826 31263772 31229514 31203794 
2480.199 31181096 31157890 31132806 31104324 31070250 31026162 30966490 
2483.574 30887058 30787190 30671124 30548580 30431256 30331772 30259788 
2486.950 30221680 30220418 30256460 30329642 30437546 30575540 30734472 
2490.325 30899684 31052758 31174044 31248486 31270336 31247058 31196564 
2493.700 31142390 31106744 31101694 31127016 31170224 31211990 31235818 
2497.075 31235290 31216620 31198204 31201838 31245444 31335934 31465094 
2500.451 31614534 31760030 31883072 31972620 32031122 32067276 32092754 
2503.826 32114316 32132894 32142408 32133814 32103054 32053042 31996176 
2507.201 31949628 31928658 31941812 31984064 32040474 32087904 32105032 
2510.576 32079674 32013606 31923786 31837530 31783730 31782888 31842832 
2513.952 31954002 32094124 32235782 32355018 32438752 32486972 32510888 
2517.327 32525196 32541222 32561206 32577160 32573674 32536990 32461762 
2520.702 32356054 32241282 32147292 32103098 32128260 32225390 32381642 
2524.077 32569852 32757468 32916132 33026148 33082568 33092596 33073452 
2527.453 33045162 33025912 33026598 33048530 33084020 33119612 33140526 
2530.828 33135172 33100344 33039826 32965112 32889590 32823730 32772812 
2534.203 32736226 32708972 32688546 32675810 32679260 32709792 32776884 
2537.578 32881864 33015386 33156176 33280376 33365868 33401958 33391036 
2540.954 33347304 33291582 33241824 33209506 33197396 33202130 33219886 
2544.329 33249550 33293218 33356362 33442050 33548820 33671296 33801048 
2547.704 33931036 34059604 34189016 34321708 34456820 34585804 34692260 
2551.079 34756472 34763040 34706444 34595548 34449816 34294532 34151772 
2554.455 34035688 33949936 33890700 33852132 33830656 33827344 33845176 
2557.830 33886412 33947596 34020512 34091444 34148068 34182752 34195668 
2561.205 34192656 34184644 34183204 34197608 34234604 34298936 34394320 
2564.580 34521644 34678044 34853464 35031780 35189392 35303012 35354332 
2567.956 35334796 35249476 35112996 34943724 34760004 34573960 34392452 
2571.331 34221092 34068228 33949064 33885220 33898600 34005860 34208852 
2574.706 34492616 34826720 35169772 35480624 35727064 35891648 35973316 
2578.081 35986496 35954576 35903416 35856392 35828492 35825744 35844092 
2581.457 35872420 35895204 35897836 35871232 35815536 35740376 35664132 
2584.832 35608640 35593540 35629972 35716580 35839324 35975308 36098432 
2588.207 36188132 36234196 36240600 36223060 36205964 36214924 36266968 
2591.582 36369404 36516148 36689936 36869144 37033432 37168488 37269840 
2594.958 37340036 37386540 37416244 37431736 37431032 37409868 37366104 
2598.333 37303360 37233928 37177020 37153912 37181196 37264584 37395132 
2601.708 37550252 37698844 37809524 37859248 37839940 37758900 37639376 
2605.083 37511440 37405408 37342984 37332224 37366716 37428900 37496908 
2608.458 37553420 37590660 37614400 37641200 37691072 37779588 37910648 
2611.834 38072092 38239432 38381612 38473328 38501660 38472564 38408948 
2615.209 38343444 38309096 38329612 38412716 38550028 38720256 38896304 
2618.584 39052968 39172052 39244036 39269684 39256776 39217976 39168108 
2621.959 39121364 39088820 39077564 39088160 39116404 39152656 39186856 
2625.335 39211064 39223936 39230332 39241136 39271500 39333132 39432368 
2628.710 39568180 39730828 39906196 40078392 40234784 40367688 40474352 
2632.085 40557936 40622572 40674036 40716116 40752320 40783664 40811664 
2635.460 40838132 40865704 40896980 40934700 40978052 41024312 41067788 
2638.836 41101024 41118504 41118672 41105776 41089804 41084420 41102992 
2642.211 41153500 41235884 41340544 41450516 41546812 41613264 41640932 
2645.586 41629800 41588388 41529236 41465700 41407320 41358840 41320800 
2648.961 41289292 41260872 41231884 41202160 41173068 41149324 41137328 
2652.337 41144440 41177420 41239484 41328720 41437320 41550164 41649912 
2655.712 41719244 41747164 41731560 41680264 41608676 41532780 41465712 
2659.087 41411224 41363848 41310148 41234048 41122648 40969840 40778808 
2662.462 40559500 40326456 40096200 39882812 39697804 39549296 39440764 
2665.838 39371508 39336492 39326612 39329512 39333056 39328916 39314160 
2669.213 39292904 39274564 39269848 39286648 39326056 39381780 39442464 
2672.588 39495388 39532020 39549592 39552516 39549100 39547976 39554192 
2675.963 39567924 39583580 39593740 39591508 39573400 39539668 39493708 
2679.339 39440852 39386140 39333152 39284732 39242732 39210004 39189480 
2682.714 39183380 39192260 39214568 39245528 39279068 39308304 39328700 
2686.089 39337788 39336656 39329260 39321392 39319424 39328320 39351776 
2689.464 39390352 39442116 39501468 39561024 39612572 39648636 39664964 
2692.840 39661644 39643540 39618696 39597344 39586880 39591568 39609456 
2696.215 39634288 39657088 39669440 39666272 39647100 39616352 39581720 
2699.590 39551964 39533128 39528340 39536964 39554396 39574880 39592592 
2702.965 39602900 39604216 39597104 39584336 39571004 39562388 39562664 
2706.341 39576120 39604312 39647552 39704444 39772400 39848460 39928812 
2709.716 40009384 40085628 40152132 40202872 40232144 40236876 40216692 
2713.091 40175288 40121876 40066204 40019444 39989800 39980240 39988736 
2716.466 40009800 40035616 40060056 40078800 40092156 40100756 40107308 
2719.842 40112460 40115748 40116140 40112064 40104612 40095484 40088028 
2723.217 40084484 40085052 40087008 40085800 40076448 40056164 40025792 
2726.592 39990448 39957148 39932900 39923036 39929440 39951924 39988732 
2729.967 40039016 40102040 40178756 40267584 40365236 40463412 40551396 
2733.343 40617788 40654096 40658636 40637496 40602648 40569760 40552328 
2736.718 40557876 40584920 40623600 40658080 40671904 40652388 40596248 
2740.093 40507768 40401320 40294940 40207224 40151152 40133120 40150980 
2743.468 40196120 40256120 40319256 40376856 40424500 40462100 40491412 
2746.844 40515664 40537084 40557200 40576752 40597060 40619448 40646084 
2750.219 40677620 40714372 40753756 40792228 40825880 40851712 40868600 
2753.594 40877548 40881112 40882136 40881356 40879632 40876296 40870212 
2756.969 40862056 40853884 40849124 40850872 40862924 40887480 40925840 
2760.344 40978796 41045396 41124324 41212008 41303028 41389732 41463288 
2763.720 41517060 41547916 41557908 41555008 41550592 41556600 41583488 
2767.095 41636764 41716736 41819152 41936032 42058392 42176616 42281764 
2770.470 42366900 42427432 42463072 42477684 42480024 42481996 42494424 
2773.845 42525908 42580236 42654304 42742792 42838836 42938352 43040864 
2777.221 43149420 43266988 43394620 43527748 43658644 43776700 43873800 
2780.596 43945988 43994696 44025456 44044748 44056880 44062404 44059896 
2783.971 44046968 44023880 43995524 43969456 43955340 43960364 43988264 
2787.346 44038592 44108572 44194760 44295756 44410100 44537348 44674916 
2790.722 44816272 44952524 45073840 45172748 45246916 45298528 45335080 
2794.097 45364520 45394068 45428056 45468776 45517776 45576612 45648364 
2797.472 45735628 45839476 45957144 46081508 46203504 46314768 46410932 
2800.847 46493356 46569536 46649792 46743212 46855472 46985344 47126968 
2804.223 47271156 47408644 47532944 47641540 47735684 47818640 47893980 
2807.598 47964324 48031592 48096948 48162804 48232464 48311356 48407516 
2810.973 48528812 48681856 48869580 49090184 49336900 49598796 49863836 
2814.348 50122800 50371412 50612560 50853656 51104096 51371416 51656212 
2817.724 51952560 52249748 52535224 52800468 53045076 53276728 53510352 
2821.099 53763724 54052700 54389140 54778872 55223544 55721392 56269548 
2824.474 56864888 57502588 58178020 58885480 59622180 60387504 61186624 
2827.849 62028104 62921824 63876012 64893000 65969528 67097360 68267824 
2831.225 69475512 70720736 72009424 73349560 74747360 76204112 77714552 
2834.600 79270528 80864240 82493992 84163536 85884728 87670456 89533024 
2837.975 91478496 93507184 95615968 97801144 100062200 102402736 104831976 
2841.350 107357744 109987784 112726464 115576440 118539568 121621208 
2844.243 124830056 128178496 131676720 135325344 139107184 142979392 
2847.136 146869488 150673680 154264336 157500384 160242592 162372000 
2850.030 163806192 164510480 164502896 163849952 162653536 161034544 
2852.923 159115360 157003984 154785632 152520368 150244640 147979328 
2855.816 145736096 143522896 141348544 139221664 137152496 135149040 
2858.709 133217480 131360280 129576248 127863048 126217664 124639336 
2861.602 123131936 121703904 120368384 119139872 118029840 117043384 
2864.495 116175944 115414032 114736896 114123272 113554504 113020760 
2867.388 112521384 112062208 111652600 111299560 111004168 110761528 
2870.281 110560960 110390176 110238280 110099328 109971664 109858344 
2873.174 109764080 109693920 109651824 109639536 109659192 109713040 
2876.067 109805616 109943712 110134728 110384672 110697864 111074600 
2878.960 111510920 112000472 112536040 113113000 113729704 114387624 
2881.853 115091680 115845504 116650824 117506328 118408064 119352608 
2884.746 120338464 121370384 122456336 123607328 124831232 126128824 
2887.639 127491920 128903224 130341080 131783872 133216288 134631936 
2890.532 136030848 137418864 138800976 140179120 141551600 142914336 
2893.426 144265136 145605888 146944912 148294832 149670224 151082912 
2896.319 152540624 154045008 155594992 157187984 158822480 160499056 
2899.212 162220720 163990144 165809200 167678960 169599568 171572080 
2902.105 173600928 175692624 177858128 180109360 182458304 184913600 
2904.998 187480976 190160624 192949504 195840992 198828368 201908176 
2907.891 205081680 208359696 211760112 215307472 219028944 222948160 
2910.784 227078480 231419264 235952400 240644128 245446816 250302560 
2913.677 255148112 259915792 264536864 268944352 273074336 276870368 
2916.570 280287616 283294432 285873504 288018944 289735328 291030272 
2919.463 291916000 292403584 292507904 292246432 291642592 290724672 
2922.356 289524640 288075104 286408384 284554080 282540128 280393280 
2925.249 278140032 275806880 273419392 271000736 268568384 266135904 
2928.142 263710288 261295056 258890272 256495024 254106192 251719264 
2931.035 249328400 246927840 244514720 242089024 239654400 237217152 
2933.928 234782768 232352016 229920464 227478784 225015584 222524352 
2936.822 220005424 217470864 214939552 212433184 209970208 207559280 
2939.715 205198672 202877840 200581456 198296256 196013872 193731792 
2942.608 191452496 189179200 186914720 184659808 182415072 180182256 
2945.501 177967008 175777760 173623968 171512768 169448048 167427824 
2948.394 165446400 163499888 161585392 159705952 157868208 156079904 
2951.287 154346416 152667792 151037712 149445184 147877648 146323952 
2954.180 144778608 143240352 141712672 140201760 138714752 137258240 
2957.073 135839008 134462176 133133232 131855888 130631744 129460352 
2959.966 128337112 127255704 126208528 125188280 124189384 123209312 
2962.859 122247752 121304832 120381520 119476792 118588368 117712032 
2965.752 116841952 115972728 115098232 114215352 113322424 112422424 
2968.645 111521392 110628520 109751976 108898472 108068584 107257472 
2971.538 106453936 105644528 104816592 103963104 103083544 102183664 
2974.431 101271312 100353480 99431760 98502216 97556808 96588192 95595056 
2977.807 94583584 93568232 92566968 91596240 90665240 89773776 88913528 
2981.182 88072960 87243232 86422112 85615440 84833688 84088568 83386032 
2984.557 82724552 82095136 81485416 80884432 80286808 79694944 79116744 
2987.932 78561448 78036408 77545040 77085328 76653720 76249424 75873808 
2991.308 75535256 75243424 75009136 74838976 74735688 74697096 74719944 
2994.683 74801232 74941936 75146720 75424096 75783152 76230120 76766904 
2998.058 77389344 78086008 78838464 79622640 80410784 81171600 81874032 
3001.433 82488248 82988256 83353488 83571256 83637416 83554808 83334664 
3004.809 82993536 82552360 82033152 81457888 80847312 80219048 79588976 
3008.184 78970024 78374248 77811352 77291184 76820536 76406928 76055480 
3011.559 75772632 75565576 75444544 75422256 75513968 75734992 76099880 
3014.934 76619896 77303152 78154024 79175312 80368616 81734328 83272008 
3018.310 84979800 86853912 88890144 91084536 93432408 95929040 98564200 
3021.685 101317176 104151184 107010856 109822072 112500848 114962040 
3024.578 117132480 118956952 120402376 121456128 122117504 122392096 
3027.471 122287064 121810656 120975688 119803936 118327688 116590360 
3030.364 114639792 112523712 110284608 107956080 105566416 103141624 
3033.257 100706760 98290080 95918952 93617760 91404632 89291936 87285920 
3036.632 85391640 83613552 81956208 80422088 79008016 77703656 76492904 
3040.008 75359144 74291464 73289688 72364608 71533920 70812720 70207264 
3043.383 69708184 69293528 68934968 68606680 68295168 68000832 67736656 
3046.758 67521712 67372608 67299768 67306160 67390880 67553984 67800200 
3050.133 68138360 68580576 69134880 69803208 70578488 71447848 72393224 
3053.509 73396128 74436376 75495736 76553368 77590128 78588392 79535216 
3056.884 80425952 81262648 82052576 82800168 83504480 84153536 84726488 
3060.259 85197592 85542232 85743176 85792928 85692048 85445944 85060656 
3063.634 84540480 83889720 83113712 82223528 81236600 80176440 79069888 
3067.010 77942272 76817008 75712664 74645392 73630848 72681952 71810648 
3070.385 71023752 70323192 69703968 69157512 68674344 68247024 67874128 
3073.760 67557040 67301088 67110456 66988236 66935428 66951812 67037752 
3077.135 67192776 67414440 67695000 68021744 68374848 68732456 69074776 
3080.510 69389128 69669768 69918272 70134712 70314344 70441720 70491608 
3083.886 70434568 70243424 69902248 69409352 68777208 68027152 67181600 
3087.261 66259912 65273924 64231580 63139952 62010300 60860696 59715044 
3090.636 58598912 57536496 56544896 55633072 54803120 54051848 53377336 
3094.011 52776416 52251260 51804588 51438796 51153332 50942748 50794784 
3097.387 50693880 50621628 50560760 50500832 50438968 50381348 50341940 
3100.762 50336556 50377552 50467848 50597772 50746852 50885096 50983136 
3104.137 51018288 50980068 50872488 50711688 50518904 50315404 50114764 
3107.512 49920388 49725452 49515944 49276708 48995456 48667928 48297552 
3110.888 47896080 47480828 47069644 46678204 46317488 45991564 45699532 
3114.263 45436304 45195548 44970872 44760044 44562408 44380748 44220072 
3117.638 44085184 43978988 43902324 43850832 43815868 43785268 43743664 
3121.013 43676844 43575296 43436228 43265300 43075556 42883632 42704172 
3124.389 42545624 42409040 42287820 42172548 42056928 41941180 41833520 
3127.764 41748712 41699996 41695624 41732736 41799580 41876932 41946492 
3131.139 41996492 42025656 42041004 42056044 42082000 42125524 42184708 
3134.514 42251392 42315108 42368340 42408724 42440124 42469480 42503780 
3137.890 42545176 42590008 42629284 42649992 42640656 42594076 42510432 
3141.265 42395424 42261376 42124188 41998256 41896664 41825548 41786740 
3144.640 41774884 41782804 41802096 41826560 41852104 41879268 41909988 
3148.015 41946412 41988224 42032740 42073716 42104276 42118680 42113280 
3151.391 42089688 42052080 42008544 41967684 41937684 41924496 41930580 
3154.766 41953480 41986404 42019016 42040212 42040808 42017676 41974688 
3158.141 41924564 41885224 41874992 41906852 41984392 42099304 42233492 
3161.516 42364588 42470780 42538540 42562964 42549888 42510960 42460768 
3164.892 42411012 42369336 42335884 42306840 42274652 42230344 42166968 
3168.267 42082036 41977168 41861012 41746788 41650176 41585052 41560296 
3171.642 41575712 41622220 41684880 41746588 41793688 41821280 41832192 
3175.017 41836372 41845004 41867084 41904248 41952068 42001948 42046740 
3178.393 42082984 42113252 42145592 42188704 42247572 42320264 42397316 
3181.768 42463744 42503780 42506740 42470552 42403236 42322088 42248432 
3185.143 42202924 42198656 42238452 42314180 42410084 42505356 42582484 
3188.518 42630316 42645692 42633620 42603116 42560720 42509048 42444380 
3191.894 42359316 42247832 42108192 41948896 41785640 41639372 41530696 
3195.269 41472496 41469592 41516544 41602476 41714520 41842768 41980232 
3198.644 42122992 42266796 42405512 42529308 42628768 42696316 42729764 
3202.019 42735988 42726444 42714824 42713372 42727464 42754256 42785876 
3205.395 42810492 42818244 42802116 42761988 42701904 42628880 42551336 
3208.770 42477936 42415808 42370876 42346544 42343908 42360356 42389972 
3212.145 42424420 42454816 42472716 42473932 42457360 42425520 42383132 
3215.520 42334248 42282500 42229304 42174996 42121436 42070616 42027800 
3218.896 41998272 41988292 42001724 42039240 42097660 42169744 42245032 
3222.271 42311540 42358368 42376928 42363556 42321448 42260276 42195784 
3225.646 42145484 42125232 42145632 42208124 42303704 42417716 42530784 
3229.021 42626684 42696028 42737492 42757880 42767792 42777380 42792152 
3232.396 42811120 42827336 42831624 42815588 42775132 42712452 42633852 
3235.772 42549032 42466744 42394044 42335136 42293028 42269252 42266704 
3239.147 42288920 42337576 42412804 42511180 42625420 42745896 42861988 
3242.522 42964500 43046436 43102920 43130164 43126260 43090104 43023672 
3245.897 42933932 42832652 42735556 42659284 42616040 42609828 42635352 
3249.273 42678288 42722692 42755228 42773108 42782900 42799568 42840020 
3252.648 42915464 43027044 43166452 43316360 43459992 43584656 43684996 
3256.023 43763016 43821800 43862120 43879308 43863528 43804772 43697552 
3259.398 43546424 43365988 43177272 43002560 42857336 42749052 42673836 
3262.774 42622992 42586396 42558700 42540132 42535832 42553592 42598896 
3266.149 42672880 42771864 42887960 43011120 43131864 43241948 43334972 
3269.524 43407708 43460136 43496812 43525580 43556912 43601788 43668588 
3272.899 43759448 43871592 43996860 44125316 44248100 44357048 44447560 
3276.275 44514128 44551144 44552888 44515852 44442284 44344036 44241840 
3279.650 44162152 44128176 44152940 44233768 44352648 44482236 44596376 
3283.025 44680368 44736432 44782404 44844684 44946620 45100056 45299496 
3286.400 45524316 45747784 45944680 46100140 46211556 46289236 46349724 
3289.776 46410784 46487180 46588840 46720712 46883868 47074688 47284980 
3293.151 47502136 47709792 47892148 48037204 48142684 48214780 48268248 
3296.526 48319032 48378524 48448992 48521864 48581300 48609540 48592224 
3299.901 48522640 48400340 48229932 48016296 47762704 47471532 47148112 
3303.277 46801816 46450652 46117340 45827072 45600424 45448124 45368936 
3306.652 45350004 45369732 45401912 45419952 45401908 45331244 45202284 
3310.027 45020000 44801364 44574432 44373276 44230476 44168332 44192420 
3313.402 44288960 44427892 44570260 44680968 44735852 44728756 44669868 
3316.778 44580692 44485264 44404100 44348308 44320060 44314248 44321932 
3320.153 44335292 44347172 44354744 44356760 44354344 44350796 44348716 
3323.528 44349244 44350796 44347796 44332316 44296700 44237108 44160000 
3326.903 44079124 44016640 43995168 44030756 44125376 44267440 44431184 
3330.279 44585196 44700112 44754968 44740268 44658152 44519656 44339680 
3333.654 44135768 43927716 43737060 43585212 43491632 43467968 43514228 
3337.029 43617248 43753240 43892928 44011464 44094104 44139592 44159088 
3340.404 44169224 44185308 44217128 44265976 44326704 44392024 44454840 
3343.780 44511748 44560092 44600228 44631912 44655496 44672792 44688716 
3347.155 44709796 44742084 44788340 44843760 44896336 44931188 44933876 
3350.530 44898324 44828300 44739020 44650292 44581580 44545496 44543884 
3353.905 44569080 44607912 44644700 44667388 44666704 44638956 44584588 
3357.281 44508308 44419500 44332056 44262020 44224548 44228604 44273048 
3360.656 44345632 44427532 44498892 44546272 44568168 44575480 44584852 
3364.031 44612732 44666708 44742772 44828624 44908072 44971208 45016536 
3367.406 45052204 45090184 45139460 45200828 45264408 45315564 45340704 
3370.781 45332912 45295500 45238032 45172484 45105532 45036492 44958444 
3374.157 44863548 44750988 44629408 44519116 44445108 44431040 44489520 
3377.532 44618144 44798976 45003536 45199056 45357588 45458076 45493448 
3380.907 45466888 45392716 45290908 45185384 45098900 45049732 45048520 
3384.282 45097372 45188676 45308812 45439288 45562512 45662636 45729336 
3387.658 45757376 45748380 45709020 45651244 45590552 45543860 45525668 
3391.033 45543256 45595284 45669924 45747952 45808264 45833096 45813972 
3394.408 45753776 45665136 45565692 45471904 45395504 45340552 45305200 
3397.783 45284008 45271044 45262368 45256020 45253376 45256192 45266796 
3401.159 45288544 45325536 45380660 45455220 45544560 45638588 45722180 
3404.534 45778796 45795168 45767668 45704316 45624536 45553932 45516720 
3407.909 45529332 45595512 45704236 45835940 45966056 46072332 46139812 
3411.284 46162316 46142132 46086836 46007392 45916604 45825456 45744192 
3414.660 45682048 45646844 45644180 45677936 45748240 45851024 45976856 
3418.035 46112064 46238804 46337880 46392800 46395024 46344852 46255032 
3421.410 46146492 46043532 45968392 45934864 45945304 45992380 46062516 
3424.785 46140984 46217480 46286624 46349120 46406356 46457992 46499556 
3428.161 46523088 46519440 46482024 46410952 46311264 46196300 46082620 
3431.536 45989540 45935136 45934204 45996488 46122156 46301256 46512472 
3434.911 46726484 46910856 47038092 47095332 47086076 47031684 46963992 
3438.286 46915924 46908272 46946828 47017632 47097148 47158568 47184596 
3441.662 47172496 47131672 47079532 47031856 46994176 46960480 46914424 
3445.037 46836784 46714716 46547996 46349676 46144264 45960840 45825448 
3448.412 45754936 45755324 45820992 45936996 46084168 46240704 46386564 
3451.787 46506524 46589952 46636928 46653716 46654800 46658120 46677860 
3455.163 46723584 46793884 46877908 46957824 47017204 47043972 47035640 
3458.538 47002000 46959360 46926292 46915924 46933344 46971584 47015164 
3461.913 47043848 47039980 46993612 46904624 46785304 46654240 46536992 
3465.288 46455012 46424884 46453136 46535656 46659304 46804456 46949416 
3468.664 47075808 47168928 47222216 47234352 47208528 47150300 47066544 
3472.039 46966264 46859916 46761500 46685968 46649472 46662832 46730584 
3475.414 46846460 46995872 47157812 47311976 47442412 47540788 47607556 
3478.789 47648764 47669768 47675064 47665012 47638524 47596324 47543872 
3482.165 47491764 47453932 47444304 47469804 47530932 47619356 47722344 
3485.540 47826800 47921628 47999204 48054252 48082368 48078400 48036968 
3488.915 47957460 47844888 47713432 47582792 47473488 47401036 47370456 
3492.290 47376996 47409212 47454924 47508532 47573260 47657600 47768980 
3495.666 47908960 48066676 48222068 48351552 48437420 48474728 48473508 
3499.041 48453260 48435880 48437648 48461560 48500320 48539824 48567952 
3502.416 48579192 48577728 48573268 48575760 48590116 48614904 48641500 
3505.791 48659940 48663036 48648972 48620988 48585564 48549280 48515028 
3509.167 48483648 48454896 48428420 48406616 48394056 48395416 48415032 
3512.542 48456160 48519880 48606576 48713728 48835464 48961568 49076052 
3515.917 49159772 49195272 49173612 49097800 48986704 48871008 48784304 
3519.292 48755352 48798636 48911528 49074804 49260920 49440104 49587900 
3522.667 49688608 49733632 49722836 49659436 49552608 49417288 49273852 
3526.043 49146324 49058700 49026916 49055704 49135544 49247648 49369808 
3529.418 49484756 49585984 49678048 49771480 49877260 50000240 50135240 
3532.793 50269792 50388912 50479996 50535772 50554536 50536248 50481524 
3536.168 50388040 50255304 50085864 49890964 49689384 49504356 49356224 
3539.544 49254940 49198064 49170368 49150300 49120280 49072208 49011156 
3542.919 48952748 48916392 48916988 48960616 49041116 49146008 49259196 
3546.294 49367916 49465764 49549792 49620616 49678112 49720196 49743716 
3549.669 49743424 49715556 49657440 49568684 49449644 49302284 49131556 
3553.045 48945260 48756004 48579240 48429068 48314100 48234004 48178064 
3556.420 48127944 48063600 47972724 47854720 47724532 47606832 47529868 
3559.795 47514164 47565736 47673884 47813100 47952004 48060392 48119252 
3563.170 48123696 48082828 48014548 47941004 47882548 47853208 47858948 
3566.546 47896624 47956480 48022216 48073824 48091296 48060476 47975604 
3569.921 47846180 47693812 47552508 47458156 47438452 47506964 47653388 
3573.296 47847220 48044060 48198836 48278148 48269884 48185344 48055088 
3576.671 47917836 47807808 47744100 47728036 47743760 47766824 47772764 
3580.047 47746428 47683864 47591072 47481252 47366272 47255676 47151416 
3583.422 47053744 46960824 46873020 46795360 46734452 46697276 46688864 
3586.797 46708608 46750648 46806056 46865264 46920096 46968180 47011996 
3590.172 47057664 47114620 47189140 47283292 47392200 47502244 47597840 
3593.548 47658972 47674576 47640088 47564948 47469268 47379472 47323068 
3596.923 47318968 47375068 47483528 47625944 47776768 47912520 48016720 
3600.298 48083788 48119996 48139732 48160580 48199520 48264316 48355852 
3603.673 48464168 48572144 48660320 48710940 48711660 48661484 48567660 
3607.049 48447804 48323244 48213816 48135316 48093044 48085040 48102564 
3610.424 48135756 48178332 48229304 48292512 48373760 48475764 48594600 
3613.799 48718036 48826812 48901776 48927080 48899496 48828028 48736144 
3617.174 48656116 48621432 48660056 48786376 48999320 49280164 49597636 
3620.550 49914016 50191780 50400024 50519372 50544688 50482496 50350256 
3623.925 50171012 49970796 49773768 49599152 49457856 49355704 49289852 
3627.300 49253880 49238352 49234232 49235192 49238012 49243440 49255316 
3630.675 49277996 49315812 49370276 49441404 49524344 49613148 49699612 
3634.051 49775416 49834844 49873272 49891452 49892968 49886028 49878472 
3637.426 49877868 49887584 49906272 49928060 49948244 49965812 49985996 
3640.801 50022752 50093500 50213224 50386680 50602180 50833352 51041176 
3644.176 51189092 51255232 51237932 51162128 51070704 51010084 51015328 
3647.552 51097948 51242272 51410364 51558532 51650788 51673728 51637948 
3650.927 51573912 51517360 51497424 51525092 51591656 51674996 51748844 
3654.302 51792080 51796412 51764464 51706968 51633944 51551900 51460188 
3657.677 51356700 51241048 51120984 51010672 50927376 50885748 50888820 
3661.052 50926708 50978768 51018800 51026516 50992260 50922272 50833716 
3664.428 50748280 50683500 50646924 50633768 50631652 50626148 50607464 
3667.803 50571724 50522040 50463568 50398800 50323980 50230952 50111416 
3671.178 49962488 49791076 49614988 49459084 49349212 49304596 49333044 
3674.553 49429044 49574320 49742376 49904704 50033924 50108108 50110912 
3677.929 50034116 49875192 49641568 49348560 49020212 48685932 48375512 
3681.304 48113980 47916512 47787400 47720124 47702228 47717656 47752068 
3684.679 47795420 47840804 47884048 47923288 47957116 47985792 48010200 
3688.054 48034476 48062676 48099304 48145776 48200448 48257396 48308452 
3691.430 48346144 48363800 48360536 48339864 48308344 48275048 48248552 
3694.805 48233536 48229984 48231860 48228816 48205824 48150264 48054036 
3698.180 47916128 47748416 47570312 47409364 47291176 47234072 47244908 
3701.555 47314588 47422696 47543468 47653788 47739120 47796908 47833344 
3704.931 47859812 47883616 47906168 47921504 47918628 47888292 47830992 
3708.306 47754952 47680152 47627992 47616464 47651516 47726224 47820572 
3711.681 47913056 47984788 48029920 48056316 48082456 48129520 48212736 
3715.056 48335544 48486172 48641804 48776796 48867920 48903836 48885288 
3718.432 48822428 48731988 48629600 48526544 48429444 48340836 48262240 
3721.807 48199128 48158740 48150996 48185452 48268336 48400580 48574820 
3725.182 48779524 48998052 49210924 49399188 49546780 49642836 49683780 
3728.557 49672496 49618020 49532200 49426092 49307868 49184772 49060764 
3731.933 48943488 48845556 48783040 48771752 48822156 48930984 49080272 
3735.308 49237648 49367380 49442024 49451596 49408064 49340136 49280624 
3738.683 49253148 49261416 49285648 49293148 49249556 49137980 48963664 
3742.058 48755324 48556924 48411268 48345824 48365344 48451448 48572480 
3745.434 48696364 48800720 48877476 48930592 48968492 48998212 49021792 
3748.809 49035904 49037220 49025472 49005916 48988644 48982388 48993300 
3752.184 49020732 49059840 49104196 49149468 49196420 49249792 49316640 
3755.559 49401716 49504776 49620704 49739484 49851364 49948016 50024776 
3758.935 50082180 50124572 50160156 50197040 50244976 50309896 50395264 
3762.310 50494928 50596936 50680968 50723612 50703608 50607944 50436748 
3765.685 50206596 49946444 49693348 49484212 49348384 49302332 49346984 
3769.060 49465404 49630192 49805600 49957372 50058820 50097560 50075616 
3772.436 50010244 49926940 49851344 49802936 49789060 49805608 49839432 
3775.811 49875332 49902464 49917608 49925400 49934228 49951952 49984792 
3779.186 50034024 50099920 50183408 50288216 50418252 50574684 50753136 
3782.561 50939288 51114372 51257972 51355692 51404668 51412384 51394340 
3785.937 51363752 51326932 51278840 51206280 51093948 50935128 50736140 
3789.312 50517448 50309740 50142392 50037420 50003392 50033056 50110656 
3792.687 50217684 50337436 50462680 50589376 50719232 50851456 50982168 
3796.062 51103584 51205436 51275916 51308388 51300100 51255340 51182252 
3799.438 51094224 51005656 50929404 50875612 50846992 50841616 50851056 
3802.813 50865816 50878380 50884308 50885424 50886940 50894944 50913492 
3806.188 50943088 50980884 51022600 51065484 51110220 51161196 51224032 
3809.563 51302520 51395856 51498220 51598520 51684648 51744612 51771488 
3812.938 51761736 51717060 51643028 51549172 51446556 51348744 51269044 
3816.314 51217616 51198528 51208252 51236376 51267772 51287424 51285816 
3819.689 51261216 51220692 51178072 51148624 51144248 51170808 51225848 
3823.064 51300112 51380268 51450264 51496484 51506500 51473388 51396064 
3826.439 51283816 51154680 51034280 50952180 50933876 50994572 51132744 
3829.815 51330360 51554108 51762996 51918792 51993576 51976272 51875656 
3833.190 51716840 51537688 51379224 51277848 51257828 51325208 51466276 
3836.565 51650140 51835232 51979732 52052912 52043964 51965216 51845100 
3839.940 51722996 51633560 51598560 51621452 51690028 51781472 51872552 
3843.316 51944872 51990148 52009540 52008440 51994992 51976008 51954392 
3846.691 51933032 51911400 51889772 51865628 51834768 51791676 51729096 
3850.066 51644408 51539956 51424828 51314160 51223860 51166976 51149420 
3853.441 51170168 51222388 51297920 51388364 51488968 51595008 51697916 
3856.817 51785692 51841068 51847944 51794700 51681848 51524532 51349256 
3860.192 51189524 51076836 51034292 51070468 51179740 51345128 51541312 
3863.567 51741408 51921620 52062416 52153448 52193244 52190244 52159224 
3866.942 52119472 52088964 52078932 52093224 52124048 52159900 52185716 
3870.318 52191548 52174504 52137608 52090780 52043412 52002776 51974304 
3873.693 51960396 51962760 51983788 52026672 52092744 52181752 52288792 
3877.068 52406212 52524192 52634644 52729892 52804740 52854268 52873044 
3880.443 52854276 52794376 52695312 52566908 52428140 52302480 52213028 
3883.819 52174380 52190944 52254512 52349424 52458716 52570548 52678172 
3887.194 52780244 52875304 52956964 53013644 53030992 52997804 52913012 
3890.569 52787236 52642956 52507032 52400876 52336464 52311680 52314972 
3893.944 52330228 52344564 52351444 52351136 52348296 52348516 52354196 
3897.320 52367468 52390060 52423452 52470836 52533568 52607632 52683984 
3900.695 52749424 52789948 52801000 52787656 52767636 52765352 52802024 
3904.070 52888340 53021536 53182404 53347996 53495884 53614820 53703072 
3907.445 53767428 53816296 53852612 53874488 53875656 53853152 53811380 
3910.821 53763320 53725404 53710492 53719656 53739652 53748020 53720376 
3914.196 53642944 53517704 53363936 53210008 53081492 52992176 52939792 
3917.571 52908140 52877160 52833584 52777804 52723884 52693532 52706844 
3920.946 52772688 52886652 53032968 53190584 53342352 53478208 53596260 
3924.322 53699724 53791264 53871432 53938324 53991532 54034832 54077456 
3927.697 54132996 54212316 54319476 54447372 54578120 54690896 54765112 
3931.072 54792404 54775456 54728096 54669284 54614372 54570336 54533836 
3934.447 54493684 54438712 54362340 54267092 54166860 54082072 54032688 
3937.823 54032172 54082012 54168780 54267688 54348164 54381776 54351904 
3941.198 54258136 54117984 53962980 53829524 53748204 53735092 53786436 
3944.573 53879048 53980060 54054108 54077444 54041140 53953544 53834084 
3947.948 53704876 53581316 53470160 53368020 53267220 53163688 53060548 
3951.323 52971704 52916856 52915756 52980556 53110076 53290320 53496560 
3954.699 53700712 53877628 54012400 54100556 54149352 54172320 54185824 
3958.074 54202976 54231244 54271964 54320540 54370220 54413944 54447936 
3961.449 54471900 54490312 54507112 54524584 54543156 54558864 54567536 
3964.824 54566176 54558840 54552864 54560448 54592172 54651592 54733676 
3968.200 54822028 54895480 54933640 54923484 54864292 54767472 54652440 
3971.575 54539824 54444992 54375396 54328740 54299744 54281464 54271344 
3974.950 54271132 54283552 54310668 54348112 54386652 54412296 54411676 
3978.325 54375700 54303252 54200856 54081036 53958196 53846092 53754908 
3981.701 53692148 53659728 53657924 53683212 53729048 53784024 53834528 
3985.076 53867460 53872760 53848212 53801452 53748956 53711164 53706484 
3988.451 53744464 53821168 53919988 54015828 54082364 54102952 54075244 
3991.826 54014924 53951716 53921116 53954784 54069816 54264356 54516448 
3995.202 54790228 55045116 55246380 55375536 55431296 55429916 55396944 
3998.577 55360808 55341632 55348856 55377284 55413376 
##END=
