##TITLE=eSUN_PETG_Black_Filament_r7_ATR-Corrected
##JCAMP-DX=5.01  $$ Nicolet v. 1
##DATATYPE=INFRARED SPECTRUM
##ORIGIN=Curtin University
##OWNER=Nicolet
##LONGDATE=2024/07/10
##TIME=15:51:09
##SPECTROMETER/DATA SYSTEM=Nicolet iS50
##DATA PROCESSING=
Ratio against background
%Transmittance->Absorbance
ATR Correction
Truncated
ElementMultiply or ElementDivide
##COMMENTS=
Number of sample scans: 32
Collection length: 47.28 sec
Sample gain: 1.0
Background collected on: Wed Jul 10 15:47:38 2024 (GMT+08:00);
Number of background scans: 32
Background gain: 1.0
Sample spacing:  1.000
Number of scan points: 16672
Resolution points: 8192
Number of FFT points: 65536
Apodization: N-B strong;
Phase correction: Mertz;
Laser frequency: 15798.3 cm-1
Number of rejected sample scans: 0
Number of rejected background scans: 0
Bench serial number: AUP1200105;
##RESOLUTION=4.000
##XUNITS=1/CM
##YUNITS=ABSORBANCE
##FIRSTX=400.163452
##LASTX=4000.187744
##FIRSTY=0.044463
##MAXX=4000.187744
##MINX=400.163452
##MAXY=1.655849
##MINY=-0.023439
##XFACTOR=1.000000
##YFACTOR=1.000000E-008
##NPOINTS=7468
##DELTAX=0.482125
##ZPD=8192
##XYDATA=(X++(Y..Y))
400.163 4446291 4386521 4309726 4219663 4123310 4028931 3945494 3881473 
404.020 3844244 3839421 3869982 3935002 4028619 4139407 4251656 4348105 
407.877 4414052 4441378 4430919 4392493 4342117 4297518 4273118 4276216 
411.734 4305524 4352442 4404354 4448723 4476347 4483087 4469566 4439626 
415.591 4398498 4351600 4304236 4262003 4231183 4218034 4227397 4260379 
419.448 4312765 4374759 4432914 4473630 4487297 4471180 4430235 4375267 
423.305 4319108 4272311 4239838 4220224 4207357 4194018 4175831 4153595 
427.162 4133261 4123360 4131258 4159555 4204405 4256195 4302473 4332069 
431.019 4338632 4322411 4289605 4249551 4212173 4184435 4169116 4164904 
434.876 4167747 4172689 4175719 4174750 4169815 4162421 4154575 4147768 
438.733 4142382 4137523 4131292 4121434 4106079 4084428 4057130 4026289 
442.590 3995018 3966730 3944379 3929929 3924153 3926885 3937360 3954621 
446.447 3977617 4004977 4034678 4063847 4088968 4106481 4113743 4109942 
450.304 4096417 4076374 4053958 4032915 4015676 4002820 3993485 3986293 
454.161 3980400 3976214 3975465 3980470 3993215 4014280 4042475 4074918 
458.017 4107778 4137259 4160383 4175557 4182645 4182692 4177510 4169252 
461.874 4160069 4151807 4145863 4142830 4142878 4145434 4149576 4154295 
465.731 4158770 4162515 4165371 4167327 4168461 4168851 4168803 4169070 
469.588 4170917 4176019 4185981 4201757 4223048 4248144 4274201 4298019 
473.445 4316913 4329528 4336093 4338193 4338101 4338142 4340120 4345296 
477.302 4354632 4369116 4389972 4418531 4455749 4501528 4554383 4611271 
481.159 4668183 4720931 4766162 4802097 4828985 4848878 4865164 4881721 
485.016 4902186 4929259 4964290 5007231 5056786 5110792 5166771 5222515 
488.873 5276570 5328595 5379387 5430707 5484829 5544099 5610487 5685348 
492.730 5769332 5862471 5964264 6073785 6189795 6310575 6433912 6557068 
496.587 6676835 6789670 6891982 6980358 7051868 7104139 7135482 7144803 
500.444 7131520 7095544 7037345 6958159 6860254 6747093 6623270 6494099 
504.301 6364825 6239738 6121337 6010065 5904440 5801934 5700085 5597527 
508.158 5494492 5392675 5294446 5201881 5116041 5036785 4963198 4894410 
512.015 4830321 4771866 4720676 4678134 4644507 4618276 4596353 4574914 
515.871 4550691 4522048 4489505 4455452 4423187 4395698 4374776 4360638 
519.728 4352227 4347915 4346126 4345781 4346204 4346828 4346823 4345001 
523.585 4339973 4330528 4316000 4296427 4272368 4244620 4213891 4180722 
527.442 4145591 4109211 4072735 4037678 4005616 3977643 3953994 3933964 
531.299 3916178 3899223 3882243 3865283 3849176 3835010 3823445 3814154 
535.156 3805669 3795726 3781939 3762678 3737610 3707945 3676179 3645487 
539.013 3618959 3598888 3586246 3580490 3579710 3581065 3581446 3578199 
542.870 3569730 3555848 3537711 3517369 3497104 3478675 3462820 3449172 
546.727 3436610 3423844 3410032 3395128 3379877 3365454 3352914 3342834 
550.584 3335060 3328903 3323433 3317803 3311380 3303754 3294504 3283082 
554.441 3268750 3250740 3228522 3202052 3171788 3138617 3103630 3067811 
558.298 3031968 2996722 2962667 2930496 2901031 2875086 2853220 2835532 
562.155 2821593 2810543 2801343 2793049 2784956 2776654 2767907 2758517 
566.012 2748316 2737218 2725381 2713297 2701768 2691673 2683638 2677707 
569.869 2673255 2669088 2663852 2656503 2646564 2634313 2620548 2606296 
573.725 2592475 2579719 2568408 2558792 2551170 2545879 2543171 2543032 
577.582 2545011 2548308 2552026 2555523 2558726 2562117 2566459 2572267 
581.439 2579373 2586733 2592686 2595669 2594934 2591177 2586509 2583969 
585.296 2586476 2595864 2612213 2633940 2658495 2683514 2707854 2732199 
589.153 2758786 2790626 2830300 2878989 2936083 2999455 3066362 3134477 
593.010 3202663 3271123 3340971 3413270 3488208 3564397 3638900 3707695 
596.867 3766436 3811251 3839245 3848718 3839044 3810559 3764420 3702674 
600.724 3628293 3545167 3457800 3370756 3287974 3212126 3144243 3083869 
604.581 3029542 2979576 2932818 2889132 2849472 2815540 2789135 2771521 
608.438 2762902 2762320 2767744 2776627 2786345 2794776 2800613 2803426 
612.295 2803583 2801958 2799625 2797550 2796483 2796856 2798814 2802340 
616.152 2807266 2813395 2820456 2828132 2836116 2844161 2852211 2860462 
620.009 2869460 2880022 2893147 2909791 2930707 2956233 2986167 3019796 
623.866 3055933 3093181 3130341 3166911 3203755 3243551 3291006 3352358 
627.723 3434311 3542250 3678203 3839076 4015674 4193084 4352650 4475203 
631.579 4544985 4553154 4499832 4394069 4251715 4091967 3933514 3791489 
635.436 3675661 3590108 3534068 3503491 3492724 3495954 3508124 3525298 
639.293 3544665 3564307 3582991 3599944 3614816 3627592 3638585 3648286 
643.150 3657316 3666262 3675599 3685633 3696509 3708190 3720549 3733356 
647.007 3746341 3759202 3771615 3783303 3794052 3803765 3812544 3820671 
650.864 3828582 3836773 3845664 3855452 3866132 3877441 3889070 3900777 
654.721 3912586 3924781 3937867 3952359 3968638 3986778 4006528 4027445 
658.578 4049064 4071080 4093428 4116283 4139934 4164623 4190503 4217596 
662.435 4245852 4275245 4305829 4337701 4370997 4405805 4442139 4479965 
666.292 4519218 4559862 4601867 4645119 4689416 4734464 4779932 4825725 
670.149 4872136 4920055 4970890 5026437 5088529 5158690 5237968 5326716 
674.006 5424789 5531598 5646279 5767701 5894426 6024598 6155837 6285338 
677.863 6409970 6526540 6632096 6724202 6801144 6862074 6907142 6937438 
681.720 6954983 6962454 6963003 6959790 6955761 6953390 6954630 6961091 
685.577 6974149 6995085 7025043 7064787 7114385 7173029 7239082 7310507 
689.433 7385494 7463144 7543891 7629476 7722506 7825727 7941319 8070532 
693.290 8213700 8370743 8541738 8727424 8929329 9149492 9389950 9652124 
697.147 9936453 10242328 10568377 10912803 11273716 11649249 12037365 
700.522 12435618 12840864 13249268 13656501 14058311 14451124 14832602 
703.897 15201958 15559925 15908420 16249946 16586971 16921382 17254158 
707.272 17585372 17914486 18241028 18565384 18889738 19218842 19560530 
710.647 19925838 20328612 20784796 21311524 21926228 22645968 23487026 
714.021 24464892 25594378 26889864 28365352 30034288 31908936 33999456 
717.396 36312648 38850692 41609992 44580180 47743524 51074032 54535632 
720.771 58078648 61633568 65102716 68351312 71204336 73455904 74899880 
724.146 75378944 74834672 73330624 71033472 68163680 64943360 61561064 
727.521 58158088 54829480 51632784 48598060 45737048 43050160 40531092 
730.896 38169684 35953392 33868144 31898808 30029768 28245678 26532366 
734.270 24877728 23272548 21711030 20190996 18713784 17283662 15907055 
737.645 14591533 13344808 12173788 11084043 10079391 9161875 8331828 7588031 
741.502 6927859 6347271 5840948 5402493 5024764 4700372 4422204 4183792 
745.359 3979532 3804622 3654844 3526380 3415674 3319520 3235229 3160905 
749.216 3095421 3038338 2989480 2948577 2914849 2886917 2862965 2841159 
753.073 2820071 2799009 2778180 2758522 2741366 2728054 2719575 2716427 
756.930 2718524 2725282 2735762 2748831 2763258 2777900 2791824 2804457 
760.787 2815729 2826093 2836475 2848106 2862269 2880083 2902300 2929283 
764.644 2961129 2997820 3039423 3086224 3138667 3197169 3261865 3332249 
768.501 3407064 3484260 3561247 3635355 3704325 3766776 3822410 3871980 
772.358 3917073 3959514 4000895 4042202 4083620 4124649 4164403 4202024 
776.214 4237045 4269686 4300873 4332187 4365542 4402945 4446131 4496370 
780.071 4554350 4620251 4693880 4774958 4863354 4959351 5063623 5177261 
783.928 5301498 5437495 5586115 5747892 5923041 6111639 6313795 6529708 
787.785 6759535 7003058 7259180 7525369 7797152 8067860 8328517 8568184 
791.642 8774479 8934590 9036336 9069704 9028197 8910193 8719732 8466747 
795.499 8166342 7837314 7500031 7174120 6876351 6619151 6409773 6250432 
799.356 6138983 6070045 6036357 6029968 6043316 6069807 6104178 6142483 
803.213 6182135 6221546 6259945 6297090 6332992 6367688 6400980 6432402 
807.070 6461172 6486428 6507484 6524088 6536547 6545702 6552743 6558846 
810.927 6564865 6571150 6577585 6583792 6589436 6594530 6599530 6605232 
814.784 6612462 6621784 6633209 6646154 6659693 6672852 6685008 6696114 
818.641 6706702 6717627 6729801 6743862 6759986 6777952 6797302 6817554 
822.498 6838420 6859877 6882108 6905454 6930258 6956903 6985769 7017298 
826.355 7052019 7090454 7133085 7180253 7232056 7288417 7349113 7413873 
830.212 7482458 7554659 7630248 7709001 7790644 7874935 7961655 8050708 
834.068 8142110 8235822 8331667 8429146 8527357 8625125 8721074 8813993 
837.925 8902989 8987731 9068409 9145695 9220493 9293731 9366103 9437873 
841.782 9508753 9577873 9643858 9705059 9759854 9807096 9846369 9878265 
845.639 9904248 9926397 9946927 9967623 9989490 10012616 10036314 10059465 
849.496 10080934 10099968 10116305 10130213 10142364 10153715 10165412 
852.871 10178724 10195086 10215928 10242564 10275964 10316571 10364283 
856.246 10418645 10479128 10545524 10618228 10698281 10787315 10887226 
859.621 10999995 11127521 11271738 11434796 11619253 11828155 12064977 
862.995 12333282 12636414 12977260 13358216 13781187 14247864 14759652 
866.370 15317520 15921389 16569312 17256618 17975112 18712666 19453230 
869.745 20177270 20862652 21485836 22023384 22453640 22758700 22926146 
873.120 22950392 22833168 22582898 22213224 21740930 21183918 20559832 
876.495 19885282 19175676 18445412 17708006 16975840 16259851 15568969 
879.870 14909834 14286758 13702109 13156886 12651414 12185787 11760107 
883.244 11374365 11028120 10720194 10448454 10209889 10000924 9817830 
886.619 9657309 9516743 9394474 9289645 9201942 9131130 9076708 9037515 
890.476 9011633 8996505 8989229 8987091 8987941 8990516 8994471 9000080 
894.333 9007800 9017701 9029208 9040979 9051153 9057795 9059256 9054431 
898.190 9042674 9023476 8996147 8959574 8912300 8852800 8779983 8693550 
902.047 8594138 8483202 8362663 8234571 8100848 7963265 7823595 7683789 
905.904 7546118 7412997 7286737 7169226 7061615 6964374 6877365 6800119 
909.761 6732129 6672960 6622176 6579250 6543424 6513735 6489164 6468904 
913.618 6452557 6440200 6432286 6429337 6431702 6439321 6451812 6468547 
917.475 6488956 6512613 6539313 6568897 6601093 6635416 6671219 6707784 
921.332 6744655 6781721 6819253 6857767 6897734 6939313 6982285 7026091 
925.189 7069999 7113395 7155919 7197587 7238680 7279581 7320632 7362019 
929.045 7403754 7445661 7487531 7529165 7570522 7611756 7653310 7695965 
932.902 7740775 7788954 7841696 7900018 7964509 8035370 8112427 8195342 
936.759 8283824 8377816 8477556 8583602 8696707 8817717 8947479 9086744 
940.616 9236103 9395930 9566303 9746905 9937046 10135654 10341431 10552905 
944.473 10768544 10986762 11205836 11423960 11639268 11850007 12054907 
947.848 12253374 12445683 12632850 12816301 12997474 13177431 13356735 
951.223 13535564 13713925 13891947 14069806 14247435 14423890 14596680 
954.598 14761361 14911726 15040426 15140200 15205225 15232240 15221104 
957.972 15174861 15099120 15001133 14888850 14770080 14651883 14540374 
961.347 14440516 14356066 14289570 14242376 14214681 14205581 14213280 
964.722 14235227 14268270 14308842 14353101 14397147 14437196 14469869 
968.097 14492390 14502688 14499442 14481933 14449844 14403036 14341378 
971.472 14264698 14172764 14065480 13943020 13806055 13655864 13494456 
974.847 13324390 13148731 12970671 12793227 12618969 12449801 12287009 
978.221 12131447 11983838 11845072 11716333 11599003 11494289 11402917 
981.596 11324657 11258385 11202241 11154087 11112061 11074933 11042139 
984.971 11013582 10989175 10968392 10950090 10932635 10914276 10893737 
988.346 10870586 10845520 10820150 10796702 10777351 10763855 10757268 
991.721 10757884 10765574 10780050 10801215 10829435 10865476 10910407 
995.095 10965337 11031098 11108103 11196247 11295028 11403808 11522065 
998.470 11649565 11786496 11933385 12090940 12259987 12441384 12636226 
1001.845 12846000 13072741 13319126 13588262 13883404 14207569 14563389 
1005.220 14953195 15379354 15844852 16353859 16911970 17526310 18205326 
1008.595 18958544 19796538 20731080 21775506 22944802 24255126 25722160 
1011.970 27358362 29168686 31145618 33263690 35474724 37704608 39853412 
1015.344 41800196 43413760 44569056 45166536 45149664 44514756 43310388 
1018.719 41626656 39578700 37289800 34877564 32445002 30076054 27834648 
1022.094 25765810 23897908 22245398 20811440 19590368 18569956 17733454 
1025.469 17061334 16532944 16127738 15826255 15610795 15465581 15376893 
1028.844 15332957 15323845 15341415 15379252 15432575 15498094 15573743 
1032.219 15658307 15751058 15851451 15958929 16072860 16192618 16317560 
1035.595 16447167 16580847 16717948 16857586 16998666 17139806 17279560 
1038.970 17416442 17549032 17675958 17795906 17907454 18009058 18098992 
1042.345 18175496 18236856 18281594 18308652 18317566 18308530 18282488 
1045.720 18241038 18186392 18121054 18047670 17968784 17886642 17803236 
1049.096 17720326 17639670 17563086 17492562 17430124 17377672 17336736 
1052.471 17308400 17293266 17291718 17304146 17331294 17374330 17434896 
1055.846 17514830 17615848 17739298 17885836 18055420 18247358 18460564 
1059.221 18693808 18945932 19216148 19504128 19810028 20134454 20478224 
1062.597 20842216 21227104 21633158 22060148 22507456 22974282 23459970 
1065.972 23964330 24487850 25031758 25597882 26188382 26805488 27451352 
1069.347 28128060 28837898 29583538 30368272 31196070 32071364 32998628 
1072.722 33981892 35024320 36127948 37293608 38521112 39809476 41157188 
1076.098 42562276 44022348 45534380 47094332 48696904 50335188 52000360 
1079.473 53681744 55366980 57042728 58695524 60313052 61885148 63404708 
1082.848 64867812 66273580 67623376 68919992 70167144 71369096 72530472 
1086.223 73656240 74751464 75821040 76869128 77899040 78913008 79912312 
1089.599 80897144 81866672 82818072 83745864 84641048 85490800 86278984 
1092.974 86987520 87598168 88094352 88462208 88691256 88773960 88705344 
1096.349 88482456 88104200 87571144 86885592 86051184 85072800 83956112 
1099.724 82707784 81335912 79850560 78264000 76590880 74847616 73051672 
1103.100 71220768 69372800 67525728 65698176 63910060 62182808 60539204 
1106.475 59002804 57596796 56342792 55259372 54360972 53656776 53150044 
1109.850 52837516 52709324 52748944 52933620 53234964 53620052 54052716 
1113.225 54495484 54911388 55266268 55530668 55681520 55703200 55587848 
1116.601 55334644 54948724 54439300 53817892 53096932 52288724 51405080 
1119.976 50457264 49456124 48412196 47335492 46235400 45120460 43998384 
1123.351 42875964 41759412 40654436 39566396 38500148 37459916 36448960 
1126.726 35469480 34522452 33607744 32724324 31870530 31044420 30244112 
1130.102 29467896 28714346 27982328 27270832 26578816 25905082 25248290 
1133.477 24607042 23980068 23366478 22765992 22178916 21606044 21048426 
1136.852 20507016 19982408 19474722 18983620 18508536 18048840 17604152 
1140.227 17174358 16759667 16360354 15976676 15608609 15255842 14917821 
1143.603 14593951 14283806 13987255 13704470 13435827 13181561 12941559 
1146.978 12715062 12500679 12296498 12100459 11910636 11725534 11544209 
1150.353 11366113 11190884 11018128 10847230 10677454 10508177 10339162 
1153.728 10170741 10003877 9839957 9680437 9526505 9378921 9237978 9103720 
1157.586 8976324 8856323 8744739 8642957 8552524 8474801 8410782 8361069 
1161.443 8325941 8305686 8300738 8311869 8340164 8386954 8453659 8541673 
1165.301 8652296 8786616 8945385 9128763 9335972 9564883 9811743 10071002 
1169.158 10335542 10597056 10846775 11076166 11277686 11445223 11574465 
1172.533 11662897 11709796 11715973 11683588 11615709 11516035 11388456 
1175.908 11236764 11064450 10874672 10670417 10454763 10231091 10003274 
1179.284 9775634 9552704 9338880 9138100 8953454 8787212 8640715 8514681 
1183.141 8409315 8324568 8260137 8215603 8190329 8183520 8194323 8221838 
1186.999 8265314 8324140 8397813 8485864 8587693 8702454 8829049 8966133 
1190.856 9112225 9265818 9425424 9589656 9757295 9927320 10099081 10272389 
1194.713 10447568 10625456 10807221 10994050 11186909 11386326 11592332 
1198.089 11804626 12022845 12246782 12476615 12712841 12956166 13207276 
1201.464 13466594 13734251 14010157 14294133 14586185 14886530 15195732 
1204.839 15514544 15843809 16184340 16536850 16901954 17280168 17671960 
1208.214 18077736 18497846 18932684 19382734 19848732 20331820 20833532 
1211.590 21355794 21900582 22469664 23064188 23684490 24330046 24999682 
1214.965 25691870 26404930 27137354 27887514 28653574 29433010 30222412 
1218.340 31017428 31813126 32604748 33388656 34163328 34930076 35693376 
1221.715 36460640 37241680 38047712 38890484 39781280 40730276 41746052 
1225.091 42835264 44002700 45251476 46583492 47999972 49502064 51091236 
1228.466 52769404 54538752 56401200 58357836 60408472 62551396 64783736 
1231.841 67101704 69500968 71976696 74523040 77132240 79793776 82493808 
1235.216 85215304 87938616 90642488 93304560 95901400 98408040 100797496 
1238.592 103041304 105111040 106981048 108631216 110048608 111227200 
1241.485 112166120 112867440 113334688 113573216 113591632 113403520 
1244.378 113028168 112489152 111812136 111021960 110141072 109189392 
1247.271 108184944 107145104 106087088 105027400 103980872 102959808 
1250.164 101973928 101031080 100138488 99303584 98533952 97836160 97214248 
1253.539 96668304 96193992 95783344 95426216 95112040 94830544 94571648 
1256.914 94324440 94075776 93809864 93508784 93154040 92728848 92219928 
1260.290 91618720 90921288 90127840 89241896 88269832 87220440 86104408 
1263.665 84933680 83720152 82474528 81205584 79920088 78623696 77321776 
1267.040 76020552 74727056 73448784 72192464 70963160 69763584 68594256 
1270.415 67454072 66341124 65253288 64188540 63144928 62120320 61112464 
1273.791 60119252 59138924 58170384 57213180 56267232 55332196 54407184 
1277.166 53490596 52580448 51674856 50772644 49873556 48978220 48087676 
1280.541 47203008 46325052 45454432 44591716 43737976 42894884 42064644 
1283.916 41249848 40452924 39675804 38919776 38185376 37472616 36781088 
1287.292 36110088 35458632 34825460 34208964 33607216 33017942 32438610 
1290.667 31866330 31297938 30729926 30158618 29580442 28992302 28392050 
1294.042 27778786 27153048 26516706 25872752 25225044 24577982 23936448 
1297.417 23305514 22690328 22095830 21526470 20985800 20476216 19998750 
1300.792 19553118 19137758 18750118 18386888 18044214 17717954 17403944 
1304.168 17098196 16797202 16498198 16199270 15899573 15599176 15298957 
1307.543 15000452 14705613 14416730 14136186 13866416 13609616 13367610 
1310.918 13141529 12931766 12737748 12558101 12390710 12232981 12082011 
1314.293 11934838 11788556 11640563 11488685 11331373 11167839 10998064 
1317.669 10822794 10643208 10460704 10276578 10091817 9907071 9722736 
1321.044 9539091 9356508 9175520 8996915 8821643 8650868 8486083 8329054 
1324.901 8182110 8048068 7930226 7832135 7757380 7709282 7690930 7705093 
1328.759 7754488 7841906 7970317 8142669 8361430 8628056 8942275 9301615 
1332.616 9701192 10133678 10589615 11057696 11525256 11978704 12404124 
1335.991 12787993 13118063 13384165 13578919 13698158 13740896 13709080 
1339.367 13607132 13441354 13219540 12950370 12643066 12306900 11950798 
1342.742 11582910 11210395 10839232 10474268 10119347 9777575 9451454 
1346.117 9143002 8853736 8584668 8336154 8107957 7899315 7709217 7536565 
1349.975 7380410 7239999 7114744 7004060 6907189 6823204 6750949 6689245 
1353.832 6636971 6593257 6557470 6529245 6508379 6494791 6488517 6489803 
1357.689 6499221 6517754 6546897 6588506 6644685 6717568 6809078 6920629 
1361.547 7053113 7206728 7381027 7574919 7786753 8014276 8254643 8504301 
1365.404 8759017 9013882 9263533 9502588 9726098 9929993 10111481 10269106 
1369.262 10402534 10512307 10599376 10664919 10710113 10736195 10744493 
1372.637 10736410 10713452 10676996 10628227 10568039 10497015 10415689 
1376.012 10324660 10224828 10117611 10004948 9889383 9773852 9661625 9556045 
1379.870 9460409 9377619 9309981 9258995 9225267 9208445 9207491 9220821 
1383.727 9246752 9283716 9330376 9385634 9448415 9517509 9591438 9668477 
1387.584 9746715 9824336 9899800 9971991 10040324 10104699 10165496 10223554 
1391.442 10280095 10336679 10395159 10457525 10525844 10602255 10688944 
1394.817 10788312 10903049 11036313 11191727 11373334 11585448 11832502 
1398.192 12118851 12448794 12826525 13256405 13743110 14291747 14907864 
1401.568 15597035 16364245 17212666 18142140 19147410 20216280 21328140 
1404.943 22453196 23552722 24580594 25486212 26218474 26730370 26983774 
1408.318 26953528 26630432 26022500 25154412 24065040 22803428 21423788 
1411.693 19980462 18523520 17095498 15729704 14449917 13271004 12200416 
1415.069 11239676 10385916 9633105 8973157 8396749 7894127 7455831 7073332 
1418.926 6739384 6448100 6194766 5975467 5786593 5624701 5486565 5369355 
1422.783 5271023 5190375 5127018 5081042 5052493 5041179 5046487 5067529 
1426.641 5103427 5153584 5217713 5295736 5387491 5492623 5610402 5739907 
1430.498 5880151 6030294 6189619 6357447 6532924 6714964 6902266 7093546 
1434.356 7287650 7483740 7681069 7878849 8075943 8270757 8461449 8646338 
1438.213 8824477 8996020 9162381 9326109 9490449 9658952 9835154 10022289 
1442.071 10223247 10440492 10675876 10930428 11204046 11495388 11801912 
1445.446 12120088 12445776 12774415 13101135 13420545 13726500 14012009 
1448.821 14269389 14490721 14668614 14796913 14871405 14890312 14854395 
1452.196 14766851 14632891 14459038 14252530 14020658 13770436 13508441 
1455.572 13240764 12972902 12709625 12454670 12210557 11978517 11758657 
1458.947 11550326 11352518 11164060 10983864 10810831 10643850 10481666 
1462.322 10322981 10166514 10011154 9855948 9700218 9543486 9385420 9225946 
1466.179 9065188 8903596 8742020 8581571 8423532 8269064 8119088 7974071 
1470.037 7834022 7698600 7567204 7439063 7313285 7188897 7064889 6940297 
1473.894 6814357 6686692 6557379 6426857 6295839 6164975 6034645 5904801 
1477.752 5775023 5644675 5513205 5380368 5246379 5111866 4977801 4845198 
1481.609 4715070 4588226 4465318 4346885 4233363 4125134 4022481 3925632 
1485.467 3834744 3749928 3671265 3598848 3532786 3473163 3419985 3373167 
1489.324 3332573 3298086 3269746 3247777 3232662 3225083 3225881 3235870 
1493.181 3255837 3286532 3328695 3383166 3450998 3533539 3632531 3750330 
1497.039 3890045 4055784 4252814 4487514 4766817 5097266 5483381 5925743 
1500.896 6418945 6950038 7498061 8034809 8527009 8939898 9241406 9406579 
1504.754 9421439 9285340 9011406 8624476 8157009 7644050 7118245 6606324 
1508.611 6127442 5693333 5309495 4976892 4693431 4455216 4257220 4093907 
1512.469 3959585 3848944 3757221 3680677 3616504 3562851 3518551 3482810 
1516.326 3455002 3434575 3420822 3413149 3410912 3413526 3420463 3431137 
1520.183 3444859 3460801 3477982 3495385 3512063 3527249 3540503 3551648 
1524.041 3560785 3568101 3573820 3578039 3580691 3581535 3580156 3576089 
1527.898 3568863 3558072 3543399 3524625 3501710 3474754 3444122 3410399 
1531.756 3374450 3337410 3300533 3265058 3232060 3202177 3175601 3152022 
1535.613 3130739 3110874 3091525 3072042 3052055 3031668 3011370 2991946 
1539.470 2974317 2959322 2947499 2938979 2933474 2930404 2929110 2929011 
1543.328 2929777 2931317 2933735 2937106 2941434 2946548 2952172 2958030 
1547.185 2964052 2970443 2977625 2986147 2996355 3008406 3021948 3036392 
1551.043 3050956 3064949 3077952 3089850 3100878 3111429 3121906 3132650 
1554.900 3143822 3155455 3167464 3179779 3192390 3205312 3218699 3232729 
1558.758 3247632 3263636 3280981 3299844 3320400 3342745 3366938 3392987 
1562.615 3420894 3450666 3482349 3516094 3552175 3591040 3633292 3679702 
1566.472 3731138 3788570 3852985 3925461 4007121 4099083 4202557 4318639 
1570.330 4448234 4591977 4750135 4922642 5109144 5309046 5521396 5744605 
1574.187 5975938 6211060 6443487 6664704 6864615 7032659 7159073 7236182 
1578.045 7259096 7226140 7138578 7000348 6817664 6598516 6352187 6088695 
1581.902 5817979 5549273 5290472 5047806 4825657 4626680 4451944 4301288 
1585.760 4173428 4066328 3977327 3903480 3841743 3789286 3743774 3703454 
1589.617 3667376 3635177 3606867 3582565 3562238 3545459 3531605 3519850 
1593.474 3509522 3500267 3492213 3485900 3482179 3481997 3486247 3495557 
1597.332 3510340 3530754 3556680 3587796 3623499 3662927 3705066 3748789 
1601.189 3793107 3837387 3881513 3925972 3971795 4020346 4073039 4131018 
1605.047 4194871 4264614 4339699 4419182 4502036 4587310 4674330 4762608 
1608.904 4851662 4940812 5028955 5114460 5195324 5269342 5334406 5388709 
1612.761 5430688 5459101 5472663 5470100 5450087 5411828 5355405 5282309 
1616.619 5195664 5099961 5000496 4902519 4810456 4727482 4655399 4594779 
1620.476 4545406 4506558 4477286 4456585 4443377 4436491 4434665 4436617 
1624.334 4441052 4446871 4453221 4459638 4466034 4472669 4480049 4488726 
1628.191 4499202 4511652 4525996 4541866 4558727 4576083 4593575 4610992 
1632.049 4628239 4645226 4661759 4677569 4692454 4706389 4719789 4733291 
1635.906 4747845 4764312 4783197 4804518 4827882 4852708 4878462 4904885 
1639.763 4932052 4960236 4989640 5020274 5051870 5083971 5116154 5148118 
1643.621 5179820 5211412 5243140 5275292 5308178 5342225 5378095 5416638 
1647.478 5458715 5504908 5555197 5608952 5665003 5722082 5779201 5836039 
1651.336 5892928 5950677 6010068 6071719 6135717 6202022 6270736 6342540 
1655.193 6418736 6500994 6590938 6689539 6796901 6912255 7034362 7162006 
1659.051 7294404 7431417 7573364 7720831 7874297 8034100 8200516 8373856 
1662.908 8554538 8743005 8939488 9143667 9354582 9570768 9790510 10012260 
1666.765 10234877 10457754 10680674 10903669 11126863 11350538 11575207 
1670.141 11801738 12031157 12264396 12501991 12743740 12988910 13236573 
1673.516 13486113 13737783 13992658 14252344 14518358 14791390 15071084 
1676.891 15356217 15645197 15936816 16230489 16526291 16824574 17125460 
1680.266 17428610 17733372 18039270 18346528 18656302 18970532 19291318 
1683.642 19620244 19958032 20304616 20659820 21024208 21399620 21789230 
1687.017 22196942 22626806 23082236 23566102 24080924 24629528 25215334 
1690.392 25842268 26514376 27235288 28008148 28836140 29723654 30677152 
1693.767 31705544 32819230 34028208 35339988 36758368 38284216 39918284 
1697.143 41664916 43535008 45546928 47724088 50090588 52666224 55462652 
1700.518 58483244 61726172 65190112 68879368 72805712 76986240 81437656 
1703.893 86169872 91181008 96455496 101965536 107673552 113533560 119489184 
1707.268 125469800 131387056 137135696 142600592 147668416 152238576 
1710.161 156228384 159571600 162213536 164109936 165233536 165584864 
1713.054 165200608 164151024 162526304 160417952 157904752 155048352 
1715.948 151899840 148509088 144932256 141231984 137470528 133700696 
1718.841 129959344 126266312 122628728 119047728 115524360 112062432 
1721.734 108667968 105346920 102102864 98936192 95845512 92829368 89888120 
1725.109 87024104 84240312 81538472 78917416 76372616 73897568 71485600 
1728.484 69131824 66834140 64592512 62407584 60278808 58203320 56175936 
1731.859 54190280 52240320 50322152 48434488 46578700 44757508 42973500 
1735.235 41228128 39521016 37850372 36213780 34609072 33035130 31492088 
1738.610 29981356 28505332 27067092 25670248 24318690 23016476 21767606 
1741.985 20575640 19443264 18372106 17362546 16413957 15525034 14694075 
1745.360 13919222 13198264 12528567 11906997 11330080 10794575 10297906 
1748.736 9838526 9415826 9029406 8678371 8360427 8071884 7807882 7563549 
1752.593 7334863 7119452 6916539 6726396 6549610 6386181 6235390 6095941 
1756.450 5966291 5845128 5731547 5624845 5524263 5428691 5336909 5247893 
1760.308 5161200 5077310 4997404 4922906 4854725 4792769 4735813 4681945 
1764.165 4629062 4575666 4521199 4466005 4411050 4357487 4306356 4258444 
1768.023 4214305 4174387 4138861 4107513 4079679 4054086 4029253 4003822 
1771.880 3977081 3949254 3921322 3894609 3870085 3847984 3827577 3807628 
1775.738 3786765 3764208 3739898 3714513 3688994 3664222 3640656 3618432 
1779.595 3597332 3577270 3558228 3540212 3523038 3506252 3489022 3470558 
1783.452 3450425 3428978 3407210 3386603 3368635 3354165 3343194 3334936 
1787.310 3328146 3321544 3314098 3305282 3294952 3283189 3270302 3256723 
1791.167 3243059 3230032 3218319 3208167 3199181 3190240 3179803 3166525 
1795.025 3149880 3130603 3110646 3092634 3078933 3070907 3068348 3069611 
1798.882 3072237 3073718 3072315 3067257 3058740 3047396 3033949 3018903 
1802.740 3002647 2985672 2968828 2953269 2940313 2930916 2925290 2922785 
1806.597 2921912 2920872 2917971 2912078 2902787 2890446 2875898 2860387 
1810.454 2845288 2831980 2821623 2814876 2811729 2811238 2811706 2811133 
1814.312 2807750 2800839 2791083 2780599 2772461 2769769 2774582 2787290 
1818.169 2806254 2828348 2849928 2867861 2880366 2887291 2889870 2890028 
1822.027 2889497 2889279 2889216 2888244 2884878 2877729 2866289 2851057 
1825.884 2833545 2815725 2799400 2785633 2774282 2764037 2753003 2739336 
1829.741 2721988 2701114 2678216 2655506 2635344 2619348 2607933 2600191 
1833.599 2594197 2587672 2578495 2565452 2548398 2528262 2506764 2486014 
1837.456 2467783 2453176 2442187 2433675 2425574 2415358 2400834 2380668 
1841.314 2354936 2324971 2293073 2261761 2233121 2208369 2187725 2170925 
1845.171 2157512 2147365 2140588 2137289 2137042 2138474 2139259 2136615 
1849.029 2128164 2112750 2090926 2064876 2037650 2012081 1989972 1971436 
1852.886 1955096 1938908 1920992 1900579 1878336 1856031 1836029 1820369 
1856.743 1809944 1804272 1801512 1799228 1794827 1786451 1773239 1755740 
1860.601 1735571 1715095 1696931 1683429 1676266 1676127 1682574 1694165 
1864.458 1708564 1722979 1734518 1740594 1739427 1730157 1713168 1689847 
1868.316 1662308 1633076 1604446 1578257 1555568 1536720 1521530 1509747 
1872.173 1501239 1496247 1495400 1499535 1509472 1525578 1547622 1574555 
1876.031 1604458 1634698 1662247 1684174 1698341 1703695 1700865 1691918 
1879.888 1679978 1668295 1659558 1655104 1654828 1657403 1661145 1664557 
1883.745 1667002 1668741 1670475 1672751 1675417 1677287 1676484 1671176 
1887.603 1660159 1643438 1622302 1599035 1576127 1555766 1539235 1526931 
1891.460 1518485 1513113 1510113 1508856 1509151 1510820 1513704 1517492 
1895.318 1521530 1524982 1526977 1526853 1524519 1520654 1516755 1514910 
1899.175 1517147 1524918 1538427 1556462 1576565 1595616 1610665 1619764 
1903.032 1622200 1618578 1610683 1600816 1591634 1585878 1586028 1594163 
1906.890 1611282 1636669 1667642 1699546 1726660 1743763 1747537 1737979 
1910.747 1718425 1694528 1672688 1658029 1653094 1657488 1668611 1682776 
1914.605 1696433 1707092 1713165 1713881 1708926 1698413 1683189 1665321 
1918.462 1647753 1633785 1625875 1624532 1627795 1631942 1632488 1626164 
1922.320 1611942 1591357 1567813 1545068 1526065 1512070 1503076 1498652 
1926.177 1498917 1504537 1516349 1534173 1556233 1579038 1598733 1613085 
1930.034 1622563 1631323 1645516 1671148 1711348 1764624 1824557 1881509 
1933.892 1924903 1945911 1939211 1903887 1843112 1763986 1676496 1592940 
1937.749 1526278 1488221 1486421 1522052 1588707 1673090 1758360 1828725 
1941.607 1873803 1891416 1887389 1872987 1860660 1860128 1876430 1909642 
1945.464 1956090 2010811 2068198 2122840 2169302 2202165 2217280 2213395 
1949.322 2193367 2164253 2135347 2114931 2106374 2106556 2107010 2097217 
1953.179 2069329 2021620 1958826 1889525 1821855 1759260 1699379 1636351 
1957.036 1564806 1485379 1406251 1341832 1306966 1310425 1350271 1413814 
1960.894 1482512 1539884 1577858 1599291 1615774 1641240 1684974 1748100 
1964.751 1822953 1896344 1955284 1990557 1998522 1979966 1937480 1873916 
1968.609 1790771 1690330 1576943 1457995 1343736 1244569 1168278 1118651 
1972.466 1094833 1092684 1107277 1134151 1169866 1211420 1255723 1300117 
1976.323 1342846 1385623 1433005 1491410 1565554 1655047 1752600 1846746 
1980.181 1925009 1978981 2007174 2015304 2013488 2012506 2018739 2032074 
1984.038 2045754 2049093 2032889 1992880 1932188 1860399 1790585 1734607 
1987.896 1699378 1684788 1684780 1689450 1689254 1677379 1652341 1617476 
1991.753 1578932 1543398 1515305 1495391 1480451 1465440 1444912 1416216 
1995.611 1380031 1340748 1304351 1276701 1260602 1255103 1255386 1254291 
1999.468 1244338 1219589 1176875 1115491 1037585 947111 850383 756100 675191 
2003.808 619951 602031 628839 700143 805430 924546 1031547 1100982 1114680 
2008.147 1066608 963607 822757 666380 516887 392943 306237 260984 254401 
2012.487 277977 318967 363291 398241 415187 411517 390988 361714 333336 
2016.826 313938 307292 313048 328392 349930 376079 406585 441179 477014 
2021.166 507715 524108 518019 484936 428466 358837 290657 236963 204693 
2025.506 191888 190803 191475 187650 180418 177815 190599 226929 286858 
2029.845 362751 440057 503824 542994 553588 538807 506470 465561 424009 
2034.185 388164 363091 354315 366900 404687 467915 551828 648277 746749 
2038.524 838940 920164 989677 1048656 1096824 1130068 1141448 1123319 
2042.382 1072351 993567 901677 818477 767613 767179 825753 939587 1095747 
2046.721 1276708 1465307 1647746 1814034 1955826 2065112 2133382 2153394 
2050.579 2121785 2041819 1923957 1784677 1643576 1519694 1427515 1374551 
2054.436 1360179 1377257 1414692 1461188 1507744 1549186 1583630 1611405 
2058.294 1633727 1651562 1665148 1673756 1675943 1670477 1656501 1634729 
2062.151 1607777 1580312 1558386 1548002 1553241 1574883 1609266 1649372 
2066.009 1686857 1714952 1731095 1737959 1742821 1755155 1782627 1828590 
2069.866 1890089 1958695 2022712 2070200 2092298 2084894 2048888 1989090 
2073.723 1912677 1827780 1742391 1664167 1600246 1556804 1538316 1546325 
2077.581 1578446 1628279 1686447 1742257 1786601 1813927 1823413 1819207 
2081.438 1808800 1801154 1804119 1822590 1857297 1904711 1957901 2008221 
2085.296 2047384 2069497 2072380 2058154 2032303 2001857 1973112 1949207 
2089.153 1929255 1908783 1881370 1841420 1786643 1719740 1647937 1581653 
2093.010 1531620 1506455 1510738 1544091 1601975 1676934 1760215 1843064 
2096.868 1917703 1977699 2018658 2038727 2038933 2023427 1998601 1971844 
2100.725 1949568 1935850 1931671 1935223 1943195 1952183 1959609 1963868 
2104.583 1964084 1959467 1949104 1932466 1910100 1884701 1860787 1843737 
2108.440 1838286 1846677 1868111 1898879 1934134 1969519 2002566 2032463 
2112.298 2058897 2080539 2093900 2093718 2074934 2034939 1975515 1903191 
2116.155 1827430 1757695 1700221 1656000 1620986 1588355 1551623 1507571 
2120.012 1457319 1405388 1357443 1317286 1285256 1258462 1232091 1201846 
2123.870 1165688 1124043 1079242 1033203 986448 937439 883732 823453 757116 
2128.209 687921 620954 561073 511017 469818 433299 395651 351613 299079 
2132.549 240238 181246 131332 100284 96059 122532 178800 258727 352209 
2136.889 447236 532403 599690 646108 674067 689984 700947 711544 720717 
2141.228 721595 703838 657137 577060 467451 340897 216353 113488 47829 26853 
2146.050 48953 105679 184366 271753 355188 423418 465528 471967 435160 
2150.390 351639 224328 62461 -120432 -310365 -497997 -681421 -866696 
2154.247 -1064787 -1285197 -1529758 -1787472 -2033516 -2232389 -2343938 
2157.622 -2334121 -2186006 -1907423 -1533341 -1118250 -722305 -395162 
2160.998 -165540 -37812 5143 -5172 -30616 -34872 8947 112868 272870 469743 
2165.819 674900 857799 992507 1062244 1062103 997119 880191 728716 561151 
2170.159 396020 249779 136349 65598 42080 64359 124884 211078 307954 400921 
2174.981 478686 534576 567030 578582 573158 554975 527477 493329 455972 
2179.320 421246 397424 394763 423064 487867 587345 710679 839021 949612 
2183.660 1021882 1043316 1013539 944440 856938 775554 721472 706796 732365 
2188.000 787904 855292 914665 949195 948971 912786 847189 764311 679064 
2192.339 605835 556547 538668 554547 601342 671084 752643 834000 904729 
2196.679 958520 994724 1017488 1033914 1050755 1071747 1095436 1115881 
2200.536 1124949 1115588 1085397 1038487 984745 937489 909705 909749 939764 
2204.876 995153 1066416 1142296 1212576 1270408 1312655 1339449 1353520 
2208.733 1358551 1358974 1359627 1365524 1380563 1407051 1444045 1486615 
2212.591 1527002 1556327 1567534 1558391 1532739 1500291 1473468 1463329 
2216.448 1476361 1511924 1562888 1618623 1668313 1705296 1728340 1741326 
2220.305 1751390 1765468 1788378 1821317 1862147 1906790 1950428 1988628 
2224.163 2017528 2033953 2035531 2021077 1991258 1950174 1904357 1862649 
2228.020 1834039 1825654 1840771 1878088 1931903 1993737 2053627 2102065 
2231.878 2131686 2138081 2120606 2082590 2030931 1975220 1925589 1890174 
2235.735 1873430 1874385 1887830 1906052 1922410 1933959 1942728 1954803 
2239.593 1977371 2015343 2068388 2130902 2192982 2244720 2279043 2294010 
2243.450 2292662 2280893 2264523 2246726 2227774 2205637 2178313 2145566 
2247.307 2109795 2074912 2045230 2023166 2009046 2001633 1999802 2004059 
2251.165 2017058 2042595 2083293 2138252 2201906 2264543 2314903 2343556 
2255.022 2346277 2325150 2288363 2247168 2212673 2192868 2190773 2204563 
2258.880 2229003 2257448 2283891 2304226 2317156 2323696 2326647 2329445 
2262.737 2335154 2345512 2360884 2379953 2400964 2422126 2442709 2463412 
2266.594 2485976 2512384 2543806 2579755 2617954 2654942 2687135 2711947 
2270.452 2728545 2737549 2740645 2739331 2734424 2725830 2713354 2697166 
2274.309 2679100 2662525 2652077 2652430 2667123 2697606 2742638 2798623 
2278.167 2860459 2922460 2979591 3028157 3066270 3093982 3112744 3124885 
2282.024 3132756 3137898 3140793 3140692 3136137 3125683 3108594 3085431 
2285.882 3057867 3028369 2999328 2972345 2947834 2925286 2903483 2881308 
2289.739 2858373 2835073 2812652 2792739 2776805 2765910 2760283 2759317 
2293.596 2761632 2765322 2768147 2767892 2762883 2752303 2736449 2716555 
2297.454 2694491 2672321 2651631 2633370 2617803 2604835 2594305 2586243 
2301.311 2580776 2577857 2576926 2576949 2576572 2574880 2571823 2568656 
2305.169 2567477 2570530 2579323 2593672 2611866 2631082 2648481 2662095 
2309.026 2671435 2677148 2680411 2681890 2681491 2678479 2672225 2663097 
2312.884 2652967 2644982 2642636 2648532 2663369 2685675 2712400 2740066 
2316.741 2765881 2788610 2808684 2827744 2848118 2872332 2903062 2942876 
2320.598 2993905 3056932 3130117 3207792 3280263 3335003 3359258 3343255 
2324.456 3283043 3181878 3049735 2901222 2752551 2618278 2508544 2427913 
2328.313 2375401 2345818 2332213 2327720 2327088 2327261 2326794 2325481 
2332.171 2323542 2321381 2319512 2318441 2318707 2320641 2324050 2328180 
2336.028 2331891 2334060 2334130 2332329 2329759 2327877 2328000 2330653 
2339.885 2335464 2341183 2346395 2349887 2351229 2350760 2349369 2348056 
2343.743 2347554 2348045 2349275 2350697 2351721 2352029 2351582 2350553 
2347.600 2349285 2348135 2347447 2347451 2348379 2350239 2353009 2356337 
2351.458 2359930 2363412 2366609 2369559 2372503 2375751 2379590 2383983 
2355.315 2388633 2392901 2396172 2397885 2397776 2395779 2392078 2386808 
2359.173 2379983 2371428 2360926 2348291 2333540 2317008 2299192 2280707 
2363.030 2262194 2244181 2227196 2211784 2198745 2189145 2184211 2184992 
2366.887 2191982 2204681 2221450 2239664 2256292 2268579 2275013 2275733 
2370.745 2272622 2268748 2267369 2270932 2280193 2293970 2309692 2324102 
2374.602 2334505 2339454 2339059 2334501 2327501 2319435 2311133 2302819 
2378.460 2294689 2287523 2282723 2282186 2287478 2298991 2315367 2333486 
2382.317 2349525 2359837 2362480 2357754 2348154 2337379 2329033 2325487 
2386.175 2327105 2332508 2339370 2345385 2349282 2351019 2351526 2352187 
2390.032 2353974 2356912 2360159 2362175 2361435 2356754 2347814 2335115 
2393.889 2319907 2303616 2287807 2273772 2262271 2253720 2248128 2245220 
2397.747 2244649 2246002 2249068 2253557 2259104 2265149 2270872 2275393 
2401.604 2278014 2278511 2277512 2276285 2276392 2279421 2286067 2295973 
2405.462 2307709 2319084 2327930 2332629 2332696 2328832 2322722 2316479 
2409.319 2312177 2311358 2314760 2322189 2332586 2344198 2354711 2361698 
2413.177 2363168 2357800 2345519 2327467 2305819 2283219 2262349 2245131 
2417.034 2232808 2225588 2223331 2225551 2231668 2241087 2252846 2265478 
2420.891 2277084 2285400 2288562 2285293 2275634 2260713 2242596 2223426 
2424.749 2205154 2188699 2174086 2160634 2147351 2133375 2118731 2104025 
2428.606 2090653 2080274 2074472 2074087 2079065 2088374 2100210 2112571 
2432.464 2123646 2132506 2139164 2144271 2148728 2152991 2156653 2158373 
2436.321 2156502 2149769 2138212 2123480 2109008 2098858 2096751 2104784 
2440.178 2122759 2148006 2176182 2202222 2221658 2231502 2230793 2220494 
2444.036 2203263 2182746 2162754 2146759 2137177 2134910 2139417 2148518 
2447.893 2159345 2169009 2175565 2178420 2178625 2178308 2179681 2184230 
2451.751 2191907 2201138 2209278 2213513 2212089 2204662 2192684 2178742 
2455.608 2165884 2156552 2152026 2151966 2154856 2158212 2159675 2157388 
2459.466 2150818 2140679 2128782 2117514 2109070 2104650 2104080 2105682 
2463.323 2106860 2104875 2097893 2085371 2068582 2049857 2031819 2016483 
2467.180 2004609 1995662 1988296 1981019 1973015 1964483 1956390 1950053 
2471.038 1946616 1946445 1949202 1954178 1960550 1968044 1976651 1986664 
2474.895 1998220 2010875 2023671 2035026 2043360 2047304 2046296 2040377 
2478.753 2030337 2017340 2002791 1987978 1973991 1961582 1951195 1942874 
2482.610 1936644 1932456 1930544 1931396 1935609 1943563 1954941 1968564 
2486.468 1982270 1993464 1999710 1999628 1993305 1982420 1969851 1958783 
2490.325 1952020 1951289 1957306 1969758 1988018 2011000 2037615 2066300 
2494.182 2094988 2121131 2142012 2155473 2160488 2157572 2148528 2136004 
2498.040 2122541 2109934 2099038 2089801 2082064 2076090 2072867 2073816 
2501.897 2080375 2093014 2110977 2132130 2153617 2172526 2186880 2195974 
2505.755 2200463 2201818 2201810 2201750 2202453 2203979 2206065 2208279 
2509.612 2210171 2211122 2210579 2207752 2201884 2192532 2179908 2165157 
2513.469 2150394 2138209 2131270 2131586 2140000 2155967 2177633 2202322 
2517.327 2227264 2250144 2269569 2285205 2297601 2307683 2316261 2323426 
2521.184 2328649 2330588 2327679 2318750 2303543 2283108 2259886 2237274 
2525.042 2219183 2208917 2208818 2219378 2239231 2265327 2293474 2319157 
2528.899 2338745 2349995 2352806 2349289 2343089 2338464 2339158 2347248 
2532.757 2362587 2382719 2403668 2421058 2431400 2433143 2427035 2415935 
2536.614 2403896 2395074 2392600 2397910 2410460 2428176 2448069 2467060 
2540.471 2482877 2494129 2500726 2503328 2503278 2501830 2500004 2498443 
2544.329 2497442 2497139 2497543 2498577 2500206 2502043 2503493 2503509 
2548.186 2501124 2495551 2486746 2475615 2463910 2454007 2448171 2448003 
2552.044 2454033 2465322 2479878 2495072 2508292 2517458 2521578 2520668 
2555.901 2515895 2509091 2502615 2498633 2498922 2504222 2514294 2527760 
2559.759 2542605 2556537 2567880 2575737 2580512 2583466 2586176 2589940 
2563.616 2595122 2601001 2606083 2608461 2606698 2600216 2589547 2576159 
2567.473 2562123 2549615 2540439 2535970 2536890 2543394 2555093 2571139 
2571.331 2590261 2610798 2630971 2648981 2663455 2673483 2678893 2680172 
2575.188 2678620 2675993 2674492 2676121 2682437 2693934 2709708 2727284 
2579.046 2743291 2753930 2756293 2749124 2733514 2712458 2690111 2670572 
2582.903 2656690 2649236 2647224 2648288 2650123 2651399 2652331 2654633 
2586.760 2660798 2672995 2692336 2718154 2747959 2778109 2804573 2823802 
2590.618 2833631 2833515 2824806 2810248 2793466 2778091 2766947 2761349 
2594.475 2760972 2763987 2767815 2769924 2768817 2764516 2758521 2753362 
2598.333 2751712 2755540 2765477 2780678 2799006 2817714 2834044 2845849 
2602.190 2852018 2852555 2848749 2842660 2836985 2834448 2837141 2846040 
2606.048 2860646 2878864 2897641 2913609 2924175 2928210 2926490 2921299 
2609.905 2915832 2913008 2914611 2920822 2930143 2940152 2948193 2952265 
2613.762 2951556 2946456 2938385 2929075 2920180 2912875 2907772 2904936 
2617.620 2904297 2905793 2909693 2916363 2926365 2939998 2957325 2977809 
2621.477 3000479 3024053 3047132 3068348 3086611 3101203 3111610 3117715 
2625.335 3119655 3117921 3113280 3106822 3099763 3093318 3088311 3084995 
2629.192 3083126 3081893 3080488 3078367 3075564 3072777 3071029 3071215 
2633.050 3073731 3078041 3082935 3086745 3088118 3086475 3082312 3077088 
2636.907 3072778 3071204 3073390 3079160 3087276 3095593 3101793 3104057 
2640.764 3101371 3093791 3082415 3068977 3055419 3043611 3034894 3030040 
2644.622 3029325 3032478 3038997 3048104 3059086 3071038 3083084 3094280 
2648.479 3103822 3110961 3115351 3117009 3116367 3114182 3111382 3108707 
2652.337 3106691 3105531 3105138 3105205 3105570 3106026 3106382 3106423 
2656.194 3105838 3104096 3100689 3095237 3087712 3078420 3068103 3057466 
2660.052 3047116 3037198 3027421 3017035 3005306 2991601 2975811 2958260 
2663.909 2939809 2921427 2904191 2888898 2876083 2865980 2858574 2853584 
2667.766 2850648 2849161 2848552 2848197 2847541 2846242 2844245 2841611 
2671.624 2838641 2835578 2832706 2830041 2827555 2825016 2822193 2818924 
2675.481 2815200 2811175 2807248 2803965 2801898 2801512 2803007 2806212 
2679.339 2810637 2815500 2820092 2823902 2826685 2828632 2829951 2830778 
2683.196 2830968 2830083 2827503 2822734 2815786 2807268 2798400 2790606 
2687.053 2785271 2783163 2784465 2788641 2794780 2801798 2808709 2814754 
2690.911 2819341 2822048 2822572 2820957 2817633 2813476 2809866 2808137 
2694.768 2809335 2813725 2820651 2828660 2835958 2840987 2842814 2841481 
2698.626 2837811 2832968 2828114 2823954 2820646 2818033 2815712 2813381 
2702.483 2810903 2808285 2805502 2802388 2798758 2794420 2789420 2784198 
2706.341 2779617 2776733 2776566 2779716 2786293 2795758 2807094 2819105 
2710.198 2830488 2840219 2847617 2852458 2855000 2855968 2856383 2857454 
2714.055 2860144 2865094 2872147 2880567 2889055 2896357 2901409 2903872 
2717.913 2904211 2903499 2902962 2903615 2905884 2909355 2913160 2916144 
2721.770 2917363 2916567 2914097 2910886 2908110 2906848 2907779 2910977 
2725.628 2916018 2922126 2928504 2934458 2939581 2943612 2946589 2948398 
2729.485 2949002 2948299 2946362 2943386 2939833 2936566 2934412 2934206 
2733.343 2936497 2941406 2948676 2957770 2968010 2978803 2989656 3000132 
2737.200 3009870 3018344 3024999 3029264 3030802 3029735 3026636 3022456 
2741.057 3018358 3015395 3014174 3014825 3017061 3020267 3023875 3027503 
2744.915 3031038 3034584 3038272 3042249 3046425 3050769 3055237 3059884 
2748.772 3064961 3070714 3077254 3084460 3091772 3098338 3103261 3105853 
2752.630 3105939 3104021 3101184 3098815 3098430 3100986 3106758 3115164 
2756.487 3124914 3134265 3141566 3145568 3145704 3142200 3135993 3128431 
2760.344 3121036 3115113 3111703 3111430 3114312 3120136 3128169 3137530 
2764.202 3147207 3156247 3164002 3170143 3174808 3178401 3181412 3184188 
2768.059 3186796 3188848 3189894 3189620 3187961 3185443 3182933 3181281 
2771.917 3180948 3181832 3183093 3183438 3181746 3177495 3171261 3164553 
2775.774 3159485 3158183 3161971 3170937 3183865 3198510 3212206 3222674 
2779.632 3228549 3229715 3227275 3223150 3219535 3218341 3220793 3227156 
2783.489 3236855 3248720 3261328 3273543 3284559 3294205 3302725 3310650 
2787.346 3318484 3326378 3334331 3342013 3349098 3355292 3360672 3365397 
2791.204 3369811 3374159 3378575 3382926 3386993 3390596 3393656 3396393 
2795.061 3399255 3402842 3407830 3414860 3424275 3436201 3450383 3466117 
2798.919 3482325 3497748 3511126 3521491 3528660 3533080 3536086 3539333 
2802.776 3544464 3552695 3564363 3579002 3595428 3612157 3627774 3641348 
2806.634 3652398 3660971 3667495 3672669 3677203 3681815 3687081 3693394 
2810.491 3700718 3708649 3716343 3722829 3727147 3728843 3728051 3725749 
2814.348 3723358 3722535 3724644 3730408 3739801 3752143 3766328 3781222 
2818.206 3796045 3810558 3824864 3839486 3855000 3871842 3890228 3910020 
2822.063 3930923 3952522 3974489 3996574 4018901 4041694 4065312 4090141 
2825.921 4116562 4144789 4175086 4207620 4242636 4280304 4320723 4363790 
2829.778 4409151 4456313 4504793 4554426 4605411 4658558 4715012 4775921 
2833.635 4842259 4914226 4991588 5073682 5159876 5249951 5344282 5443845 
2837.493 5549962 5663834 5786353 5917924 6058553 6208163 6366800 6534775 
2841.350 6712604 6900794 7099623 7308849 7527850 7755553 7990698 8231765 
2845.208 8477195 8725408 8974592 9222957 9468711 9710183 9946006 10174973 
2849.065 10395988 10607909 10809324 10998590 11173800 11333212 11475234 
2852.440 11598800 11703266 11788374 11854253 11901252 11929699 11940121 
2855.816 11933084 11909167 11869104 11813617 11743755 11660843 11566617 
2859.191 11463207 11352968 11238229 11120802 11001812 10881753 10760590 
2862.566 10638319 10515349 10392593 10271447 10153355 10039392 9929737 
2865.941 9824005 9721247 9620757 9522520 9427416 9337086 9253408 9177800 
2869.799 9110776 9051713 8999080 8951072 8905907 8862428 8820282 8779838 
2873.656 8741867 8707532 8678134 8655044 8639586 8633029 8636336 8650000 
2877.514 8673950 8707634 8750100 8800252 8857154 8919994 8988285 9061663 
2881.371 9139843 9222461 9309236 9399851 9494065 9591806 9692943 9797479 
2885.229 9905282 10016190 10129929 10245950 10363331 10480806 10596593 
2888.604 10708697 10815165 10914568 11006401 11091043 11169635 11243717 
2891.979 11314365 11382136 11446719 11507342 11563142 11613747 11659409 
2895.354 11700889 11739130 11774769 11808097 11839148 11868102 11895901 
2898.729 11924337 11956048 11993825 12039962 12095650 12160634 12233644 
2902.105 12312826 12396441 12483394 12573285 12666103 12762013 12860812 
2905.480 12962194 13065609 13170762 13277747 13387091 13499543 13615961 
2908.855 13736761 13862124 13991860 14125699 14263307 14404374 14548652 
2912.230 14695750 14845370 14997126 15150987 15306987 15465376 15626234 
2915.606 15789185 15953191 16116643 16277662 16434626 16586573 16733484 
2918.981 16875788 17014236 17149080 17279728 17404910 17522802 17631862 
2922.356 17731086 17820490 17900938 17973732 18040284 18101406 18157622 
2925.731 18208812 18254674 18294844 18329198 18357540 18380026 18396906 
2929.107 18408516 18415338 18417806 18416340 18411132 18401982 18388488 
2932.482 18370264 18346908 18318518 18285472 18248342 18207676 18163614 
2935.857 18116164 18065100 18010532 17953046 17893850 17834344 17775500 
2939.232 17717492 17659046 17597994 17531612 17457656 17374846 17283426 
2942.608 17184682 17080460 16972194 16860526 16745196 16625325 16500226 
2945.983 16369866 16235299 16098331 15961215 15825944 15693954 15565768 
2949.358 15441234 15319771 15200621 15083073 14966269 14849344 14731431 
2952.733 14611733 14489874 14365947 14240630 14115037 13990219 13866705 
2956.109 13744329 13622123 13498560 13372231 13242313 13109060 12973683 
2959.484 12838373 12705386 12576769 12453624 12336047 12223105 12113216 
2962.859 12004544 11895496 11784981 11672431 11557827 11441404 11323439 
2966.234 11204036 11083250 10960925 10836969 10711458 10584655 10457254 
2969.610 10330239 10204750 10082058 9963282 9849217 9739960 9635051 9533429 
2973.467 9433488 9333468 9231842 9127612 9020409 8910621 8799110 8686985 
2977.324 8575314 8464937 8356430 8250159 8146339 8044945 7945879 7848607 
2981.182 7752546 7656880 7561015 7464733 7368563 7273618 7181252 7092829 
2985.039 7009159 6930274 6855710 6784616 6716238 6650158 6586226 6524449 
2988.897 6464421 6405286 6345745 6284360 6220409 6153900 6086211 6019451 
2992.754 5955952 5897611 5845286 5798815 5757200 5719142 5683623 5650073 
2996.612 5618293 5588149 5559246 5530784 5501596 5470477 5436611 5399685 
3000.469 5359889 5317764 5273825 5228480 5182050 5134906 5087642 5041176 
3004.326 4996543 4954538 4915406 4878612 4843056 4807250 4770059 4730944 
3008.184 4690300 4649200 4608968 4570947 4535835 4503676 4473918 4445603 
3012.041 4417720 4389399 4360148 4329809 4298694 4267371 4236519 4206840 
3015.899 4178656 4151943 4126125 4100345 4073654 4045383 4015407 3984253 
3019.756 3952941 3922657 3894341 3868444 3844761 3822683 3801415 3780300 
3023.614 3759025 3737707 3716653 3696225 3676670 3658007 3640064 3622612 
3027.471 3605352 3588162 3571009 3554070 3537798 3522677 3509378 3498479 
3031.328 3490176 3484388 3480496 3477491 3474370 3470319 3465256 3459613 
3035.186 3454321 3450357 3448375 3448345 3449687 3451547 3453201 3454596 
3039.043 3456426 3459951 3466518 3477069 3491730 3509761 3529828 3550733 
3042.901 3571834 3593597 3617216 3644515 3677233 3716444 3762230 3813676 
3046.758 3869148 3926844 3985125 4042782 4099117 4153587 4205611 4254417 
3050.615 4298964 4338274 4371475 4398359 4419275 4435159 4447231 4456493 
3054.473 4463549 4468368 4470403 4468846 4462954 4452754 4438856 4422638 
3058.330 4406019 4390991 4379143 4371472 4368022 4368208 4370919 4374826 
3062.188 4378880 4382558 4385881 4389362 4393967 4400419 4409236 4420313 
3066.045 4432929 4445705 4457111 4465599 4470190 4470420 4466580 4459394 
3069.903 4449915 4439150 4428014 4417149 4407102 4398114 4390514 4384478 
3073.760 4380125 4377402 4376152 4375943 4376440 4377347 4378539 4380005 
3077.617 4381860 4384317 4387418 4391078 4395087 4398960 4401990 4403396 
3081.475 4402249 4397609 4388683 4374921 4356185 4332855 4305723 4275886 
3085.332 4244517 4212587 4180759 4149488 4118774 4088743 4059470 4031342 
3089.190 4005004 3981301 3961084 3945081 3933516 3926050 3921684 3919119 
3093.047 3916818 3913830 3909871 3905804 3903309 3904434 3910861 3923215 
3096.905 3940709 3961180 3981850 3999982 4013953 4023570 4030006 4035151 
3100.762 4040765 4047725 4055693 4063262 4068714 4070608 4068357 4062206 
3104.619 4053042 4041639 4028442 4013249 3995518 3974944 3951694 3926745 
3108.477 3901443 3877442 3855770 3836978 3820801 3806699 3793781 3781306 
3112.334 3768595 3754884 3739315 3720942 3699173 3674114 3646910 3619757 
3116.192 3595483 3576625 3564591 3559278 3558853 3560549 3561481 3559846 
3120.049 3555398 3549452 3544215 3542014 3544185 3550541 3559608 3568890 
3123.906 3575881 3578686 3576538 3569829 3559780 3548048 3536111 3525215 
3127.764 3516102 3509390 3505325 3504163 3505703 3509308 3513680 3516989 
3131.621 3516914 3511534 3499625 3481313 3457971 3432167 3406784 3384285 
3135.479 3366010 3351916 3340685 3330494 3319928 3308402 3296733 3286629 
3139.336 3280134 3278623 3282218 3289650 3298376 3305494 3308422 3305730 
3143.194 3297275 3284166 3268089 3251015 3234601 3220082 3208154 3199276 
3147.051 3193671 3191364 3192077 3195256 3199773 3204193 3206778 3206029 
3150.908 3200994 3191438 3178053 3162388 3146452 3132353 3121853 3115969 
3154.766 3114798 3117649 3123131 3129781 3136316 3141889 3146265 3149497 
3158.623 3151906 3153693 3154806 3155084 3154301 3152361 3149433 3145872 
3162.481 3142118 3138522 3135216 3132229 3129435 3126758 3124209 3121810 
3166.338 3119463 3117093 3114369 3111064 3107232 3103345 3100166 3098683 
3170.196 3099552 3102967 3108393 3114691 3120626 3125208 3127994 3129277 
3174.053 3129774 3130368 3131672 3133988 3137176 3140958 3144924 3148761 
3177.910 3152147 3154479 3155097 3153366 3148995 3142314 3134522 3127471 
3181.768 3123060 3122747 3126800 3134427 3143793 3152892 3160063 3164676 
3185.625 3167013 3167935 3168415 3168862 3169006 3168080 3165144 3159742 
3189.483 3152090 3143203 3134563 3127814 3124231 3124703 3129231 3137257 
3193.340 3147417 3157851 3166264 3170445 3168758 3160809 3147592 3131709 
3197.198 3116699 3106140 3102480 3106578 3117160 3131312 3145513 3156519 
3201.055 3162365 3162657 3158402 3151410 3143613 3136291 3130086 3125053 
3204.912 3120766 3116881 3113091 3109323 3105651 3102065 3098543 3095042 
3208.770 3091572 3088319 3085521 3083625 3082881 3083507 3085406 3088078 
3212.627 3091066 3093664 3095238 3095441 3094305 3092155 3089733 3087865 
3216.485 3087336 3088485 3091160 3094785 3098421 3101142 3102392 3102235 
3220.342 3101172 3100142 3100082 3101638 3104918 3109618 3115107 3120618 
3224.199 3125574 3129625 3132705 3135009 3136724 3138155 3139378 3140361 
3228.057 3140732 3139976 3137360 3132160 3123928 3112904 3099929 3086688 
3231.914 3075240 3067730 3065823 3070463 3081533 3098073 3118323 3140205 
3235.772 3161460 3179885 3193610 3201118 3201760 3195717 3184251 3169686 
3239.629 3154833 3142580 3135220 3133973 3138755 3148437 3161111 3174714 
3243.487 3187266 3197261 3203344 3204666 3200556 3190801 3175829 3156926 
3247.344 3136074 3115944 3099078 3087689 3082822 3084533 3091562 3102226 
3251.201 3114381 3126209 3136235 3143499 3147590 3148509 3146583 3142739 
3255.059 3138011 3133656 3130822 3130304 3132135 3135810 3140137 3143869 
3258.916 3146001 3146157 3144646 3142494 3140960 3141126 3143501 3147856 
3262.774 3153129 3157962 3160895 3161007 3158079 3152749 3146101 3139497 
3266.631 3133973 3130132 3127827 3126627 3125883 3125292 3124834 3124929 
3270.489 3126131 3128687 3132471 3136635 3139924 3140984 3138654 3132485 
3274.346 3122710 3110472 3097343 3085365 3076446 3072350 3074134 3082265 
3278.203 3096194 3114535 3135194 3155795 3174049 3188264 3197549 3201966 
3282.061 3202159 3199258 3194278 3188372 3182487 3177825 3175587 3177078 
3285.918 3183132 3193820 3208010 3223608 3237763 3247689 3251454 3248575 
3289.776 3240220 3228853 3217540 3209234 3206169 3209405 3218666 3232652 
3293.633 3249121 3265363 3278550 3286290 3287173 3281173 3269797 3255848 
3297.490 3242655 3233228 3229252 3230696 3235943 3242454 3247816 3250584 
3301.348 3250701 3249307 3247923 3247872 3249286 3251540 3253202 3253172 
3305.205 3251015 3247344 3243493 3240873 3240382 3242054 3244881 3247652 
3309.063 3249168 3248968 3247490 3245731 3245002 3246194 3249585 3254727 
3312.920 3260568 3265759 3269020 3269360 3266477 3260716 3253077 3245031 
3316.778 3238220 3234139 3233473 3236181 3241206 3247086 3252226 3255703 
3320.635 3257346 3257943 3258720 3260780 3264654 3270139 3276403 3282399 
3324.492 3287551 3291894 3296012 3300763 3306518 3313110 3319344 3323683 
3328.350 3324740 3321904 3315669 3307729 3300351 3295804 3295717 3300643 
3332.207 3309942 3322250 3335636 3348371 3358905 3366345 3370225 3370509 
3336.065 3367388 3361357 3352870 3342638 3331374 3319881 3308963 3299536 
3339.922 3292428 3288352 3287888 3291317 3298486 3308716 3320774 3333006 
3343.780 3343644 3351133 3354248 3352780 3347251 3339021 3329847 3321477 
3347.637 3315147 3311300 3309439 3308406 3306714 3303114 3296969 3288392 
3351.494 3278258 3267894 3258651 3251747 3247944 3247695 3251002 3257789 
3355.352 3267534 3279455 3292141 3303865 3312589 3316638 3314884 3307436 
3359.209 3295468 3281118 3266765 3254459 3245395 3239745 3236770 3235344 
3363.067 3234418 3233435 3232269 3231433 3231463 3232872 3235912 3240663 
3366.924 3247115 3255280 3265148 3276617 3289323 3302421 3314702 3324840 
3370.781 3331611 3334361 3333170 3328846 3322760 3316319 3310596 3305924 
3374.639 3302062 3298313 3293992 3288994 3283858 3279911 3278822 3281958 
3378.496 3289718 3301407 3315083 3328144 3337979 3342948 3342473 3337516 
3382.354 3329704 3321030 3313031 3306531 3301854 3298929 3297908 3299181 
3386.211 3303287 3310551 3320469 3331641 3341854 3348750 3350581 3347037 
3390.069 3339240 3329650 3321113 3316150 3316196 3321380 3330752 3342818 
3393.926 3356142 3369643 3382758 3395302 3407102 3418146 3428272 3437492 
3397.783 3445861 3453565 3460764 3467550 3473808 3479629 3485279 3491473 
3401.641 3499273 3509684 3523112 3539084 3556161 3572343 3585849 3596101 
3405.498 3603998 3611977 3622840 3639155 3661853 3690093 3721391 3752682 
3409.356 3781438 3806429 3828022 3847734 3867337 3888050 3909886 3932011 
3413.213 3953017 3971907 3988282 4002699 4016191 4029908 4044562 4060407 
3417.071 4077340 4095200 4114137 4134585 4157090 4181935 4208750 4236661 
3420.928 4264048 4289360 4311332 4329380 4343826 4355696 4366367 4377322 
3424.785 4389754 4404235 4420638 4438335 4456131 4472555 4486198 4496018 
3428.643 4501509 4502658 4500023 4494460 4486962 4478432 4469758 4461716 
3432.500 4455032 4450184 4447341 4446054 4445283 4443516 4439120 4431171 
3436.358 4419643 4405708 4391325 4378710 4369271 4363197 4359186 4355081 
3440.215 4348521 4337946 4323214 4305663 4287417 4270693 4256890 4246053 
3444.073 4236974 4227753 4216346 4201355 4182335 4159719 4134682 4108667 
3447.930 4083307 4059988 4039822 4023411 4010683 4000535 3990973 3979400 
3451.787 3963045 3940112 3910084 3874429 3836132 3798961 3766425 3740788 
3455.645 3722542 3710466 3702473 3696404 3691037 3686339 3683235 3682950 
3459.502 3686060 3692036 3698955 3704101 3704817 3699232 3687002 3669163 
3463.360 3647876 3625540 3604130 3584950 3568365 3554212 3542196 3532353 
3467.217 3524953 3520444 3519146 3520824 3524619 3529216 3533037 3534918 
3471.074 3534114 3530790 3525686 3520099 3515252 3512289 3511822 3513782 
3474.932 3517452 3521523 3524286 3524021 3519333 3509833 3496062 3479883 
3478.789 3463960 3451242 3444172 3444024 3450565 3462100 3476036 3489692 
3482.647 3501016 3509260 3514849 3519258 3524235 3531211 3540648 3552157 
3486.504 3564475 3576063 3585502 3592198 3596151 3598234 3599619 3601513 
3490.362 3604675 3609307 3614770 3620031 3623861 3625179 3623309 3618273 
3494.219 3610521 3601012 3590801 3581015 3572709 3566785 3563885 3564483 
3498.076 3568688 3575908 3585173 3594856 3603247 3608969 3611295 3610533 
3501.934 3607775 3604588 3602434 3602003 3603093 3604778 3605833 3605544 
3505.791 3604077 3602634 3603070 3607218 3616164 3629885 3647171 3665964 
3509.649 3683978 3699473 3711350 3719441 3724232 3726519 3727067 3726827 
3513.506 3726444 3726824 3728684 3732764 3739470 3748794 3760209 3772870 
3517.364 3785716 3797848 3808395 3816950 3823103 3826521 3827009 3824555 
3521.221 3819481 3812646 3805392 3799464 3796370 3797297 3802473 3811517 
3525.078 3823162 3836104 3848908 3860925 3872167 3883173 3894973 3908445 
3528.936 3924044 3941532 3959772 3977081 3991468 4001319 4005697 4004863 
3532.793 4000183 3993676 3987708 3984202 3984290 3988091 3994983 4003909 
3536.651 4013631 4023177 4031570 4037932 4041323 4040778 4035670 4026251 
3540.508 4013734 4000422 3989068 3982313 3981615 3986830 3996265 4007256 
3544.365 4017204 4024477 4028858 4031421 4033862 4037571 4042874 4048998 
3548.223 4054449 4057667 4058013 4056150 4053754 4052916 4055350 4061494 
3552.080 4070347 4079770 4087020 4089823 4086811 4078103 4064846 4049192 
3555.938 4033294 4019013 4007209 3997846 3990006 3982138 3972733 3961052 
3559.795 3947443 3933506 3921877 3915365 3916004 3924052 3937695 3953233 
3563.653 3966134 3972281 3969425 3957795 3939972 3920084 3902352 3889887 
3567.510 3883747 3882951 3885137 3887420 3887484 3883922 3876381 3865308 
3571.367 3851443 3835707 3818853 3801984 3786204 3772593 3761964 3754584 
3575.225 3749836 3746689 3743662 3739930 3735116 3729768 3724770 3720730 
3579.082 3717600 3714311 3709212 3700866 3688608 3673212 3656586 3641270 
3582.940 3629475 3622198 3618979 3618262 3618044 3616901 3614493 3611697 
3586.797 3610102 3611122 3615111 3621158 3627182 3630785 3629885 3623725 
3590.655 3612949 3599322 3585083 3572328 3562127 3554457 3548357 3542317 
3594.512 3535129 3526393 3516717 3507939 3502512 3502981 3511070 3527389 
3598.369 3550886 3579310 3609600 3638903 3665069 3687251 3705435 3720314 
3602.227 3732301 3741027 3745282 3743643 3735192 3720452 3701723 3682881 
3606.084 3668562 3662630 3667304 3682355 3705269 3731902 3757910 3779542 
3609.942 3794616 3802525 3803989 3800978 3795772 3791130 3789576 3793344 
3613.799 3803614 3820341 3841652 3864481 3884900 3899432 3905664 3903568 
3617.656 3894885 3883055 3871677 3863836 3861057 3863206 3868860 3876126 
3621.514 3883074 3888314 3891268 3891921 3890900 3889425 3889192 3891998 
3625.371 3899460 3912331 3929812 3949567 3967986 3981185 3986165 3982071 
3629.229 3970576 3955603 3941687 3933072 3932040 3938533 3950493 3964692 
3633.086 3977846 3987708 3993003 3993755 3990629 3984599 3976591 3967579 
3636.944 3958394 3949985 3943168 3938685 3936945 3938122 3942192 3949132 
3640.801 3958894 3970985 3984255 3996688 4005535 4007897 4001692 3986558 
3644.658 3964327 3938663 3914036 3894396 3881849 3876096 3874701 3874346 
3648.516 3871923 3865844 3856196 3844649 3833497 3824684 3819191 3817217 
3652.373 3818254 3821721 3827012 3833730 3841281 3848710 3854752 3858103 
3656.231 3857569 3852579 3843043 3829050 3810746 3788156 3761616 3732269 
3660.088 3702608 3676520 3658410 3652077 3659162 3678221 3704479 3731368 
3663.946 3751894 3761064 3756859 3740805 3717064 3690436 3665074 3643402 
3667.803 3625767 3611286 3598644 3587230 3577181 3569345 3564453 3562707 
3671.660 3563287 3564775 3565468 3564467 3561388 3557200 3553210 3551161 
3675.518 3552412 3557660 3566758 3578849 3592390 3605735 3616991 3624747 
3679.375 3628189 3627281 3622841 3616393 3609506 3603453 3598572 3594426 
3683.233 3589505 3582250 3571035 3555274 3535005 3511301 3485734 3459940 
3687.090 3435566 3413799 3395597 3381700 3372692 3369300 3371963 3381008 
3690.948 3396225 3416782 3440859 3466021 3489092 3507094 3517509 3519081 
3694.805 3512159 3498376 3480475 3461545 3444089 3429496 3417904 3408499 
3698.662 3400019 3391800 3383780 3377084 3373042 3372981 3377202 3384920 
3702.520 3393967 3401690 3405379 3403503 3395798 3383616 3369464 3356512 
3706.377 3347733 3345134 3349081 3358434 3370677 3382358 3390052 3391246 
3710.235 3384832 3371713 3354235 3335913 3320288 3310109 3306722 3310002 
3714.092 3318571 3330397 3343533 3356360 3367958 3377926 3386061 3392348 
3717.949 3396738 3399142 3399557 3398312 3395807 3392621 3389310 3386261 
3721.807 3383590 3381409 3379655 3378318 3377558 3377743 3379164 3382222 
3725.664 3387160 3393977 3402398 3412044 3422286 3432557 3442187 3450961 
3729.522 3458717 3465653 3472036 3478294 3484680 3491233 3497774 3503824 
3733.379 3508751 3511694 3511883 3508745 3502028 3492147 3480051 3467460 
3737.237 3456384 3448797 3446105 3448763 3456004 3466221 3477048 3486335 
3741.094 3492330 3494009 3491128 3484015 3473239 3459572 3443913 3427631 
3744.951 3412385 3400115 3392417 3390394 3394037 3402347 3413702 3426279 
3748.809 3438605 3450086 3460605 3470608 3480130 3488780 3495591 3499787 
3752.666 3501012 3500026 3498417 3498104 3500663 3506655 3515432 3525687 
3756.524 3536150 3546347 3556599 3568063 3581440 3596578 3611607 3623761 
3760.381 3629959 3628487 3619269 3604685 3588199 3573584 3563223 3557982 
3764.239 3556858 3558129 3560102 3562012 3563973 3566572 3569873 3573111 
3768.096 3574576 3572111 3564209 3550880 3533720 3515664 3500031 3489411 
3771.953 3484942 3486345 3491950 3500007 3509026 3518149 3527109 3535995 
3775.811 3544781 3553007 3560033 3565066 3567491 3567217 3564410 3559503 
3779.668 3553034 3545592 3537660 3529843 3522715 3516890 3512717 3510476 
3783.526 3509937 3510807 3512663 3515315 3518850 3523630 3529936 3538128 
3787.383 3548131 3559418 3570941 3581466 3589402 3593221 3591663 3584097 
3791.240 3570703 3552889 3532917 3514033 3499318 3491136 3490257 3495670 
3795.098 3504681 3513746 3519344 3519316 3513093 3502024 3488613 3475830 
3798.955 3466296 3461671 3462496 3468477 3478769 3492240 3507788 3524435 
3802.813 3541306 3557643 3572761 3586299 3597911 3607373 3614287 3618238 
3806.670 3618606 3615003 3607377 3596603 3584266 3572661 3564060 3560293 
3810.528 3561995 3568484 3577890 3587868 3596092 3601117 3602528 3600930 
3814.385 3597447 3593187 3588822 3584367 3579380 3573346 3566005 3557719 
3818.242 3549251 3541633 3535579 3531358 3528494 3526108 3523358 3519988 
3822.100 3516539 3514434 3515291 3520755 3531202 3545938 3562944 3579529 
3825.957 3593282 3602726 3607741 3609763 3610828 3613097 3617817 3625184 
3829.815 3634161 3643154 3650488 3655164 3656844 3655760 3652365 3647073 
3833.672 3640170 3631761 3622194 3612391 3603651 3597571 3595452 3597917 
3837.530 3604735 3614830 3626734 3639266 3651541 3663431 3674947 3685920 
3841.387 3695647 3702891 3706037 3703795 3695784 3682682 3666321 3649164 
3845.244 3633659 3621770 3614280 3611048 3611032 3612944 3615389 3617367 
3849.102 3618185 3617582 3615429 3611853 3607091 3601689 3596336 3592053 
3852.959 3589959 3590917 3595423 3603271 3613575 3624926 3635693 3644582 
3856.817 3650784 3654232 3655472 3655550 3655171 3654843 3654215 3652463 
3860.674 3648631 3642001 3632597 3621518 3610359 3601158 3595422 3593948 
3864.531 3596542 3602119 3609268 3616812 3623899 3630281 3635932 3641073 
3868.389 3645666 3649605 3652772 3655429 3658190 3662132 3668160 3676851 
3872.246 3687917 3700285 3712238 3721911 3727886 3729584 3727199 3721729 
3876.104 3714289 3706229 3698405 3691721 3686782 3684285 3684691 3688183 
3879.961 3694476 3702492 3710575 3716873 3719728 3718204 3712340 3702977 
3883.819 3691428 3679193 3667061 3655493 3644291 3633204 3622117 3611566 
3887.676 3602633 3596763 3595208 3598892 3607882 3621378 3637986 3656128 
3891.533 3674237 3691311 3706637 3719990 3731080 3739522 3744641 3745804 
3895.391 3742468 3734697 3723216 3709687 3696315 3685315 3678525 3677053 
3899.248 3680966 3689437 3701026 3714323 3728048 3741406 3754015 3765742 
3903.106 3776297 3784950 3790655 3792115 3787993 3777571 3760928 3739096 
3906.963 3714298 3689432 3667566 3651506 3643024 3642825 3649826 3661912 
3910.821 3676054 3689154 3698616 3702820 3701475 3695425 3686246 3676152 
3914.678 3667036 3660556 3657693 3659031 3664613 3674148 3687213 3702950 
3918.535 3720416 3738526 3756004 3771869 3785135 3795443 3802685 3807313 
3922.393 3810066 3811837 3813568 3816111 3820024 3825613 3832693 3840667 
3926.250 3848456 3854664 3857573 3855691 3847871 3833712 3813748 3789627 
3930.108 3763760 3739049 3717995 3702557 3693200 3689219 3688673 3689245 
3933.965 3688858 3686393 3682049 3677345 3674358 3675315 3681641 3693662 
3937.823 3710460 3730290 3750955 3770639 3787741 3801392 3810962 3816075 
3941.680 3816554 3812547 3804506 3793804 3782259 3772182 3765522 3763711 
3945.537 3766950 3774413 3784245 3794320 3802499 3807203 3807320 3802635 
3949.395 3793186 3779883 3764021 3747663 3733215 3723314 3720209 3725106 
3953.252 3737808 3756674 3778598 3800235 3818358 3830763 3836444 3835665 
3957.110 3829563 3819626 3807407 3794329 3781623 3770605 3762401 3757990 
3960.967 3757952 3762219 3770016 3780016 3790730 3800777 3809173 3815491 
3964.824 3819622 3821605 3821438 3819148 3814761 3808722 3801820 3795346 
3968.682 3790566 3788620 3789927 3794017 3799845 3806143 3811677 3815880 
3972.539 3818671 3820507 3821684 3822148 3821239 3817797 3810491 3798564 
3976.397 3782057 3762288 3741466 3722513 3708286 3701058 3701830 3710388 
3980.254 3725214 3743954 3763710 3782031 3797014 3807954 3815160 3819697 
3984.112 3823128 3826641 3830627 3834615 3837185 3836865 3832481 3823976 
3987.969 3812592 3800721 3791009 3785914 3786398 3792221 3801545 3811967 
3991.826 3821175 3827707 3831037 3831527 3829717 3825999 3820088 3811253 
3995.684 3798845 3783023 3764968 3747166 3732623 3724182 3723507 3730752 
3999.541 3744403 3762147 3781388 
##END=
