##TITLE=eSUN_PLA+_White_Filament_r2_ATR-Corrected
##JCAMP-DX=5.01  $$ Nicolet v. 1
##DATATYPE=INFRARED SPECTRUM
##ORIGIN=Curtin University
##OWNER=Nicolet
##LONGDATE=2024/07/11
##TIME=09:52:21
##SPECTROMETER/DATA SYSTEM=Nicolet iS50
##DATA PROCESSING=
Ratio against background
%Transmittance->Absorbance
ATR Correction
Truncated
ElementMultiply or ElementDivide
##COMMENTS=
Number of sample scans: 32
Collection length: 47.27 sec
Sample gain: 1.0
Background collected on: Thu Jul 11 09:50:19 2024 (GMT+08:00);
Number of background scans: 32
Background gain: 1.0
Sample spacing:  1.000
Number of scan points: 16672
Resolution points: 8192
Number of FFT points: 65536
Apodization: N-B strong;
Phase correction: Mertz;
Laser frequency: 15798.3 cm-1
Number of rejected sample scans: 0
Number of rejected background scans: 0
Bench serial number: AUP1200105;
##RESOLUTION=4.000
##XUNITS=1/CM
##YUNITS=ABSORBANCE
##FIRSTX=400.163452
##LASTX=4000.187744
##FIRSTY=0.070408
##MAXX=4000.187744
##MINX=400.163452
##MAXY=1.091737
##MINY=-0.027915
##XFACTOR=1.000000
##YFACTOR=1.000000E-008
##NPOINTS=7468
##DELTAX=0.482125
##ZPD=8192
##XYDATA=(X++(Y..Y))
400.163 7040796 6985007 6922281 6858218 6794440 6728232 6651873 6555607 
404.020 6432225 6281243 6110330 5933691 5767812 5626398 5516362 5436244 
407.877 5377770 5329071 5278923 5219722 5148615 5066941 4978456 4887466 
411.734 4797557 4710940 4628407 4549462 4472493 4395131 4314818 4229787 
415.591 4140300 4049303 3962367 3886405 3827425 3788161 3766562 3755948 
419.448 3747129 3731738 3705468 3669623 3630323 3595594 3571562 3559464 
423.305 3554576 3547863 3529422 3492648 3437153 3369320 3300340 3242447 
427.162 3204846 3190869 3197204 3215381 3234866 3246579 3245645 3232305 
431.019 3211153 3188829 3171502 3162551 3162231 3167507 3173631 3175764 
434.876 3170559 3156829 3135432 3108519 3078431 3046822 3014330 2980825 
438.733 2946204 2911160 2877695 2848892 2828056 2817406 2817081 2824560 
442.590 2835307 2844078 2846742 2841767 2830852 2818505 2810366 2811380 
446.447 2824013 2847466 2877911 2909750 2937279 2956313 2965089 2964289 
450.304 2956332 2944226 2930517 2916641 2902801 2888245 2871877 2852826 
454.161 2830936 2807005 2782831 2760958 2744223 2735108 2735114 2744018 
458.017 2759668 2778133 2794489 2803920 2802967 2790396 2767483 2737552 
461.874 2704966 2673806 2646768 2624237 2605421 2588071 2569889 2549535 
465.731 2527217 2504707 2484756 2470188 2462925 2463342 2470028 2480121 
469.588 2490057 2496488 2497079 2491032 2479152 2463496 2446721 2431350 
473.445 2419111 2410602 2405321 2401998 2399127 2395460 2390332 2383724 
477.302 2376088 2367979 2359762 2351384 2342364 2331965 2319458 2304362 
481.159 2286654 2266803 2245744 2224731 2205151 2188322 2175322 2166805 
485.016 2162847 2162933 2165946 2170466 2174971 2178245 2179600 2178990 
488.873 2176861 2173858 2170431 2166581 2161767 2155050 2145434 2132254 
492.730 2115441 2095577 2073722 2050910 2028456 2007130 1987422 1969656 
496.587 1954218 1941696 1932828 1928315 1928557 1933377 1941970 1952892 
500.444 1964286 1974118 1980459 1981714 1976877 1965741 1949176 1929204 
504.301 1908895 1891932 1881799 1880878 1889621 1906252 1927030 1947268 
508.158 1962615 1970370 1970156 1963876 1954852 1946536 1941280 1939667 
512.015 1940614 1942106 1942239 1940087 1935952 1931064 1926777 1923788 
515.871 1921684 1919051 1914054 1905277 1892304 1875930 1857863 1840037 
519.728 1823972 1810301 1798683 1788071 1777126 1764677 1749977 1732855 
523.585 1713746 1693704 1674330 1657512 1645564 1640228 1642318 1651230 
527.442 1664827 1679807 1692457 1699654 1699685 1692725 1680638 1666359 
531.299 1652970 1642869 1637227 1635957 1638006 1641893 1646164 1649746 
535.156 1652007 1652765 1652090 1650236 1647500 1644123 1640245 1635772 
539.013 1630512 1624252 1616975 1609102 1601478 1595196 1591168 1589572 
542.870 1589498 1588947 1585274 1576009 1559821 1537192 1510639 1484211 
546.727 1462579 1449887 1448722 1459588 1480893 1509464 1541256 1572176 
550.584 1598772 1618610 1630513 1634564 1631953 1624640 1614977 1605120 
554.441 1596665 1590337 1586005 1582936 1580422 1578017 1575836 1574530 
558.298 1574942 1577693 1582740 1589289 1595942 1601087 1603399 1602143 
562.155 1597375 1589762 1580366 1570311 1560590 1551964 1545009 1540142 
566.012 1537679 1537814 1540476 1545354 1551812 1559094 1566462 1573487 
569.869 1580227 1587273 1595606 1606381 1620491 1638273 1659273 1682265 
573.725 1705452 1726925 1745092 1759077 1768776 1774788 1778008 1779224 
577.582 1778851 1776958 1773533 1768934 1764207 1761134 1761874 1768298 
581.439 1781208 1799930 1822285 1845175 1865501 1881105 1891384 1897273 
585.296 1900720 1903699 1907368 1911594 1915044 1915843 1912474 1904635 
589.153 1893588 1882061 1873562 1871453 1878016 1893875 1917782 1946910 
593.010 1977469 2005536 2027753 2041977 2047587 2045490 2037846 2027577 
596.867 2017748 2010993 2009054 2012598 2021235 2033763 2048519 2063793 
600.724 2078182 2090871 2101709 2111199 2120263 2129953 2141042 2153718 
604.581 2167426 2180952 2192740 2201447 2206415 2208035 2207719 2207576 
608.438 2209787 2216042 2227073 2242623 2261696 2283028 2305566 2328752 
612.295 2352517 2377064 2402536 2428788 2455348 2481557 2506795 2530705 
616.152 2553211 2574478 2594713 2614101 2632742 2650812 2668677 2686984 
620.009 2706536 2728158 2752294 2778845 2807074 2835797 2863693 2889629 
623.866 2912915 2933428 2951435 2967493 2982231 2996284 3010299 3024972 
627.723 3041007 3059083 3079625 3102648 3127631 3153567 3179104 3202890 
631.579 3223845 3241404 3255554 3266816 3276002 3284064 3291872 3300143 
635.436 3309428 3320162 3332712 3347467 3364743 3384776 3407575 3432837 
639.293 3459846 3487547 3514642 3539822 3562040 3580678 3595738 3607764 
643.150 3617720 3626764 3636018 3646379 3658490 3672714 3689194 3707945 
647.007 3728844 3751643 3775943 3801204 3826733 3851814 3875751 3898030 
650.864 3918371 3936833 3953818 3970055 3986524 4004271 4024184 4046730 
654.721 4071772 4098532 4125709 4151851 4175727 4196711 4214965 4231390 
658.578 4247275 4263943 4282279 4302542 4324286 4346602 4368333 4388413 
662.435 4406029 4420805 4432764 4442400 4450579 4458493 4467461 4478695 
666.292 4493028 4510732 4531422 4554257 4578246 4602621 4627004 4651475 
670.149 4676212 4701226 4725954 4749345 4770066 4787051 4800013 4809710 
674.006 4817890 4826756 4838279 4853609 4872732 4894614 4917648 4940368 
677.863 4961885 4982212 5002087 5022628 5044716 5068698 5094168 5120066 
681.720 5144954 5167454 5186569 5202026 5214364 5224859 5235287 5247565 
685.577 5263292 5283424 5308071 5336542 5367649 5400097 5432921 5465704 
689.433 5498599 5532104 5566761 5602939 5640761 5680365 5722151 5767039 
693.290 5816478 5872225 5935799 6008037 6088630 6176096 6267916 6360942 
697.147 6451781 6537124 6613847 6679089 6730258 6765238 6782572 6781827 
701.004 6763757 6730330 6684511 6629801 6569795 6507676 6445974 6386409 
704.861 6329932 6276876 6227151 6180476 6136595 6095487 6057489 6023264 
708.718 5993606 5969138 5949807 5934661 5921530 5907363 5888535 5861573 
712.575 5823717 5773419 5710523 5636169 5552402 5461784 5366849 5269772 
716.432 5172084 5074541 4977068 4878938 4778952 4675779 4568398 4456414 
720.289 4340298 4221481 4102119 3984821 3872219 3766640 3669829 3582902 
724.146 3506351 3440201 3384192 3337964 3301222 3273855 3256031 3248219 
728.003 3251106 3265495 3292124 3331469 3383647 3448378 3525051 3612884 
731.860 3711081 3818985 3936053 4061839 4195788 4337078 4484408 4635893 
735.717 4789085 4941165 5089197 5230568 5363327 5486519 5600276 5705709 
739.574 5804598 5898975 5990699 6081266 6171698 6262602 6354353 6447169 
743.431 6541051 6635742 6730568 6824569 6916705 7006372 7093821 7180415 
747.287 7268475 7360785 7459786 7566801 7681627 7802538 7926865 8051776 
751.144 8174970 8295085 8411507 8523870 8631296 8731983 8823063 8900995 
755.001 8962279 9004131 9024844 9023831 9001204 8957282 8892161 8805732 
758.858 8697939 8569390 8421793 8258214 8082826 7900318 7715102 7530614 
762.715 7348896 7170649 6995636 6823302 6653344 6486159 6322884 6165157 
766.572 6014689 5872827 5740129 5616263 5500088 5389878 5283696 5179721 
770.429 5076538 4973278 4869657 4765965 4662957 4561709 4463388 4369121 
774.286 4279751 4195665 4116737 4042328 3971451 3903009 3836032 3769921 
778.143 3704500 3639957 3576631 3514754 3454246 3394651 3335183 3274987 
782.000 3213388 3150190 3085741 3020945 2956985 2895053 2835992 2780132 
785.857 2727256 2676741 2627866 2580172 2533631 2488692 2446134 2406690 
789.714 2370733 2338072 2307973 2279439 2251613 2224175 2197473 2172392 
793.571 2149921 2130700 2114566 2100611 2087431 2073727 2058897 2043324 
797.428 2028301 2015522 2006406 2001516 2000311 2001380 2002957 2003562 
801.285 2002425 1999632 1995804 1991706 1987954 1984798 1982279 1980499 
805.141 1979774 1980661 1983638 1988733 1995280 2001871 2006740 2008275 
808.998 2005565 1998645 1988423 1976282 1963603 1951386 1940191 1930293 
812.855 1921975 1915754 1912261 1912081 1915265 1921195 1928547 1935621 
816.712 1940849 1943233 1942577 1939404 1934595 1929100 1923593 1918467 
820.569 1913868 1909895 1906637 1904073 1901985 1899852 1896925 1892532 
824.426 1886377 1878835 1870902 1863911 1858995 1856560 1856083 1856235 
828.283 1855377 1852236 1846440 1838675 1830483 1823714 1819947 1820049 
832.140 1824059 1831404 1841262 1852933 1866148 1881021 1898049 1917928 
835.997 1941493 1969683 2003460 2043739 2091155 2145870 2207454 2274881 
839.854 2346820 2421997 2499550 2579273 2661495 2746807 2835530 2927388 
843.711 3021281 3115361 3207338 3294846 3375777 3448475 3511748 3564854 
847.568 3607555 3640161 3663707 3680081 3692010 3702857 3716308 3736026 
851.425 3765366 3807340 3864694 3940074 4036065 4155036 4298788 4468032 
855.282 4662021 4878414 5113534 5362959 5622241 5887607 6156231 6426208 
859.139 6696100 6964407 7229095 7487526 7736721 7973901 8197068 8405352 
862.995 8598942 8778689 8945506 9099770 9241040 9368192 9479924 9575289 
866.852 9654294 9718119 9768981 9809770 9843314 9871829 9896423 9916776 
870.709 9931192 9936801 9929991 9906944 9864092 9798571 9708393 9592417 
874.566 9450158 9281445 9086200 8864386 8616184 8342453 8045182 7727880 
878.423 7395704 7055200 6713751 6378829 6057251 5754537 5474559 5219435 
882.280 4989703 4784671 4602788 4442178 4300988 4177807 4071805 3982822 
886.137 3911161 3857275 3821302 3802723 3800038 3810855 3832095 3860396 
889.994 3892529 3925750 3957916 3987538 4013574 4035410 4052728 4065533 
893.851 4074180 4079373 4082056 4083244 4083838 4084399 4085032 4085406 
897.708 4084863 4082642 4078116 4071037 4061787 4051457 4041895 4035386 
901.565 4034337 4040679 4055342 4077948 4106671 4138682 4170755 4200009 
905.422 4224611 4244072 4259112 4271249 4282092 4292883 4304136 4315696 
909.279 4326996 4337377 4346300 4353427 4358428 4360972 4360546 4356680 
913.136 4349098 4338009 4324168 4308720 4292860 4277440 4262605 4247792 
916.993 4231954 4214062 4193502 4170479 4145961 4121425 4098363 4077838 
920.849 4060162 4044916 4031122 4017634 4003465 3988056 3971275 3953300 
924.706 3934469 3915055 3895243 3875126 3854890 3834880 3815659 3797978 
928.563 3782571 3769983 3760298 3753147 3747671 3742830 3737656 3731578 
932.420 3724671 3717579 3711474 3707637 3707156 3710698 3718314 3729518 
936.277 3743465 3759158 3775635 3792134 3808086 3823233 3837657 3851851 
940.134 3866719 3883625 3904107 3929658 3961230 3999031 4042303 4089539 
943.991 4138896 4188833 4238642 4288770 4340731 4396730 4458920 4528805 
947.848 4606672 4691596 4781649 4874528 4968173 5061229 5153295 5244673 
951.705 5336042 5427951 5520381 5612611 5703171 5790121 5871243 5944283 
955.562 6007042 6057427 6093484 6113623 6116703 6102514 6071962 6027185 
959.419 5971402 5908523 5842562 5777128 5715000 5658016 5607136 5562778 
963.276 5525044 5493936 5469385 5451075 5438307 5429771 5423686 5417897 
967.133 5410301 5399190 5383574 5363248 5338734 5311042 5281325 5250621 
970.990 5219625 5188663 5157701 5126545 5094970 5062942 5030759 4999115 
974.847 4969114 4942137 4919677 4903060 4893217 4890498 4894591 4904647 
978.703 4919506 4938004 4959200 4982581 5008029 5035735 5065930 5098749 
982.560 5134066 5171599 5211010 5252092 5294950 5340025 5387991 5439526 
986.417 5495080 5554712 5618042 5684434 5753071 5823388 5895196 5968716 
990.274 6044445 6122977 6204681 6289548 6377130 6466638 6557081 6647484 
994.131 6737079 6825386 6912247 6997831 7082664 7167547 7253587 7342068 
997.988 7434314 7531451 7634228 7742930 7857339 7976992 8101392 8230334 
1001.845 8364048 8503191 8648639 8801243 8961522 9129564 9305079 9487674 
1005.702 9677037 9873368 10077301 10289899 10512322 10745650 10990527 
1009.077 11247177 11515467 11795196 12086378 12389509 12705579 13036034 
1012.452 13382487 13746430 14128853 14530149 14950019 15387602 15841775 
1015.826 16311403 16795552 17293588 17805066 18329538 18866236 19413876 
1019.201 19970388 20533064 21098724 21663960 22225500 22780538 23326966 
1022.576 23863576 24390118 24907282 25416598 25920176 26420612 26920658 
1025.951 27423328 27931750 28449312 28979766 29527122 30095438 30688542 
1029.326 31309548 31960552 32642508 33355176 34097476 34867792 35664152 
1032.702 36484472 37326308 38186760 39062216 39948116 40838932 41728144 
1036.077 42608340 43471288 44308112 45109616 45866680 46570864 47215032 
1039.452 47793676 48303100 48741128 49106808 49399876 49620620 49769884 
1042.827 49849408 49861896 49811132 49701748 49538776 49327252 49072096 
1046.203 48778044 48450064 48093584 47714588 47319544 46915004 46507244 
1049.578 46101980 45704060 45317656 44946236 44592620 44258972 43946744 
1052.953 43656596 43388572 43142284 42917420 42713956 42532512 42374448 
1056.328 42241944 42137860 42065828 42030264 42036388 42089972 42197204 
1059.704 42364024 42595740 42896504 43269356 43716172 44238164 44836128 
1063.079 45510744 46262324 47090632 47994352 48970912 50016324 51125680 
1066.454 52293492 53514324 54783088 56095304 57447028 58834976 60256428 
1069.829 61709488 63192888 64705676 66246372 67812248 69398408 70997720 
1073.205 72601384 74200144 75785456 77350368 78889160 80396264 81864520 
1076.580 83284168 84642432 85924688 87116304 88204352 89178256 90029648 
1079.955 90750848 91334000 91770304 92051280 92170168 92123696 91912800 
1083.330 91542448 91020464 90356240 89560320 88644400 87621696 86507288 
1086.706 85317600 84069552 82779008 81459936 80123912 78780408 77437232 
1090.081 76101144 74777824 73471792 72185904 70921384 69677952 68454624 
1093.456 67250328 66064548 64897228 63748532 62618224 61505236 60407756 
1096.831 59323584 58250864 57188608 56136964 55097036 54070176 53057480 
1100.207 52059384 51075596 50105500 49148656 48205212 47276188 46363296 
1103.582 45468764 44595004 43744416 42919432 42122608 41356656 40624540 
1106.957 39929272 39273788 38660552 38091488 37567960 37090788 36660432 
1110.332 36277136 35941008 35651912 35409512 35213124 35061564 34953212 
1113.708 34886016 34857632 34865452 34906884 34979524 35081456 35211420 
1117.083 35368956 35554428 35768788 36013272 36289068 36596808 36936440 
1120.458 37306928 37706204 38130896 38576292 39036008 39501992 39964432 
1123.833 40412184 40833288 41215748 41548364 41821460 42027344 42160548 
1127.208 42217904 42198344 42102688 41933428 41694376 41390328 41026632 
1130.584 40608748 40141832 39630416 39078084 38487344 37859632 37195488 
1133.959 36494820 35757440 34983372 34173376 33329126 32453304 31549442 
1137.334 30621726 29674736 28713262 27742242 26766726 25791950 24823256 
1140.709 23866028 22925448 22006322 21112890 20248856 19417406 18621330 
1144.085 17863252 17145654 16470881 15840913 15257072 14719817 14228635 
1147.460 13782077 13378060 13014132 12687863 12396993 12139534 11913705 
1150.835 11717805 11550216 11409317 11293563 11201651 11132471 11085179 
1154.210 11059076 11053507 11067833 11101398 11153540 11223758 11311764 
1157.586 11417586 11541623 11684643 11847811 12032646 12241045 12475224 
1160.961 12737660 13031055 13358365 13722795 14127937 14577997 15077858 
1164.336 15633188 16250363 16936296 17698132 18543036 19478000 20509776 
1167.711 21644930 22889874 24250896 25734016 27344782 29087922 30966880 
1171.087 32983426 35137048 37424488 39838996 42369828 45001548 47713540 
1174.462 50479460 53267068 56038044 58748244 61348432 63785856 66006716 
1177.837 67959728 69599968 70892904 71817032 72365240 72544640 72374728 
1181.212 71885064 71112448 70098200 68885592 67517416 66034292 64473148 
1184.588 62866556 61242460 59624360 58031476 56479056 54978592 53538088 
1187.963 52162300 50853400 49611504 48435564 47324012 46275232 45287736 
1191.338 44360192 43491132 42678748 41920756 41214496 40557140 39946000 
1194.713 39378708 38853416 38368696 37923348 37516236 37145980 36810900 
1198.089 36509028 36238108 35995792 35779712 35587596 35417304 35266800 
1201.464 35134132 35017380 34914620 34823872 34743000 34669736 34601744 
1204.839 34536604 34471772 34404744 34333072 34254412 34166580 34067516 
1208.214 33955224 33827812 33683456 33520216 33336184 33129540 32898694 
1211.590 32642522 32360590 32053232 31721648 31367596 30993242 30600796 
1214.965 30192280 29769436 29333764 28886730 28429922 27965182 27494654 
1218.340 27020642 26545406 26070934 25598780 25130034 24665358 24205146 
1221.715 23749760 23299720 22855802 22419026 21990520 21571360 21162358 
1225.091 20763946 20376158 19998752 19631330 19273580 18925368 18586806 
1228.466 18258132 17939716 17631916 17335034 17049328 16775025 16512364 
1231.841 16261488 16022444 15795089 15578985 15373507 15177895 14991398 
1235.216 14813480 14643773 14482073 14328107 14181429 14041319 13906765 
1238.592 13776714 13650292 13527107 13407332 13291705 13181214 13076843 
1241.967 12979226 12888481 12804247 12725899 12652741 12584290 12520361 
1245.342 12461032 12406457 12356766 12311926 12271754 12236129 12205040 
1248.717 12178727 12157694 12142496 12133660 12131473 12135932 12146764 
1252.093 12163668 12186310 12214534 12248270 12287533 12332202 12382033 
1255.468 12436634 12495465 12557989 12623700 12692150 12762856 12835300 
1258.843 12908809 12982641 13056044 13128328 13198943 13267426 13333271 
1262.218 13395837 13454235 13507295 13553683 13592164 13621740 13641842 
1265.594 13652310 13653418 13645622 13629360 13604946 13572428 13531584 
1268.969 13481981 13423032 13354068 13274421 13183540 13081059 12966910 
1272.344 12841345 12704921 12558466 12402856 12238830 12066946 11887380 
1275.719 11700092 11504944 11301935 11091414 10874171 10651479 10424863 
1279.094 10195996 9966461 9737653 9510747 9286769 9066670 8851379 8641818 
1282.952 8438956 8243679 8056904 7879597 7712819 7557893 7416315 7289729 
1286.809 7179671 7087407 7013619 6958408 6921151 6900786 6895967 6905309 
1290.667 6927604 6961826 7007052 7062315 7126403 7197701 7274206 7353684 
1294.524 7433818 7512548 7588194 7659655 7726315 7787966 7844641 7896433 
1298.382 7943325 7985201 8021822 8053002 8078641 8098965 8114489 8126005 
1302.239 8134499 8140856 8145808 8149640 8152230 8153137 8151746 8147585 
1306.096 8140411 8130390 8117999 8103907 8088723 8072811 8056291 8039000 
1309.954 8020721 8001371 7981122 7960553 7940470 7921799 7905292 7891332 
1313.811 7879769 7870013 7861075 7852012 7842046 7830924 7818965 7806994 
1317.669 7796215 7787789 7782599 7781014 7782815 7787342 7793735 7801204 
1321.526 7809262 7817809 7827113 7837577 7849642 7863626 7879692 7898003 
1325.384 7918755 7942322 7969227 8000079 8035431 8075666 8120972 8171393 
1329.241 8226961 8287741 8353903 8425622 8502933 8585662 8673306 8765157 
1333.098 8860452 8958612 9059361 9162839 9269431 9379715 9494165 9613094 
1336.956 9736552 9864406 9996384 10132213 10271728 10414917 10561915 
1340.331 10713079 10868880 11029910 11196754 11369915 11549682 11736125 
1343.706 11929099 12128400 12333828 12545361 12763169 12987567 13218890 
1347.082 13457291 13702652 13954420 14211665 14473070 14737026 15001751 
1350.457 15265252 15525584 15780836 16029228 16269171 16499321 16718467 
1353.832 16925538 17119470 17299208 17463766 17612266 17744012 17858536 
1357.207 17955640 18035374 18098144 18144692 18176290 18194666 18201996 
1360.583 18200694 18193192 18181572 18167464 18151850 18135084 18116968 
1363.958 18096762 18073162 18044236 18007384 17959326 17896334 17814482 
1367.333 17710016 17579820 17421710 17234812 17019864 16779434 16518292 
1370.708 16243635 15965052 15694317 15444726 15230183 15064125 14958264 
1374.083 14921705 14960052 15075050 15264404 15522002 15838291 16200824 
1377.459 16595078 17005328 17415614 17810870 18177656 18504726 18783160 
1380.834 19006074 19168246 19265936 19296710 19259570 19155092 18985466 
1384.209 18754264 18466136 18126462 17741146 17316514 16859298 16376469 
1387.584 15874995 15361315 14840779 14317425 13793857 13271657 12751861 
1390.960 12235684 11724842 11221790 10729639 10251823 9791789 9352695 
1394.335 8937188 8547365 8184718 7850111 7543880 7265795 7015145 6790865 
1398.192 6591503 6415426 6260813 6125759 6008195 5905984 5816993 5739201 
1402.050 5670938 5610978 5558645 5513766 5476406 5446660 5424389 5409045 
1405.907 5399760 5395392 5394859 5397232 5401847 5408264 5416205 5425482 
1409.765 5435965 5447624 5460583 5475138 5491644 5510415 5531557 5554907 
1413.622 5580113 5606666 5634124 5662181 5690622 5719243 5747707 5775520 
1417.479 5802128 5827104 5850405 5872472 5894201 5916690 5940925 5967478 
1421.337 5996425 6027497 6060334 6094732 6130845 6169161 6210243 6254593 
1425.194 6302441 6353786 6408559 6466758 6528645 6594691 6665478 6741473 
1429.052 6822981 6910063 7002739 7101097 7205455 7316473 7434999 7562170 
1432.909 7699303 7847989 8010225 8188484 8385603 8604683 8848787 9120715 
1436.767 9422936 9757696 10127115 10533343 10978366 11463562 11989255 
1440.142 12554120 13155068 13787407 14445318 15122417 15812089 16507551 
1443.517 17201766 17887200 18555890 19199928 19812048 20386214 20918112 
1446.892 21405030 21845638 22239572 22587106 22888866 23145718 23358600 
1450.268 23528370 23655540 23740240 23782236 23781122 23736552 23648314 
1453.643 23516210 23339910 23118644 22851380 22537162 22175876 21768730 
1457.018 21318694 20830160 20308288 19758240 19184492 18590758 17980180 
1460.393 17355736 16720621 16078494 15433176 14788632 14148630 13516755 
1463.769 12896411 12290931 11703604 11137546 10595544 10079870 9592123 
1467.144 9133299 8703869 8303918 7933186 7591185 7277018 6989447 6726762 
1471.001 6486756 6266925 6064456 5876634 5701018 5535795 5379862 5232854 
1474.859 5094952 4966553 4847925 4738991 4639239 4547807 4463660 4385939 
1478.716 4313943 4247255 4185529 4128374 4075190 4025241 3977779 3932238 
1482.573 3888340 3846217 3806181 3768625 3733753 3701508 3671593 3643678 
1486.431 3617398 3592702 3569685 3548642 3529878 3513633 3499898 3488437 
1490.288 3478806 3470305 3462029 3452925 3441870 3427797 3409790 3387282 
1494.146 3360090 3328482 3293049 3254649 3214206 3172663 3130914 3089804 
1498.003 3050131 3012630 2977934 2946469 2918325 2893335 2870999 2850647 
1501.861 2831656 2813473 2795751 2778309 2761151 2744372 2728089 2712487 
1505.718 2697762 2684174 2671913 2661096 2651631 2643244 2635393 2627496 
1509.575 2618949 2609314 2598389 2586245 2573168 2559621 2546058 2532926 
1513.433 2520518 2509032 2498541 2489004 2480364 2472475 2465114 2458031 
1517.290 2450948 2443559 2435597 2426863 2417211 2406603 2395091 2382796 
1521.148 2369899 2356683 2343383 2330328 2317763 2305888 2294828 2284600 
1525.005 2275145 2266355 2258099 2250331 2243065 2236346 2230256 2224738 
1528.863 2219594 2214447 2208841 2202351 2194783 2186298 2177399 2168884 
1532.720 2161566 2156107 2152822 2151551 2151781 2152788 2153842 2154350 
1536.577 2153933 2152352 2149597 2145677 2140770 2135144 2129204 2123429 
1540.435 2118336 2114256 2111265 2109142 2107459 2105650 2103242 2099882 
1544.292 2095427 2089819 2083003 2074879 2065260 2054030 2041268 2027374 
1548.150 2013052 1999167 1986599 1975901 1967251 1960319 1954448 1948901 
1552.007 1943071 1936638 1929583 1922185 1914894 1908166 1902425 1897975 
1555.865 1894990 1893524 1893427 1894347 1895746 1896917 1897169 1895870 
1559.722 1892688 1887607 1880927 1873159 1864962 1857047 1850011 1844435 
1563.579 1840720 1839077 1839506 1841681 1845084 1849006 1852802 1856013 
1567.437 1858463 1860204 1861502 1862614 1863715 1864785 1865657 1866192 
1571.294 1866407 1866594 1867285 1869116 1872635 1878075 1885251 1893519 
1575.152 1901992 1909671 1915861 1920192 1922778 1924081 1924787 1925472 
1579.009 1926513 1927978 1929665 1931191 1932195 1932445 1931988 1931078 
1582.866 1930167 1929670 1929891 1930905 1932540 1934435 1936240 1937666 
1586.724 1938671 1939428 1940250 1941477 1943350 1945901 1948918 1952067 
1590.581 1954979 1957394 1959235 1960713 1962295 1964572 1968214 1973787 
1594.439 1981674 1991909 2004247 2018069 2032512 2046633 2059533 2070556 
1598.296 2079387 2086106 2091147 2095132 2098725 2102467 2106639 2111255 
1602.154 2116088 2120852 2125252 2129195 2132756 2136182 2139757 2143796 
1606.011 2148379 2153526 2159087 2164910 2170868 2176945 2183191 2189633 
1609.868 2196272 2202947 2209490 2215722 2221704 2227696 2234237 2241919 
1613.726 2251207 2262159 2274395 2287021 2298959 2309279 2317536 2323886 
1617.583 2329094 2334156 2339974 2346977 2354989 2363327 2371060 2377360 
1621.441 2381751 2384305 2385459 2385834 2386037 2386394 2386947 2387555 
1625.298 2387907 2387819 2387173 2385935 2384165 2381865 2379050 2375720 
1629.156 2371941 2367892 2363806 2360036 2356929 2354809 2353929 2354400 
1633.013 2356226 2359165 2362844 2366683 2370064 2372399 2373378 2373030 
1636.870 2371771 2370221 2369023 2368553 2368829 2369419 2369650 2368857 
1640.728 2366598 2362847 2357969 2352481 2346866 2341304 2335638 2329451 
1644.585 2322321 2314083 2305014 2295878 2287757 2281841 2279077 2279947 
1648.443 2284442 2292026 2301782 2312650 2323447 2333144 2340835 2345951 
1652.300 2348237 2347949 2345662 2342304 2338893 2336369 2335413 2336450 
1656.157 2339545 2344598 2351277 2359202 2367995 2377316 2386933 2396772 
1660.015 2406834 2417273 2428242 2439845 2452099 2464790 2477654 2490374 
1663.872 2502669 2514385 2525480 2535914 2545606 2554372 2561862 2567852 
1667.730 2572259 2575407 2578014 2581131 2585832 2592928 2602718 2614862 
1671.587 2628530 2642749 2656655 2669882 2682600 2695442 2709243 2724794 
1675.445 2742489 2762315 2783796 2806258 2828982 2851431 2873268 2894428 
1679.302 2915073 2935428 2955799 2976477 2997687 3019520 3041910 3064616 
1683.159 3087295 3109549 3131090 3151836 3172029 3192197 3213093 3235601 
1687.017 3260517 3288519 3320040 3355228 3393856 3435347 3478745 3522866 
1690.874 3566509 3608670 3648893 3687402 3725155 3763691 3804749 3849874 
1694.732 3900119 3955694 4016086 4080307 4147169 4215730 4285445 4356254 
1698.589 4428405 4502322 4578414 4657136 4738910 4824283 4913920 5008540 
1702.447 5108813 5215347 5328500 5448539 5575594 5709810 5851346 6000401 
1706.304 6157035 6321248 6492893 6671846 6858159 7052238 7254860 7467080 
1710.161 7689972 7924229 8170020 8426853 8693709 8969343 9252638 9542771 
1714.019 9839360 10142303 10451660 10767517 11089899 11418834 11754239 
1717.394 12095971 12443555 12796286 13152994 13512495 13873859 14237122 
1720.769 14603575 14976063 15358584 15755892 16172577 16612482 17078330 
1724.145 17571800 18093940 18645762 19228942 19846236 20501666 21200390 
1727.520 21948464 22752294 23618338 24552634 25560742 26647744 27818974 
1730.895 29080542 30439976 31906358 33489740 35199820 37044196 39026636 
1734.270 41146516 43399344 45778876 48279484 50898056 53634380 56489468 
1737.646 59462636 62548196 65732868 68995256 72307112 75636128 78948664 
1741.021 82211872 85394248 88465592 91396816 94160744 96733112 99093944 
1744.396 101227472 103121624 104766456 106153704 107277176 108134696 
1747.289 108729616 109071336 109173736 109052576 108722248 108194808 
1750.182 107480224 106588528 105531296 104322288 102975640 101503720 
1753.075 99914776 98213112 96400456 94479360 92455928 90341408 88151472 
1756.450 85904088 83616800 81304768 78980080 76652584 74331216 72025064 
1759.826 69743880 67497880 65297036 63150580 61066692 59052616 57114536 
1763.201 55257464 53484744 51797472 50194352 48671656 47224164 45846120 
1766.576 44532232 43278296 42081260 40938708 39848236 38806848 37810804 
1769.951 36855768 35937308 35051148 34193284 33359892 32546856 31749624 
1773.327 30963266 30182886 29404220 28624356 27841950 27057234 26271308 
1776.702 25485448 24700284 23915468 23129718 22341514 21549988 20755698 
1780.077 19961140 19170516 18388962 17621564 16872408 16143957 15437119 
1783.452 14751792 14087661 13444860 12824413 12228183 11658590 11117871 
1786.828 10607830 10129455 9682928 9267501 8881761 8523726 8190977 7880829 
1790.685 7590887 7319036 7063836 6824453 6600549 6391853 6197889 6017781 
1794.542 5850310 5694004 5547505 5409723 5279826 5157152 5041075 4930836 
1798.400 4825696 4725101 4628906 4537488 4451654 4372363 4300331 4235701 
1802.257 4177925 4125955 4078447 4034008 3991464 3949783 3907965 3864965 
1806.115 3819723 3771457 3719918 3665650 3609993 3554879 3502327 3453885 
1809.972 3410333 3371459 3336291 3303360 3270970 3237569 3201813 3162752 
1813.830 3120095 3074326 3027084 2981121 2939882 2906896 2884714 2873914 
1817.687 2872709 2877170 2882251 2883190 2876814 2862180 2840426 2813976 
1821.544 2785383 2756511 2728034 2699764 2671185 2642051 2612736 2584217 
1825.402 2557543 2533430 2511954 2492590 2474407 2456537 2438262 2419151 
1829.259 2398897 2377045 2353032 2326242 2296254 2263166 2227608 2190668 
1833.117 2153582 2117592 2083609 2052348 2024450 2000402 1980676 1965241 
1836.974 1953525 1943944 1934365 1922399 1906259 1885272 1860205 1833011 
1840.832 1806212 1782115 1762217 1746850 1735545 1727243 1720847 1715448 
1844.689 1710202 1704160 1696136 1684797 1669068 1648636 1624407 1598354 
1848.546 1573271 1551825 1535825 1525617 1520066 1516931 1513632 1507993 
1852.404 1498780 1485762 1469756 1452124 1434519 1418572 1405740 1396884 
1856.261 1392166 1390750 1391067 1390865 1388069 1381525 1371507 1359793 
1860.119 1349153 1342376 1341156 1345242 1352490 1359499 1363015 1360944 
1863.976 1353420 1342602 1331956 1324849 1323357 1327671 1336069 1345648 
1867.833 1353440 1357377 1356575 1351320 1342441 1330686 1316426 1299559 
1871.691 1279996 1258003 1234656 1211625 1190977 1174373 1162830 1156304 
1875.548 1153948 1154440 1156540 1159165 1161835 1164179 1165986 1166759 
1879.406 1165979 1163207 1158336 1151940 1145237 1139859 1137400 1139039 
1883.263 1145044 1154762 1166741 1179139 1190150 1198322 1202826 1203426 
1887.121 1200332 1194147 1185915 1176861 1168622 1162925 1161488 1165450 
1890.978 1174905 1188670 1204264 1218303 1227315 1228761 1221870 1207869 
1894.835 1189989 1172416 1159240 1153099 1154432 1161355 1170228 1176828 
1898.693 1177465 1170124 1154833 1133422 1108910 1084336 1062156 1043602 
1902.550 1028802 1017125 1007902 1000807 996188 994945 998079 1006391 
1906.408 1019862 1037540 1057661 1077759 1095194 1107500 1112755 1109868 
1910.265 1098712 1080137 1056157 1029356 1002897 979703 962082 951030 945984 
1914.605 945048 945376 944195 939560 930928 919466 907500 897604 891430 
1918.944 889052 888382 885789 877002 858528 828648 788196 740584 691164 
1923.284 646052 611098 590811 587883 602838 634292 679148 732879 789623 
1927.624 842718 885154 910629 914463 895006 854269 797954 734607 674128 
1931.963 625618 595307 585330 593450 614011 640012 664986 685300 700545 
1936.303 713439 727869 747074 771515 798018 820293 830878 823206 794445 
1940.642 746319 685365 621236 564651 524959 508559 517768 551013 603284 
1944.982 666479 730929 786290 823251 835389 821066 784477 735421 687073 
1949.322 652428 640651 653598 685759 725571 759744 777718 774685 752400 
1953.661 717374 677136 637413 600116 564337 528535 493696 464533 449043 
1958.001 455291 488041 545437 619240 697058 767035 821555 858963 882066 
1962.340 895035 899363 893713 874847 841206 796569 751545 720466 716806 
1966.680 746583 804474 874036 932060 956412 933492 862493 756234 636050 
1971.020 525858 444562 402227 398695 425775 470015 517819 558667 588413 
1975.359 611295 639615 691884 787038 936987 1139216 1373629 1605777 1796576 
1979.699 1914325 1943979 1891755 1781438 1647501 1524811 1438779 1399399 
1983.556 1400701 1425372 1452054 1463223 1450411 1414335 1362884 1305530 
1987.414 1249248 1196529 1145573 1092447 1034831 973773 914441 864747 833329 
1991.753 826575 846677 890116 948139 1007846 1055135 1077422 1067121 1024114 
1996.093 955974 875733 799428 740313 706347 697472 706748 723403 736795 
2000.432 739734 730645 712581 691958 674846 666455 669425 685344 715071 
2004.772 759997 821191 898033 987072 1080540 1167594 1236632 1277571 1284368 
2009.112 1255788 1194919 1109070 1008034 903370 808043 733323 687855 674281 
2013.451 688124 718316 749966 769284 768397 747500 715963 687587 676711 
2017.791 692511 736781 804029 884010 964941 1037539 1094963 1133096 1149808 
2022.130 1144096 1116204 1068935 1007161 938196 868642 803343 743320 686096 
2026.470 628260 568428 507993 451190 401594 358509 315370 260184 182004 
2030.810 76833 -46466 -164451 -244526 -253321 -169093 10202 264451 556730 
2035.149 841819 1078958 1239369 1309796 1291812 1197861 1047459 863947 
2039.007 672314 498012 363610 286499 275130 327045 429063 560067 694983 
2043.346 809990 886793 915542 896238 839317 763685 694006 656192 671941 
2047.686 751965 891630 1069026 1249461 1394987 1475679 1477988 1408149 
2051.543 1288356 1149376 1021195 925663 871724 854943 861308 873754 879076 
2055.883 872940 859970 850773 856843 885760 937853 1006265 1079015 1142540 
2060.222 1185669 1201875 1190951 1158168 1112430 1064254 1022559 993452 
2064.080 978597 976018 981240 989572 997845 1005618 1014946 1028825 1049741 
2068.419 1077628 1109895 1142063 1169546 1189439 1201445 1207491 1210638 
2072.277 1213154 1215740 1217624 1217093 1213691 1208385 1203796 1202939 
2076.134 1207262 1215792 1224808 1229041 1223994 1207394 1180459 1146980 
2079.992 1112090 1080001 1053043 1031026 1012645 996471 982133 970485 962810 
2084.331 959466 959025 957857 951395 935460 908387 872142 832215 796274 
2088.671 772347 766096 779519 809941 850742 893139 928092 949050 953262 
2093.010 942690 923292 903246 890649 890560 903757 926327 951573 972392 
2097.350 984318 986961 983870 980877 983092 992861 1008258 1024043 1033593 
2101.690 1031422 1015339 987067 951327 914107 880777 854559 836558 826176 
2106.029 822120 822984 827229 833147 838420 840473 837605 829918 820141 
2110.369 813273 814821 828976 855843 890935 925922 950806 957364 941501 
2114.708 904582 852825 794945 739555 692970 658305 635697 623667 620212 
2119.048 623407 631418 641520 649866 651309 640797 614816 572703 517645 
2123.388 455263 391856 332165 277309 224860 169680 106502 32370 -51929 
2127.727 -141828 -230914 -313158 -385545 -448971 -507798 -567351 -631297 
2131.585 -699195 -765450 -820636 -853991 -857475 -828908 -773539 -702998 
2135.442 -632997 -578026 -547896 -544818 -563320 -592724 -620590 -637080 
2139.300 -637914 -625256 -607110 -594329 -597713 -624184 -675628 -748161 
2143.157 -834078 -923871 -1008292 -1080152 -1134789 -1169737 -1184786 
2146.532 -1181597 -1164519 -1141041 -1122215 -1121553 -1152085 -1223671 
2149.907 -1339038 -1492314 -1670016 -1853870 -2025684 -2172405 -2288684 
2153.283 -2378383 -2451001 -2517844 -2587279 -2660318 -2729685 -2779949 
2156.658 -2791515 -2744115 -2622491 -2419977 -2142997 -1809344 -1446238 
2160.033 -1082893 -745571 -453825 -220093 -52075 46467 75111 37079 -58176 
2164.373 -194535 -349790 -498585 -616340 -686331 -702454 -671873 -612736 
2168.230 -548594 -502021 -486439 -503588 -542698 -584640 -609066 -601166 
2172.088 -557233 -485484 -402803 -329307 -281994 -270002 -293434 -345378 
2175.945 -415622 -494582 -574873 -651658 -720451 -775367 -808548 -811734 
2179.802 -778933 -709763 -610723 -494621 -378216 -276735 -200310 -150999 
2183.660 -123030 -104973 -84482 -51663 -1585 64614 140836 218868 290149 
2188.000 348650 391885 420808 438637 449566 456833 462236 466161 467803 
2192.339 467074 464833 463351 465279 472475 484850 500039 513949 522812 
2196.679 524486 519258 510411 502059 497315 497072 499232 500155 496563 
2201.018 487656 476144 467618 468527 483205 512584 553192 599038 643764 
2205.358 683099 716135 745158 774012 805962 842290 881756 921581 958874 
2209.698 991655 1019088 1041195 1057361 1065912 1064485 1050508 1023387 
2213.555 985576 942467 901477 869143 849343 841270 839956 837672 826879 
2217.895 803062 765949 720287 674152 637030 616791 618443 642356 684878 
2222.234 738913 795162 844691 879701 895941 892832 874143 846604 818697 
2226.574 798089 789877 795473 812527 836428 862230 886642 909100 931492 
2230.913 956906 987268 1021612 1055736 1082989 1096947 1093778 1074409 
2234.771 1044706 1014004 991859 985037 995356 1019283 1049678 1078520 
2238.628 1100257 1113093 1119172 1122446 1126473 1131943 1136364 1135015 
2242.486 1123549 1100488 1068555 1034598 1007114 993684 997791 1017680 
2246.343 1046903 1076395 1097391 1104323 1095580 1073891 1044500 1013719 
2250.200 986821 967615 958158 959199 970799 992462 1023454 1062229 1106549 
2254.540 1153802 1201310 1246779 1288661 1325979 1358079 1384119 1403074 
2258.397 1413978 1416148 1410230 1397915 1381966 1365253 1349858 1336342 
2262.255 1323886 1310651 1295368 1278334 1261964 1250323 1247937 1257873 
2266.112 1280136 1311188 1344905 1374495 1394800 1404526 1406548 1407206 
2269.970 1413875 1432339 1464766 1508755 1558303 1605845 1644486 1670066 
2273.827 1681646 1680983 1671458 1656495 1638997 1621526 1606519 1597359 
2277.685 1597782 1611284 1639638 1681759 1733376 1787834 1838188 1879198 
2281.542 1909199 1930030 1946193 1962535 1982159 2005115 2028386 2047314 
2285.399 2057471 2056482 2044868 2025593 2003075 1981572 1964017 1951460 
2289.257 1943317 1938002 1933651 1928773 1922306 1913600 1902344 1888290 
2293.114 1871352 1851615 1829481 1805578 1780881 1756613 1734168 1715093 
2296.972 1700961 1692925 1691553 1696307 1705635 1716835 1727258 1734708 
2300.829 1738345 1738934 1738375 1738987 1742480 1749205 1757922 1766254 
2304.687 1771590 1771929 1766523 1756005 1742211 1727409 1713964 1703938 
2308.544 1698723 1699218 1705815 1718293 1735886 1757370 1781346 1806656 
2312.401 1832544 1858707 1885121 1911514 1937049 1960426 1980165 1995517 
2316.259 2006775 2015650 2024733 2036727 2053643 2076442 2105383 2140827 
2320.116 2183926 2236487 2300038 2373775 2452688 2526794 2582206 2604250 
2323.974 2581390 2508773 2390090 2236935 2066376 1896923 1744696 1620394 
2327.831 1528019 1465294 1425892 1402200 1387824 1378774 1373556 1371993 
2331.688 1374164 1379437 1386492 1393581 1399372 1403237 1405377 1406201 
2335.546 1406138 1404898 1401915 1396536 1388424 1377929 1366087 1354314 
2339.403 1343989 1336151 1331406 1329857 1331255 1334902 1339777 1344449 
2343.261 1347401 1347269 1343477 1336464 1327883 1320062 1315278 1314950 
2347.118 1318851 1325331 1331617 1334855 1333142 1325970 1314364 1300577 
2350.976 1286960 1275524 1267257 1262222 1259686 1258468 1257392 1255217 
2354.833 1251043 1244111 1234079 1221153 1206216 1190564 1175832 1163372 
2358.690 1153849 1147042 1141971 1137192 1131485 1123918 1114314 1102857 
2362.548 1089981 1075977 1061004 1045030 1028276 1011321 995176 980935 
2366.405 969698 961956 957710 956456 957538 960505 965170 971755 980348 
2370.745 990770 1002268 1013533 1023034 1029411 1031844 1030449 1026050 
2374.602 1020212 1014658 1011096 1010856 1014568 1022139 1032776 1045106 
2378.460 1057578 1068694 1077602 1084163 1088989 1093012 1097189 1101909 
2382.317 1106959 1111564 1114934 1116900 1118139 1120219 1125071 1134216 
2386.175 1148010 1165322 1183724 1200271 1212305 1218451 1218897 1215306 
2390.032 1210111 1205868 1204468 1206916 1213269 1223049 1235313 1249133 
2393.889 1263409 1277059 1288876 1297733 1302873 1304004 1301548 1296454 
2397.747 1289854 1282704 1275367 1267729 1259212 1249179 1237485 1224693 
2401.604 1212098 1201545 1194974 1194005 1199529 1211494 1228897 1249979 
2405.462 1272493 1294045 1312460 1326146 1334280 1336801 1334458 1328308 
2409.319 1319762 1310081 1300219 1290978 1282938 1276610 1272610 1271472 
2413.177 1273628 1279363 1288493 1300527 1314504 1329298 1343468 1355601 
2417.034 1364276 1368265 1366736 1359638 1347658 1332484 1316576 1302661 
2420.891 1293241 1290014 1293399 1302594 1315606 1329868 1342837 1352264 
2424.749 1356741 1355692 1349319 1338465 1324588 1309290 1294404 1281460 
2428.606 1271371 1264472 1259990 1256817 1253506 1249198 1243984 1239184 
2432.464 1237065 1240345 1251024 1269716 1294810 1322666 1348144 1365774 
2436.321 1371245 1362708 1341524 1312199 1281489 1256784 1244219 1246967 
2440.178 1264312 1291833 1322606 1349091 1365297 1368395 1359334 1342408 
2444.036 1323526 1308674 1301953 1304826 1316119 1332760 1351044 1367745 
2447.893 1380708 1389025 1392628 1391932 1387322 1379296 1368463 1355669 
2451.751 1342107 1329125 1317801 1308868 1302402 1298065 1295315 1293627 
2455.608 1292703 1292257 1291868 1290885 1288452 1283570 1275602 1264475 
2459.466 1250747 1235491 1219991 1205353 1192419 1181724 1173624 1168533 
2463.323 1166732 1168405 1173214 1180429 1188679 1196784 1203761 1209485 
2467.180 1214442 1219417 1224875 1230533 1235076 1236874 1234516 1227702 
2471.038 1217756 1207302 1199313 1196308 1199201 1207142 1217706 1228068 
2474.895 1235731 1239614 1240021 1238404 1236636 1236420 1238919 1244560 
2478.753 1253335 1264898 1278587 1293521 1308348 1321375 1330872 1335602 
2482.610 1334912 1329315 1320052 1308936 1297568 1287245 1278778 1272467 
2486.468 1268521 1266983 1267620 1269968 1273025 1275516 1276281 1274951 
2490.325 1272142 1269574 1269703 1274560 1285159 1300887 1319801 1339210 
2494.182 1356546 1370326 1380018 1385905 1388266 1386968 1381202 1370055 
2498.040 1353314 1332136 1309387 1288930 1274838 1269837 1274584 1287316 
2501.897 1304586 1322250 1336599 1345581 1348906 1347897 1344938 1342525 
2505.755 1342792 1346909 1354938 1365940 1378058 1389062 1396762 1399658 
2509.612 1397274 1390324 1380566 1370063 1360754 1353583 1348550 1344712 
2513.469 1340948 1336349 1330972 1325618 1321747 1320802 1323790 1330897 
2517.327 1341672 1354927 1369236 1383078 1395136 1404434 1410505 1413668 
2521.184 1414844 1415487 1416985 1420058 1424115 1427259 1426489 1418983 
2525.042 1403043 1379116 1350068 1320534 1295638 1279610 1274702 1280869 
2528.899 1296068 1317288 1341582 1366392 1389926 1410586 1426864 1437267 
2532.757 1440687 1437007 1427372 1414324 1401001 1390175 1383233 1379718 
2536.614 1377538 1373901 1366518 1354629 1339374 1323570 1310759 1304246 
2540.471 1306095 1316771 1335113 1358529 1383640 1406607 1423884 1432683 
2544.329 1431683 1421440 1404481 1385101 1368109 1357835 1356853 1365245 
2548.186 1380796 1399724 1418149 1433264 1444003 1451142 1456298 1461208 
2552.044 1466496 1471469 1474267 1472737 1465263 1451579 1432969 1412177 
2555.901 1392668 1378102 1371346 1374273 1387308 1409475 1438448 1470875 
2559.759 1502946 1530763 1551036 1561645 1561905 1552678 1536113 1515171 
2563.616 1493270 1473629 1458900 1450882 1450457 1457552 1471146 1489608 
2567.473 1510640 1531839 1550790 1565555 1574811 1578137 1575963 1569650 
2571.331 1561210 1552992 1547303 1545925 1549655 1557969 1569211 1580873 
2575.188 1590195 1595037 1594427 1588828 1580102 1571000 1564234 1561928 
2579.046 1565062 1573328 1585387 1599350 1613251 1625449 1634997 1641553 
2582.903 1645376 1647264 1648136 1649183 1651359 1655266 1660948 1667797 
2586.760 1674615 1680000 1682689 1682106 1678536 1673259 1668276 1665721 
2590.618 1667355 1673939 1684953 1698718 1712830 1724760 1732716 1735953 
2594.475 1735176 1732119 1728931 1727505 1728848 1732603 1737477 1741611 
2598.333 1743237 1741479 1736450 1729232 1721313 1713907 1707767 1702938 
2602.190 1699070 1695892 1693737 1693508 1696519 1703911 1716039 1732160 
2606.048 1750421 1768445 1784039 1795762 1803301 1807314 1809080 1809818 
2609.905 1810187 1810241 1809485 1807332 1803427 1798000 1791622 1785197 
2613.762 1779668 1775650 1773539 1773462 1775514 1779689 1785988 1794377 
2617.620 1804488 1815678 1827095 1837819 1846925 1853821 1858204 1860214 
2621.477 1860362 1859362 1858238 1858041 1859743 1864150 1871642 1882198 
2625.335 1895278 1910099 1925617 1940877 1955091 1967628 1977929 1985524 
2629.192 1989814 1990401 1987122 1980214 1970625 1959810 1949657 1942082 
2633.050 1938613 1940114 1946655 1957418 1970929 1985442 1999065 2010079 
2636.907 2017480 2020793 2020469 2017653 2014053 2011484 2011371 2014302 
2640.764 2020004 2027204 2034185 2039279 2041398 2040344 2036802 2031975 
2644.622 2027155 2023377 2020971 2019921 2019789 2020131 2020704 2021411 
2648.479 2022119 2022558 2022230 2020569 2017005 2011419 2004106 1995969 
2652.337 1987998 1981090 1975789 1972051 1969386 1967078 1964374 1960686 
2656.194 1955582 1948730 1939880 1928806 1915491 1900176 1883541 1866481 
2660.052 1849865 1834168 1819211 1804089 1787629 1768693 1746888 1722803 
2663.909 1698007 1674533 1654216 1638177 1626291 1617465 1610026 1602377 
2667.766 1593616 1583615 1572939 1562529 1553111 1545027 1538195 1532312 
2671.624 1527135 1522737 1519397 1517499 1517190 1518253 1520089 1521917 
2675.481 1523107 1523453 1523189 1522870 1523090 1524192 1525995 1527987 
2679.339 1529512 1530012 1529226 1527377 1525015 1522696 1520944 1519921 
2683.196 1519509 1519224 1518461 1516562 1513076 1507759 1500836 1492901 
2687.053 1484963 1478240 1473870 1472646 1474678 1479382 1485641 1492019 
2690.911 1497235 1500484 1501548 1500778 1498760 1496073 1492933 1489303 
2694.768 1484850 1479264 1472474 1464750 1456589 1448625 1441419 1435251 
2698.626 1430212 1426277 1423417 1421706 1421399 1422785 1426047 1431204 
2702.483 1437867 1445458 1453034 1459806 1464884 1467759 1468111 1466076 
2706.341 1462025 1456537 1450313 1443941 1437912 1432417 1427521 1423131 
2710.198 1419122 1415384 1412008 1409159 1407027 1405867 1406026 1407632 
2714.055 1410949 1416051 1422921 1431160 1440113 1448851 1456262 1461379 
2717.913 1463590 1462819 1459503 1454526 1448863 1443363 1438609 1434821 
2721.770 1432045 1430272 1429576 1429993 1431543 1434126 1437377 1440702 
2725.628 1443571 1445628 1446890 1447640 1448444 1449679 1451501 1453679 
2729.485 1455785 1457489 1458717 1459891 1461789 1465208 1470746 1478404 
2733.343 1487551 1496995 1505525 1512031 1515959 1517301 1516494 1514226 
2737.200 1511223 1508109 1505343 1503283 1502242 1502442 1503884 1506374 
2741.057 1509223 1511577 1512459 1511059 1507045 1500664 1492762 1484443 
2744.915 1476951 1471252 1467716 1466260 1466250 1466812 1467170 1466663 
2748.772 1465012 1462373 1459143 1455931 1453262 1451588 1451105 1451746 
2752.630 1453210 1455081 1456831 1458102 1458561 1458243 1457233 1455768 
2756.487 1454035 1452209 1450290 1448075 1445377 1442021 1437971 1433354 
2760.344 1428570 1424080 1420375 1417790 1416528 1416387 1417208 1418530 
2764.202 1420084 1421796 1423713 1426159 1429505 1434105 1440107 1447495 
2768.059 1455888 1464637 1473065 1480381 1485963 1489381 1490505 1489500 
2771.917 1486700 1482643 1477898 1472936 1468280 1464302 1461271 1459357 
2775.774 1458651 1459026 1460434 1462718 1465748 1469422 1473824 1478945 
2779.632 1484777 1491068 1497455 1503312 1508052 1511206 1512701 1512916 
2783.489 1512590 1512693 1514132 1517552 1523076 1530500 1539330 1548985 
2787.346 1558954 1568786 1578238 1586937 1594561 1600671 1604958 1607268 
2791.204 1607574 1606127 1603264 1599350 1594825 1590055 1585752 1582677 
2795.061 1581759 1583721 1588781 1596396 1605131 1613081 1618282 1619538 
2798.919 1616725 1611129 1604949 1600741 1600622 1605656 1615499 1628865 
2802.776 1643893 1658703 1672059 1683321 1692524 1700034 1706246 1711565 
2806.634 1716395 1721076 1725976 1731443 1737668 1744565 1751748 1758821 
2810.491 1765424 1771586 1777607 1784170 1791804 1800737 1810638 1820685 
2814.348 1829856 1837308 1842632 1846035 1848293 1850504 1853778 1859090 
2818.206 1866992 1877705 1891078 1906715 1923897 1941676 1959111 1975254 
2822.063 1989579 2001848 2012268 2021361 2029620 2037493 2045235 2053123 
2825.921 2061595 2071460 2083826 2099818 2120163 2144667 2172094 2200299 
2829.778 2226782 2249440 2267076 2279894 2289228 2297161 2305833 2316890 
2833.635 2331243 2348991 2369743 2392833 2417574 2443467 2469979 2496746 
2837.493 2523526 2550187 2577045 2604667 2633919 2665764 2701071 2740471 
2841.350 2784469 2833585 2888530 2950472 3020864 3101425 3193862 3299428 
2845.208 3418618 3550906 3694522 3846223 4001210 4153105 4294393 4416970 
2849.065 4513056 4576327 4602805 4591557 4544603 4466569 4363951 4244120 
2852.923 4114575 3982153 3852834 3731220 3620426 3521996 3435799 3360387 
2856.780 3293482 3232585 3175690 3121755 3070708 3023315 2980447 2942868 
2860.637 2910681 2883440 2860533 2841406 2825943 2814523 2807670 2805784 
2864.495 2808732 2815787 2825934 2837978 2851117 2865233 2880686 2898364 
2868.352 2919338 2944508 2974587 3010002 3050945 3097375 3148988 3205051 
2872.210 3264460 3325696 3387117 3447150 3504696 3559219 3610793 3659883 
2876.067 3707026 3752581 3796506 3838329 3877325 3912715 3943953 3970787 
2879.925 3993320 4011863 4026698 4038079 4045757 4049324 4048028 4041127 
2883.782 4028265 4009598 3986042 3959377 3931820 3905848 3883651 3866768 
2887.639 3855830 3850563 3850082 3853113 3858494 3865340 3873233 3882258 
2891.497 3892747 3905196 3919996 3937401 3957240 3978976 4001753 4024552 
2895.354 4046401 4066625 4085134 4102501 4119668 4137953 4158381 4181628 
2899.212 4207678 4236096 4266268 4297601 4329857 4363066 4397332 4432562 
2903.069 4468331 4503814 4538110 4570700 4601563 4631612 4662239 4695200 
2906.927 4731931 4773405 4820010 4871755 4928868 4991982 5062382 5141920 
2910.784 5232602 5336022 5453147 5583910 5727308 5881552 6044243 6212488 
2914.641 6382981 6551976 6715526 6869485 7009972 7133746 7238539 7323178 
2918.499 7387605 7432545 7459398 7469608 7464714 7446067 7414874 7372364 
2922.356 7319821 7258884 7191431 7119882 7046865 6975147 6907264 6845186 
2926.214 6789949 6741693 6699604 6662462 6629142 6599018 6572294 6549891 
2930.071 6533196 6523560 6522006 6528998 6544624 6568716 6601356 6642797 
2933.928 6693608 6754440 6825772 6907690 7000115 7102838 7215756 7339002 
2937.786 7472748 7617038 7771252 7933794 8102112 8272825 8442060 8605920 
2941.643 8760930 8904038 9032795 9145244 9239887 9315595 9371770 9408209 
2945.501 9425097 9422805 9401851 9362592 9305468 9231273 9141285 9037691 
2949.358 8923285 8801356 8675029 8546758 8418139 8289589 8161012 8032045 
2953.216 7902544 7772945 7644032 7517116 7393357 7273927 7159728 7051546 
2957.073 6950009 6855425 6767781 6686427 6610086 6537117 6465878 6395112 
2960.930 6324495 6254534 6186370 6121288 6060088 6002837 5949039 5897765 
2964.788 5848376 5800738 5755353 5713072 5674612 5640115 5608833 5579436 
2968.645 5550305 5520183 5488684 5456363 5424664 5395426 5370425 5350756 
2972.503 5336793 5328050 5323390 5321472 5321008 5321255 5322221 5324644 
2976.360 5329998 5340111 5356933 5381866 5415855 5459057 5511359 5572275 
2980.218 5641437 5718737 5804053 5897390 5998532 6107089 6222810 6345719 
2984.075 6476556 6616575 6767638 6931379 7108797 7299783 7502894 7715703 
2987.932 7935039 8157681 8380446 8600368 8814520 9019942 9213667 9392877 
2991.790 9555431 9700090 9826545 9935238 10026860 10101843 10160060 10200780 
2995.647 10223237 10226861 10211998 10179793 10131963 10070312 9996132 
2999.022 9910176 9812529 9703220 9582498 9451270 9310989 9163392 9010096 
3002.880 8852173 8690100 8523905 8353532 8179217 8001672 7822169 7642288 
3006.737 7463685 7287845 7116005 6948934 6787062 6630356 6478380 6330301 
3010.595 6184919 6041009 5897601 5754119 5610717 5468189 5327758 5190831 
3014.452 5058657 4932123 4811767 4697646 4589561 4487014 4389385 4295929 
3018.310 4205889 4118545 4033450 3950487 3869889 3792160 3717881 3647450 
3022.167 3580935 3518064 3458278 3400968 3345618 3291824 3239557 3188855 
3026.024 3139810 3092338 3046306 3001219 2956596 2912117 2867639 2823419 
3029.882 2780132 2738641 2699711 2663763 2630632 2599363 2568707 2537310 
3033.739 2504518 2470669 2437145 2406150 2379903 2359828 2345966 2336823 
3037.597 2329767 2321931 2311091 2296529 2278880 2259834 2241318 2224601 
3041.454 2209860 2196252 2182550 2167748 2151754 2135429 2120166 2107248 
3045.312 2097136 2089296 2082409 2074822 2065634 2054997 2044132 2035028 
3049.169 2029544 2028715 2032177 2038337 2044819 2049342 2050210 2047083 
3053.026 2040709 2032740 2025170 2019499 2016705 2016756 2018914 2021947 
3056.884 2024631 2025866 2025115 2022194 2017409 2011398 2004891 1998692 
3060.741 1993551 1990066 1988536 1988901 1990563 1992535 1993282 1991534 
3064.599 1986292 1977524 1966372 1954961 1946020 1941975 1944332 1953013 
3068.456 1966299 1981324 1994919 2004381 2008341 2006715 2000594 1991507 
3072.313 1980837 1969276 1957009 1943924 1930236 1916628 1904412 1895181 
3076.171 1890123 1889685 1893322 1899647 1907062 1914169 1920223 1925233 
3080.028 1929500 1933188 1935841 1936434 1933505 1925881 1913251 1896494 
3083.886 1877765 1859821 1845355 1836098 1832571 1833779 1837830 1842483 
3087.743 1845830 1846772 1844933 1840676 1834758 1827955 1821110 1814999 
3091.601 1810402 1808234 1809191 1813628 1821193 1830725 1840552 1848698 
3095.458 1853613 1854443 1851299 1845159 1837331 1829116 1821233 1813815 
3099.315 1806625 1799214 1791613 1784157 1777688 1773080 1771179 1772121 
3103.173 1775658 1781049 1787381 1793944 1800155 1805784 1810872 1815430 
3107.030 1819562 1823289 1826515 1829085 1830673 1830748 1828849 1824547 
3110.888 1817820 1809107 1799419 1790074 1782346 1776957 1773856 1772103 
3114.745 1770307 1767140 1762007 1755198 1747876 1741785 1738215 1737898 
3118.603 1740438 1744674 1749163 1752638 1754658 1755631 1756468 1758457 
3122.460 1762470 1769022 1777987 1788779 1800489 1812182 1822851 1831446 
3126.317 1836999 1838742 1836169 1829362 1818898 1805994 1792069 1778592 
3130.175 1766804 1757598 1751332 1747892 1746763 1747074 1747690 1747517 
3134.032 1745809 1742417 1738182 1734630 1733760 1737332 1745999 1758966 
3137.890 1774076 1788191 1798382 1802715 1801211 1795657 1789080 1784641 
3141.747 1784662 1790009 1799737 1811948 1824280 1834875 1842590 1847214 
3145.604 1848976 1848150 1844967 1839437 1831740 1822517 1812944 1804658 
3149.462 1799225 1797978 1801225 1808503 1818599 1829894 1840907 1850453 
3153.319 1857778 1862574 1864544 1863515 1859232 1851610 1840764 1827287 
3157.177 1812133 1796827 1782875 1771761 1764589 1761719 1762964 1767486 
3161.034 1774068 1781416 1788586 1794985 1800715 1806343 1812651 1820438 
3164.892 1830151 1841675 1854383 1867181 1878750 1887739 1893102 1894114 
3168.749 1890549 1882735 1871397 1857777 1843430 1830018 1819008 1811522 
3172.606 1808027 1808429 1812103 1818036 1825133 1832521 1839399 1845255 
3176.464 1849652 1852355 1853180 1852127 1849570 1846093 1842572 1839862 
3180.321 1838636 1839139 1841052 1843660 1846076 1847499 1847512 1846199 
3184.179 1844158 1842182 1841198 1841873 1844601 1849428 1856161 1864469 
3188.036 1874055 1884587 1895733 1907032 1917854 1927254 1934214 1937798 
3191.894 1937394 1933064 1925589 1916440 1907417 1900237 1896028 1894973 
3195.751 1896321 1898668 1900329 1900079 1897519 1893197 1888487 1885033 
3199.608 1884232 1886805 1892582 1900608 1909529 1918002 1925058 1930341 
3203.466 1934193 1937380 1940976 1946071 1953666 1964236 1977741 1993375 
3207.323 2009554 2024187 2034953 2039984 2038380 2030637 2018532 2004891 
3211.181 1992673 1984251 1980619 1981240 1984442 1987904 1989575 1988415 
3215.038 1984661 1979523 1974914 1972508 1973387 1977716 1984847 1993559 
3218.896 2002415 2010267 2016239 2019886 2021109 2020134 2017480 2013709 
3222.753 2009472 2005222 2001156 1997208 1993182 1988983 1985074 1982454 
3226.610 1982631 1987200 1997118 2012312 2031181 2051175 2069126 2082425 
3230.468 2089439 2090109 2085563 2077561 2067774 2057386 2046779 2036061 
3234.325 2025384 2015281 2006687 2000396 1996735 1994999 1993653 1990838 
3238.183 1985117 1976391 1965987 1956343 1950266 1949718 1955376 1966274 
3242.040 1980379 1995405 2009575 2021974 2032546 2041562 2049054 2054704 
3245.897 2057814 2057869 2054889 2049779 2044046 2039185 2036233 2035312 
3249.755 2035811 2036779 2037518 2037919 2038352 2039398 2041154 2043064 
3253.612 2043947 2042445 2037847 2030446 2021501 2012882 2006089 2001745 
3257.470 1999403 1997947 1996557 1995418 1996096 2001102 2012924 2032587 
3261.327 2058978 2088705 2116845 2138425 2149860 2149936 2140076 2123592 
3265.185 2104568 2086651 2072289 2062469 2056931 2054752 2054769 2055908 
3269.042 2057211 2057822 2057026 2054504 2050222 2045015 2040093 2037072 
3272.899 2037383 2041787 2050231 2061804 2074977 2088177 2100115 2109998 
3276.757 2117492 2122576 2125247 2125483 2123138 2118256 2111212 2102864 
3280.614 2094592 2087938 2084483 2085264 2090746 2100623 2113894 2129278 
3284.472 2145233 2160210 2172894 2182034 2186500 2185516 2178648 2166182 
3288.329 2149223 2129706 2110208 2093362 2081301 2075102 2074532 2078255 
3292.187 2084270 2090697 2096340 2100755 2104430 2108050 2111970 2116025 
3296.044 2119404 2121122 2120512 2117617 2113248 2108699 2105114 2102914 
3299.901 2101691 2100334 2097666 2093033 2086724 2079823 2073777 2069782 
3303.759 2068030 2067877 2068045 2067413 2065515 2063049 2061305 2061761 
3307.616 2065275 2071425 2078788 2085321 2089084 2089300 2086243 2081305 
3311.474 2076109 2071947 2069287 2067484 2065558 2062640 2058550 2054148 
3315.331 2050882 2050433 2054031 2061720 2072455 2084333 2095087 2102822 
3319.188 2106509 2106201 2102935 2098406 2094379 2092261 2092754 2095671 
3323.046 2100187 2105140 2109625 2113038 2115591 2117787 2120286 2123345 
3326.903 2126527 2128883 2129113 2126266 2120295 2112229 2103838 2097347 
3330.761 2094314 2095278 2099490 2105260 2110651 2114329 2115801 2115580 
3334.618 2114608 2113635 2112763 2111376 2108663 2104133 2098311 2092713 
3338.476 2089402 2090231 2095808 2105216 2116154 2125704 2131549 2132755 
3342.333 2130052 2125503 2121561 2119956 2121195 2124391 2127857 2130020 
3346.190 2129798 2127270 2123041 2118001 2112634 2106826 2100138 2092345 
3350.048 2083864 2075876 2070138 2068139 2070486 2076451 2083996 2090494 
3353.905 2093602 2092008 2085938 2076845 2066982 2058504 2052901 2050669 
3357.763 2051572 2054745 2059261 2064252 2068997 2072907 2075373 2075976 
3361.620 2074387 2070775 2065682 2060181 2055560 2053255 2054374 2059768 
3365.478 2069619 2083467 2099990 2116905 2131188 2139509 2138932 2127777 
3369.335 2106415 2077519 2045722 2016561 1995312 1985485 1988148 2001787 
3373.192 2023091 2047986 2072678 2094566 2112301 2125482 2134161 2138370 
3377.050 2137950 2132691 2122753 2108906 2092695 2076310 2061967 2051585 
3380.907 2046368 2046376 2050758 2057891 2065528 2071404 2073586 2070903 
3384.765 2063282 2051622 2037878 2024279 2012896 2005059 2000873 1999577 
3388.622 1999770 2000146 1999850 1998904 1997879 1997605 1998721 2001397 
3392.479 2005373 2010103 2015232 2020489 2025941 2031691 2037500 2042991 
3396.337 2047469 2050430 2051725 2051788 2051291 2051114 2051691 2052861 
3400.194 2054078 2054655 2054123 2052586 2050717 2049293 2048966 2049862 
3404.052 2051388 2052822 2053399 2052923 2051886 2051009 2051162 2052723 
3407.909 2055418 2058434 2060913 2062315 2062801 2063162 2064473 2067745 
3411.767 2073310 2080620 2088471 2095108 2098857 2098500 2093472 2083967 
3415.624 2070789 2055083 2037997 2020517 2003105 1985849 1968511 1950951 
3419.481 1933423 1916902 1903099 1894126 1891959 1897691 1911087 1930391 
3423.339 1952784 1974956 1994032 2008172 2016713 2020115 2019468 2016034 
3427.196 2010966 2005448 2000480 1997193 1996564 1999228 2005004 2012900 
3431.054 2021146 2027780 2031304 2031093 2027597 2022093 2015850 2009881 
3434.911 2004339 1998714 1992488 1985510 1978519 1972865 1970060 1971202 
3438.769 1976085 1983371 1990855 1996252 1998068 1996164 1991798 1987269 
3442.626 1985028 1987202 1994637 2006920 2022655 2039587 2055461 2068297 
3446.483 2076922 2081011 2081082 2078246 2073856 2069014 2064274 2059614 
3450.341 2054490 2048194 2040296 2030866 2020438 2009856 1999875 1990854 
3454.198 1982632 1974709 1966795 1959217 1953005 1950110 1952413 1961506 
3458.056 1977764 2000055 2025794 2051474 2073284 2088209 2094429 2091895 
3461.913 2082220 2068308 2053627 2041362 2033771 2031599 2034337 2040520 
3465.771 2048440 2057177 2066837 2078421 2093342 2112533 2135356 2159927 
3469.628 2182957 2201307 2212838 2217405 2216908 2214601 2213904 2217166 
3473.485 2224901 2236027 2248325 2259622 2268515 2274698 2278568 2280802 
3477.343 2281914 2282020 2281190 2280055 2280020 2283156 2291480 2306118 
3481.200 2326546 2350510 2374577 2395267 2410185 2418903 2422945 2425239 
3485.058 2429048 2437012 2450389 2469220 2492156 2517381 2542712 2566219 
3488.915 2586268 2601690 2612025 2617715 2620148 2621511 2624309 2630593 
3492.772 2641566 2656958 2675326 2694525 2712270 2726934 2737816 2745141 
3496.630 2749896 2753331 2756779 2761407 2768138 2777646 2790216 2805672 
3500.487 2823201 2841564 2859201 2874646 2886667 2894587 2898191 2897490 
3504.345 2892634 2883896 2871641 2856803 2840744 2825309 2812262 2802859 
3508.202 2797467 2795199 2794529 2793551 2790856 2785861 2778662 2769908 
3512.060 2760170 2749517 2737700 2724317 2709485 2694058 2679671 2668387 
3515.917 2661902 2660928 2664885 2672022 2679825 2685875 2688177 2685661 
3519.774 2677936 2665199 2647903 2626640 2602193 2575548 2547962 2520813 
3523.632 2495312 2472382 2452404 2435425 2421114 2409186 2399284 2391374 
3527.489 2385232 2380619 2377371 2375249 2374267 2374639 2376567 2380029 
3531.347 2384382 2388225 2389693 2386738 2377956 2363061 2343146 2320315 
3535.204 2297339 2276643 2259736 2247036 2237853 2231058 2225237 2219367 
3539.062 2212674 2204684 2195085 2183474 2169730 2154211 2137797 2122189 
3542.919 2109542 2101962 2101010 2107106 2119418 2135820 2153634 2170037 
3546.776 2182930 2191273 2195195 2195768 2194528 2192953 2191820 2191270 
3550.634 2190673 2189252 2186386 2181992 2176821 2172138 2169352 2169455 
3554.491 2172748 2178501 2185607 2192499 2197936 2201127 2201843 2200181 
3558.349 2196365 2190528 2182966 2174028 2164621 2155942 2149569 2146642 
3562.206 2147698 2152154 2158514 2164697 2168726 2169439 2166785 2161736 
3566.063 2156014 2151189 2148268 2147408 2147890 2148588 2148411 2146590 
3569.921 2142899 2137468 2130619 2122558 2113187 2102350 2089772 2075499 
3573.778 2059952 2044175 2029354 2016967 2008070 2003192 2002082 2003720 
3577.636 2006728 2009700 2011941 2013485 2015258 2018702 2024923 2034163 
3581.493 2045426 2056403 2064101 2065882 2060145 2047091 2028344 2006718 
3585.351 1984933 1965010 1947852 1933313 1920650 1909488 1899996 1893031 
3589.208 1889674 1890397 1894684 1900647 1905611 1906746 1902003 1890873 
3593.065 1874330 1854773 1835141 1818240 1805796 1798603 1796229 1797615 
3596.923 1801521 1806766 1812688 1818961 1825683 1833131 1841583 1851208 
3600.780 1862031 1873836 1886261 1898594 1910024 1919585 1926139 1928682 
3604.638 1926509 1919318 1907398 1891895 1874334 1856855 1841248 1829097 
3608.495 1821201 1817706 1817949 1821132 1826398 1833105 1840807 1849178 
3612.353 1857720 1865769 1872500 1877354 1880210 1881758 1883379 1886806 
3616.210 1893545 1904216 1918214 1933880 1948665 1960238 1966813 1967961 
3620.067 1964580 1958526 1952045 1947482 1946332 1949592 1957387 1969512 
3623.925 1985264 2003916 2024412 2045682 2066462 2085619 2102116 2115294 
3627.782 2124992 2131465 2135330 2137406 2138470 2139364 2140623 2142786 
3631.640 2146192 2151028 2157096 2163985 2170765 2176558 2180656 2182936 
3635.497 2184056 2185469 2188984 2196251 2208213 2224567 2243739 2263481 
3639.354 2281139 2294777 2303611 2308151 2309828 2310525 2311725 2314174 
3643.212 2317739 2321647 2325029 2327237 2328304 2328625 2328896 2329621 
3647.069 2331032 2333020 2335414 2338348 2342105 2347397 2354862 2365019 
3650.927 2377757 2392538 2408430 2424327 2439284 2452476 2463176 2470756 
3654.784 2474661 2474582 2470947 2464875 2458396 2454019 2454084 2459996 
3658.642 2471523 2486700 2502103 2513630 2517572 2511717 2495806 2471906 
3662.499 2443702 2416051 2393782 2380764 2379352 2389920 2410786 2438702 
3666.356 2469258 2497841 2519980 2532201 2532213 2519196 2493642 2457603 
3670.214 2414167 2367486 2322077 2282358 2251806 2232234 2223370 2222896 
3674.071 2226879 2230925 2231168 2225385 2213364 2196747 2177732 2158220 
3677.929 2139013 2119619 2098913 2075882 2050565 2024429 1999797 1979288 
3681.786 1964381 1955067 1949802 1945981 1941171 1933851 1923824 1912115 
3685.644 1900180 1889121 1879357 1870519 1861839 1852898 1843794 1835207 
3689.501 1828004 1822456 1817846 1812605 1804616 1792333 1775373 1754909 
3693.358 1733848 1715618 1703632 1700093 1705301 1717677 1733857 1749659 
3697.216 1760699 1763629 1756599 1739943 1716074 1689094 1664155 1646174 
3701.073 1638783 1643469 1659012 1682023 1707696 1731358 1749584 1761004 
3704.931 1766631 1769058 1771386 1776062 1783830 1793825 1803512 1810157 
3708.788 1811623 1807285 1798260 1787095 1776674 1769446 1766456 1767319 
3712.646 1770434 1773923 1776430 1777482 1777812 1778665 1781223 1785948 
3716.503 1792156 1798466 1803220 1805223 1804124 1800732 1796430 1792887 
3720.360 1791312 1792491 1796351 1802570 1810485 1819588 1829143 1838202 
3724.218 1845554 1849512 1848653 1842001 1829503 1812321 1792240 1771618 
3728.075 1752468 1736262 1723699 1715018 1710331 1709990 1714534 1724638 
3731.933 1740546 1761871 1787244 1814628 1841448 1865214 1883731 1895618 
3735.790 1900221 1897924 1890064 1878633 1866173 1855226 1847923 1845342 
3739.647 1847372 1852737 1859294 1865012 1868337 1868754 1866837 1863891 
3743.505 1861409 1860520 1861525 1863960 1866473 1867617 1865748 1859672 
3747.362 1848546 1832471 1812349 1790115 1768418 1750122 1737323 1730789 
3751.220 1729529 1731033 1732047 1730171 1724613 1716954 1710525 1709337 
3755.077 1716497 1733002 1757236 1785645 1813726 1837727 1855479 1866763 
3758.935 1872747 1875028 1874676 1872043 1866649 1858343 1847438 1835295 
3762.792 1823743 1814533 1808776 1806511 1806995 1809370 1813147 1818540 
3766.649 1826104 1836246 1848247 1860276 1869620 1873648 1870906 1861860 
3770.507 1848882 1835346 1824386 1817783 1815298 1815201 1815117 1813250 
3774.364 1809486 1805330 1803170 1805209 1812233 1823080 1834588 1842885 
3778.222 1844424 1837303 1822104 1801697 1780466 1763195 1753796 1754185 
3782.079 1764009 1780816 1800531 1818606 1831160 1835755 1832007 1821626 
3785.937 1807704 1793742 1782605 1775678 1772682 1771791 1770748 1767788 
3789.794 1762391 1755545 1749459 1746534 1748597 1755803 1766822 1779090 
3793.651 1789557 1795668 1796138 1791091 1781873 1770581 1759300 1749733 
3797.509 1742949 1739241 1738381 1739899 1743045 1747109 1751403 1755405 
3801.366 1758747 1761401 1763560 1765516 1767345 1769161 1770761 1771915 
3805.224 1772497 1772709 1773099 1774228 1776672 1780505 1785220 1790230 
3809.081 1794653 1798019 1800365 1802036 1803412 1804483 1804622 1802705 
3812.938 1797646 1789099 1777893 1766264 1757303 1754011 1758066 1769266 
3816.796 1785147 1801980 1815775 1823653 1824497 1819342 1810500 1800851 
3820.653 1792684 1787266 1784574 1783775 1783718 1783726 1783311 1782613 
3824.511 1781698 1780591 1779022 1776837 1774062 1771249 1769178 1769196 
3828.368 1772213 1778770 1788548 1800381 1812334 1822147 1827368 1826174 
3832.226 1817444 1801613 1780465 1757313 1736225 1721308 1715529 1719956 
3836.083 1733219 1751946 1771747 1788264 1798553 1801646 1798465 1791143 
3839.940 1781839 1772251 1763033 1754418 1746393 1739511 1734700 1732962 
3843.798 1734736 1739355 1744928 1748957 1749267 1744747 1736145 1725544 
3847.655 1715650 1708651 1705387 1705021 1705570 1704972 1701847 1696479 
3851.513 1690440 1686191 1685757 1690211 1698792 1709479 1719588 1726707 
3855.370 1729401 1727565 1722166 1714816 1707064 1700266 1695120 1691677 
3859.228 1689563 1688005 1686071 1682974 1678223 1671906 1664787 1658158 
3863.085 1653634 1652548 1655792 1663214 1673949 1686408 1698910 1710135 
3866.942 1719395 1726795 1733017 1738996 1745624 1753394 1762202 1771570 
3870.800 1780397 1787528 1791718 1792045 1788222 1780442 1769847 1757952 
3874.657 1746587 1737425 1731479 1728983 1729263 1731100 1732951 1733400 
3878.515 1731577 1727105 1720152 1711522 1702176 1693361 1686271 1682012 
3882.372 1681324 1684586 1691488 1701226 1712539 1723999 1734357 1742728 
3886.229 1748785 1752619 1754489 1754772 1753506 1750651 1746129 1739901 
3890.087 1732303 1724001 1715919 1709020 1703996 1701249 1700666 1701906 
3893.944 1704475 1707905 1712001 1716907 1722974 1730791 1740788 1753254 
3897.802 1767890 1783901 1799761 1813537 1823060 1826342 1822035 1809849 
3901.659 1790527 1766043 1739244 1713449 1691923 1677461 1671710 1675118 
3905.517 1686708 1704248 1724697 1744592 1760660 1770494 1772779 1767554 
3909.374 1756190 1740753 1723743 1707412 1693473 1682961 1676218 1673086 
3913.231 1673292 1676379 1681916 1689341 1697908 1706765 1714957 1721814 
3917.089 1727034 1730891 1734147 1737862 1742930 1749848 1758330 1767550 
3920.946 1776195 1783187 1787701 1789864 1790294 1790120 1790524 1792137 
3924.804 1795064 1798702 1802156 1804599 1805452 1804859 1803410 1801856 
3928.661 1800801 1800443 1800493 1800200 1798619 1795233 1789701 1782337 
3932.519 1773498 1763920 1754129 1744534 1735358 1727024 1719913 1714710 
3936.376 1712114 1712798 1717053 1724801 1735557 1748505 1762775 1777538 
3940.233 1792134 1805957 1818424 1828876 1836519 1840599 1840732 1836915 
3944.091 1829863 1820972 1811948 1804599 1800288 1799782 1802935 1808852 
3947.948 1816092 1823030 1828252 1830855 1830365 1827188 1821841 1815184 
3951.806 1807890 1800462 1792992 1785349 1777202 1768352 1758811 1749070 
3955.663 1740055 1733012 1729304 1729978 1735314 1744640 1756433 1768295 
3959.521 1777788 1782817 1782424 1776913 1767833 1757466 1748157 1741579 
3963.378 1738316 1738050 1739641 1741949 1744297 1746819 1750125 1755143 
3967.235 1762315 1771653 1782336 1793221 1803325 1812263 1820060 1827142 
3971.093 1833587 1838703 1841121 1839123 1831311 1817803 1800420 1782890 
3974.950 1769800 1765437 1772359 1790583 1817296 1848002 1877321 1900695 
3978.808 1915294 1920592 1917958 1909883 1899047 1887555 1876407 1865565 
3982.665 1854347 1841833 1827477 1811410 1794675 1779084 1766946 1760515 
3986.522 1761369 1769882 1784792 1803591 1822771 1839166 1850596 1856739 
3990.380 1859249 1860850 1864429 1871767 1882476 1894231 1903235 1905873 
3994.237 1900029 1886075 1867034 1847630 1832706 1825768 1827701 1836702 
3998.095 1849026 1860323 1867096 1867937 1863420 1855727 
##END=
