##TITLE=eSUN_ABS+_Black_Filament_r4_ATR-Corrected
##JCAMP-DX=5.01  $$ Nicolet v. 1
##DATATYPE=INFRARED SPECTRUM
##ORIGIN=Curtin University
##OWNER=Nicolet
##LONGDATE=2024/07/18
##TIME=10:38:28
##SPECTROMETER/DATA SYSTEM=Nicolet iS50
##DATA PROCESSING=
Ratio against background
%Transmittance->Absorbance
ATR Correction
Truncated
ElementMultiply or ElementDivide
##COMMENTS=
Number of sample scans: 32
Collection length: 47.28 sec
Sample gain: 1.0
Background collected on: Thu Jul 18 10:36:34 2024 (GMT+08:00);
Number of background scans: 32
Background gain: 1.0
Sample spacing:  1.000
Number of scan points: 16672
Resolution points: 8192
Number of FFT points: 65536
Apodization: N-B strong;
Phase correction: Mertz;
Laser frequency: 15798.3 cm-1
Number of rejected sample scans: 0
Number of rejected background scans: 0
Bench serial number: AUP1200105;
##RESOLUTION=4.000
##XUNITS=1/CM
##YUNITS=ABSORBANCE
##FIRSTX=400.163452
##LASTX=4000.187744
##FIRSTY=0.026461
##MAXX=4000.187744
##MINX=400.163452
##MAXY=0.379015
##MINY=0.003038
##XFACTOR=1.000000
##YFACTOR=1.000000E-009
##NPOINTS=7468
##DELTAX=0.482125
##ZPD=8192
##XYDATA=(X++(Y..Y))
400.163 26461158 26002690 25626722 25392640 25289916 25254238 25191742 
403.538 25010394 24642880 24063764 23293912 22401744 21492394 20691528 
406.913 20120298 19871996 19987416 20444270 21158128 22000744 22825840 
410.288 23503076 23943902 24114954 24034802 23759766 23362360 22915394 
413.663 22479328 22099538 21804984 21610938 21519834 21524052 21607358 
417.038 21749408 21928834 22127882 22332810 22534416 22724228 22894210 
420.412 23034812 23139230 23204580 23234606 23236858 23217552 23174962 
423.787 23096740 22961628 22750266 22456788 22099938 21724466 21392756 
427.162 21166424 21087268 21162172 21361932 21630248 21903920 22132066 
430.537 22289324 22376998 22413068 22416932 22396718 22342138 22234266 
433.912 22057476 21813966 21530628 21254610 21039068 20924448 20921760 
437.286 21008220 21133660 21238484 21274860 21223614 21099422 20945062 
440.661 20813360 20748384 20769208 20865162 21000670 21130480 21214762 
444.036 21233700 21191028 21110282 21022858 20955510 20920254 20912514 
447.411 20915808 20912072 20890624 20855662 20824866 20824230 20878092 
450.786 21000354 21188680 21425138 21680794 21924846 22132108 22290252 
454.161 22400608 22477274 22540692 22612088 22706204 22827374 22967944 
457.535 23110834 23235124 23323296 23367520 23373462 23358156 23345110 
460.910 23354728 23397790 23470266 23556034 23633460 23686538 23709562 
464.285 23712690 23715456 23738066 23790054 23864680 23939264 23984770 
467.660 23978202 23915230 23814270 23712428 23652182 23664904 23757704 
471.035 23909242 24074546 24201108 24245982 24190812 24047046 23851294 
474.409 23652014 23494680 23407554 23397320 23450668 23543702 23653218 
477.784 23765926 23882352 24014850 24180046 24390216 24645430 24931232 
481.159 25220334 25480048 25680838 25804828 25849698 25829074 25767710 
484.534 25695146 25638948 25620434 25652516 25740706 25883748 26075072 
487.909 26301718 26544246 26776178 26967532 27089118 27121062 27059032 
491.284 26918698 26733306 26546582 26399938 26321196 26315258 26364454 
494.658 26431526 26473564 26454814 26358852 26194362 25994090 25806324 
498.033 25681914 25659948 25756636 25959594 26230458 26514644 26756536 
501.408 26915330 26977392 26959886 26905352 26867492 26893624 27009132 
504.783 27210118 27465442 27729258 27956136 28116876 28205108 28235862 
508.158 28234816 28226464 28223304 28223580 28216376 28192036 28151678 
511.532 28112268 28103350 28158296 28302462 28545702 28879898 29284650 
514.907 29736014 30215880 30716534 31240486 31794596 32384552 33009198 
518.282 33660868 34327688 34998760 35667092 36331168 36992644 37653436 
521.657 38313452 38970488 39621772 40265908 40903944 41537500 42166080 
525.032 42784092 43379440 43937208 44444628 44897980 45306404 45691548 
528.406 46082168 46505600 46978752 47502392 48060232 48624644 49164272 
531.781 49654476 50083444 50456300 50792656 51121972 51475564 51879644 
535.156 52349356 52886260 53478336 54104644 54739624 55360720 55953076 
538.531 56513200 57048044 57572836 58104872 58659368 59244448 59860492 
541.906 60500108 61151720 61801784 62438412 63052184 63638016 64194412 
545.281 64723916 65232152 65727776 66219604 66715652 67220312 67733824 
548.655 68252616 68770968 69283816 69788408 70283400 70767840 71236816 
552.030 71680040 72080488 72418880 72678488 72851968 72944624 72975000 
555.405 72969664 72954688 72947040 72949072 72947056 72915888 72826896 
558.780 72657648 72398040 72053424 71640488 71180808 70691440 70178232 
562.155 69631896 69029648 68340352 67532944 66583580 65482272 64233900 
565.529 62856824 61378324 59829688 58241656 56643732 55064348 53533296 
568.904 52082928 50747508 49559836 48546576 47722156 47085680 46619196 
572.279 46290684 46058696 45879120 45710912 45520636 45284424 44988868 
575.654 44630036 44212972 43750248 43261172 42768836 42297456 41867332 
579.029 41491020 41169984 40894312 40644264 40395580 40124252 39812672 
582.404 39452272 39045444 38603444 38143780 37686444 37249972 36848604 
585.778 36490936 36178692 35908244 35671624 35458996 35260380 35067404 
589.153 34873588 34673760 34464084 34241512 34004556 33754796 33497766 
592.528 33243738 33005774 32797046 32625866 32493260 32390714 32302394 
595.903 32209426 32095410 31951192 31777098 31581286 31376630 31174674 
599.278 30983000 30802604 30630228 30460914 30291090 30120850 29954250 
602.652 29797570 29657514 29538756 29443076 29369418 29313794 29269846 
606.027 29229910 29185580 29130142 29060680 28980154 28899082 28833854 
609.402 28802646 28820334 28892526 29012466 29161692 29315022 29447478 
612.777 29542190 29594806 29614120 29618418 29629174 29664508 29735198 
616.152 29842920 29982646 30145108 30319914 30495886 30660992 30801022 
619.527 30899170 30937564 30900606 30779074 30574198 30298586 29975188 
622.901 29632926 29301286 29004722 28759356 28571382 28439152 28354900 
626.276 28309496 28294286 28303462 28333108 28380810 28443092 28514804 
629.651 28588004 28654078 28705308 28737680 28752156 28754964 28754804 
633.026 28759978 28773842 28793454 28808914 28807004 28775136 28707090 
636.401 28605796 28483900 28360764 28257232 28189534 28165318 28181368 
639.775 28225782 28281480 28331806 28365078 28377858 28375240 28369314 
643.150 28375240 28407230 28474302 28578100 28712466 28865428 29022884 
646.525 29172742 29308262 29429394 29541378 29651586 29764632 29879910 
649.900 29989994 30083740 30150548 30186198 30196720 30199340 30218992 
653.275 30282372 30410260 30611436 30879840 31195842 31530760 31854440 
656.650 32141984 32379888 32568410 32721110 32861166 33015840 33209906 
660.024 33460080 33770956 34134936 34534224 34946864 35352720 35739312 
663.399 36104508 36456124 36807412 37171880 37557868 37966332 38391756 
666.774 38825752 39262036 39699800 40144412 40605332 41091444 41607464 
670.149 42151128 42714616 43286992 43858808 44424580 44983700 45538880 
673.524 46092748 46645728 47194792 47734900 48262476 48777388 49286048 
676.898 49800532 50336596 50910512 51536028 52223064 52977180 53801244 
680.273 54696308 55663140 56702556 57815560 59003656 60269256 61616112 
683.648 63050656 64582340 66223352 67989720 69900688 71980208 74258664 
687.023 76775712 79582136 82742104 86334528 90454280 95214216 100748696 
690.398 107216392 114803616 123722640 134204672 146483872 160772160 
693.290 177223456 195892096 216681936 239296512 263191968 287551136 
696.183 311294848 333152800 351810112 366110496 375268512 379014720 
699.076 377610976 371740352 362316800 350299296 336551968 321775360 
701.969 306490880 291062656 275733728 260661520 245947024 231654016 
704.861 217819296 204459280 191574384 179156160 167193744 155682656 
707.754 144629232 134053512 123987080 114468896 105538432 97230488 89570960 
711.129 82574128 76241648 70563600 65519644 61080868 57212160 53873828 
714.504 51022984 48615024 46603704 44942456 43584464 42484384 41598900 
717.878 40889016 40320676 39865508 39500928 39209180 38976552 38791708 
721.253 38645056 38528844 38436992 38366980 38319800 38300492 38317472 
724.628 38380728 38499432 38679872 38923608 39227256 39582792 39980176 
728.003 40409448 40863460 41339360 41839328 42369628 42939044 43556772 
731.378 44230556 44965876 45765760 46631440 47563412 48562236 49628252 
734.752 50760028 51953828 53201096 54488596 55798648 57111768 58409092 
738.127 59676052 60903868 62090820 63241468 64365416 65476216 66590464 
741.502 67728576 68914376 70174648 71536592 73025112 74657840 76441880 
744.877 78373352 80438952 82621960 84907992 87291392 89777144 92379416 
748.252 95115944 98000624 101037344 104215904 107514024 110902112 114350240 
751.627 117835376 121343896 124871712 128418592 131982120 135549408 
754.519 139092512 142565968 145908992 149050320 151915792 154436000 
757.412 156553632 158227936 159436608 160173920 160446768 160268448 
760.305 159654176 158617264 157168784 155319872 153085520 150489040 
763.197 147565072 144360032 140930368 137337536 133642688 129900504 
766.090 126155288 122439448 118774200 115172128 111641392 108188368 
768.983 104819608 101541672 98359880 95276856 92291016 89397288 86588376 
772.358 83856568 81196536 78606080 76086160 73640304 71272952 68987384 
775.732 66784828 64663120 62617792 60642032 58728984 56873048 55071928 
779.107 53328336 51649792 50047812 48535332 47123028 45816136 44612412 
782.482 43501832 42469236 41498276 40575264 39693148 38851696 38055824 
785.857 37312240 36625208 35994128 35413060 34872368 34362508 33876984 
789.232 33414278 32977786 32573738 32208358 31886086 31607810 31371586 
792.606 31173478 31008626 30870884 30752972 30645146 30536488 30415980 
795.981 30276676 30118282 29949942 29789160 29658240 29578626 29564808 
799.356 29619892 29735990 29896738 30083918 30283126 30488442 30703404 
802.731 30938452 31206518 31518220 31878188 32284488 32730728 33208504 
806.106 33710800 34234268 34778392 35345952 35939752 36562532 37215308 
809.481 37897812 38608940 39346464 40107104 40885272 41671368 42450976 
812.855 43204328 43908208 44538068 45073324 45500600 45817728 46034592 
816.230 46171112 46252408 46303544 46343864 46384660 46429888 46480736 
819.605 46540800 46620860 46740176 46924156 47198236 47582144 48084208 
822.980 48701824 49423888 50237928 51135048 52114124 53179464 54335980 
826.355 55581764 56902016 58266868 59634400 60956956 62188920 63292936 
829.729 64243048 65023312 65625228 66044480 66279128 66330544 66205056 
833.104 65916308 65485036 64938196 64304172 63608536 62871164 62105420 
836.479 61320424 60524212 59727704 58946268 58199728 57508504 56889864 
839.854 56352936 55896904 55510212 55174024 54865644 54563968 54253084 
843.229 53924000 53574020 53204368 52816208 52407324 51970304 51493372 
846.604 50962592 50366684 49700236 48966844 48178388 47352464 46507808 
849.978 45659544 44815528 43975432 43132500 42277744 41404060 40510696 
853.353 39604520 38699844 37815364 36970324 36180152 35454000 34792924 
856.728 34191320 33639140 33125650 32642294 32185420 31756386 31360876 
860.103 31005920 30697190 30436638 30221426 30044454 29896766 29769276 
863.478 29655244 29550798 29454606 29366734 29287432 29215890 29151314 
866.852 29092998 29042050 29001084 28974786 28968182 28986466 29033632 
870.227 29112664 29225146 29371680 29550968 29759796 29991936 30239012 
873.602 30491776 30742654 30988216 31230992 31478432 31741384 32029934 
876.977 32350800 32705982 33094290 33513994 33966464 34457752 34997776 
880.352 35596764 36260492 36986016 37760864 38565272 39376944 40176948 
883.727 40953372 41702332 42424912 43122832 43793272 44425816 45002976 
887.101 45502284 45900784 46178648 46321448 46320380 46172528 45879292 
890.476 45446680 44886304 44216364 43461276 42651256 41818520 40993424 
893.851 40201496 39460900 38783056 38175804 37645784 37202652 36859844 
897.226 36634252 36543244 36601536 36817208 37190684 37714456 38375520 
900.601 39158920 40052076 41047232 42142896 43342664 44652596 46076832 
903.975 47613940 49254788 50980596 52764964 54575048 56373776 58121876 
907.350 59778168 61300936 62648444 63781700 64667516 65282396 65616852 
910.725 65676444 65480480 65058844 64445436 63672632 62766336 61745068 
914.100 60620280 59400716 58095896 56719140 55289016 53828140 52360304 
917.475 50908656 49492748 48128440 46827228 45597548 44443824 43368084 
920.849 42368864 41441496 40579660 39776640 39027384 38329836 37685068 
924.224 37096420 36566820 36097716 35687160 35331188 35025016 34765412 
927.599 34552632 34389896 34281792 34231128 34236284 34290140 34380756 
930.974 34494700 34620472 34751868 34888808 35035504 35197084 35375632 
934.349 35567972 35765028 35955384 36128152 36278248 36408316 36527792 
937.724 36651044 36792088 36960940 37161060 37389628 37638912 37900180 
941.098 38165780 38431344 38695104 38956824 39215872 39470524 39717096 
944.473 39951928 40172932 40381616 40584324 40791732 41017816 41277768 
947.848 41585384 41951492 42383112 42883620 43453376 44091160 44794904 
951.223 45562836 46393936 47288592 48249560 49282640 50397652 51608584 
954.598 52933352 54391364 56001212 57777492 59728400 61854568 64149192 
957.972 66599868 69190008 71900272 74707952 77586264 80502640 83417904 
961.347 86287240 89062424 91695480 94141256 96359480 98314344 99973712 
964.722 101306968 102286240 102887360 103094328 102902080 102319584 
967.615 101369368 100086016 98511960 96694096 94680784 92519776 90257088 
970.990 87935392 85593064 83262096 80967296 78726720 76554344 74462848 
974.364 72467264 70585312 68836080 67235864 65792992 64505124 63358820 
977.739 62333536 61408296 60567920 59807340 59130668 58548104 58068664 
981.114 57694764 57419492 57227468 57098556 57013652 56958272 56924872 
984.489 56912636 56925540 56971092 57059236 57201540 57410676 57698100 
987.864 58071332 58529980 59064568 59655600 60277844 60904356 61511644 
991.239 62082324 62605292 63072912 63478276 63812868 64066916 64232512 
994.613 64307852 64300032 64227188 64117336 64006016 63933468 63942952 
997.988 64078928 64385480 64902768 65662092 66679336 67949160 69442976 
1001.363 71110888 72888424 74706640 76500856 78217896 79818528 81276224 
1004.738 82575104 83707216 84672688 85481944 86158736 86743376 87295200 
1008.113 87893656 88638240 89647240 91053416 92994208 95593080 98934080 
1011.487 103028768 107785128 112985936 118288136 123249448 127385600 
1014.380 130248144 131505936 131007432 128804760 125133440 120354728 
1017.273 114883552 109120528 103405040 97991776 93048800 88668464 84884136 
1020.648 81687080 79041232 76895784 75195104 73887456 72929976 72290504 
1024.022 71944736 71870280 72038728 72409632 72927864 73524512 74122776 
1027.398 74645520 75022096 75194232 75119536 74771968 74142888 73239832 
1030.773 72086032 70718840 69186144 67541760 65841144 64135180 62469000 
1034.148 60879980 59398396 58048444 56847884 55807576 54929300 54205732 
1037.523 53620228 53150664 52773156 52468024 52222096 52029836 51891664 
1040.899 51809452 51782452 51804576 51864432 51947208 52038852 52129124 
1044.274 52213184 52292296 52370788 52453900 52544788 52644028 52749316 
1047.649 52857584 52966128 53074228 53183384 53296748 53418392 53552036 
1051.024 53700656 53865972 54048868 54249676 54468956 54707844 54967896 
1054.400 55251744 55561868 55900548 56268624 56664684 57085300 57524920 
1057.775 57977596 58438412 58904840 59377244 59859056 60354304 60866236 
1061.150 61396012 61941072 62496824 63058032 63621208 64185240 64752288 
1064.525 65325276 65906236 66493988 67082748 67663248 68224376 68756016 
1067.901 69251312 69707312 70125360 70508880 70862904 71192720 71504832 
1071.276 71808312 72117152 72452464 72843904 73330144 73958384 74782640 
1074.651 75860200 77246616 78987624 81110512 83612464 86451352 89538632 
1078.026 92740064 95882128 98767992 101199112 102999744 104038768 104245608 
1081.402 103615584 102206432 100124424 97507176 94506280 91271976 87942536 
1084.777 84638376 81458576 78480568 75759944 73331104 71209304 69392744 
1088.152 67865912 66604564 65579512 64761436 64123520 63643388 63302124 
1091.527 63083716 62972808 62953988 63011288 63130692 63301256 63518824 
1094.903 63785172 64108200 64498356 64964964 65511972 66136092 66825256 
1098.278 67560888 68319512 69074920 69800432 70469248 71055448 71535472 
1101.653 71889640 72105864 72181968 72127096 71961296 71712096 71409296 
1105.028 71080040 70744968 70415696 70095504 69781304 69466136 69140704 
1108.404 68794448 68416736 67996776 67524896 66994464 66403456 65755604 
1111.779 65058700 64323492 63559936 62775524 61974200 61157896 60329540 
1115.154 59495104 58665636 57856256 57083332 56360544 55696072 55091232 
1118.529 54541628 54040296 53581228 53162372 52786440 52459936 52190540 
1121.905 51984376 51843552 51765152 51741812 51762816 51817004 51894380 
1125.280 51988740 52098308 52225788 52376764 52557740 52773368 53023980 
1128.655 53305532 53610548 53930392 54259076 54595912 54946244 55319992 
1132.030 55728864 56182404 56684876 57235132 57827368 58454148 59110212 
1135.406 59793844 60507740 61257408 62049448 62889480 63781880 64730504 
1138.781 65739640 66814972 67963728 69192776 70507800 71910928 73401808 
1142.156 74978384 76639368 78387152 80228064 82173184 84235400 86427944 
1145.531 88761536 91244048 93881248 96678080 99640616 102776976 106098128 
1148.906 109616112 113342832 117288880 121461080 125862136 130490256 
1151.800 135339248 140399344 145659744 151111360 156751088 162585584 
1154.693 168633424 174925952 181503360 188408576 195678560 203333904 
1157.586 211368864 219743424 228375264 237135376 245845328 254278304 
1160.479 262166528 269213824 275118400 279598656 282423680 283437856 
1163.372 282576800 279870272 275432000 269441632 262123936 253729008 
1166.265 244517472 234750560 224681056 214546816 204565120 194926256 
1169.158 185790320 177285472 169508560 162528096 156387024 151106544 
1172.051 146689008 143119024 140366176 138385904 137121952 136508768 
1174.944 136474144 136943232 137840656 139094704 140639056 142415872 
1177.837 144378320 146492240 148737840 151110192 153619920 156293056 
1180.730 159170784 162308128 165771696 169637264 173983344 178885232 
1183.623 184406896 190593280 197463504 205006016 213176112 221895104 
1186.516 231051488 240503840 250085024 259608240 268874912 277685952 
1189.409 285853472 293211616 299625408 304994784 309254272 312369408 
1192.302 314332288 315157280 314877952 313545152 311224096 307989824 
1195.196 303922816 299104096 293612160 287522816 280910080 273849152 
1198.089 266417296 258693872 250758768 242689424 234560000 226440816 
1200.982 218400128 210506432 202829888 195442496 188416592 181821840 
1203.875 175722048 170172240 165217616 160892144 157219184 154211808 
1206.768 151873472 150198928 149175200 148784112 149003664 149810896 
1209.661 151183088 153097472 155529760 158452912 161834400 165636560 
1212.554 169817696 174335152 179147376 184216320 189506432 194983264 
1215.447 200610208 206345904 212143792 217953296 223721616 229397232 
1218.340 234931104 240277712 245395504 250247600 254802704 259037312 
1221.233 262937136 266497456 269721216 272616064 275190880 277452832 
1224.126 279406368 281054784 282401824 283453472 284219008 284710016 
1227.019 284939776 284921664 284670080 284200928 283532992 282688544 
1229.912 281691584 280566336 279332928 278006336 276595648 275104928 
1232.805 273536160 271891712 270175072 268391872 266548000 264649184 
1235.698 262700944 260708784 258680128 256625472 254557616 252490400 
1238.592 250435120 248397104 246374528 244358832 242336928 240296288 
1241.485 238227616 236127744 233998640 231845152 229670784 227474720 
1244.378 225249984 222983952 220660320 218262512 215776080 213190368 
1247.271 210498432 207696704 204782080 201751088 198599264 195321664 
1250.164 191913600 188372464 184699840 180902208 176991344 172984496 
1253.057 168901168 164763792 160593648 156409808 152228080 148060656 
1255.950 143916704 139803632 135728592 131699384 127724872 123816672 
1258.843 119986880 116249752 112620576 109116472 105755168 102555096 
1261.736 99532344 96699072 94060976 91616704 89357432 87269408 85336704 
1265.111 83543608 81877608 80329728 78894096 77566704 76343936 75221640 
1268.487 74194488 73256008 72398856 71615288 70897336 70238016 69631680 
1271.862 69075648 68570232 68118016 67723056 67388992 67116376 66901980 
1275.237 66738920 66618212 66530860 66470252 66432708 66417172 66424436 
1278.612 66454464 66506072 66576696 66662928 66762224 66873132 66995816 
1281.988 67130592 67277336 67434360 67598712 67767384 67938224 68111368 
1285.363 68288240 68471368 68661944 68858944 69058504 69254720 69440728 
1288.738 69610360 69759056 69883360 69980480 70046312 70075200 70059944 
1292.113 69992880 69867016 69677920 69424864 69111032 68743304 68331512 
1295.489 67887280 67422616 66948892 66475176 66007888 65550208 65103344 
1298.864 64668292 64247504 63847280 63476860 63147680 62869876 62649192 
1302.239 62484712 62368840 62289672 62235280 62198060 62177584 62180104 
1305.614 62216544 62297612 62428656 62606224 62817044 63040568 63252232 
1308.990 63427912 63547628 63597620 63570632 63465028 63283524 63031876 
1312.365 62718892 62355520 61954836 61530736 61097108 60666224 60248348 
1315.740 59850996 59479304 59136484 58824528 58543904 58294092 58072428 
1319.115 57874632 57695076 57528164 57369356 57216220 57068756 56928736 
1322.490 56798652 56679524 56570692 56469520 56372500 56277168 56183572 
1325.866 56095136 56017496 55957528 55919908 55906820 55916300 55943288 
1329.241 55981596 56025252 56069756 56112184 56150340 56181716 56202452 
1332.616 56208880 56197916 56170048 56129472 56084584 56045976 56024688 
1335.991 56028876 56063444 56129628 56226216 56351776 56505640 56687508 
1339.367 56896744 57130800 57384808 57651232 57922316 58191900 58457496 
1342.742 58720280 58983928 59253172 59530480 59815700 60105716 60396104 
1346.117 60682804 60963460 61238132 61506904 61769928 62025448 62269636 
1349.492 62498140 62707864 62898092 63071848 63235572 63396892 63564188 
1352.868 63743608 63939272 64153328 64386256 64638160 64909452 65201604 
1356.243 65518180 65865524 66253820 66697164 67212920 67818392 68527936 
1359.618 69347160 70268464 71268920 72310008 73339824 74298472 75124704 
1362.993 75762544 76167408 76310912 76182296 75789400 75156736 74322184 
1366.369 73333288 72241672 71098120 69947552 68825272 67756064 66754708 
1369.744 65828504 64980096 64210260 63519216 62906100 62367916 61898024 
1373.119 61485496 61115932 60772768 60440356 60106240 59762760 59407272 
1376.494 59041696 58670692 58300536 57937512 57587684 57257424 56953668 
1379.870 56684540 56460016 56290500 56185744 56152460 56192120 56298160 
1383.245 56456232 56643904 56833152 56993804 57097524 57121936 57052180 
1386.620 56882536 56615480 56259356 55825812 55327584 54777028 54186628 
1389.995 53569292 52939456 52312420 51703672 51126204 50589376 50096596 
1393.371 49646536 49234796 48856356 48508940 48193484 47913768 47674772 
1396.746 47479300 47326596 47211764 47128312 47070304 47035776 47028740 
1400.121 47058472 47136652 47274692 47479744 47753776 48093424 48492248 
1403.496 48942772 49438240 49972296 50538552 51127960 51728124 52323468 
1406.872 52896068 53428672 53905768 54316164 54651684 54907900 55082804 
1410.247 55176904 55192896 55136808 55017528 54847076 54639144 54407960 
1413.622 54166852 53928120 53701592 53495356 53313600 53157304 53022524 
1416.997 52901288 52782020 52653344 52506480 52338052 52152048 51958496 
1420.373 51771428 51605184 51473296 51387128 51357640 51395948 51515108 
1423.748 51728756 52049520 52485628 53040004 53709716 54488864 55370488 
1427.123 56350320 57427208 58601836 59874832 61243664 62701268 64235620 
1430.498 65832196 67475320 69150752 70846384 72552880 74263208 75972848 
1433.874 77680184 79385984 81094088 82810856 84544208 86302728 88094224 
1437.249 89926856 91808616 93748728 95758656 97851320 100040648 102341360 
1440.624 104767792 107334104 110054536 112942664 116011128 119269056 
1443.517 122720384 126361416 130181120 134163144 138289024 142543616 
1446.410 146919776 151422656 156070432 160893392 165925584 171190880 
1449.303 176680352 182324704 187966976 193343088 198082544 201736464 
1452.196 203833744 203958464 201826416 197342144 190620080 181968880 
1455.089 171848640 160810976 149434336 138260432 127741544 118203544 
1457.982 109833936 102691408 96734184 91853288 87904880 84734384 82192304 
1461.358 80142632 78467360 77068552 75868248 74807208 73842328 72942928 
1464.733 72086504 71256168 70439504 69627888 68818168 68012880 67220432 
1468.108 66453136 65723600 65041356 64408436 63815804 63242668 62656464 
1471.483 62017684 61286872 60433060 59443120 58327628 57120652 55876028 
1474.859 54656860 53524300 52526888 51693804 51033156 50535864 50182264 
1478.234 49951196 49826048 49799076 49870568 50048016 50341932 50764232 
1481.609 51326768 52042364 52924116 53987044 55248672 56728508 58449116 
1484.984 60436380 62721260 65342112 68349672 71810712 75814064 80471920 
1488.360 85915776 92280712 99677088 108149416 117628736 127890288 138528624 
1491.735 148966416 158502736 166400976 172001248 174835552 174715664 
1494.628 171771760 166430512 159335792 151237968 142876592 134886528 
1497.521 127740008 121731224 116990128 113517568 111222888 109959344 
1500.414 109551720 109815072 110568760 111644160 112890664 114177184 
1503.307 115389280 116427136 117198648 117618040 117605704 117093016 
1506.200 116029760 114391432 112184080 109444112 106233192 102630416 
1509.093 98725144 94609232 90373816 86104704 81880168 77768648 73825568 
1512.469 70092208 66595168 63347808 60352512 57604208 55093076 52807156 
1515.844 50733940 48861084 47176892 45669516 44326352 43134128 42077568 
1519.219 41139992 40304532 39555020 38878048 38263632 37705232 37199788 
1522.594 36745136 36338760 35977376 35655448 35367096 35106928 34871420 
1525.969 34659184 34471548 34310700 34179356 34078812 34007844 33962212 
1529.345 33935012 33917916 33902780 33883256 33856236 33822780 33786424 
1532.720 33752764 33726616 33711192 33706976 33713184 33728752 33754488 
1536.095 33793568 33850884 33930892 34035712 34162440 34303264 34447148 
1539.470 34581796 34698384 34792092 34863268 34915340 34952308 34977288 
1542.846 34991672 34995872 34991232 34981344 34972108 34971096 34984816 
1546.221 35017484 35069704 35139232 35221620 35312920 35410992 35516596 
1549.596 35632284 35762732 35912348 36085440 36284400 36509576 36757880 
1552.971 37022720 37293200 37555768 37795004 37996696 38148380 38242032 
1556.347 38272380 38236696 38133664 37963704 37729532 37437984 37101196 
1559.722 36736004 36361516 35996652 35655380 35346120 35071368 34829968 
1563.097 34619136 34436700 34281980 34154732 34053048 33972256 33903796 
1566.472 33837752 33765288 33681592 33587648 33490274 33400606 33330262 
1569.848 33288944 33281908 33310540 33372976 33466238 33587852 33736428 
1573.223 33912124 34115808 34349332 34614900 34915976 35257920 35648084 
1576.598 36096504 36615480 37219128 37922012 38737080 39671532 40723232 
1579.973 41875192 43092680 44323036 45499068 46547028 47396788 47992472 
1583.349 48301304 48317988 48064816 47588432 46951216 46224144 45477412 
1586.724 44773764 44164004 43684264 43354956 43182784 43160916 43273928 
1590.099 43500856 43819560 44210012 44656468 45149344 45685244 46266652 
1593.474 46902764 47609004 48408012 49328896 50405284 51671520 53157744 
1596.850 54883020 56849144 59034848 61392700 63848092 66302300 68638160 
1600.225 70729648 72453120 73699664 74386344 74464864 73926296 72801072 
1603.600 71155760 69085112 66701120 64121792 61459860 58814008 56263068 
1606.975 53864232 51653680 49649268 47854496 46263380 44863672 43640364 
1610.351 42578040 41660948 40873496 40199824 39623524 39128332 38699636 
1613.726 38324816 37994248 37702200 37445216 37221192 37028548 36864968 
1617.101 36727408 36611364 36512888 36427576 36351544 36281908 36216472 
1620.476 36154384 36096680 36045444 36003448 35972456 35951912 35938316 
1623.852 35925488 35907048 35878280 35839240 35796376 35760848 35746676 
1627.227 35767248 35831408 35942076 36096492 36288860 36513228 36766288 
1630.602 37050304 37372080 37741096 38168084 38661820 39227416 39864296 
1633.977 40565044 41314452 42089140 42858312 43586596 44237568 44778444 
1637.353 45183240 45434140 45522216 45445784 45208852 44821760 44300192 
1640.728 43666916 42950676 42184656 41403172 40637764 39912832 39244724 
1644.103 38640456 38101076 37624072 37207136 36849796 36553472 36318868 
1647.478 36144316 36022928 35942612 35888324 35845268 35801896 35752064 
1650.854 35695128 35634652 35575752 35523660 35481660 35452304 35436512 
1654.229 35436532 35454288 35491416 35547512 35619272 35700064 35781600 
1657.604 35855624 35916228 35961336 35993748 36019408 36045196 36077356 
1660.979 36119072 36171112 36231520 36296820 36363144 36427128 36486100 
1664.354 36538436 36583828 36623328 36659308 36695128 36734328 36779420 
1667.730 36830692 36886176 36940996 36989092 37025160 37045464 37049692 
1671.105 37040108 37020484 36995132 36966848 36936036 36901640 36860872 
1674.480 36810612 36749056 36676032 36592800 36503456 36412904 36327388 
1677.855 36252924 36195196 36157608 36141504 36144748 36162668 36188024 
1681.231 36213564 36233028 36242008 36238924 36225164 36203472 36177612 
1684.606 36151724 36130040 36116204 36113916 36125892 36154360 36199532 
1687.981 36260404 36333600 36415604 36502532 36592816 36686788 36787372 
1691.356 36898440 37023140 37162788 37315460 37476376 37638528 37794720 
1694.732 37939020 38068516 38184128 38291176 38396984 38510272 38638920 
1698.107 38789180 38964524 39165700 39391864 39640436 39908908 40195408 
1701.482 40498964 40819660 41158196 41515204 41891556 42288028 42706452 
1704.857 43149460 43621908 44129572 44678024 45272244 45914788 46605828 
1708.233 47343844 48126704 48954228 49828488 50755664 51744280 52805084 
1711.608 53947164 55177668 56501324 57919128 59431440 61038652 62743844 
1714.983 64553460 66477388 68527760 70715952 73050200 75533416 78161832 
1718.358 80926208 83813792 86812008 89910168 93100024 96377000 99736200 
1721.734 103170880 106669968 110217080 113790496 117365104 120913160 
1724.627 124405976 127814736 131110744 134265888 137253744 140049904 
1727.520 142634304 144988768 147097520 148945088 150515232 151790416 
1730.413 152755248 153398000 153713520 153704048 153376064 152738384 
1733.306 151797840 150557296 149018464 147183472 145060560 142663728 
1736.199 140014272 137136048 134051744 130780728 127338888 123740552 
1739.092 120003752 116152104 112218544 108241984 104265336 100330928 
1741.985 96478136 92740552 89147576 85723240 82488248 79459240 76649312 
1745.360 74066336 71713664 69589480 67687736 66000760 64519696 63236348 
1748.736 62144008 61235592 60503860 59939848 59533136 59272108 59146776 
1752.111 59150572 59280524 59537476 59925120 60447588 61107140 61903564 
1755.486 62834904 63896900 65087652 66407600 67862800 69464368 71229336 
1758.861 73178440 75333720 77715648 80339208 83211192 86328496 89679128 
1762.237 93244808 97003416 100934512 105019984 109243696 113589552 118037056 
1765.612 122557392 127112136 131653416 136128496 140483584 144669888 
1768.505 148646672 152382240 155852624 159038992 161923312 164486496 
1771.398 166706848 168562304 170032096 171101024 171762448 172020288 
1774.291 171889360 171393632 170563488 169432528 168034240 166398624 
1777.184 164550064 162505792 160275904 157865552 155275792 152508912 
1780.077 149570304 146472112 143232432 139874832 136426560 132913392 
1782.970 129358304 125778960 122187072 118589984 114993192 111402592 
1785.863 107825816 104274560 100762072 97303104 93910728 90595152 87362832 
1789.239 84216960 81158672 78189992 75314888 72540312 69874616 67326256 
1792.614 64901160 62602780 60430612 58383084 56458016 54654612 52971864 
1795.989 51408836 49962048 48626944 47396524 46265948 45231388 44291764 
1799.364 43445572 42688588 42010628 41395424 40823224 40276152 39743180 
1802.740 39222988 38723716 38257944 37835552 37459208 37121236 36807168 
1806.115 36501028 36192088 35878784 35568820 35275672 35011744 34783156 
1809.490 34586968 34411528 34239724 34053952 33839120 33586080 33291574 
1812.865 32959386 32598856 32226536 31863392 31532894 31257872 31055198 
1816.240 30932196 30885510 30902284 30963842 31052256 31152496 31255000 
1819.616 31353046 31440850 31509004 31546100 31540450 31482712 31369652 
1822.991 31204458 30996430 30759636 30509712 30264896 30042760 29862156 
1826.366 29737216 29676012 29673850 29711414 29755980 29768736 29714544 
1829.741 29573166 29345602 29055760 28741714 28446056 28201740 28025986 
1833.117 27916286 27856118 27821594 27789634 27744182 27676286 27584684 
1836.492 27471812 27341514 27200398 27054946 26913412 26784116 26675438 
1839.867 26590914 26531380 26493566 26472128 26462472 26461766 26469006 
1843.242 26484576 26507038 26534308 26561464 26583384 26595070 26593042 
1846.618 26574874 26538290 26481124 26401530 26299996 26181656 26055856 
1849.993 25936722 25837172 25767088 25726548 25708602 25698060 25680092 
1853.368 25643666 25587372 25519382 25455864 25414260 25408492 25444102 
1856.743 25517124 25614454 25719466 25814368 25888020 25935764 25964760 
1860.119 25991604 26041250 26140534 26311432 26564808 26894306 27274410 
1863.494 27666822 28026372 28314160 28505342 28596708 28604548 28560886 
1866.869 28499838 28451384 28431810 28443958 28480410 28530480 28588854 
1870.244 28659262 28754424 28890826 29080332 29322962 29601880 29885732 
1873.620 30135152 30314840 30404394 30405568 30341850 30250822 30169942 
1876.995 30123744 30114310 30122240 30113888 30058904 29941032 29770724 
1880.370 29580210 29413796 29310782 29290700 29343842 29435876 29519032 
1883.745 29549822 29503664 29384014 29219458 29055240 28936544 28898290 
1887.121 28951860 29085278 29265268 29445706 29576824 29617864 29544080 
1890.496 29356576 29081586 28768256 28477730 28269376 28186878 28248204 
1893.871 28439526 28723470 29046208 29354264 29602352 29762750 29822318 
1897.246 29781340 29647456 29436548 29168880 28874380 28587200 28343630 
1900.622 28171616 28085178 28078416 28129154 28206204 28281204 28335952 
1903.997 28364736 28369632 28353368 28307234 28215076 28055248 27816832 
1907.372 27507150 27159480 26827718 26571016 26434036 26431366 26538870 
1910.747 26700630 26840260 26884650 26778880 26499340 26055048 25485040 
1914.123 24847246 24210346 23643336 23207278 22949688 22898220 23052848 
1917.498 23386526 23844022 24352118 24830770 25208778 25436160 25496470 
1920.873 25402612 25201370 24954536 24729966 24583346 24546854 24621406 
1924.248 24780782 24975676 25155190 25274398 25312100 25266460 25155124 
1927.624 24997552 24808610 24586048 24314224 23973734 23553954 23066460 
1930.999 22549826 22066170 21691462 21493284 21519804 21784486 22262662 
1934.374 22896098 23601784 24283918 24851908 25232522 25386412 25313352 
1937.749 25054508 24680412 24276084 23920998 23670248 23544442 23536476 
1941.125 23615804 23751346 23916038 24096928 24291724 24499254 24711506 
1944.500 24915750 25090924 25220128 25290020 25296754 25239014 25118966 
1947.875 24938654 24711228 24465276 24257426 24164042 24268426 24630274 
1951.250 25261364 26100862 27024996 27863652 28443782 28626730 28336444 
1954.625 27571468 26394542 24910840 23253280 21559122 19973664 18638366 
1958.001 17684702 17216604 17286482 17869396 18860608 20087510 21348218 
1961.376 22448984 23243434 23647192 23647188 23285640 22656360 21886142 
1964.751 21126726 20533214 20239622 20323972 20783846 21514772 22343970 
1968.126 23070788 23543288 23705194 23626666 23477530 23466296 23749020 
1971.502 24377414 25259010 26200142 26960466 27351614 27296042 26868044 
1974.877 26256184 25729440 25546656 25895654 26839018 28296044 30060070 
1978.252 31843316 33333498 34286020 34548276 34104540 33050254 31577956 
1981.627 29924662 28339116 27019640 26105320 25647754 25631370 25984282 
1985.003 26614272 27421562 28316062 29204286 30007680 30642362 31044542 
1988.378 31165242 30990614 30535588 29849208 28991388 28031670 27025460 
1991.753 26014844 25021306 24054096 23114844 22208828 21343492 20543436 
1995.128 19839640 19271014 18867392 18637250 18550286 18542932 18514336 
1998.504 18371422 18054518 17577142 17028576 16562236 16343880 16497836 
2001.879 17051422 17919872 18920276 19835242 20475252 20758294 20731722 
2005.254 20574652 20532106 20843214 21643206 22910422 24447316 25929922 
2008.629 26987792 27313388 26742230 25320768 23291368 21050828 19040198 
2012.005 17640206 17053174 17256138 17994396 18880204 19510876 19612624 
2015.380 19122026 18196906 17137772 16270272 15813442 15815724 16142299 
2018.755 16572341 16886296 16976836 16882756 16755825 16775252 17067894 
2022.130 17641200 18393258 19150622 19750994 20076056 20096416 19821310 
2025.506 19297530 18555774 17633160 16574819 15474934 14468384 13712582 
2028.881 13323749 13339272 13680557 14197187 14712104 15114589 15397485 
2032.256 15662577 16058791 16710032 17635320 18744356 19858130 20802318 
2035.631 21475990 21894650 22163686 22436176 22825036 23365238 24000118 
2039.007 24618994 25110118 25414264 25537992 25556554 25557512 25615286 
2042.382 25747688 25928336 26097862 26210376 26246072 26245284 26285184 
2045.757 26468244 26885560 27595670 28598372 29829522 31152962 32398154 
2049.132 33376704 33941504 34010812 33598292 32796208 31764400 30679758 
2052.508 29715172 28998302 28594244 28499422 28648018 28934672 29245404 
2055.883 29473722 29544012 29410002 29057126 28497548 27773852 26953882 
2059.258 26131340 25405986 24872546 24593608 24589602 24829538 25245532 
2062.633 25747142 26246514 26671792 26980608 27151030 27183610 27084998 
2066.009 26872990 26573346 26228102 25888896 25620654 25480106 25506850 
2069.384 25709054 26062596 26515056 27003720 27465412 27855898 28147184 
2072.759 28333874 28420000 28422074 28362510 28275820 28202656 28194800 
2076.134 28299438 28547436 28940276 29442698 29985906 30484234 30853966 
2079.510 31037162 31012478 30800542 30449848 30022704 29578100 29159596 
2082.885 28789324 28476584 28219738 28014114 27851474 27722626 27608190 
2086.260 27482612 27311664 27066210 26724886 26287240 25771004 25210338 
2089.635 24645078 24111412 23629496 23206474 22835186 22508072 22220928 
2093.010 21984392 21822196 21767462 21850872 22092976 22490228 23017802 
2096.386 23624320 24247210 24819606 25287624 25613930 25792986 25843914 
2099.761 25810920 25746698 25704068 25719064 25804758 25946028 26111108 
2103.136 26256502 26344150 26350690 26276278 26138676 25973972 25817482 
2106.511 25702358 25645272 25649278 25699316 25770296 25831672 25855406 
2109.887 25817524 25710158 25535444 25311414 25062678 24817490 24598212 
2113.262 24418150 24274424 24154814 24040134 23912246 23760508 23583336 
2116.637 23388916 23191290 23003398 22835386 22689412 22562462 22447852 
2120.012 22338304 22226280 22107376 21975400 21827550 21658052 21464612 
2123.388 21242612 20988888 20696032 20355350 19951816 19472822 18905912 
2126.763 18253210 17527978 16760135 15987279 15249781 14573243 13970461 
2130.138 13434824 12953808 12515407 12125673 11808259 11604994 11557597 
2133.513 11700436 12036522 12541822 13167505 13857371 14561356 15248271 
2136.889 15896315 16491676 17006162 17398938 17617258 17619858 17396260 
2140.264 16986774 16475700 15978031 15595424 15387842 15339991 15369142 
2143.639 15349275 15159416 14724033 14055584 13243527 12439452 11791634 
2147.014 11411609 11321980 11468030 11721636 11945207 12016342 11874524 
2150.390 11514369 10982563 10347177 9681539 9026376 8405568 7804317 7197791 
2154.247 6540214 5800477 4975133 4128270 3399660 3038115 3359219 4681632 
2158.104 7198891 10869782 15343185 20024038 24218364 27373658 29208138 
2161.480 29772832 29375774 28452974 27429730 26609394 26114818 25912958 
2164.855 25862180 25812928 25661662 25393102 25047304 24700304 24382026 
2168.230 24086924 23751478 23297612 22664510 21845440 20889872 19905100 
2171.605 19000210 18290142 17841340 17697098 17858506 18321880 19061396 
2174.981 20046676 21214358 22470886 23687262 24714916 25413258 25679542 
2178.356 25472262 24830704 23853208 22702812 21561958 20613368 20012104 
2181.731 19867030 20224930 21077082 22347222 23918070 25626304 27292470 
2185.106 28729504 29776210 30318804 30322870 29839586 29009700 28026286 
2188.482 27102628 26408522 26041490 26002556 26210574 26531432 26832964 
2191.857 27018304 27057060 26970848 26814944 26633508 26439392 26197470 
2195.232 25853040 25355640 24703404 23955344 23225978 22654310 22360122 
2198.607 22397914 22746892 23309334 23954928 24557844 25041838 25391818 
2201.983 25652218 25889330 26163650 26487030 26825592 27100776 27224022 
2205.358 27130896 26811190 26314032 25744062 25225770 24872520 24748140 
2208.733 24860706 25153582 25541996 25929298 26252640 26488408 26661420 
2212.108 26820970 27017554 27274458 27575460 27857648 28044400 28061990 
2215.484 27875922 27498586 26998416 26474442 26035508 25765266 25709646 
2218.859 25864968 26196416 26647492 27168126 27727952 28324408 28969504 
2222.234 29686134 30482186 31344968 32232716 33082768 33830556 34428256 
2225.609 34856240 35140780 35339132 35533700 35803432 36222560 36836436 
2228.985 37684892 38791824 40192012 41916928 43993172 46416320 49135888 
2232.360 52046032 55000276 57833496 60411004 62643312 64512604 66044368 
2235.735 67285608 68263488 68968232 69349216 69346728 68921120 68084704 
2239.110 66907376 65499352 63976744 62428428 60890160 59355532 57790984 
2242.486 56174560 54512760 52849028 51243728 49750344 48385016 47124884 
2245.861 45914048 44696192 43439744 42154608 40887260 39701156 38645220 
2249.236 37738532 36962196 36282332 35666220 35112872 34652968 34342692 
2252.611 34230780 34337144 34629816 35031896 35436864 35742508 35876416 
2255.987 35814768 35574704 35206532 34766728 34307268 33860448 33446562 
2259.362 33073782 32749068 32476880 32261926 32101900 31989198 31910614 
2262.737 31854302 31812370 31788472 31792916 31842158 31946070 32108434 
2266.112 32317206 32550790 32782820 32986712 33139742 33229344 33250324 
2269.488 33205594 33105702 32971774 32829416 32718208 32675200 32739416 
2272.863 32934140 33265770 33713868 34238168 34785132 35302780 35748036 
2276.238 36101916 36361916 36540740 36650276 36695084 36666424 36550612 
2279.613 36340180 36050664 35726944 35444324 35286828 35326412 35593396 
2282.989 36062040 36650192 37241748 37715488 37981964 38005084 37809472 
2286.364 37467636 37074972 36719176 36459608 36314324 36267312 36279120 
2289.739 36306356 36314396 36285360 36214972 36108896 35974836 35818128 
2293.114 35640520 35441920 35225868 35001040 34781204 34587144 34438012 
2296.490 34352780 34339908 34399828 34519664 34677804 34844464 34991260 
2299.865 35094800 35144236 35143080 35109292 35069964 35054484 35086316 
2303.240 35179980 35334720 35539536 35771860 36006224 36215552 36375952 
2306.615 36470256 36490884 36441184 36336992 36203492 36071868 35972320 
2309.990 35928264 35950600 36037388 36174304 36341488 36517324 36683492 
2313.366 36825980 36938068 37017052 37067176 37098612 37127520 37174504 
2316.741 37259188 37395144 37584644 37817724 38077676 38349208 38630020 
2320.116 38934032 39288460 39720016 40235256 40803596 41352112 41775516 
2323.491 41961680 41822544 41320024 40479508 39384188 38155552 36927836 
2326.867 35818688 34908476 34230708 33774432 33496656 33342302 33260736 
2330.242 33217516 33195742 33192952 33213790 33261534 33336140 33432752 
2333.617 33542908 33659840 33776424 33889548 33998248 34103632 34207952 
2336.992 34313516 34419780 34523604 34615448 34683368 34712652 34692692 
2340.368 34620172 34502932 34357492 34206232 34069784 33962028 33884572 
2343.743 33829484 33782328 33730572 33665552 33588688 33507466 33430874 
2347.118 33365418 33311602 33263784 33214662 33158206 33093598 33025120 
2350.493 32960304 32906246 32865528 32834922 32806888 32771912 32723796 
2353.869 32660854 32587002 32508540 32433842 32368452 32313522 32266136 
2357.244 32220512 32168902 32104850 32022562 31919268 31795144 31654284 
2360.619 31502814 31349220 31200654 31062462 30935846 30817016 30700816 
2363.994 30583614 30465726 30354670 30262782 30204528 30189206 30218934 
2367.370 30283742 30366262 30444380 30500942 30527526 30527678 30514148 
2370.745 30504254 30512402 30545638 30600592 30667224 30730480 30777970 
2374.120 30800830 30796956 30768996 30722050 30661620 30593620 30523170 
2377.495 30456666 30400034 30359132 30337198 30332716 30338780 30345654 
2380.871 30341408 30319684 30279748 30230774 30188364 30171710 30195456 
2384.246 30266714 30379660 30517074 30654396 30765810 30832064 30845954 
2387.621 30814446 30757014 30698170 30661810 30661638 30698490 30759264 
2390.996 30823650 30868636 30878210 30847198 30783424 30701822 30620842 
2394.372 30553892 30507830 30480628 30467472 30462404 30465672 30481288 
2397.747 30517606 30580364 30669582 30775710 30883772 30973942 31031626 
2401.122 31049084 31029498 30983582 30928466 30880054 30851062 30849620 
2404.497 30879110 30941116 31035738 31160706 31311124 31476904 31643924 
2407.873 31794996 31915374 31995740 32036796 32049626 32052584 32065586 
2411.248 32105274 32179016 32284268 32408450 32534260 32643304 32721366 
2414.623 32757946 32749790 32696466 32599852 32462742 32289170 32084924 
2417.998 31861968 31635582 31427410 31260814 31160254 31142258 31215880 
2421.374 31375494 31604982 31874802 32149684 32391782 32568424 32655764 
2424.749 32644690 32541040 32366988 32156012 31948730 31784002 31693500 
2428.124 31692992 31780802 31939324 32139416 32347758 32536872 32687790 
2431.499 32794568 32859508 32889466 32889586 32860752 32800720 32707628 
2434.875 32584644 32446648 32315686 32218724 32178078 32203172 32284896 
2438.250 32398310 32507862 32579958 32591566 32538820 32435264 32307748 
2441.625 32185454 32092474 32039258 32024894 32038056 32064576 32093022 
2445.000 32118224 32139420 32161958 32189858 32228038 32278192 32341820 
2448.375 32419938 32513660 32621138 32736630 32846048 32931480 32973148 
2451.751 32954578 32871648 32737400 32577890 32432090 32337374 32322604 
2455.126 32396958 32549594 32750394 32959700 33137712 33254672 33295140 
2458.501 33261090 33166248 33033054 32885124 32744624 32628730 32548774 
2461.876 32510326 32512744 32548382 32604984 32667502 32722294 32758764 
2465.252 32774180 32769304 32749340 32717064 32669950 32601484 32503322 
2468.627 32371502 32213252 32046794 31900942 31805896 31785290 31847500 
2472.002 31985764 32177940 32398254 32620900 32827106 33004004 33143450 
2475.377 33234068 33266604 33230428 33125952 32967858 32786958 32625244 
2478.753 32521118 32498234 32553502 32656300 32760344 32816708 32795872 
2482.128 32694924 32539594 32374234 32245784 32186240 32206654 32295018 
2485.503 32424670 32565582 32693062 32792326 32856106 32881006 32866552 
2488.878 32812566 32723710 32611180 32494962 32398448 32342714 32339110 
2492.254 32385352 32466166 32561318 32651652 32729682 32797854 32868866 
2495.629 32954406 33062142 33187080 33317864 33436768 33530806 33592004 
2499.004 33622064 33626840 33614272 33588972 33555192 33515506 33475034 
2502.379 33443178 33432006 33451278 33505626 33587984 33683040 33768040 
2505.755 33821976 33830368 33791816 33716572 33625968 33542700 33486660 
2509.130 33469524 33491392 33542510 33607280 33667964 33711760 33731708 
2512.505 33733028 33727140 33729404 33753572 33805412 33878588 33957900 
2515.880 34020988 34049016 34032912 33979460 33908268 33849352 33831220 
2519.256 33874196 33981604 34141352 34329092 34516944 34680912 34806748 
2522.631 34889248 34932764 34944964 34933420 34903744 34859716 34802708 
2526.006 34734112 34655640 34568068 34471836 34370376 34269324 34180432 
2529.381 34120380 34109856 34166168 34297936 34496752 34738780 34985112 
2532.757 35192504 35325304 35365836 35318028 35209156 35076324 34958372 
2536.132 34881320 34853856 34866296 34899392 34930584 34947296 34946724 
2539.507 34938160 34933676 34942652 34967012 34998156 35021836 35026304 
2542.882 35004076 34958876 34900080 34841008 34789752 34749344 34716588 
2546.258 34687208 34661476 34649932 34669116 34741272 34882132 35096896 
2549.633 35370732 35674404 35965516 36201012 36343424 36370476 36275452 
2553.008 36070552 35781556 35447268 35111652 34821336 34615368 34520652 
2556.383 34543672 34670616 34866528 35087976 35291184 35447144 35544868 
2559.759 35593512 35613792 35629436 35653580 35688860 35726084 35754988 
2563.134 35770312 35779404 35800172 35853852 35953452 36096824 36264144 
2566.509 36425136 36549564 36621128 36642416 36635940 36632084 36658928 
2569.884 36727492 36829520 36939000 37026940 37070616 37066908 37031024 
2573.260 36992228 36978712 37007244 37073600 37154364 37214348 37222548 
2576.635 37161476 37037708 36878252 36724588 36616868 36584072 36633480 
2580.010 36752676 36912660 37081124 37228532 37340376 37415020 37464836 
2583.385 37506960 37559188 37632076 37728812 37842964 37963172 38074664 
2586.760 38163876 38219048 38234688 38208544 38145648 38056120 37955368 
2590.136 37860096 37788060 37751852 37758788 37805600 37882720 37972852 
2593.511 38057056 38117920 38145100 38137328 38104572 38065832 38047280 
2596.886 38073836 38165192 38328460 38556648 38826492 39106124 39359780 
2600.261 39558812 39686712 39742804 39739648 39697888 39638532 39577360 
2603.637 39521084 39470960 39423220 39375916 39330732 39292772 39269380 
2607.012 39266712 39287936 39333752 39403032 39495172 39609180 39744292 
2610.387 39895496 40053404 40202432 40324888 40405692 40436660 40420968 
2613.762 40371896 40308620 40250792 40212348 40200544 40215056 40253360 
2617.138 40312612 40393732 40498960 40629604 40781700 40945024 41103484 
2620.513 41240136 41341100 41400588 41421892 41416088 41397480 41380208 
2623.888 41374116 41385048 41412680 41455012 41507104 41563728 41618656 
2627.263 41667108 41705812 41737124 41767736 41809272 41873884 41969884 
2630.639 42098296 42249016 42403872 42541612 42644016 42702988 42723400 
2634.014 42720348 42716388 42732456 42782692 42872756 42997764 43146412 
2637.389 43305308 43461632 43606056 43732180 43835472 43914820 43968376 
2640.764 43997864 44005624 43996008 43974204 43944476 43910272 43874236 
2644.140 43837276 43800948 43766408 43736600 43713060 43696884 43686996 
2647.515 43679732 43672104 43661372 43647356 43633696 43626672 43634612 
2650.890 43664532 43720196 43800160 43897492 44000708 44095112 44166240 
2654.265 44202232 44195820 44146076 44059116 43945872 43819808 43694536 
2657.641 43581116 43485316 43408596 43347496 43296168 43247840 43196476 
2661.016 43136484 43064760 42978552 42876748 42759816 42630116 42493432 
2664.391 42356900 42229020 42117876 42029144 41965468 41925152 41904324 
2667.766 41897328 41899216 41906144 41916376 41928808 41942800 41958084 
2671.142 41972536 41983236 41987140 41982136 41967488 41945120 41919256 
2674.517 41896580 41884564 41889732 41916212 41964024 42028232 42100368 
2677.892 42169500 42224576 42257852 42266104 42250232 42214464 42166148 
2681.267 42110548 42052440 41994764 41937912 41883336 41831688 41786388 
2684.643 41750100 41725976 41715760 41721032 41740332 41771720 41812344 
2688.018 41858896 41906936 41953240 41994380 42028056 42052964 42070204 
2691.393 42080700 42086296 42087360 42084076 42075888 42061312 42041168 
2694.768 42016944 41992720 41972640 41960800 41958208 41963484 41972656 
2698.144 41981636 41986544 41985804 41982268 41978268 41977512 41981384 
2701.519 41989344 41998416 42006008 42010340 42013472 42019668 42036076 
2704.894 42068372 42119812 42188924 42269412 42351128 42423768 42478480 
2708.269 42512000 42526268 42528440 42527812 42533340 42549840 42577156 
2711.645 42610808 42643260 42667428 42680232 42683068 42680952 42681816 
2715.020 42691832 42713860 42746928 42786336 42826596 42862868 42892788 
2718.395 42917304 42937060 42951956 42961536 42962144 42952180 42932404 
2721.770 42906804 42883452 42871032 42875528 42898192 42933020 42970208 
2725.146 42998028 43008160 42998728 42973824 42942076 42913496 42895776 
2728.521 42893148 42904656 42927432 42957616 42992780 43030488 43068584 
2731.896 43103492 43129040 43140028 43132152 43106416 43069668 43034240 
2735.271 43014384 43021224 43060292 43128236 43213332 43300144 43373352 
2738.646 43422584 43445188 43445600 43433460 43419640 43413244 43418704 
2742.022 43435768 43460180 43486288 43508552 43523552 43528568 43523756 
2745.397 43509324 43486772 43457792 43425600 43393376 43365024 43343180 
2748.772 43328964 43321548 43316768 43309812 43296332 43274144 43245624 
2752.147 43216612 43196472 43194308 43217472 43268276 43343328 43434292 
2755.523 43529572 43617864 43689996 43742932 43777864 43801068 43820956 
2758.898 43845396 43879712 43924648 43975776 44026632 44069720 44100676 
2762.273 44120148 44133644 44151696 44185148 44242272 44324684 44426144 
2765.648 44534120 44632812 44708428 44752944 44766544 44756644 44735112 
2769.024 44714060 44703744 44709624 44734364 44778636 44843620 44930256 
2772.399 45039324 45168968 45313052 45462848 45606012 45733768 45840864 
2775.774 45928496 46002696 46070808 46139320 46208532 46275272 46333912 
2779.149 46379268 46411624 46435376 46458744 46489588 46531656 46583204 
2782.525 46637180 46683212 46714872 46729296 46731732 46731864 46741108 
2785.900 46769348 46821200 46894468 46982264 47074892 47162756 47237968 
2789.275 47298020 47343104 47378112 47409656 47445068 47490584 47549676 
2792.650 47622076 47705852 47795924 47886604 47974324 48056500 48132920 
2796.026 48203388 48267716 48325116 48376084 48421268 48467048 48521728 
2799.401 48596400 48699492 48834484 48997268 49175400 49352828 49513140 
2802.776 49646232 49749684 49830336 49900272 49973240 50060844 50170280 
2806.151 50304760 50463912 50646292 50847976 51062752 51282196 51493300 
2809.527 51682844 51839560 51959416 52047732 52119160 52194116 52292936 
2812.902 52428644 52606664 52821260 53060008 53309408 53557760 53798844 
2816.277 54032916 54261652 54489724 54720444 54958012 55208120 55478680 
2819.652 55779700 56121868 56512976 56955548 57444956 57969908 58516136 
2823.028 59069068 59617916 60159124 60694944 61233916 61788256 62372784 
2826.403 63002424 63690604 64448088 65283144 66199148 67194224 68262360 
2829.778 69393184 70575160 71796736 73049480 74329000 75635128 76972616 
2833.153 78349408 79774048 81255440 82798384 84405384 86074648 87802904 
2836.529 89587384 91428072 93330888 95306440 97368616 99530304 101800296 
2839.904 104177232 106653664 109215160 111847176 114540096 117295208 
2842.797 120125000 123054096 126112464 129331816 132737264 136341440 
2845.690 140138160 144096672 148157776 152230144 156193632 159906320 
2848.583 163215936 165980448 168084928 169457488 170079696 169984816 
2851.476 169248304 167974544 166276272 164265248 162037872 159677120 
2854.369 157247600 154801936 152379216 150007792 147705296 145478144 
2857.262 143326416 141245584 139232864 137289936 135424384 133648112 
2860.155 131972704 130406592 128950584 127598200 126337840 125156520 
2863.048 124043792 122994320 122009496 121094456 120255512 119498304 
2865.941 118823504 118228040 117703760 117241104 116829016 116457280 
2868.834 116117280 115803216 115511552 115242216 114995976 114776224 
2871.728 114586032 114428144 114303512 114210128 114145816 114106968 
2874.621 114091552 114101208 114141736 114223208 114357760 114557240 
2877.514 114830072 115178520 115596816 116073608 116594568 117144848 
2880.407 117715208 118305200 118922120 119581312 120300368 121096392 
2883.300 121979096 122949872 124000992 125117616 126281392 127474608 
2886.193 128684384 129903080 131129816 132368328 133625656 134910416 
2889.086 136229200 137587648 138986640 140423328 141889904 143375328 
2891.979 144866384 146351280 147820752 149271904 150705984 152129456 
2894.872 153549872 154974032 156406288 157849424 159306032 160782032 
2897.765 162287664 163837232 165447616 167134112 168906560 170768000 
2900.658 172713760 174735536 176823600 178971168 181175808 183438560 
2903.551 185764480 188159728 190631776 193188640 195841696 198602496 
2906.444 201483296 204495232 207642992 210927392 214344176 217889056 
2909.337 221561936 225371680 229334272 233469840 237793840 242309072 
2912.230 246998224 251822112 256720336 261620528 266443696 271113472 
2915.124 275558528 279717664 283536480 286970464 289984736 292555168 
2918.017 294670176 296329952 297543200 298326400 298695776 298668928 
2920.910 298263968 297499744 296402848 295007232 293354048 291489408 
2923.803 289459392 287303968 285055712 282737536 280363488 277943424 
2926.696 275484736 272994528 270482912 267962640 265447792 262954688 
2929.589 260495728 258079104 255703744 253359136 251026272 248682064 
2932.482 246305808 243886384 241426352 238942240 236457536 233997424 
2935.375 231578704 229204864 226865488 224540080 222206064 219846608 
2938.268 217453504 215029904 212585968 210134848 207687424 205251344 
2941.161 202828896 200419776 198022976 195638752 193269792 190921728 
2944.054 188603216 186326048 184101616 181940400 179847376 177819760 
2946.947 175846720 173911744 171997264 170091520 168192960 166310288 
2949.840 164459696 162657536 160912880 159222032 157570880 155938560 
2952.733 154306560 152666112 151020992 149385872 147778704 146214896 
2955.626 144701632 143236992 141814960 140429056 139078192 137767072 
2958.520 136504000 135295824 134143592 133040872 131975960 130934640 
2961.413 129904720 128878224 127852112 126826016 125801264 124780504 
2964.306 123768112 122770592 121797424 120857600 119957144 119094656 
2967.199 118259416 117435144 116600696 115740824 114847368 113923008 
2970.092 112977464 112025200 111079040 110148552 109237928 108348232 
2972.985 107478592 106627008 105788912 104956216 104116544 103255280 
2975.878 102361432 101429552 100465648 99484816 98507192 97549792 96622376 
2979.253 95723080 94840624 93961448 93075912 92182880 91291024 90413704 
2982.628 89563416 88746536 87960608 87197656 86448008 85707040 84977864 
2986.004 84270320 83597128 82969224 82391440 81861392 81370816 80909680 
2989.379 80468576 80042880 79633616 79245840 78888808 78575360 78318544 
2992.754 78131808 78026768 78010056 78082864 78239168 78467936 78756480 
2996.129 79093616 79473008 79894888 80363280 80883872 81459512 82085632 
2999.505 82751008 83434800 84111520 84750936 85322560 85798376 86154088 
3002.880 86372104 86443616 86369008 86157000 85824280 85391280 84879440 
3006.255 84310904 83703768 83075728 82441624 81816664 81213968 80646256 
3009.630 80124216 79657744 79255536 78926224 78679528 78525432 78473240 
3013.006 78530008 78699808 78985912 79389976 79917528 80578568 81386976 
3016.381 82360208 83512888 84856224 86392704 88118624 90023944 92097232 
3019.756 94326192 96697704 99194896 101794496 104461824 107153696 109816632 
3023.131 112393560 114827144 117066280 119065272 120785800 122197632 
3026.024 123275784 124000248 124357968 124340280 123946760 123184456 
3028.917 122069080 120627592 118897776 116929304 114781280 112516664 
3031.811 110195440 107867256 105567440 103313440 101109176 98951320 96835392 
3035.186 94763848 92745320 90794568 88927192 87156584 85489728 83929272 
3038.561 82474240 81123712 79876520 78732016 77685824 76728856 75847344 
3041.936 75025648 74249968 73514264 72821472 72182608 71613392 71127808 
3045.312 70734120 70434496 70225328 70101888 70060920 70104280 70235168 
3048.687 70458144 70772984 71176256 71658288 72208728 72818288 73482816 
3052.062 74202952 74983408 75828376 76740376 77715840 78745224 79813464 
3055.437 80902760 81993384 83066592 84104384 85091464 86013504 86858232 
3058.813 87611872 88260608 88788904 89180176 89417216 89484792 89371288 
3062.188 89071032 88586056 87927184 87114536 86175624 85145744 84063336 
3065.563 82967976 81895240 80871504 79909432 79007944 78153568 77326960 
3068.938 76510312 75695944 74889816 74111888 73389632 72749224 72206488 
3072.313 71762848 71403840 71106768 70849968 70620720 70421200 70265336 
3075.689 70175392 70170392 70259712 70439336 70693088 70998056 71332992 
3079.064 71682504 72041392 72409504 72788488 73173640 73548976 73887496 
3082.439 74155080 74315776 74340904 74214504 73935688 73514856 72971400 
3085.814 72324080 71587560 70770360 69874976 68903336 67861288 66762508 
3089.190 65628304 64487412 63368508 62297392 61290908 60356984 59495392 
3092.565 58700556 57966188 57286876 56660628 56088252 55572260 55117316 
3095.940 54728204 54409476 54164336 53993600 53892500 53851424 53856172 
3099.315 53891804 53944980 54008640 54083776 54176472 54294872 54442652 
3102.691 54612640 54788488 54943192 55047712 55078448 55023132 54882064 
3106.066 54668836 54403176 54105448 53792908 53474672 53154912 52834692 
3109.441 52513500 52191956 51871040 51552128 51234584 50916064 50595376 
3112.816 50271448 49947300 49629540 49327924 49053132 48813412 48614548 
3116.192 48458444 48344044 48269752 48231076 48223132 48239252 48268880 
3119.567 48299904 48318188 48311300 48271404 48196024 48089000 47959872 
3122.942 47820012 47679892 47546288 47422948 47309328 47204588 47107436 
3126.317 47018396 46937932 46867088 46804168 46746476 46688016 46621828 
3129.693 46543380 46450744 46347352 46240284 46139320 46053884 45991088 
3133.068 45952316 45937052 45939504 45953120 45973184 45996704 46024620 
3136.443 46059004 46102420 46155632 46215752 46276312 46327108 46357356 
3139.818 46358448 46326604 46265568 46186872 46108896 46051784 46033660 
3143.194 46067108 46153040 46283824 46442244 46607212 46758864 46880804 
3146.569 46963084 47001680 46996368 46949808 46866092 46752572 46620012 
3149.944 46485600 46369932 46296468 46284116 46342180 46465100 46631608 
3153.319 46811048 46967540 47071732 47108140 47079740 47007076 46922604 
3156.695 46862452 46855540 46917476 47046232 47224012 47421680 47608048 
3160.070 47755268 47847228 47880564 47864648 47816516 47757092 47704260 
3163.445 47670956 47663456 47681896 47723796 47784376 47857372 47934500 
3166.820 48004048 48050700 48058232 48012284 47906640 47748024 47555040 
3170.196 47356684 47185260 47067188 47016820 47032564 47098120 47188608 
3173.571 47277720 47345080 47380252 47383744 47363716 47332032 47300992 
3176.946 47279088 47272644 47283628 47311512 47354108 47407516 47466280 
3180.321 47524408 47577972 47624020 47663204 47697824 47730372 47761736 
3183.697 47790476 47812892 47824940 47824860 47813096 47795632 47779588 
3187.072 47773264 47783872 47814948 47868540 47944468 48041424 48156576 
3190.447 48285012 48417440 48542032 48644440 48713132 48742948 48737600 
3193.822 48711532 48683152 48671644 48688856 48735680 48801164 48866456 
3197.198 48912340 48924212 48898884 48843352 48773544 48707328 48659436 
3200.573 48638216 48643124 48666708 48699312 48729280 48748048 48749892 
3203.948 48732596 48697276 48648520 48594148 48545024 48514044 48515184 
3207.323 48558128 48647532 48779120 48940048 49110512 49268044 49391592 
3210.698 49469432 49500120 49493884 49470104 49450952 49456172 49497128 
3214.074 49573076 49672880 49777576 49867516 49925788 49944656 49924964 
3217.449 49875876 49809992 49740988 49679156 49631112 49599308 49584076 
3220.824 49585084 49601356 49633444 49680248 49740460 49810420 49885488 
3224.199 49960928 50031728 50093812 50144604 50182232 50204140 50208208 
3227.575 50190660 50148280 50080488 49988632 49880672 49769144 49671108 
3230.950 49606104 49591216 49636444 49743044 49899732 50086448 50277028 
3234.325 50445800 50572968 50648624 50675180 50664508 50633588 50600764 
3237.700 50580172 50579916 50602572 50645376 50703872 50772080 50845084 
3241.076 50917340 50983148 51035276 51066492 51070408 51044012 50988640 
3244.451 50912516 50828792 50754972 50707544 50701372 50743020 50830196 
3247.826 50951980 51089424 51221240 51327080 51392760 51412892 51391364 
3251.201 51340460 51276904 51217804 51177012 51162128 51174636 51209048 
3254.577 51255212 51299488 51329224 51334596 51312100 51267660 51216396 
3257.952 51179760 51182300 51242716 51369328 51556696 51784360 52024568 
3261.327 52247724 52432512 52569148 52661164 52721468 52765504 52806860 
3264.702 52853400 52907696 52970196 53041496 53123808 53219540 53327988 
3268.078 53441648 53545916 53621632 53650128 53620456 53533392 53404116 
3271.453 53257024 53120492 53022180 52980468 53005280 53096964 53246576 
3274.828 53440504 53659304 53880808 54082544 54244320 54355076 54412596 
3278.203 54427492 54418000 54405792 54407932 54432300 54476216 54529848 
3281.579 54583156 54631292 54679096 54740364 54831272 54965624 55147084 
3284.954 55368552 55613660 55862940 56098748 56310420 56492940 56648448 
3288.329 56779304 56888992 56979108 57053476 57117884 57183104 57262076 
3291.704 57366860 57503564 57670072 57854276 58037172 58198096 58319964 
3295.080 58394224 58423016 58416208 58387896 58352060 58317916 58289120 
3298.455 58263148 58235120 58200716 58158776 58111940 58065756 58026172 
3301.830 57994896 57967816 57932536 57872728 57769728 57608120 57381976 
3305.205 57095996 56766560 56419676 56086228 55795232 55570072 55424948 
3308.581 55362160 55371488 55433568 55521540 55606244 55661660 55670912 
3311.956 55627348 55539628 55424508 55306052 55204576 55133188 55091112 
3315.331 55068316 55047216 55011392 54952712 54874496 54789872 54716292 
3318.706 54669312 54654292 54665776 54687424 54699252 54684104 54635124 
3322.082 54557092 54465672 54380852 54324256 54309268 54339208 54408752 
3325.457 54504856 54611968 54716496 54810288 54891060 54962000 55028500 
3328.832 55095136 55163620 55230756 55288728 55328720 55342692 55326736 
3332.207 55283924 55223100 55158120 55101732 55064260 55050076 55055740 
3335.583 55072420 55088656 55094200 55083904 55057404 55020908 54983360 
3338.958 54954184 54939252 54939028 54949596 54962364 54969260 54965348 
3342.333 54952116 54937384 54934488 54957372 55016040 55112256 55237972 
3345.708 55376048 55506700 55612152 55682512 55719108 55731508 55733544 
3349.083 55737644 55747984 55759004 55757336 55727752 55659512 55552600 
3352.459 55419124 55281696 55166984 55097704 55086812 55133976 55224108 
3355.834 55333564 55435304 55505532 55528300 55500328 55427164 55323116 
3359.209 55205408 55090796 54992460 54918032 54870876 54851220 54856544 
3362.584 54885464 54936256 55007192 55095404 55195444 55300264 55400484 
3365.960 55488116 55555148 55597756 55613948 55603476 55567384 55505548 
3369.335 55417840 55305060 55167680 55008820 54833928 54650312 54466892 
3372.710 54294340 54144844 54030104 53962324 53950196 53998512 54104516 
3376.085 54256396 54436544 54621876 54790428 54925244 55018032 55069700 
3379.461 55089540 55090768 55086768 55086836 55096432 55114640 55136924 
3382.836 55157120 55168476 55166668 55149740 55120224 55085108 55055920 
3386.211 55045360 55064960 55120920 55211612 55325424 55443688 55544284 
3389.586 55606996 55619800 55579184 55492704 55374580 55242320 55112472 
3392.962 54999424 54913520 54862380 54850916 54882168 54955004 55065116 
3396.337 55202480 55352628 55499084 55625380 55718620 55770260 55778640 
3399.712 55745492 55675140 55574348 55447432 55300268 55138200 54969688 
3403.087 54804284 54654656 54535200 54457368 54430320 54455820 54528388 
3406.463 54636236 54762268 54889052 55002632 55094088 55161448 55207700 
3409.838 55238484 55257444 55268304 55269908 55262224 55245624 55223272 
3413.213 55199500 55178536 55161084 55143504 55119244 55081800 55029204 
3416.588 54967784 54909276 54867332 54850744 54856960 54870216 54865488 
3419.964 54815504 54702708 54527092 54308676 54081032 53884540 53752664 
3423.339 53703084 53734060 53827492 53955200 54089068 54207208 54299024 
3426.714 54364948 54413472 54459168 54515952 54595276 54702184 54832828 
3430.089 54973304 55102864 55196724 55233036 55200792 55102456 54955236 
3433.465 54788168 54632512 54513064 54442112 54417880 54427288 54454404 
3436.840 54486500 54518356 54552816 54597928 54659472 54738756 54827892 
3440.215 54914564 54983400 55021984 55021880 54982032 54905836 54802404 
3443.590 54682620 54559728 54448660 54362888 54313200 54302456 54324732 
3446.966 54364904 54400808 54409480 54372784 54283932 54150520 53992896 
3450.341 53840820 53725092 53671916 53696484 53798948 53965116 54168484 
3453.716 54376076 54553732 54674356 54723060 54699356 54616252 54496324 
3457.091 54362952 54234412 54117744 54008752 53895352 53763512 53606224 
3460.467 53427880 53245816 53085948 52975956 52937584 52979536 53097340 
3463.842 53274272 53486244 53708164 53917444 54096104 54228512 54302736 
3467.217 54307548 54233152 54074896 53837752 53537104 53203204 52875836 
3470.592 52599536 52414648 52348692 52411580 52592904 52863316 53183904 
3473.968 53512048 53811120 54054360 54227764 54327084 54356236 54322096 
3477.343 54233968 54102948 53943356 53772144 53608916 53471692 53373628 
3480.718 53319492 53303820 53313476 53331376 53343184 53339328 53319092 
3484.093 53288328 53255288 53229284 53216556 53219968 53240256 53277528 
3487.469 53332048 53402752 53487596 53580616 53674256 53759052 53829032 
3490.844 53881528 53919660 53949636 53977108 54003032 54023076 54027060 
3494.219 54004284 53948380 53862360 53759268 53659400 53586032 53555972 
3497.594 53576684 53641576 53735548 53838320 53932352 54008632 54068468 
3500.969 54122668 54186864 54275124 54394204 54538336 54690700 54826272 
3504.345 54916628 54939960 54884432 54753380 54565600 54350340 54140460 
3507.720 53965240 53843684 53781604 53771168 53794808 53830636 53858996 
3511.095 53864828 53842092 53793672 53728980 53662440 53611936 53594452 
3514.470 53623632 53706864 53842360 54019296 54218268 54414768 54583704 
3517.846 54704248 54764784 54763712 54708612 54613376 54495640 54372068 
3521.221 54257312 54163428 54101088 54078752 54103564 54178584 54302488 
3524.596 54467344 54658028 54855688 55037936 55185224 55282304 55320636 
3527.971 55298744 55221228 55098360 54941396 54764064 54579656 54400932 
3531.347 54239624 54104464 54000936 53929740 53885932 53859456 53837572 
3534.722 53806352 53756436 53685164 53597604 53507596 53434084 53394640 
3538.097 53402776 53460308 53558640 53679732 53800236 53898916 53961060 
3541.472 53981408 53966768 53929376 53883588 53840104 53803528 53771944 
3544.848 53739728 53701056 53654356 53602884 53554092 53516348 53494284 
3548.223 53485256 53481440 53468508 53433756 53367584 53269012 53145816 
3551.598 53012356 52885220 52779240 52702848 52658224 52640504 52642536 
3554.973 52654792 52669132 52680296 52683776 52676780 52658548 52629104 
3558.349 52592444 52554792 52524708 52509856 52515392 52537268 52564884 
3561.724 52577256 52551528 52465464 52306852 52074084 51782080 51457680 
3565.099 51134612 50846204 50620016 50472308 50407460 50418788 50493628 
3568.474 50617592 50777768 50963412 51165020 51370500 51562720 51718812 
3571.850 51813396 51825652 51746000 51582848 51364716 51134692 50939264 
3575.225 50817496 50784200 50829488 50919360 51007912 51053988 51036608 
3578.600 50960048 50854316 50761904 50719732 50744696 50825324 50923392 
3581.975 50987512 50970588 50846936 50621584 50330712 50032332 49790836 
3585.351 49657600 49661704 49800260 50040708 50330848 50608104 50816564 
3588.726 50915904 50890424 50750180 50527348 50269464 50026184 49842576 
3592.101 49748388 49754696 49856012 50032224 50256216 50498988 50734484 
3595.476 50941144 51103568 51211264 51260368 51253568 51200696 51117880 
3598.852 51026788 50949224 50903316 50900028 50941724 51022016 51129080 
3602.227 51247776 51363172 51464176 51543988 51599756 51634924 51654548 
3605.602 51664048 51667500 51663544 51645372 51603608 51528352 51417132 
3608.977 51277832 51129492 50997936 50909472 50881056 50915776 51003664 
3612.353 51123364 51255092 51384024 51505816 51624056 51742336 51858680 
3615.728 51959200 52023964 52031276 51970580 51847300 51685216 51518164 
3619.103 51380564 51295600 51269468 51293524 51349812 51421364 51499136 
3622.478 51582136 51672600 51770292 51866524 51944292 51983844 51968536 
3625.854 51894624 51771400 51619836 51466264 51334272 51238768 51183352 
3629.229 51162824 51167264 51184744 51205340 51222328 51234096 51243140 
3632.604 51257776 51290816 51359808 51480312 51663192 51907124 52200580 
3635.979 52520692 52838452 53126828 53362592 53530868 53624520 53641224 
3639.354 53584968 53465444 53299744 53113812 52940200 52811348 52753708 
3642.730 52777656 52877128 53031300 53211876 53392380 53557464 53704120 
3646.105 53836320 53958564 54070596 54161772 54215836 54217128 54159104 
3649.480 54046040 53895024 53728480 53569032 53432080 53325900 53253716 
3652.855 53214820 53207700 53227864 53265692 53305028 53325460 53306688 
3656.231 53234920 53110404 52946520 52766448 52592492 52439048 52309272 
3659.606 52196120 52092092 51994700 51913312 51863008 51860304 51908872 
3662.981 51996968 52097620 52177856 52213704 52198988 52150144 52096136 
3666.356 52068476 52082100 52129744 52182436 52200720 52150188 52017488 
3669.732 51814300 51574544 51342164 51155972 51039852 50998060 51020968 
3673.107 51091748 51193088 51312184 51435968 51548604 51630204 51657104 
3676.482 51608148 51475252 51267104 51013500 50758484 50552268 50435964 
3679.857 50432764 50539420 50728180 50953032 51160452 51304076 51352252 
3683.233 51295084 51145548 50933840 50699180 50478864 50302364 50181416 
3686.608 50113364 50081224 50061808 50033180 49980592 49901884 49804996 
3689.983 49706208 49623408 49569608 49550596 49561860 49590800 49618472 
3693.358 49625580 49593560 49511412 49376864 49199356 48998468 48804004 
3696.734 48650656 48570016 48584808 48700376 48904432 49164652 49437128 
3700.109 49676828 49847704 49931996 49933432 49875288 49790552 49714020 
3703.484 49667732 49660396 49684836 49724980 49762724 49785540 49790240 
3706.859 49780628 49764812 49748220 49732776 49715412 49695256 49674084 
3710.235 49661648 49673560 49726928 49832444 49990136 50187080 50399344 
3713.610 50600628 50768460 50889492 50959988 50982868 50965344 50912352 
3716.985 50829868 50723464 50602936 50482896 50381004 50313040 50285868 
3720.360 50296324 50328792 50361764 50374912 50358916 50318104 50270668 
3723.736 50240140 50249576 50309672 50417024 50553576 50691820 50803744 
3727.111 50867152 50872072 50822320 50733672 50631620 50543324 50494012 
3730.486 50499520 50566112 50683872 50833820 50988920 51121488 51212340 
3733.861 51252664 51246512 51209196 51159356 51115628 51089264 51083852 
3737.237 51093888 51107896 51111808 51092444 51039336 50949512 50828092 
3740.612 50689264 50557696 50462936 50435932 50500240 50665384 50920672 
3743.987 51236620 51568316 51867372 52093528 52222232 52251512 52195424 
3747.362 52082788 51947572 51822836 51735264 51701140 51721124 51783188 
3750.738 51861940 51926728 51948032 51905812 51796580 51635472 51451104 
3754.113 51277632 51144168 51067684 51051128 51084776 51154260 51247264 
3757.488 51356744 51482708 51624256 51777940 51933216 52072076 52177028 
3760.863 52235820 52246508 52216016 52157712 52082156 51993704 51890568 
3764.239 51767836 51626928 51480084 51351620 51272576 51268964 51352156 
3767.614 51512660 51720248 51933708 52114768 52237736 52297936 52309396 
3770.989 52296476 52283168 52284560 52302344 52326708 52343456 52340472 
3774.364 52315784 52276112 52237340 52216880 52231948 52290160 52392064 
3777.740 52527460 52679832 52828256 52951248 53033660 53065528 53047320 
3781.115 52988364 52903120 52809568 52720672 52644820 52580988 52523100 
3784.490 52462600 52392904 52313996 52232864 52162464 52115744 52102312 
3787.865 52122804 52168308 52222892 52267116 52286472 52275232 52239096 
3791.240 52195700 52166416 52170716 52219372 52309032 52423508 52537876 
3794.616 52624384 52663392 52645544 52576408 52472444 52355608 52248228 
3797.991 52167056 52121084 52111068 52133536 52180432 52244488 52318328 
3801.366 52398408 52484108 52579204 52688884 52820336 52975892 53151412 
3804.741 53333776 53502648 53635380 53713040 53729088 53693812 53628416 
3808.117 53560928 53514008 53496012 53498356 53498604 53469780 53393608 
3811.492 53266812 53104400 52935436 52790176 52692900 52650776 52654436 
3814.867 52683660 52715892 52733788 52733524 52724532 52722568 52746072 
3818.242 52807848 52912608 53055292 53225460 53407316 53585060 53745592 
3821.618 53878852 53978920 54045908 54081128 54089644 54075524 54041632 
3824.993 53989528 53918836 53830304 53728136 53618884 53514056 53426116 
3828.368 53364864 53334768 53332848 53349648 53371700 53385232 53380412 
3831.743 53353708 53308764 53253592 53199836 53157744 53135448 53135696 
3835.119 53157596 53195380 53243136 53294452 53345648 53396984 53452016 
3838.494 53515592 53591668 53679048 53772640 53863628 53941756 53999016 
3841.869 54032084 54041624 54031184 54002576 53954376 53882212 53781088 
3845.244 53650884 53498408 53341172 53203132 53107292 53071184 53098888 
3848.620 53181624 53301120 53436308 53569576 53692868 53805128 53911232 
3851.995 54013932 54111400 54193192 54244284 54249752 54199420 54094212 
3855.370 53947280 53781600 53628560 53519816 53482836 53532412 53667260 
3858.745 53867104 54094216 54301476 54442484 54485356 54420672 54266104 
3862.121 54059312 53849456 53682388 53587196 53572204 53625152 53721224 
3865.496 53831860 53934204 54013824 54065276 54087768 54082596 54053332 
3868.871 54004744 53946212 53889652 53849492 53835408 53850192 53888028 
3872.246 53937792 53989292 54038284 54090604 54159368 54256400 54387660 
3875.622 54543368 54702048 54837292 54926132 54958836 54944828 54905860 
3878.997 54869668 54857760 54877464 54923328 54978380 55027724 55064592 
3882.372 55094160 55130108 55187340 55273836 55383360 55497572 55590936 
3885.747 55639612 55630276 55563452 55452956 55318216 55180528 55055720 
3889.123 54952856 54875004 54822292 54794064 54788208 54801392 54827764 
3892.498 54857336 54876652 54874924 54845868 54793352 54731356 54681344 
3895.873 54667720 54709012 54812336 54968904 55156736 55345044 55502440 
3899.248 55606496 55647284 55630656 55572900 55495364 55417664 55352388 
3902.624 55304588 55274548 55261464 55266016 55294096 55351984 55443716 
3905.999 55566224 55706552 55844924 55956848 56020768 56024064 55964040 
3909.374 55850740 55702480 55542280 55393972 55277228 55205856 55188024 
3912.749 55222676 55301944 55410428 55528732 55633672 55705524 55729684 
3916.125 55701552 55626620 55520832 55407916 55314696 55265980 55281904 
3919.500 55372552 55536208 55757236 56010824 56265048 56485800 56645756 
3922.875 56727836 56729160 56659252 56535708 56378796 56206684 56031988 
3926.250 55862372 55702148 55554928 55425836 55319844 55240448 55186596 
3929.625 55152080 55128724 55107780 55086288 55066416 55056752 55067396 
3933.001 55104440 55167720 55249336 55335004 55411808 55468432 55501628 
3936.376 55513688 55511320 55502892 55494196 55489396 55490120 55496108 
3939.751 55506808 55520752 55534016 55541756 55539244 55521476 55487256 
3943.126 55440468 55387456 55337280 55297608 55271708 55259288 55257932 
3946.502 55263880 55276980 55299676 55336956 55394512 55477904 55588200 
3949.877 55724904 55885164 56063464 56250352 56434320 56599004 56727320 
3953.252 56801788 56814004 56765004 56668052 56545900 56424800 56327932 
3956.627 56266524 56239104 56234312 56233432 56220776 56186012 56128744 
3960.003 56055064 55975672 55901012 55840972 55802884 55792464 55814028 
3963.378 55869384 55957848 56071980 56200808 56328856 56439160 56518132 
3966.753 56558136 56557544 56521488 56459340 56382648 56303760 56234780 
3970.128 56185076 56161180 56163652 56188008 56221480 56251012 56262460 
3973.504 56248484 56212456 56166092 56128008 56117392 56147884 56223148 
3976.879 56336004 56473136 56617108 56753780 56873452 56973676 57053900 
3980.254 57117240 57164240 57194476 57204536 57190328 57147332 57072556 
3983.629 56965696 56830040 56675132 56514600 56366192 56247900 56175700 
3987.005 56158484 56196660 56282888 56404096 56543080 56684168 56813672 
3990.380 56918768 56989456 57018068 57003368 56949288 56869632 56784628 
3993.755 56718200 56688960 56703316 56753516 56816588 56862976 56865876 
3997.130 56811152 56703740 56565104 56428900 56328816 56290164 56325016 
4000.506 56428324 
##END=
