##TITLE=eSUN_ABS+_Black_Filament_r6_ATR-Corrected
##JCAMP-DX=5.01  $$ Nicolet v. 1
##DATATYPE=INFRARED SPECTRUM
##ORIGIN=Curtin University
##OWNER=Nicolet
##LONGDATE=2024/07/18
##TIME=10:52:49
##SPECTROMETER/DATA SYSTEM=Nicolet iS50
##DATA PROCESSING=
Ratio against background
%Transmittance->Absorbance
ATR Correction
Truncated
ElementMultiply or ElementDivide
##COMMENTS=
Number of sample scans: 32
Collection length: 47.28 sec
Sample gain: 1.0
Background collected on: Thu Jul 18 10:45:03 2024 (GMT+08:00);
Number of background scans: 32
Background gain: 1.0
Sample spacing:  1.000
Number of scan points: 16672
Resolution points: 8192
Number of FFT points: 65536
Apodization: N-B strong;
Phase correction: Mertz;
Laser frequency: 15798.3 cm-1
Number of rejected sample scans: 0
Number of rejected background scans: 0
Bench serial number: AUP1200105;
##RESOLUTION=4.000
##XUNITS=1/CM
##YUNITS=ABSORBANCE
##FIRSTX=400.163452
##LASTX=4000.187744
##FIRSTY=0.020059
##MAXX=4000.187744
##MINX=400.163452
##MAXY=0.376918
##MINY=0.008567
##XFACTOR=1.000000
##YFACTOR=1.000000E-009
##NPOINTS=7468
##DELTAX=0.482125
##ZPD=8192
##XYDATA=(X++(Y..Y))
400.163 20059256 20303864 20635102 21026020 21450926 21885480 22304968 
403.538 22683482 22993610 23211196 23319620 23317796 23221528 23064040 
406.913 22886668 22729992 22621744 22571446 22570006 22597334 22629842 
410.288 22649508 22646934 22620132 22569974 22494874 22389376 22247748 
413.663 22069826 21866664 21661928 21487258 21371412 21329920 21355992 
417.038 21421504 21484250 21503666 21456508 21348822 21216556 21116052 
420.412 21105376 21225662 21485456 21856378 22279054 22678128 22980816 
423.787 23134998 23119798 22948510 22660250 22307538 21941202 21600564 
427.162 21308098 21071142 20886368 20746120 20641272 20563116 20503134 
430.537 20452214 20400938 20341956 20272156 20195834 20120474 20056494 
433.912 20011004 19985084 19972426 19963322 19949764 19932080 19920408 
437.286 19932436 19984944 20085204 20223224 20370420 20486032 20528290 
440.661 20468358 20300950 20048370 19756332 19482004 19279802 19187876 
444.036 19221250 19370390 19606864 19892092 20186718 20456970 20679078 
447.411 20840110 20937654 20977688 20971872 20934990 20882638 20828956 
450.786 20786258 20765036 20774942 20824938 20922288 21069794 21262622 
454.161 21484732 21709206 21901236 22025668 22056936 21988098 21836798 
457.535 21644198 21467194 21364886 21383902 21546758 21846076 22246594 
460.910 22694728 23132016 23509510 23799094 23998920 24132134 24236632 
464.285 24354178 24517298 24739766 25012494 25306322 25580268 25792962 
467.660 25912948 25925886 25836008 25662374 25430968 25167414 24890582 
471.035 24612160 24338176 24074520 23831744 23627094 23483022 23421544 
474.409 23455800 23583872 23784220 24017324 24233264 24382708 24429642 
477.784 24361650 24194160 23968204 23740250 23567778 23494342 23539434 
481.159 23693592 23922762 24178760 24412266 24585694 24680878 24700744 
484.534 24665338 24603910 24546464 24517446 24531858 24595080 24704068 
487.909 24849552 25018180 25193954 25359868 25500120 25603094 25663448 
491.284 25683850 25674600 25650576 25627172 25616314 25623730 25648444 
494.658 25684234 25723102 25757116 25780948 25791504 25787738 25770306 
498.033 25742336 25710256 25684922 25681106 25715796 25803868 25953482 
501.408 26162828 26418698 26698558 26975924 27226026 27432146 27588146 
504.783 27698524 27775372 27833472 27885956 27941032 28001602 28066718 
508.158 28133956 28202242 28273334 28352038 28444728 28556860 28690850 
511.532 28844582 29012046 29185198 29357228 29526688 29699196 29887984 
514.907 30111502 30389158 30736298 31160280 31658966 32221984 32834116 
518.282 33479396 34144384 34819120 35496328 36168876 36827448 37460504 
521.657 38056584 38608144 39116044 39591488 40055120 40531388 41041896 
525.032 41597896 42196096 42819304 43440992 44033860 44577792 45065892 
528.406 45506172 45919564 46333784 46776256 47267628 47817512 48423064 
531.781 49070884 49740612 50410292 51060788 51680016 52265020 52821912 
535.156 53364164 53907756 54466628 55048612 55651968 56266076 56874460 
538.531 57459436 58007924 58515280 58986604 59434856 59876368 60325264 
541.906 60788572 61265140 61746080 62219524 62675504 63111296 63532776 
545.281 63954228 64393744 64868116 65387300 65952040 66552728 67173648 
548.655 67797024 68408448 68999400 69568264 70117480 70649312 71161432 
552.030 71644176 72080160 72447520 72725160 72898408 72963904 72930952 
555.405 72820064 72658568 72473184 72284560 72102696 71926416 71744472 
558.780 71540608 71297776 71003328 70650656 70238744 69769608 69245232 
562.155 68663768 68017736 67294400 66477872 65552348 64505896 63333920 
565.529 62041096 60641624 59158504 57621444 56064272 54522028 53028968 
568.904 51616480 50312736 49141800 48123164 47270300 46588980 46074824 
572.279 45710988 45468180 45306896 45182348 45051292 44878876 44644128 
575.654 44341700 43980344 43578208 43157228 42737792 42335520 41960016 
579.029 41615208 41299824 41007252 40725992 40439724 40129672 39777508 
582.404 39371064 38907416 38395328 37853520 37305832 36775244 36278196 
585.778 35822104 35406424 35026392 34677172 34356992 34066864 33807816 
589.153 33577956 33369922 33171446 32969236 32753494 32522208 32282102 
592.528 32046624 31831216 31648014 31502266 31391948 31309820 31246660 
595.903 31193856 31144142 31091180 31027140 30942646 30828430 30677674 
599.278 30490298 30274534 30045974 29823624 29624170 29457058 29321904 
602.652 29210542 29111226 29014556 28917848 28826612 28752446 28707836 
606.027 28701490 28734408 28798922 28880648 28963226 29032120 29078480 
609.402 29100376 29102956 29096166 29091980 29101314 29131528 29184572 
612.777 29256412 29337966 29417936 29486184 29537586 29574508 29607508 
616.152 29652772 29727054 29842438 30000472 30190358 30389582 30568328 
619.527 30696414 30750274 30718030 30601894 30416828 30186730 29938924 
622.901 29698912 29486264 29313216 29183822 29096196 29043634 29017282 
626.276 29006948 29002714 28995200 28976798 28942342 28890566 28824524 
629.651 28751832 28682922 28629092 28598916 28595844 28616394 28650754 
633.026 28685304 28706522 28704704 28676468 28624776 28557360 28482888 
636.401 28407576 28333744 28259988 28183778 28104832 28027686 27962498 
639.775 27922404 27919894 27961744 28045986 28160750 28287242 28404322 
643.150 28493966 28546364 28562026 28551206 28531058 28520450 28536442 
646.525 28590114 28685598 28819736 28983710 29164738 29348840 29522656 
649.900 29676090 29803480 29905202 29987230 30060078 30136444 30228232 
653.275 30343310 30484336 30648260 30828434 31017238 31209492 31404472 
656.650 31606372 31822714 32061818 32329586 32627810 32953036 33298214 
660.024 33654600 34013984 34370500 34721516 35067536 35411568 35757984 
663.399 36112204 36479488 36864588 37270468 37697184 38141904 38599076 
666.774 39062156 39525912 39988896 40454364 40929364 41421692 41935964 
670.149 42469936 43013448 43549900 44060848 44532516 44960488 45352812 
673.524 45728704 46114100 46535072 47012236 47556420 48168352 48840256 
676.898 49559520 50312708 51087856 51876428 52673576 53478444 54295024 
680.273 55131820 56002060 56923164 57914564 58994664 60179100 61479120 
683.648 62902040 64453736 66141592 67978176 69983112 72183264 74612472 
687.023 77309776 80319384 83692088 87489736 91791400 96701048 102354008 
690.398 108921000 116606992 125644136 136276272 148736992 163220896 
693.290 179847520 198622928 219396112 241818576 265311872 289054048 
696.183 312004576 332980992 350795040 364429280 373210080 376917664 
699.076 375791616 370433792 361652864 350308480 337192096 322961184 
701.969 308120608 293034144 277953472 263047520 248430032 234177536 
704.861 220340272 206947088 194010064 181529824 169502000 157925296 
707.754 146807792 136170144 126043496 116464648 107469008 99084504 91328928 
711.129 84208960 77722720 71863216 66620208 61980076 57924200 54425732 
714.504 51447576 48941960 46852820 45121040 43689756 42509788 41541556 
717.878 40755264 40127748 39638860 39267308 38990304 38783428 38623692 
721.253 38492744 38380772 38287064 38220240 38195676 38231320 38343032 
724.628 38540696 38825244 39188044 39612284 40076916 40560624 41046920 
728.003 41527140 42001400 42477492 42967660 43484848 44039340 44637652 
731.378 45282912 45977100 46723584 47528728 48401712 49352796 50389136 
734.752 51512052 52714156 53979596 55286060 56608888 57925488 59218964 
738.127 60480364 61708752 62910296 64095936 65279544 66476248 67701632 
741.502 68970752 70297736 71694304 73170184 74732328 76386552 78137976 
744.877 79993320 81961440 84052824 86277856 88643544 91151696 93797576 
748.252 96571288 99461648 102460544 105566328 108785192 112127976 115604344 
751.627 119215208 122946896 126768232 130631984 134480704 138254544 
754.519 141898304 145365408 148618288 151624912 154353776 156769424 
757.412 158830608 160491936 161708544 162441920 162666128 162371472 
760.305 161565952 160273856 158532320 156386736 153886672 151082848 
763.197 148025104 144762592 141343328 137814112 134219472 130598712 
766.090 126984120 123398200 119853728 116355816 112905600 109505024 
768.983 106160176 102881896 99684360 96580824 93578928 90678632 87871160 
772.358 85142672 82478512 79867304 77304392 74791912 72336696 69947568 
775.732 67633048 65400184 63255040 61203540 59252160 57406612 55670020 
779.107 54040416 52509660 51064416 49688200 48366124 47088036 45850588 
782.482 44656684 43513244 42428188 41408128 40457480 39578748 38773000 
785.857 38040408 37379164 36784092 36245504 35749848 35281640 34827084 
789.232 34378560 33935708 33505678 33099086 32725834 32390614 32091178 
792.606 31818990 31563506 31315804 31072116 30834684 30610168 30407204 
795.981 30232892 30091566 29984554 29911274 29870796 29862316 29885862 
799.356 29940970 30026664 30141750 30285892 30461242 30672186 30925502 
802.731 31227550 31582110 31988264 32439392 32925014 33433884 33956824 
806.106 34489436 35032412 35590492 36169804 36775768 37410936 38074972 
809.481 38764880 39476428 40204704 40944812 41691288 42437584 43175540 
812.855 43894984 44584212 45230316 45820808 46344488 46792740 47161232 
816.230 47450388 47666052 47818644 47922476 47993740 48049036 48104020 
819.605 48173020 48269188 48405816 48596308 48855732 49199508 49643788 
822.980 50203104 50889400 51710740 52669332 53760008 54969228 56274488 
826.355 57645316 59044904 60434452 61776644 63040108 64200736 65242320 
829.729 66154696 66930584 67563328 68045168 68368040 68525480 68514744 
833.104 68339232 68008472 67538256 66947864 66257992 65489552 64662420 
836.479 63796484 62910640 62023704 61153352 60314356 59518728 58773836 
839.854 58085000 57455548 56889280 56390004 55961120 55602636 55307484 
843.229 55059752 54834584 54600724 54324824 53979060 53544624 53015440 
846.604 52397600 51705888 50958968 50174668 49366316 48542168 47706716 
849.978 46862584 46012808 45162076 44315596 43477556 42649172 41827416 
853.353 41006192 40177736 39336616 38482660 37622572 36770220 35944024 
856.728 35163732 34446436 33803580 33239006 32750334 32330066 31968684 
860.103 31657260 31388730 31158594 30963776 30801004 30665536 30549348 
863.478 30441716 30330378 30203870 30054608 29881676 29692172 29500628 
866.852 29326478 29189500 29105038 29080276 29112718 29191976 29303676 
870.227 29434604 29577142 29730954 29902344 30099782 30330360 30595828 
873.602 30891782 31209750 31540860 31879668 32226078 32585156 32964520 
876.977 33370208 33804812 34266268 34749892 35251396 35769588 36307480 
880.352 36871432 37468280 38102144 38772452 39473960 40198216 40935432 
883.727 41676980 42414488 43139352 43840496 44504128 45114184 45654740 
887.101 46113496 46483228 46762584 46952560 47052536 47056468 46951672 
890.476 46720244 46345604 45818404 45143032 44339808 43443452 42497660 
893.851 41548492 40638112 39801116 39063904 38445912 37961760 37621724 
897.226 37431596 37392160 37498396 37740356 38106984 38590052 39187776 
900.601 39906540 40759584 41761996 42924060 44245772 45713644 47300908 
903.975 48971988 50688512 52415556 54125568 55798780 57420756 58978224 
907.350 60454632 61827376 63068100 64145184 65027392 65688520 66109984 
910.725 66282928 66207828 65894148 65358260 64622284 63712596 62658364 
914.100 61490020 60237412 58927936 57584720 56225216 54861420 53500916 
917.475 52148952 50811564 49497232 48218092 46988776 45823468 44732928 
920.849 43721268 42784972 41914192 41096448 40321408 39584636 38889636 
924.224 38246800 37669448 37168536 36747584 36400684 36113008 35865376 
927.599 35640104 35426680 35225440 35047764 34911852 34837808 34840008 
930.974 34922952 35079012 35290052 35531432 35777820 36008284 36209836 
934.349 36378620 36518932 36640356 36754848 36873768 37006112 37157960 
937.724 37332400 37530304 37750340 37989772 38244120 38507988 38774908 
941.098 39038740 39294284 39539204 39773868 40001848 40229684 40466020 
944.473 40719700 40999244 41311472 41660796 42047608 42468444 42915880 
947.848 43379100 43846736 44309712 44764876 45218508 45686468 46193360 
951.223 46768380 47439756 48229788 49151744 50209732 51401488 52722644 
954.598 54171420 55750964 57469488 59337088 61362264 63548340 65892116 
957.972 68384248 71011528 73759024 76610368 79546296 82541056 85559440 
961.347 88554696 91469432 94240520 96804968 99106512 101100672 102756520 
964.722 104056088 104991336 105560544 105765640 105611096 105104120 
967.615 104256568 103086720 101621800 99898272 97960424 95858992 93645416 
970.990 91368104 89067696 86775120 84510528 82286232 80109816 77988912 
974.364 75933712 73958408 72080544 70317688 68684792 67191496 65840960 
977.739 64630888 63554884 62604844 61772440 61050156 60430212 59904968 
981.114 59465712 59102540 58805952 58567496 58381332 58245260 58160340 
984.489 58130576 58161496 58258732 58425760 58663344 58968028 59332256 
987.864 59745372 60194880 60668656 61156176 61650500 62146608 62640680 
991.239 63127376 63598416 64041928 64443612 64788988 65066948 65271652 
994.613 65404004 65471492 65487476 65471148 65447808 65450036 65518432 
997.988 65699988 66044292 66596084 67387496 68430184 69711496 71195824 
1001.363 72829768 74551616 76300368 78022832 79677608 81234216 82670520 
1004.738 83970312 85121776 86119256 86966584 87680328 88294992 88865000 
1008.113 89466904 90199824 91184240 92556296 94456664 97010880 100303392 
1011.487 104345904 109048024 114198192 119462608 124411200 128568944 
1014.380 131489200 132831096 132422688 130289760 126644256 121834720 
1017.273 116278296 110392288 104540968 99005680 93975208 89553192 85774336 
1020.648 82622680 80049832 77990448 76374496 75137016 74223648 73593864 
1024.022 73218672 73076568 73145912 73398160 73793192 74277232 74785944 
1027.398 75249232 75598064 75770568 75716992 75402352 74808272 73933984 
1030.773 72796504 71429504 69881056 68209848 66478232 64746572 63066812 
1034.148 61479144 60011144 58678520 57488344 56441328 55534532 54762040 
1037.523 54116136 53587500 53165668 52840344 52601372 52439328 52345092 
1040.899 52308516 52318488 52362556 52428148 52504044 52581812 52656648 
1044.274 52726872 52793528 52858576 52925084 52995764 53074316 53164632 
1047.649 53270240 53393072 53532436 53684200 53841564 53997720 54147644 
1051.024 54290788 54431120 54575772 54732136 54905144 55096556 55305316 
1054.400 55530704 55774444 56042032 56342116 56682744 57068444 57497324 
1057.775 57961492 58450004 58953056 59465868 59989880 60531156 61096196 
1061.150 61687864 62303400 62934308 63570328 64203544 64831488 65457428 
1064.525 66088000 66728912 67380672 68037016 68685304 69309936 69896040 
1067.901 70432616 70914240 71340648 71715560 72046248 72342624 72618744 
1071.276 72892864 73188080 73533112 73961736 74513272 75232968 76171504 
1074.651 77382536 78917712 80816792 83096704 85739296 88682864 91819400 
1078.026 94998720 98042184 100759304 102969144 104518832 105300288 105259280 
1081.402 104399824 102781584 100511544 97731312 94601552 91284880 87930400 
1084.777 84662344 81572712 78721032 76138672 73835968 71810776 70053728 
1088.152 68552520 67292184 66254692 65419412 64763300 64264224 63902320 
1091.527 63662596 63533528 63506208 63571416 63719168 63938656 64220464 
1094.903 64559400 64955972 65415716 65946564 66554168 67236776 67983448 
1098.278 68773224 69577736 70365032 71103728 71766104 72329432 72776640 
1101.653 73096192 73282472 73336304 73266088 73088184 72826040 72507704 
1105.028 72161688 71812928 71478400 71165240 70870160 70580688 70278544 
1108.404 69942304 69551712 69090040 68546520 67917920 67209128 66432356 
1111.779 65605968 64751112 63889860 63040452 62216244 61422976 60661116 
1115.154 59926452 59214072 58520136 57844776 57191136 56565452 55974912 
1118.529 55425892 54923064 54469604 54067244 53717204 53420852 53179308 
1121.905 52992836 52860184 52777868 52741388 52745268 52785044 52858208 
1125.280 52963884 53102320 53274008 53478724 53715000 53980388 54272044 
1128.655 54587936 54926548 55286624 55666940 56066120 56483008 56917740 
1132.030 57372892 57854228 58369740 58927852 59534716 60192780 60899468 
1135.406 61649768 62438036 63261816 64124220 65033080 65999784 67035168 
1138.781 68147336 69338680 70607976 71951744 73367336 74855096 76419072 
1142.156 78065632 79802056 81634656 83568360 85608016 87759304 90030392 
1145.531 92432208 94977192 97678336 100547640 103595352 106830544 110262640 
1148.906 113901888 117759568 121847328 126174512 130746184 135561504 
1151.800 140613504 145890368 151377600 157061424 162932512 168989296 
1154.693 175239920 181703888 188410336 195393280 202683296 210296704 
1157.586 218222368 226410800 234766080 243142112 251346592 259149904 
1160.479 266298832 272533120 277604544 281294400 283429920 283897728 
1163.372 282651712 279716448 275182784 269200064 261963552 253700048 
1166.265 244654112 235074896 225205888 215275744 205493200 196041760 
1169.158 187077536 178728688 171093968 164244912 158226800 153061792 
1172.051 148751376 145279616 142615792 140717744 139532960 139001152 
1174.944 139056064 139627248 140641872 142026576 143710416 145628304 
1177.837 147723584 149952960 152289936 154727024 157277568 159974848 
1180.730 162870400 166029824 169528480 173446288 177862320 182848224 
1183.623 188461904 194740512 201693408 209297888 217496336 226196512 
1186.516 235275168 244583808 253955696 263213312 272175648 280666624 
1189.409 288522144 295596384 301768096 306944000 311059040 314075872 
1192.302 315982016 316786912 316518304 315219808 312947744 309767232 
1195.196 305749984 300971040 295507520 289437600 282840384 275796032 
1198.089 268385648 260690784 252792240 244769616 236699744 228657056 
1200.982 220712880 212935872 205392080 198145984 191260448 184797008 
1203.875 178815536 173372608 168519536 164298832 160742752 157870752 
1206.768 155689232 154192528 153364336 153181488 153616672 154640672 
1209.661 156224864 158341472 160963152 164061584 167606064 171561872 
1212.554 175889872 180547456 185489440 190670208 196044496 201567984 
1215.447 207196672 212886416 218592016 224266928 229864480 235339120 
1218.340 240647184 245749008 250610464 255202832 259504080 263498432 
1221.233 267175552 270529376 273556352 276254528 278622976 280662752 
1224.126 282377344 283774976 284868576 285674944 286213024 286501920 
1227.019 286558144 286395552 286025632 285459168 284708032 283786848 
1229.912 282712896 281505344 280183776 278766912 277270816 275708864 
1232.805 274090624 272422784 270708832 268949824 267145632 265295392 
1235.698 263399568 261459744 259479584 257464640 255421520 253356608 
1238.592 251275904 249184032 247084352 244979488 242870944 240759360 
1241.485 238643968 236522848 234391440 232243760 230070656 227861680 
1244.378 225604768 223286880 220895536 218419904 215851504 213185536 
1247.271 210420304 207556784 204596864 201541296 198388848 195135824 
1250.164 191777664 188310400 184733376 181050800 177271696 173408960 
1253.057 169477440 165491920 161465280 157408736 153331776 149243696 
1255.950 145154480 141075520 137020176 133002968 129039584 125147296 
1258.843 121343216 117645208 114070712 110635624 107353632 104234704 
1261.736 101285440 98508232 95902664 93465760 91193184 89079400 87117336 
1265.111 85298432 83611968 82046224 80588928 79229488 77960552 76778736 
1268.487 75684568 74681352 73772640 72960664 72244520 71619856 71079720 
1271.862 70615840 70219472 69882448 69597280 69356888 69154576 68983880 
1275.237 68839608 68718664 68619952 68544056 68492552 68466688 68466464 
1278.612 68489992 68534656 68596952 68674368 68764912 68867512 68980816 
1281.988 69103504 69233088 69367672 69505536 69646584 69792392 69945488 
1285.363 70109096 70284968 70473520 70673408 70881328 71092448 71300816 
1288.738 71499024 71678120 71827968 71937632 71997328 71999128 71938960 
1292.113 71816176 71634496 71399248 71117320 70795264 70438848 70053200 
1295.489 69642904 69212416 68766264 68308592 67843680 67375704 66909052 
1298.864 66449664 66004848 65583260 65194184 64845668 64543940 64291844 
1302.239 64089008 63933460 63822544 63754492 63728936 63746788 63809016 
1305.614 63915380 64062648 64243844 64447796 64659916 64862564 65037100 
1308.990 65165520 65232828 65228224 65147064 64990468 64765060 64480916 
1312.365 64149752 63783064 63391028 62981984 62563472 62141772 61723296 
1315.740 61313896 60918692 60542400 60188584 59860332 59560796 59293316 
1319.115 59060848 58864980 58705088 58576920 58473728 58386856 58308220 
1322.490 58231284 58153312 58074416 57997108 57924016 57857964 57799784 
1325.866 57750472 57710316 57680508 57662248 57656164 57661864 57676956 
1329.241 57697844 57720180 57741012 57759116 57774916 57789896 57804432 
1332.616 57816956 57824308 57822328 57808260 57782548 57750200 57720160 
1335.991 57703940 57712492 57754596 57834948 57954136 58109480 58296344 
1339.367 58510024 58746332 59002364 59275460 59563620 59863960 60173028 
1342.742 60486292 60799512 61108300 61409448 61701296 61983640 62257360 
1346.117 62523284 62781276 63030148 63267932 63492536 63703724 63903936 
1349.492 64098036 64292020 64490856 64696976 64908936 65122148 65331796 
1352.868 65534672 65731660 65928964 66135600 66361920 66616656 66905668 
1356.243 67233568 67605152 68028560 68517048 69087280 69756944 70538488 
1359.618 71435008 72435784 73515136 74633384 75739664 76775760 77681432 
1362.993 78397464 78872728 79068272 78962896 78556864 77873040 76954600 
1366.369 75860032 74655304 73404784 72163872 70973968 69861680 68839584 
1369.744 67910080 67069368 66310368 65624544 65003224 64437568 63919500 
1373.119 63441484 62997520 62582420 62190984 61817220 61454308 61095260 
1376.494 60733724 60367208 59997696 59632404 59282276 58960088 58677576 
1379.870 58443244 58262372 58137372 58069080 58057668 58101640 58196960 
1383.245 58334360 58498352 58666820 58813576 58911452 58937056 58873740 
1386.620 58713276 58456312 58109856 57684776 57193636 56648736 56062600 
1389.995 55447920 54817776 54186260 53566644 52970764 52407424 51881808 
1393.371 51396104 50950664 50545336 50181112 49859948 49584508 49356332 
1396.746 49175052 49037112 48936404 48866016 48819892 48795672 48795200 
1400.121 48825180 48895256 49016280 49197756 49446508 49765848 50156000 
1403.496 50614248 51135432 51711876 52332788 52984072 53648600 54306668 
1406.872 54938308 55524556 56049444 56500536 56869388 57150300 57340592 
1410.247 57439592 57448952 57373848 57222788 57008196 56746188 56455368 
1413.622 56155220 55864392 55599112 55369800 55181088 55029820 54906244 
1416.997 54794560 54676908 54536872 54363296 54153356 53913884 53659296 
1420.373 53410044 53188492 53015652 52909676 52885212 52952960 53120384 
1423.748 53391188 53766348 54243672 54819776 55491916 56259264 57124316 
1427.123 58092156 59168132 60356040 61654720 63057700 64554176 66131056 
1430.498 67774632 69472216 71212048 72982656 74771872 76567472 78358800 
1433.874 80139648 81909888 83676304 85451144 87248384 89081104 90958464 
1437.249 92885616 94864632 96898512 98992888 101158064 103409032 105764048 
1440.624 108243144 110866416 113653080 116620536 119782424 123146752 
1443.517 126714560 130478488 134423040 138528656 142774864 147147056 
1446.410 151640576 156263728 161038736 165998640 171177888 176597744 
1449.303 182244448 188041408 193823968 199320880 204155888 207874928 
1452.196 210002816 210119136 207934480 203348112 196469920 187607200 
1455.089 177222976 165877840 154164416 142642096 131780848 121920824 
1457.982 113258480 105856680 99673208 94598392 90488088 87189032 84552984 
1461.358 82443144 80736072 79322584 78110728 77026328 76016040 75046496 
1464.733 74100712 73173888 72266248 71379360 70512872 69665600 68837080 
1468.108 68031608 67257256 66525252 65844156 65213448 64618820 64029172 
1471.483 63400468 62683924 61838916 60845024 59709968 58471104 57188040 
1474.859 55930616 54765028 53741752 52889400 52214128 51704548 51339992 
1478.234 51098672 50963996 50927076 50987624 51151960 51431356 51840608 
1481.609 52397584 53121844 54033976 55153728 56498796 58084864 59926672 
1484.984 62040756 64450532 67190280 70311304 73885720 78010960 82808696 
1488.360 88418488 94981360 102610264 111350016 121130320 131723032 142717488 
1491.735 153526672 163434656 171682576 177583344 180639184 180636064 
1494.628 177687664 172216944 164878480 156444256 147683040 139259984 
1497.521 131675872 125247496 120121944 116310632 113728648 112230856 
1500.414 111639880 111766368 112422368 113431440 114634072 115891008 
1503.307 117082264 118104344 118865416 119282608 119281088 118796968 
1506.200 117782768 116213800 114091248 111442760 108319088 104788632 
1509.093 100931792 96835816 92591656 88289680 84016088 79848296 75850648 
1512.469 72071072 68539704 65271160 62266624 59519556 57017872 54747492 
1515.844 52692504 50836740 49162692 47652656 46289576 45057812 43943660 
1519.219 42937468 42031464 41220300 40499740 39865664 39312432 38833244 
1522.594 38418804 38059740 37745228 37465444 37211956 36978112 36759220 
1525.969 36552872 36358164 36175940 36007972 35856932 35725268 35615096 
1529.345 35527272 35460348 35411092 35373732 35341908 35309304 35271332 
1532.720 35226312 35175804 35124028 35077684 35043640 35028056 35035136 
1536.095 35066472 35121156 35194768 35281048 35371900 35459148 35536672 
1539.470 35601604 35655536 35703524 35752608 35809220 35876844 35954656 
1542.846 36037744 36119376 36192792 36253512 36301148 36338576 36371808 
1546.221 36407384 36451256 36508128 36580148 36668460 36773200 36894328 
1549.596 37031764 37186504 37359500 37552248 37766424 38002276 38257664 
1552.971 38526204 38796908 39054448 39280412 39456980 39569204 39607600 
1556.347 39569076 39455828 39274600 39034420 38745516 38419008 38066828 
1559.722 37701832 37337248 36986072 36659276 36364812 36106376 35883852 
1563.097 35693420 35528796 35382828 35248108 35118240 34988428 34855932 
1566.472 34721144 34587120 34460128 34348380 34260412 34203552 34181468 
1569.848 34193996 34237108 34305024 34392424 34496204 34616708 34756156 
1573.223 34917880 35103932 35314740 35549308 35807620 36093472 36416940 
1576.598 36795916 37255092 37822320 38524336 39380620 40398096 41566708 
1579.973 42856664 44218524 45585104 46878436 48017816 48930668 49561820 
1583.349 49881456 49889484 49615464 49114820 48459944 47730348 47001940 
1586.724 46338160 45785056 45370492 45105628 44988964 45010604 45155988 
1590.099 45407760 45748832 46161552 46630752 47144460 47696152 48287124 
1593.474 48927088 49635572 50439364 51370644 52464012 53753112 55265816 
1596.850 57020716 59021468 61251120 63667752 66199788 68748152 71188768 
1600.225 73384752 75200216 76516344 77245880 77342224 76803224 75667832 
1603.600 74008416 71920496 69511304 66890776 64163564 61424156 58753372 
1606.975 56216056 53859860 51715184 49796112 48102768 46626124 45352188 
1610.351 44265516 43351912 42596680 41983800 41493024 41098744 40771816 
1613.726 40482512 40205232 39922176 39626272 39320912 39016644 38728008 
1617.101 38468072 38246164 38065280 37924072 37817504 37739928 37684792 
1620.476 37646556 37619740 37599644 37581748 37563556 37544316 37526196 
1623.852 37513452 37511932 37526704 37560956 37614364 37683208 37761296 
1627.227 37841532 37918640 37990780 38061136 38137964 38233148 38360308 
1630.602 38532564 38760896 39052820 39412992 39844084 40347384 40923024 
1633.977 41569316 42280288 43042664 43834396 44623752 45372052 46036368 
1637.353 46575784 46955308 47150308 47148632 46951520 46574576 46045308 
1640.728 45401052 44684180 43937020 43196468 42490980 41837988 41245572 
1644.103 40714612 40241684 39822512 39453520 39132036 38856076 38621584 
1647.478 38422688 38250912 38096596 37951608 37811108 37675160 37548272 
1650.854 37438264 37352476 37296564 37271120 37271780 37291080 37319848 
1654.229 37350180 37377120 37399340 37417920 37435868 37456188 37482016 
1657.604 37516064 37560420 37616340 37684204 37763004 37850312 37942080 
1660.979 38034428 38123112 38205296 38280148 38347896 38410220 38469324 
1664.354 38527116 38585868 38646688 38710276 38776176 38841468 38901728 
1667.730 38949592 38977180 38977304 38946432 38885824 38802948 38709456 
1671.105 38618604 38541548 38484312 38446504 38421296 38398284 38366432 
1674.480 38318292 38251996 38171504 38085472 38004604 37938212 37892504 
1677.855 37868432 37863500 37871980 37887544 37904052 37917156 37923580 
1681.231 37921664 37910064 37887408 37852768 37806580 37751324 37692340 
1684.606 37638020 37598416 37583076 37598648 37646872 37723360 37818980 
1687.981 37920652 38015560 38093544 38150232 38187312 38213184 38239196 
1691.356 38277024 38335648 38418768 38524812 38648064 38780740 38915348 
1694.732 39047380 39176060 39304364 39438552 39585760 39752488 39943440 
1698.107 40159968 40401036 40662416 40939020 41225100 41516384 41811220 
1701.482 42111216 42420800 42746576 43094908 43471108 43878556 44317848 
1704.857 44787456 45286016 45812336 46367304 46953864 47576548 48240592 
1708.233 48951036 49713020 50532004 51414312 52368084 53402632 54526708 
1711.608 55746820 57065184 58478940 59981624 61565956 63228728 64973668 
1714.983 66815212 68774888 70878696 73149688 75601304 78233288 81031720 
1718.358 83973136 87030088 90180392 93409712 96713656 100093680 103551720 
1721.734 107084328 110678728 114313736 117960520 121588936 125170944 
1724.627 128683016 132106944 135426288 138624080 141680208 144571120 
1727.520 147270208 149749152 151981712 153943088 155613008 156974368 
1730.413 158015248 158727584 159107536 159154368 158868576 158251184 
1733.306 157303344 156026992 154426944 152512688 150298064 147800640 
1736.199 145038928 142029616 138787456 135326816 131665288 127826992 
1739.092 123844672 119759128 115615384 111458816 107331496 103270216 
1741.985 99308128 95474728 91797592 88301424 85006720 81928080 79073864 
1745.360 76446064 74044064 71864752 69905520 68163368 66634684 65313572 
1748.736 64192220 63260272 62508404 61927684 61511608 61254872 61152788 
1752.111 61198820 61385152 61703064 62144424 62703752 63379160 64171700 
1755.486 65084352 66120936 67285400 68583152 70023976 71622384 73400136 
1758.861 75382408 77594096 80054864 82774080 85749680 88970416 92419192 
1762.237 96078384 99932040 103965920 108164528 112507400 116966544 121507776 
1765.612 126093776 130689648 135264544 139792832 144248512 148600656 
1768.505 152807408 156816032 160567440 164004320 167080096 169765264 
1771.398 172048960 173934096 175430688 176549936 177299328 177684688 
1774.291 177711440 177390224 176737616 175774656 174522752 172999952 
1777.184 171218272 169185504 166908816 164399280 161675248 158762160 
1780.077 155687680 152478016 149152176 145722256 142194592 138575840 
1782.970 134877776 131119352 127325312 123521888 119730048 115962560 
1785.863 112223136 108510328 104823160 101167296 97556408 94010888 90552176 
1789.239 87198728 83960952 80843240 77847272 74975136 72232840 69629544 
1792.614 67172520 64863212 62692708 60644096 58696628 56833200 55046244 
1795.989 53340024 51727740 50227624 48853872 47613660 46505360 45519920 
1799.364 44644932 43867100 43173220 42550472 41984576 41460656 40964804 
1802.740 40486948 40022644 39574536 39148124 38749372 38379008 38031660 
1806.115 37696720 37362628 37020472 36669552 36314980 35967468 35637924 
1809.490 35333496 35054860 34798116 34555052 34317452 34077040 33828744 
1812.865 33568288 33294876 33011760 32728284 32460238 32230112 32061334 
1816.240 31973082 31972234 32051258 32187532 32349002 32502484 32622524 
1819.616 32694068 32714106 32685808 32614980 32507520 32369204 32208134 
1822.991 32036558 31871292 31729814 31622998 31550818 31500186 31448386 
1826.366 31371132 31251032 31084412 30881660 30662356 30448224 30253370 
1829.741 30081874 29927960 29781676 29634836 29484356 29332564 29183552 
1833.117 29037764 28889722 28728712 28543778 28328604 28087614 27833528 
1836.492 27586068 27363560 27178160 27032206 26920594 26834206 26766624 
1839.867 26714132 26678704 26662802 26666064 26682574 26702624 26714220 
1843.242 26709590 26686134 26649206 26607208 26570050 26542416 26524122 
1846.618 26509926 26493190 26469546 26440128 26411324 26394730 26401802 
1849.993 26442634 26519990 26629590 26757204 26882042 26979224 27025734 
1853.368 27006984 26922738 26789672 26640554 26516470 26456834 26487860 
1856.743 26615094 26820460 27069518 27320170 27536232 27693934 27787904 
1860.119 27825218 27820626 27787628 27737570 27677778 27618662 27575676 
1863.494 27570546 27627650 27763732 27980744 28260828 28568430 28860276 
1866.869 29097036 29257902 29344696 29380964 29401704 29441722 29522360 
1870.244 29646872 29800390 29958714 30095382 30191776 30239478 30241016 
1873.620 30206536 30149674 30083380 30020010 29968802 29936980 29927776 
1876.995 29941014 29972128 30014040 30059390 30105280 30153838 30213928 
1880.370 30295448 30406692 30545770 30699762 30842908 30943968 30973600 
1883.745 30912630 30757758 30523950 30239794 29943482 29670834 29452828 
1887.121 29307670 29241786 29249708 29319496 29435836 29584826 29755926 
1890.496 29944936 30151114 30376430 30618372 30870202 31113306 31321600 
1893.871 31461976 31504028 31427316 31229044 30928390 30566980 30197342 
1897.246 29877542 29652474 29546836 29556494 29652378 29784530 29898230 
1900.622 29944730 29893550 29735216 29483364 29166162 28818822 28473416 
1903.997 28156370 27885492 27673436 27527832 27454958 27455764 27525278 
1907.372 27645074 27789128 27921112 28006400 28017008 27942272 27788964 
1910.747 27580104 27347370 27123746 26935408 26801140 26729144 26721870 
1914.123 26773924 26873372 26997002 27114016 27184458 27171420 27047872 
1917.498 26811094 26482092 26104652 25729228 25401054 25144372 24960932 
1920.873 24833236 24740052 24666830 24614180 24592860 24616484 24683904 
1924.248 24776118 24854458 24877900 24820574 24689200 24524654 24397326 
1927.624 24378708 24520832 24833898 25286020 25814546 26345840 26818352 
1930.999 27200480 27487068 27695426 27847474 27957174 28022236 28027436 
1934.374 27946956 27754920 27430720 26966862 26368642 25663040 24897454 
1937.749 24141242 23472832 22970234 22685014 22629452 22766098 23019978 
1941.125 23299838 23533350 23688946 23791478 23906124 24113396 24467868 
1944.500 24976070 25588294 26213760 26750342 27123752 27302940 27309032 
1947.875 27192758 27015784 26819300 26621432 26416180 26194148 25959398 
1951.250 25743666 25594186 25568444 25700722 25994618 26400656 26836686 
1954.625 27195508 27382092 27326948 27017240 26496262 25859900 25236072 
1958.001 24761462 24539444 24624320 24993266 25559998 26189460 26741916 
1961.376 27096260 27194522 27029246 26652734 26143992 25595814 25098262 
1964.751 24733902 24567258 24646756 24984780 25552144 26255842 26958168 
1968.126 27489460 27701590 27497742 26878522 25926216 24791280 23629114 
1971.502 22564872 21652068 20880212 20202374 19589972 19063232 18721214 
1974.877 18710604 19198806 20299024 22035294 24301088 26876722 29457596 
1978.252 31725242 33410650 34356928 34536736 34058396 33128272 32022726 
1981.627 31023708 30373076 30202538 30505678 31125440 31799748 32228936 
1985.003 32174774 31516992 30301930 28712126 27013638 25468978 24270138 
1988.378 23493366 23115824 23037752 23151408 23370950 23666094 24051628 
1991.753 24563102 25219794 26017026 26906242 27818276 28675006 29407992 
1995.128 29962504 30298964 30376210 30156944 29601198 28689538 27424954 
1998.504 25866120 24109872 22298362 20579944 19096536 17951730 17204284 
2001.879 16856774 16875782 17195060 17741718 18438554 19222696 20039654 
2005.254 20848844 21617678 22326720 22969084 23543824 24049258 24478982 
2008.629 24806266 24997090 25000622 24786584 24346424 23719692 22982052 
2012.005 22245512 21620304 21196872 21008886 21040028 21221470 21466660 
2015.380 21691698 21846774 21918990 21937248 21938382 21969468 22058992 
2018.755 22213526 22419156 22650262 22859548 22997090 22995980 22794106 
2022.130 22342406 21631336 20690986 19611876 18511260 17517906 16722670 
2025.506 16165761 15818527 15617713 15487589 15392900 15347947 15424569 
2028.881 15703283 16248185 17057486 18065902 19147178 20176710 21054784 
2032.256 21755028 22319654 22838298 23407026 24079504 24840922 25615632 
2035.631 26285134 26739940 26913482 26816396 26529690 26191124 25950524 
2039.007 25938432 26224052 26803972 27598478 28483576 29320884 29997834 
2042.382 30447756 30658746 30649648 30458600 30093366 29543186 28777754 
2045.757 27786786 26608532 25362350 24233396 23440476 23158152 23456254 
2049.132 24255246 25341392 26427330 27249350 27637564 27562596 27118706 
2052.508 26494976 25911106 25552550 25519754 25812484 26326644 26899168 
2055.883 27359084 27576072 27488432 27114380 26529728 25850136 25195934 
2059.258 24675656 24357100 24275966 24423932 24764472 25237170 25770166 
2062.633 26284504 26704292 26959644 27001754 26807024 26392526 25814246 
2066.009 25171796 24587716 24186708 24062668 24256348 24737378 25409466 
2069.384 26130780 26754926 27164974 27310128 27211366 26956738 26667968 
2072.759 26465374 26434884 26610082 26967710 27448580 27974468 28479666 
2076.134 28917468 29270314 29535196 29715692 29805274 29786210 29625334 
2079.510 29293080 28771180 28069852 27232956 26339930 25490588 24794824 
2082.885 24344392 24199566 24372192 24824032 25469598 26196558 26884554 
2086.260 27434304 27780564 27907716 27843546 27644952 27374064 27077952 
2089.635 26773464 26448118 26069838 25613944 25079556 24508498 23977616 
2093.010 23588136 23430068 23556070 23957252 24561574 25253424 25904246 
2096.386 26409156 26713370 26814404 26751778 26580964 26353700 26101618 
2099.761 25839116 25570414 25305680 25065372 24879614 24777892 24779496 
2103.136 24882774 25069342 25308490 25573984 25845190 26116592 26382530 
2106.511 26636580 26857526 27014258 27068198 26990214 26764618 26400064 
2109.887 25920998 25365554 24778584 24207520 23701036 23315126 23102046 
2113.262 23106960 23344882 23794726 24386512 25016452 25565654 25936414 
2116.637 26076358 25993112 25745954 25422494 25100660 24823512 24583470 
2120.012 24333710 24013526 23580830 23032970 22415896 21805360 21283206 
2123.388 20900280 20663484 20527612 20415810 20245008 19959656 19548470 
2126.763 19053696 18553066 18141988 17898112 17859742 18010014 18281924 
2130.138 18574622 18781962 18823034 18668882 18346644 17937200 17539640 
2133.513 17243248 17086816 17045654 17036318 16953622 16713945 16299224 
2136.889 15766753 15246442 14892158 14839797 15152817 15813163 16716337 
2140.264 17711924 18635496 19357040 19798320 19943150 19825434 19520794 
2143.639 19120922 18731632 18446398 18348118 18482756 18853318 19397724 
2147.014 20007224 20531700 20820304 20750880 20267246 19385548 18194100 
2150.390 16821040 15409539 14077694 12905235 11917233 11102336 10421884 
2153.765 9843086 9338136 8923033 8638655 8566632 8807071 9479442 10698455 
2157.622 12556443 15079941 18215040 21788428 25532250 29107036 32177746 
2160.998 34464612 35792536 36108276 35499372 34172628 32432708 30623408 
2164.373 29072680 28011418 27542596 27613680 28060820 28647716 29145830 
2167.748 29369102 29220964 28684550 27806378 26661642 25338672 23913482 
2171.123 22460874 21048200 19757100 18677826 17907594 17527946 17600664 
2174.499 18127112 19059156 20274520 21611246 22883212 23922316 24602798 
2177.874 24871052 24745266 24316598 23716596 23099694 22604250 22339042 
2181.249 22355010 22659594 23216896 23976480 24883124 25901662 27009354 
2184.624 28200016 29459000 30765662 32074012 33320344 34424868 35315236 
2188.000 35939120 36282204 36365252 36250872 36015716 35738316 35466840 
2191.375 35219800 34981228 34719948 34407692 34038836 33639404 33262548 
2194.750 32958244 32763344 32672964 32642644 32594678 32446676 32126610 
2198.125 31598270 30850274 29903600 28786734 27544190 26222768 24897892 
2201.500 23668338 22667068 22034632 21898822 22330598 23317754 24750628 
2204.876 26443660 28156960 29662220 30780654 31428318 31626626 31495944 
2208.251 31210040 30967706 30929716 31197056 31779714 32605954 33541116 
2211.626 34429280 35129860 35555812 35691936 35593460 35359168 35102468 
2215.001 34913440 34839068 34871624 34971804 35080272 35149768 35153148 
2218.377 35091492 34984684 34859624 34739244 34641708 34579444 34567800 
2221.752 34622076 34766360 35019920 35400180 35907812 36536152 37265972 
2225.127 38074856 38935428 39824544 40718392 41603348 42470884 43331308 
2228.502 44209836 45151440 46209844 47440132 48884136 50566408 52487508 
2231.878 54631444 56962496 59435564 61989220 64545988 67009324 69268200 
2235.253 71208208 72736016 73789816 74358392 74467552 74172608 73525472 
2238.628 72562440 71290376 69704824 67807560 65635076 63271284 60841212 
2242.003 58488360 56341284 54477008 52909692 51587552 50417396 49289232 
2245.379 48115024 46842416 45470520 44040392 42625548 41313860 40188100 
2248.754 39307252 38695372 38327228 38131776 37999072 37808184 37453828 
2252.129 36881848 36105744 35212676 34344720 33660348 33286788 33284784 
2255.504 33626260 34207372 34871796 35462820 35859380 36005404 35912808 
2258.880 35647096 35295036 34939392 34632140 34392796 34211840 34071168 
2262.255 33957620 33877320 33855356 33926076 34115176 34429876 34847984 
2265.630 35325024 35802252 36228716 36567528 36808000 36955004 37025052 
2269.005 37031124 36976848 36856032 36661936 36394492 36073452 35733884 
2272.381 35423560 35187100 35054856 35030596 35094004 35206492 35326764 
2275.756 35421388 35476024 35495972 35502472 35521016 35575640 35680456 
2279.131 35838712 36044916 36289012 36560868 36850476 37149460 37450388 
2282.506 37742728 38014980 38252200 38439056 38560868 38607336 38573916 
2285.882 38466872 38301448 38103776 37904404 37734988 37618680 37564788 
2289.257 37563636 37590936 37608860 37582092 37483504 37304392 37056504 
2292.632 36769716 36481232 36226760 36029216 35894924 35811888 35757764 
2296.007 35707636 35641952 35553220 35447728 35340864 35254080 35204744 
2299.383 35202736 35246744 35324716 35416320 35499500 35554984 35572236 
2302.758 35553512 35513832 35477532 35473568 35522844 35635052 35798624 
2306.133 35984928 36152572 36261728 36284764 36218292 36084076 35924688 
2309.508 35788884 35718788 35735520 35836848 35998308 36185272 36363760 
2312.884 36510552 36617132 36688684 36735940 36771196 36804396 36842624 
2316.259 36890252 36952084 37032656 37135412 37261804 37412980 37593908 
2319.634 37817224 38104380 38480644 38962360 39541060 40170196 40763188 
2323.009 41206992 41388532 41224412 40687268 39813904 38699152 37471456 
2326.385 36267044 35198400 34338884 33711140 33298202 33055298 32932420 
2329.760 32886684 32890942 32931332 32999824 33088226 33184484 33274002 
2333.135 33345510 33393790 33423472 33444680 33469580 33505928 33556120 
2336.510 33616740 33680264 33741096 33796188 33846164 33894332 33944272 
2339.885 33999924 34061940 34131028 34204244 34276452 34339616 34382816 
2343.261 34394064 34363952 34288360 34170876 34020672 33851616 33675780 
2346.636 33501658 33333038 33171374 33018422 32879900 32764078 32679242 
2350.011 32628796 32608792 32605752 32604880 32593134 32568600 32541874 
2353.386 32531962 32559078 32633874 32752528 32894212 33028464 33124250 
2356.762 33158124 33122394 33022024 32871436 32685958 32477838 32253786 
2360.137 32018558 31777232 31538538 31313020 31113522 30945526 30810642 
2363.512 30702752 30613712 30538116 30475494 30431892 30415892 30434044 
2366.887 30486608 30565544 30655418 30737414 30794616 30816006 30796962 
2370.263 30741082 30658320 30563304 30473516 30407426 30380974 30404882 
2373.638 30480156 30597510 30738674 30881290 31005080 31096722 31153666 
2377.013 31182634 31194074 31199098 31202668 31204278 31200122 31184990 
2380.388 31158304 31123078 31086530 31055252 31035348 31027640 31030990 
2383.764 31041902 31056646 31072046 31084192 31088032 31078836 31051630 
2387.139 31005746 30944598 30878300 30820210 30782724 30774666 30799308 
2390.514 30853254 30929826 31021614 31122756 31228598 31335392 31437982 
2393.889 31530320 31606752 31665302 31707350 31740166 31770944 31803538 
2397.265 31834666 31854342 31848210 31806186 31726860 31621932 31512384 
2400.640 31423870 31375002 31374988 31419918 31498664 31597800 31708964 
2404.015 31831264 31968988 32125760 32300208 32481898 32653410 32796708 
2407.390 32898340 32954078 32969736 32955914 32925934 32888274 32846898 
2410.766 32800476 32744714 32677152 32596614 32505252 32409154 32316822 
2414.141 32240216 32192122 32184850 32225690 32313600 32436400 32573540 
2417.516 32700676 32798938 32860872 32896280 32927982 32983772 33085510 
2420.891 33240608 33437028 33648556 33842300 33990964 34079828 34109008 
2424.267 34091480 34044656 33983456 33918500 33853856 33792000 33736108 
2427.642 33693648 33672424 33679948 33717464 33779340 33852052 33920804 
2431.017 33970452 33993664 33988256 33959956 33917660 33870348 33824020 
2434.392 33780752 33736972 33688752 33630020 33560356 33482160 33406108 
2437.768 33345028 33312776 33318952 33365984 33446160 33546064 33649424 
2441.143 33744160 33824068 33890808 33949060 34003568 34051488 34085888 
2444.518 34095284 34073656 34023396 33958560 33900736 33874020 33892000 
2447.893 33957456 34057444 34173244 34285056 34382936 34467848 34548776 
2451.269 34635868 34732644 34831816 34918012 34973504 34987352 34960028 
2454.644 34906060 34845168 34797540 34772172 34766892 34765972 34748488 
2458.019 34695152 34597036 34457228 34291888 34125512 33986600 33899424 
2461.394 33880888 33935684 34056284 34220316 34398772 34559024 34673896 
2464.770 34727248 34718008 34659148 34572160 34477972 34390852 34314240 
2468.145 34242252 34164756 34076500 33980120 33889104 33821376 33792748 
2471.520 33809648 33864008 33935120 33996104 34023212 34003612 33937728 
2474.895 33842196 33738928 33652908 33602488 33596592 33634292 33709612 
2478.271 33814040 33941384 34089308 34258688 34448852 34655848 34869144 
2481.646 35071692 35243088 35366960 35432836 35443628 35410784 35353188 
2485.021 35288496 35228724 35174632 35121020 35058892 34984300 34901860 
2488.396 34825940 34774180 34762440 34793792 34860000 34940992 35015612 
2491.771 35067676 35096208 35112384 35138120 35193644 35292740 35434144 
2495.147 35606628 35790148 35964524 36112660 36223812 36289072 36303104 
2498.522 36259776 36157460 36002284 35810340 35610236 35435764 35318360 
2501.897 35277304 35313392 35408348 35529908 35642784 35717640 35739692 
2505.272 35710212 35646048 35571220 35512512 35493332 35527464 35618948 
2508.648 35760628 35933236 36112200 36269332 36383964 36445148 36458944 
2512.023 36445456 36432572 36447140 36505192 36605564 36730008 36848996 
2515.398 36932096 36955120 36910468 36802740 36650992 36478516 36310736 
2518.773 36168716 36069008 36022072 36032764 36094812 36195304 36310952 
2522.149 36414556 36480020 36492604 36453156 36380680 36306696 36267628 
2525.524 36291072 36388400 36548348 36740832 36925804 37062612 37122276 
2528.899 37094864 36990380 36836292 36668808 36525992 36436284 36415304 
2532.274 36460488 36556432 36676364 36792280 36880804 36928376 36934708 
2535.650 36909236 36867776 36826636 36797916 36787960 36795812 36818376 
2539.025 36849636 36886556 36926024 36967848 37012472 37060944 37114048 
2542.400 37172404 37235828 37302072 37365196 37416488 37444168 37438868 
2545.775 37395444 37317532 37218912 37120356 37041580 36999348 36997972 
2549.151 37029860 37079316 37127392 37160360 37173420 37172928 37173132 
2552.526 37189684 37235896 37316692 37429636 37567232 37719516 37878352 
2555.901 38036840 38188904 38326668 38439504 38514740 38540696 38513112 
2559.276 38437412 38332636 38225720 38148980 38126832 38170280 38272880 
2562.652 38412168 38555744 38673796 38748092 38778784 38782640 38787296 
2566.027 38820816 38900748 39026960 39184328 39345208 39481312 39570464 
2569.402 39603388 39581704 39516864 39422800 39314232 39204840 39108212 
2572.777 39039184 39013924 39044632 39134532 39274292 39440200 39599996 
2576.153 39722552 39786244 39789180 39746800 39687688 39641732 39629664 
2579.528 39657000 39714448 39783616 39846428 39891888 39919908 39936848 
2582.903 39952376 39974736 40006944 40048040 40097404 40154956 40223352 
2586.278 40300576 40382096 40453152 40494644 40487608 40422244 40304668 
2589.654 40156904 40012660 39907080 39864340 39892396 39980972 40107404 
2593.029 40245840 40376400 40489024 40585396 40672620 40756584 40838528 
2596.404 40912576 40970132 41003524 41010432 40996248 40972076 40953240 
2599.779 40952352 40979520 41038044 41124920 41231696 41345572 41451448 
2603.155 41533744 41580276 41585384 41552348 41494772 41431524 41385008 
2606.530 41370540 41395120 41453504 41530452 41609668 41678972 41735740 
2609.905 41789564 41856600 41952476 42084312 42244936 42412472 42557000 
2613.280 42648004 42665312 42606544 42487048 42335684 42187248 42071520 
2616.656 42006312 41994164 42024316 42079668 42143064 42203772 42259276 
2620.031 42313728 42375132 42448276 42532180 42620168 42700808 42763148 
2623.406 42799340 42809204 42799552 42782316 42771116 42777704 42809144 
2626.781 42867240 42948052 43043532 43143668 43238876 43322440 43390844 
2630.156 43445680 43493120 43541668 43600272 43673856 43761244 43855456 
2633.532 43944736 44015536 44060060 44076836 44073916 44066192 44069800 
2636.907 44098556 44156572 44239040 44331536 44416068 44475356 44499040 
2640.282 44484792 44438984 44373228 44302364 44238756 44193500 44172348 
2643.657 44177224 44207492 44259088 44325988 44401668 44479208 44552840 
2647.033 44620040 44679596 44733520 44783084 44828840 44868028 44893628 
2650.408 44897228 44870424 44807796 44709904 44584288 44445400 44310324 
2653.783 44196392 44116612 44076192 44072492 44095040 44129464 44160796 
2657.158 44176404 44169512 44138640 44086788 44019732 43941668 43856712 
2660.534 43765876 43669516 43568728 43465724 43364780 43269324 43181152 
2663.909 43099736 43020224 42936280 42842876 42738356 42627476 42520608 
2667.284 42430204 42368832 42342844 42352232 42389240 42441484 42494480 
2670.659 42536860 42560876 42564616 42549328 42519252 42478240 42430220 
2674.035 42378696 42328348 42283124 42248460 42227204 42221752 42229912 
2677.410 42246812 42265740 42280156 42286380 42282400 42270856 42256548 
2680.785 42244708 42239964 42244708 42258752 42281464 42310352 42344788 
2684.160 42384864 42432780 42490052 42558212 42635724 42716876 42792784 
2687.536 42851816 42882980 42878104 42836720 42765740 42679940 42597916 
2690.911 42539436 42518952 42542196 42605784 42697064 42797824 42889640 
2694.286 42955744 42985756 42976224 42930352 42857508 42771108 42686996 
2697.661 42621216 42587580 42596388 42650560 42745276 42867416 42998784 
2701.037 43118972 43209972 43259852 43265996 43234216 43176604 43106980 
2704.412 43038632 42979100 42931632 42894456 42864164 42838032 42816176 
2707.787 42801284 42798204 42812336 42846864 42901132 42971168 43049976 
2711.162 43129104 43199960 43255736 43291960 43307208 43301296 43276704 
2714.538 43237744 43190372 43141668 43099772 43071668 43062224 43072952 
2717.913 43100488 43137564 43174928 43203320 43216592 43213600 43198252 
2721.288 43177012 43157816 43145912 43143360 43148560 43157896 43169740 
2724.663 43184036 43205812 43242864 43301860 43386728 43494316 43615168 
2728.039 43734184 43835920 43906996 43941688 43942224 43918812 43884316 
2731.414 43852996 43834628 43832320 43843152 43859348 43871124 43870208 
2734.789 43852468 43818068 43771820 43722064 43677928 43647528 43637616 
2738.164 43651512 43688568 43747004 43821104 43903980 43987168 44062668 
2741.540 44123480 44164808 44185020 44185336 44170000 44144452 44113716 
2744.915 44082108 44052376 44025756 44004032 43988252 43982176 43989424 
2748.290 44012732 44052296 44104544 44162192 44214652 44250972 44263924 
2751.665 44251444 44216520 44168428 44119100 44080720 44063444 44072868 
2755.041 44111168 44176392 44262952 44363944 44469824 44571000 44656572 
2758.416 44718640 44751692 44756288 44738004 44707848 44679672 44667244 
2761.791 44680180 44722932 44793740 44885092 44986652 45087404 45178388 
2765.166 45252948 45309184 45348108 45372772 45388956 45402196 45417444 
2768.542 45439540 45469756 45508356 45553260 45601900 45653128 45705424 
2771.917 45761068 45822548 45892756 45973756 46065304 46166516 46275032 
2775.292 46388768 46507120 46629352 46754788 46881236 47004200 47117440 
2778.667 47213884 47288632 47339732 47370464 47387108 47398388 47411596 
2782.042 47431120 47457660 47487744 47517072 47541908 47561744 47579288 
2785.418 47600008 47631288 47678524 47745644 47832108 47933976 48045880 
2788.793 48160812 48273092 48378876 48476436 48565552 48647976 48725120 
2792.168 48799216 48871608 48943440 49016656 49093164 49175292 49265176 
2795.543 49363288 49467804 49574876 49678700 49773784 49857396 49930620 
2798.919 49999228 50072788 50161456 50272104 50406684 50561164 50725280 
2802.294 50886680 51033416 51157356 51255580 51330000 51385644 51429572 
2805.669 51469052 51511844 51564444 51633644 51725300 51843004 51986876 
2809.044 52153240 52334940 52523628 52711520 52894548 53072004 53247608 
2812.420 53426112 53611408 53806548 54011416 54225828 54449824 54684744 
2815.795 54934524 55202676 55491296 55800200 56125408 56461348 56802692 
2819.170 57146772 57493808 57847312 58212304 58593704 58994956 59418652 
2822.545 59865600 60338400 60839468 61372452 61940292 62545812 63189856 
2825.921 63872716 64595960 65363124 66180928 67058608 68005048 69025776 
2829.296 70121112 71285048 72505856 73769496 75064144 76383024 77726448 
2832.671 79102584 80524088 82006280 83560776 85194536 86907560 88694304 
2836.046 90544672 92450360 94406792 96414824 98482280 100620584 102840440 
2839.422 105149008 107545968 110024576 112574008 115185312 117856840 
2842.315 120596936 123426496 126372920 129466728 132734704 136192160 
2845.208 139840016 143660016 147614960 151645216 155668000 159579072 
2848.101 163257552 166572000 169396176 171622688 173178016 174032304 
2850.994 174199920 173735856 172722288 171253872 169426512 167327600 
2853.887 165033472 162610080 160114480 157597936 155104272 152670384 
2856.780 150322112 148073840 145929104 143884688 141932528 140065024 
2859.673 138276992 136567760 134938016 133390296 131928640 130553720 
2862.566 129266424 128065448 126949416 125916792 124965784 124097128 
2865.459 123311960 122612824 122002504 121482440 121050160 120697584 
2868.352 120410376 120169440 119952408 119737872 119509288 119258568 
2871.245 118988272 118709328 118440304 118203088 118018952 117904272 
2874.138 117868192 117910560 118023848 118193496 118402088 118633616 
2877.031 118876144 119124368 119382024 119659744 119973112 120340936 
2879.925 120781088 121307384 121929288 122648592 123460368 124354040 
2882.818 125313712 126321760 127362456 128423032 129499120 130592944 
2885.711 131713392 132874744 134090496 135369808 136716208 138124896 
2888.604 139583424 141075872 142584352 144093296 145591456 147072912 
2891.497 148536688 149986704 151429456 152871648 154319200 155776176 
2894.390 157243104 158719472 160204400 161699920 163210864 164748672 
2897.283 166326192 167958320 169655664 171422720 173256880 175148576 
2900.176 177085776 179058384 181062448 183101680 185186928 187332176 
2903.069 189552464 191856720 194248048 196725632 199284256 201922784 
2905.962 204643680 207458112 210383360 213440224 216648832 220025184 
2908.855 223578672 227311408 231220832 235301008 239545680 243949504 
2911.748 248505168 253199936 258009824 262897040 267805840 272665504 
2914.641 277398464 281925408 286175712 290093696 293641312 296796064 
2917.534 299546496 301886208 303810016 305311552 306386656 307034944 
2920.427 307265024 307096672 306557792 305684416 304513024 303079904 
2923.321 301416704 299551680 297512096 295325184 293020512 290629248 
2926.214 288180544 285698912 283200000 280690912 278170112 275632608 
2929.107 273074144 270496160 267906816 265319888 262750928 260210160 
2932.000 257698688 255208784 252723360 250224208 247698944 245145344 
2934.893 242572304 239999072 237444464 234922224 232434432 229968960 
2937.786 227507056 225027424 222516496 219972192 217405440 214835312 
2940.679 212281968 209759040 207271392 204814512 202378320 199954448 
2943.572 197539120 195136464 192755856 190409344 188105952 185849504 
2946.465 183639888 181473696 179349328 177268944 175238800 173267472 
2949.358 171361728 169523504 167746352 166016960 164317216 162627584 
2952.251 160932432 159221984 157496304 155762128 154033344 152326224 
2955.144 150657552 149041344 147487552 145998656 144572864 143202256 
2958.037 141875808 140582256 139311504 138058880 136825200 135617296 
2960.930 134447760 133329440 132274272 131288456 130369824 129508552 
2963.823 128686472 127881888 127073448 126242536 125376584 124471128 
2966.717 123526880 122549808 121548048 120531960 119510872 118492856 
2969.610 117486008 116494856 115521360 114564008 113619040 112681232 
2972.503 111746824 110815072 109887768 108969240 108061792 107164760 
2975.396 106271192 105369512 104449064 103502808 102532816 101550248 
2978.289 100572488 99617464 98695864 97807128 96939368 96073296 95190656 
2981.664 94281776 93351376 92417024 91505008 90642768 89848328 89128576 
2985.039 88476376 87874560 87302584 86741680 86178408 85607592 85028936 
2988.415 84445712 83863720 83288992 82728816 82193296 81694544 81247008 
2991.790 80866240 80567656 80363544 80261384 80262616 80363544 80554872 
2995.165 80824736 81161488 81556888 82007064 82513296 83077880 83701536 
2998.540 84378808 85094696 85823728 86535104 87196688 87781496 88271904 
3001.916 88660768 88947296 89134672 89223152 89209224 89086168 88848304 
3005.291 88495616 88036296 87486992 86872352 86218048 85547984 84881912 
3008.666 84235728 83621544 83051696 82538512 82094432 81730304 81453984 
3012.041 81270144 81181936 81194288 81315224 81557128 81936744 82470064 
3015.417 83171000 84049272 85109336 86353040 87781280 89396992 91203224 
3018.792 93201008 95384808 97740248 100243088 102859936 105553920 108286112 
3022.167 111020520 113722136 116354808 118878256 121245440 123401672 
3025.060 125289928 126853424 128044608 128827688 129185664 129116368 
3027.953 128634360 127768504 126557304 125046864 123286832 121327408 
3030.846 119212952 116981528 114660760 112270608 109827104 107345072 
3033.739 104846960 102361656 99925952 97578600 95354408 93278608 91362360 
3037.115 89603264 87988984 86502568 85128408 83855488 82675696 81583504 
3040.490 80571344 79629840 78745536 77905264 77098504 76321688 75580104 
3043.865 74884736 74250624 73693112 73223856 72850248 72576240 72404528 
3047.240 72339304 72385856 72550584 72838656 73249664 73775080 74397096 
3050.615 75090688 75827776 76580936 77332256 78074160 78812272 79562304 
3053.991 80345016 81178968 82074984 83031864 84037616 85070128 86105240 
3057.366 87119528 88093616 89011168 89858080 90616424 91264792 91777432 
3060.741 92128440 92297872 92275104 92060632 91666320 91109608 90409664 
3064.116 89584440 88650632 87625656 86530600 85392792 84243160 83113984 
3067.492 82032008 81014312 80065448 79182768 78356168 77577824 76844512 
3070.867 76156408 75518328 74935248 74409832 73942248 73531920 73179040 
3074.242 72885096 72652760 72482560 72372024 72315488 72306808 72343976 
3077.617 72431728 72583904 72819728 73152936 73587568 74107336 74677632 
3080.993 75248568 75767936 76189392 76483944 76639208 76657680 76548072 
3084.368 76317680 75967088 75489072 74874648 74116456 73216432 72187744 
3087.743 71054352 69847760 68602776 67352336 66125496 64943784 63823216 
3091.118 62773428 61798788 60901540 60082296 59343092 58685344 58113352 
3094.494 57628432 57229556 56910180 56659248 56462856 56307404 56181768 
3097.869 56080292 56002236 55949828 55926216 55934700 55977012 56053520 
3101.244 56164532 56308264 56479604 56668492 56858960 57029872 57159440 
3104.619 57228096 57223028 57140668 56984104 56759660 56474860 56134968 
3107.995 55743764 55307812 54837640 54350768 53869808 53416120 53006068 
3111.370 52644672 52326560 52038752 51767740 51504856 51248784 51004692 
3114.745 50780060 50578864 50398536 50230164 50063164 49888304 49704088 
3118.120 49516852 49337932 49179556 49050724 48955416 48891272 48854872 
3121.496 48842588 48851312 48879652 48923576 48975220 49022048 49047872 
3124.871 49038476 48982812 48879248 48734740 48563268 48384132 48218392 
3128.246 48084824 47998588 47968508 47996196 48074184 48187116 48313948 
3131.621 48431164 48518520 48563636 48565948 48534792 48486960 48441036 
3134.997 48410708 48401152 48408804 48423252 48431120 48421220 48387736 
3138.372 48331276 48258764 48179856 48106536 48048404 48012984 48002140 
3141.747 48013924 48041996 48077524 48112404 48141364 48162992 48181812 
3145.122 48203996 48236212 48280320 48330920 48376460 48399540 48383612 
3148.498 48316664 48195568 48028064 47832652 47634284 47459880 47333440 
3151.873 47270736 47277328 47345536 47457580 47587948 47709812 47801636 
3155.248 47851808 47862796 47848136 47829012 47826568 47853812 47912044 
3158.623 47990020 48069100 48129668 48160656 48162144 48147912 48139520 
3161.999 48158904 48222252 48332712 48480468 48644452 48798940 48919492 
3165.374 48989540 49002336 48962608 48885040 48789196 48694404 48617972 
3168.749 48569144 48548680 48548896 48556276 48555280 48532956 48483400 
3172.124 48410440 48326780 48250608 48202308 48197208 48243424 48337244 
3175.500 48466416 48611872 48754436 48877980 48973960 49043024 49092924 
3178.875 49134744 49181272 49240808 49317288 49409740 49513800 49624232 
3182.250 49735800 49844780 49948668 50043064 50122624 50181528 50214072 
3185.625 50218068 50196324 50157616 50114952 50082232 50070436 50083804 
3189.000 50119092 50167324 50214572 50249124 50261112 50247104 50209084 
3192.376 50153712 50089004 50025384 49970300 49929792 49907152 49900744 
3195.751 49906848 49918216 49928276 49931084 49925216 49911876 49895564 
3199.126 49880564 49869728 49862516 49854972 49842580 49823372 49798772 
3202.501 49776136 49764608 49773192 49806760 49863996 49938088 50019792 
3205.877 50098440 50168088 50224100 50266464 50294740 50307364 50301588 
3209.252 50274092 50222888 50152480 50071572 49994836 49938380 49917524 
3212.627 49941456 50012508 50122648 50258000 50398364 50523316 50616840 
3216.002 50671608 50691912 50694204 50703236 50745884 50842612 51000548 
3219.378 51208212 51439096 51655920 51823880 51919696 51937660 51891468 
3222.753 51808376 51719388 51648104 51605284 51586068 51574384 51551268 
3226.128 51500856 51418396 51310732 51193952 51089124 51016768 50992660 
3229.503 51024236 51110100 51240944 51401264 51571872 51733652 51870496 
3232.879 51971928 52034928 52061700 52059340 52034400 51993104 51938668 
3236.254 51873872 51801484 51729748 51669236 51633520 51634084 51676064 
3239.629 51755240 51857172 51961032 52044976 52091500 52094004 52056052 
3243.004 51992324 51922568 51867388 51843872 51861056 51920304 52016268 
3246.380 52138628 52275632 52416052 52551488 52675356 52783520 52871036 
3249.755 52932876 52961076 52949472 52893812 52797860 52674720 52547068 
3253.130 52444564 52394720 52416804 52513768 52671316 52860156 53044828 
3256.505 53195288 53294588 53343280 53357228 53359860 53370892 53401660 
3259.881 53449048 53499688 53539356 53559728 53564944 53571976 53604252 
3263.256 53681568 53810352 53978940 54157720 54308464 54394836 54395680 
3266.631 54311260 54164880 53994152 53841400 53739352 53701936 53722584 
3270.006 53777304 53835312 53868696 53862000 53816568 53747476 53676900 
3273.382 53625916 53608128 53626844 53676872 53749460 53838648 53942508 
3276.757 54065684 54214744 54393528 54598016 54817360 55034196 55231036 
3280.132 55396308 55527860 55632208 55722456 55811840 55906216 56003580 
3283.507 56091800 56155708 56181732 56164732 56110488 56035716 55962848 
3286.883 55915808 55913916 55969016 56086916 56266384 56502396 56788284 
3290.258 57114140 57466832 57827880 58175156 58484192 58734392 58912960 
3293.633 59017556 59058280 59054064 59027320 58999096 58984056 58989044 
3297.008 59013720 59053540 59101244 59150652 59193692 59221832 59224216 
3300.384 59189688 59107948 58974680 58793860 58576988 58343340 58112044 
3303.759 57898384 57708408 57538224 57375768 57208260 57025900 56828024 
3307.134 56623152 56425904 56252200 56112324 56006736 55926312 55853852 
3310.509 55770312 55660292 55517760 55345992 55158804 54974900 54814332 
3313.885 54692640 54619268 54595044 54613484 54664672 54736308 54817772 
3317.260 54901328 54984108 55067248 55152600 55244248 55343360 55449476 
3320.635 55558484 55662384 55752708 55819376 55853228 55848856 55804304 
3324.010 55723692 55615580 55493480 55373872 55274040 55209576 55191816 
3327.385 55226388 55311020 55435448 55582732 55731436 55858876 55945176 
3330.761 55978396 55956332 55888016 55791796 55691544 55609056 55561092 
3334.136 55552820 55578768 55624008 55670052 55700048 55703504 55678572 
3337.511 55630780 55571584 55513880 55468328 55442080 55438592 55456708 
3340.886 55492324 55537712 55582652 55617028 55628728 55611196 55561780 
3344.262 55485868 55393248 55298644 55215992 55155204 55122036 55115816 
3347.637 55133772 55171668 55227784 55301204 55391596 55495500 55606012 
3351.012 55710568 55794504 55843496 55847832 55803456 55715784 55595180 
3354.387 55457124 55318924 55196864 55103988 55047580 55027880 55038212 
3357.763 55064140 55088572 55094512 55072136 55021676 54953732 54886936 
3361.138 54842080 54832832 54863024 54921436 54989480 55044228 55068548 
3364.513 55057576 55019388 54972392 54938932 54937076 54976452 55052788 
3367.888 55153820 55259996 55351140 55410420 55427280 55397628 55324372 
3371.264 55216052 55086380 54952268 54830888 54739764 54691544 54692284 
3374.639 54742112 54833392 54954548 55090840 55227644 55351724 55452592 
3378.014 55522464 55557360 55557724 55528680 55480192 55426112 55380628 
3381.389 55354900 55355120 55379536 55419320 55462840 55498220 55517656 
3384.765 55519740 55510064 55498168 55493952 55501972 55522340 55546904 
3388.140 55564732 55563884 55537048 55485360 55416852 55346944 55291580 
3391.515 55262816 55263672 55286344 55314400 55326808 55304784 55237912 
3394.890 55127936 54987932 54837508 54698612 54587956 54514760 54478696 
3398.266 54473692 54491580 54526428 54573896 54633892 54704776 54783748 
3401.641 54865204 54940132 55001980 55047096 55077604 55100632 55124588 
3405.016 55155816 55195012 55235860 55266300 55273408 55247604 55185452 
3408.391 55092332 54978460 54856464 54737016 54625768 54523976 54428272 
3411.767 54336172 54248148 54167628 54101032 54055776 54035368 54038300 
3415.142 54057436 54082552 54102868 54112264 54110032 54101816 54097584 
3418.517 54107924 54140700 54197088 54273956 54361772 54450788 54532084 
3421.892 54599392 54652032 54690200 54716256 54733032 54740968 54740916 
3425.268 54732720 54717576 54698668 54680448 54667656 54664972 54674304 
3428.643 54694500 54720564 54746060 54763788 54767352 54755240 54730616 
3432.018 54701264 54677336 54668492 54679368 54707456 54742052 54766620 
3435.393 54764032 54721656 54636976 54519208 54388076 54268836 54184312 
3438.769 54150204 54170316 54236060 54331008 54435796 54533060 54611896 
3442.144 54668052 54701852 54716848 54714692 54696196 54659108 54603180 
3445.519 54529724 54445120 54361316 54293964 54258568 54266624 54322200 
3448.894 54418424 54539220 54661824 54763136 54824032 54836672 54804000 
3452.270 54739408 54660440 54584900 54522628 54475288 54436008 54394580 
3455.645 54343176 54277976 54202312 54124140 54052116 53991964 53944256 
3459.020 53906044 53872212 53838964 53805356 53773152 53744748 53719664 
3462.395 53695520 53666020 53626760 53572624 53505512 53429688 53352308 
3465.771 53279548 53215096 53160036 53111972 53068656 53029616 52995920 
3469.146 52970312 52956000 52957524 52978940 53025492 53102912 53215856 
3472.521 53365200 53543332 53735004 53915892 54059988 54143860 54157820 
3475.896 54105052 54003448 53878544 53754564 53647160 53559076 53482188 
3479.271 53401352 53303888 53183712 53045112 52901712 52772744 52678508 
3482.647 52636340 52658324 52747952 52900136 53099952 53320176 53526624 
3486.022 53681208 53750996 53716288 53577188 53358220 53099356 52849692 
3489.397 52652180 52536028 52507976 52557012 52658884 52786776 52918544 
3492.772 53043532 53159928 53272284 53386596 53505620 53626252 53742716 
3496.148 53847568 53934464 54002048 54051280 54085752 54108696 54122408 
3499.523 54125780 54115696 54088300 54040816 53971568 53883432 53781096 
3502.898 53670432 53558420 53450360 53351532 53266760 53202528 53167740 
3506.273 53172172 53223876 53326256 53472972 53647544 53826036 53981828 
3509.649 54093456 54149932 54156284 54129496 54093776 54070816 54075108 
3513.024 54108336 54161960 54221504 54273460 54310960 54333252 54346500 
3516.399 54358540 54373956 54394096 54412784 54420596 54407284 54362296 
3519.774 54278640 54154716 53995364 53812548 53627636 53466512 53357688 
3523.150 53325216 53382572 53528312 53745712 54007476 54280360 54535096 
3526.525 54748992 54909696 55012660 55057732 55045748 54979584 54863592 
3529.900 54706856 54525964 54341420 54176836 54051856 53977660 53955928 
3533.275 53976876 54025108 54083296 54135444 54170856 54182860 54169732 
3536.651 54132688 54077924 54014028 53951576 53902464 53875440 53874892 
3540.026 53899476 53942652 53993628 54041324 54076640 54092872 54085276 
3543.401 54049476 53981796 53881268 53750428 53598400 53441736 53302304 
3546.776 53200932 53153904 53166352 53231752 53332456 53446712 53553448 
3550.152 53636100 53685904 53701468 53687556 53650376 53598916 53540016 
3553.527 53479752 53421304 53363212 53301320 53228808 53139204 53030424 
3556.902 52907132 52780260 52666668 52581096 52532224 52518608 52529136 
3560.277 52545044 52546908 52520696 52459204 52363992 52241168 52098420 
3563.653 51943680 51782812 51624468 51479536 51361940 51286080 51263336 
3567.028 51295676 51375792 51487468 51608948 51720580 51806184 51857328 
3570.403 51870824 51848340 51790500 51698260 51574920 51426112 51263196 
3573.778 51102824 50964460 50866080 50820928 50832428 50894620 50992836 
3577.154 51105156 51206992 51275760 51294188 51253308 51156636 51018652 
3580.529 50862852 50716104 50602920 50538992 50529248 50565840 50635196 
3583.904 50721380 50811876 50898476 50977248 51044624 51093480 51114720 
3587.279 51096780 51032408 50920848 50770212 50596324 50417612 50250312 
3590.655 50107540 49998172 49929564 49911320 49953172 50062020 50236804 
3594.030 50459996 50698768 50909832 51049700 51089412 51024492 50878904 
3597.405 50697588 50535692 50439156 50434712 50519796 50668736 50838908 
3600.780 50986584 51078228 51099368 51053312 50960624 50850280 50750280 
3604.156 50681460 50653940 50661956 50692176 50723760 50740048 50731024 
3607.531 50700280 50664704 50647648 50673304 50756164 50895384 51072340 
3610.906 51256660 51413960 51516292 51550008 51519528 51443772 51351164 
3614.281 51269056 51217744 51204896 51226948 51271040 51321456 51362848 
3617.656 51387152 51393008 51386852 51380940 51389272 51425728 51497652 
3621.032 51604928 51741000 51891636 52040824 52173436 52280408 52359236 
3624.407 52414128 52454616 52492392 52536636 52594060 52665032 52744856 
3627.782 52824704 52893756 52940824 52958796 52944688 52902716 52842076 
3631.157 52774328 52709668 52653460 52603212 52551828 52488484 52405700 
3634.533 52304980 52198140 52108084 52063448 52089152 52200424 52397940 
3637.908 52664932 52972932 53287172 53575108 53813264 53990232 54107232 
3641.283 54174192 54205968 54215640 54212572 54200264 54177584 54142524 
3644.658 54094704 54040248 53990536 53961680 53968440 54018464 54109004 
3648.034 54223844 54336840 54416960 54439300 54391292 54276200 54112264 
3651.409 53925896 53744388 53588880 53469528 53388076 53341284 53325792 
3654.784 53340460 53389084 53476168 53599864 53752936 53916828 54066868 
3658.159 54175192 54218952 54184836 54073292 53898008 53683936 53460044 
3661.535 53256456 53095604 52990936 52946972 52958332 53011868 53090516 
3664.910 53174332 53244116 53280508 53268300 53197296 53066096 52884260 
3668.285 52674872 52470868 52309416 52225448 52238600 52349136 52535884 
3671.660 52759804 52974492 53138320 53222424 53214052 53117088 52944708 
3675.036 52717684 52454392 52173328 51890740 51621960 51383612 51188256 
3678.411 51043712 50949612 50894744 50861392 50830288 50786840 50724128 
3681.786 50644520 50554816 50459564 50359120 50246320 50113464 49956780 
3685.161 49783704 49614496 49480792 49413944 49436148 49551372 49741352 
3688.537 49971764 50199736 50386032 50506804 50555168 50541212 50485584 
3691.912 50412396 50341096 50282016 50236688 50200312 50164052 50122484 
3695.287 50076728 50035004 50012604 50026200 50085176 50188524 50318576 
3698.662 50443116 50524184 50527736 50438304 50262696 50032808 49796684 
3702.038 49603680 49491216 49472480 49536628 49655332 49795216 49928192 
3705.413 50042964 50140168 50230432 50323256 50418260 50504928 50564748 
3708.788 50579180 50538708 50446612 50319988 50183336 50061492 49973492 
3712.163 49928736 49926712 49961884 50026364 50112064 50211504 50315288 
3715.539 50411740 50485860 50522516 50511288 50447560 50337440 50194636 
3718.914 50037440 49885312 49753868 49653536 49590568 49567116 49584860 
3722.289 49645196 49747152 49888064 50061848 50256576 50458240 50652348 
3725.664 50825888 50968904 51076416 51144584 51172996 51161008 51109352 
3729.040 51022496 50908468 50781792 50660700 50565984 50516524 50523312 
3732.415 50588652 50703016 50849568 51005996 51151128 51267048 51343668 
3735.790 51377504 51371996 51335184 51278032 51209368 51138516 51069180 
3739.165 51002260 50935704 50867600 50796288 50725720 50663068 50622400 
3742.541 50617536 50662568 50762760 50914308 51100208 51296036 51473880 
3745.916 51609888 51689688 51711080 51683128 51621724 51545808 51472696 
3749.291 51414064 51374900 51356376 51355664 51371632 51403636 51452324 
3752.666 51519120 51601844 51695764 51791128 51875724 51936844 51965220 
3756.042 51957244 51916632 51853524 51782300 51718644 51675668 51660316 
3759.417 51675684 51718056 51781660 51859552 51944676 52030980 52112924 
3762.792 52184860 52243432 52283732 52304076 52305364 52290036 52262596 
3766.167 52226008 52183088 52134096 52078916 52016632 51949820 51880812 
3769.542 51813964 51753168 51699700 51654604 51617752 51591332 51580780 
3772.918 51594208 51639112 51719784 51830804 51958256 52081092 52176716 
3776.293 52228076 52228156 52183664 52109832 52026416 51949580 51888232 
3779.668 51842500 51806852 51772608 51733576 51686384 51629996 51565200 
3783.043 51491064 51408772 51320768 51236748 51172392 51145264 51171968 
3786.419 51260924 51407768 51594672 51797824 51990956 52155776 52285648 
3789.794 52383816 52459448 52521744 52573432 52611632 52627404 52613856 
3793.169 52568512 52497992 52413168 52328984 52259576 52212344 52190552 
3796.544 52192116 52211988 52244204 52280704 52313720 52334516 52336612 
3799.920 52318176 52283868 52245664 52219272 52218740 52249164 52303904 
3803.295 52364124 52405624 52406796 52356196 52257812 52130400 52001784 
3806.670 51901648 51852392 51864032 51934660 52052564 52201116 52364308 
3810.045 52525860 52672480 52792940 52877972 52923136 52928524 52901688 
3813.421 52855948 52807708 52772376 52761296 52778660 52821232 52880900 
3816.796 52943860 52997812 53027880 53023216 52974916 52881016 52749076 
3820.171 52596200 52448412 52337956 52290340 52322284 52431224 52600088 
3823.546 52799856 53000484 53177508 53319252 53425188 53502212 53556608 
3826.922 53589948 53597876 53571624 53507112 53407732 53289352 53175004 
3830.297 53090512 53053556 53069140 53126812 53205196 53278896 53327816 
3833.672 53341084 53320512 53275400 53219648 53165200 53120056 53087364 
3837.047 53067392 53060016 53063272 53075712 53093544 53110584 53117648 
3840.423 53109212 53081328 53040044 52996500 52968064 52970380 53012772 
3843.798 53092656 53195428 53297044 53371080 53396972 53365516 53284308 
3847.173 53173084 53060924 52976760 52942072 52964108 53036300 53139204 
3850.548 53246996 53334672 53386012 53397040 53376456 53343724 53321932 
3853.924 53330976 53381284 53469192 53579804 53689520 53774212 53814448 
3857.299 53800980 53736968 53637296 53523224 53417832 53340280 53301264 
3860.674 53300264 53327784 53370500 53412960 53445392 53463292 53469576 
3864.049 53470296 53472872 53480604 53492428 53504792 53511460 53509932 
3867.425 53501132 53492056 53491840 53508700 53547128 53604900 53673268 
3870.800 53741524 53800000 53841932 53866920 53875480 53869736 53845832 
3874.175 53798460 53718080 53599632 53444052 53262340 53074640 52904272 
3877.550 52773908 52696956 52676992 52708600 52780128 52880736 53002068 
3880.926 53139624 53288764 53441672 53584544 53699036 53767204 53778660 
3884.301 53735908 53655952 53566668 53497308 53468324 53485328 53535032 
3887.676 53594588 53638076 53648848 53626504 53586728 53555320 53558628 
3891.051 53611048 53710452 53836384 53956624 54037744 54054824 54001844 
3894.427 53891976 53753840 53623808 53534916 53507836 53546172 53635832 
3897.802 53749236 53855620 53929488 53958432 53948028 53919076 53901732 
3901.177 53927344 54016076 54175188 54391220 54635244 54869076 55053952 
3904.552 55158172 55166060 55080504 54922612 54726732 54533368 54380888 
3907.927 54294284 54280264 54325328 54397700 54456976 54465828 54401104 
3911.303 54261428 54069024 53864412 53694696 53599488 53602744 53706920 
3914.678 53892788 54128528 54375884 54599340 54772096 54877216 54907428 
3918.053 54866324 54765008 54621176 54457068 54297492 54162704 54065704 
3921.428 54007840 53981624 53972832 53968740 53962492 53958116 53966632 
3924.804 54002784 54077480 54191936 54337312 54497916 54656280 54798176 
3928.179 54916588 55011504 55085348 55141860 55180500 55200856 55201972 
3931.554 55185340 55156044 55120552 55084384 55048200 55009320 54962216 
3934.929 54903248 54836596 54772624 54726416 54710088 54727692 54769964 
3938.305 54819508 54853848 54856924 54826436 54773572 54722844 54699344 
3941.680 54721404 54790396 54894752 55009928 55112044 55182348 55215812 
3945.055 55217708 55200828 55178268 55156936 55139092 55121796 55101236 
3948.430 55078916 55060116 55052784 55065724 55103528 55165536 55245956 
3951.806 55335716 55426456 55510452 55582152 55636700 55668516 55672592 
3955.181 55645008 55587756 55508840 55424352 55354872 55321000 55336400 
3958.556 55403288 55512988 55645620 55777216 55886748 55960256 55993368 
3961.931 55990012 55958040 55905712 55838052 55757476 55665900 55566852 
3965.307 55467500 55378856 55311500 55272756 55262380 55273028 55291284 
3968.682 55303436 55301056 55282924 55257580 55238076 55238132 55267792 
3972.057 55327100 55409104 55501460 55591544 55669400 55731652 55778400 
3975.432 55814268 55843768 55867956 55885208 55890896 55880244 55849580 
3978.808 55799164 55733764 55662624 55597460 55551628 55535468 55554452 
3982.183 55605872 55679236 55756444 55815124 55835784 55805592 55723576 
3985.558 55602412 55464860 55340648 55257468 55235640 55282832 55394164 
3988.933 55552876 55737576 55925336 56099644 56251604 56379704 56490088 
3992.309 56589016 56681548 56766860 56838244 56886136 56901616 56881812 
3995.684 56833276 56772412 56720300 56696900 56713044 56765192 56839652 
3999.059 56912492 56963312 56981544 56973208 
##END=
