##TITLE=eSUN_PETG_Black_Filament_r6_ATR-Corrected
##JCAMP-DX=5.01  $$ Nicolet v. 1
##DATATYPE=INFRARED SPECTRUM
##ORIGIN=Curtin University
##OWNER=Nicolet
##LONGDATE=2024/07/10
##TIME=15:44:44
##SPECTROMETER/DATA SYSTEM=Nicolet iS50
##DATA PROCESSING=
Ratio against background
%Transmittance->Absorbance
ATR Correction
Truncated
ElementMultiply or ElementDivide
##COMMENTS=
Number of sample scans: 32
Collection length: 47.27 sec
Sample gain: 1.0
Background collected on: Wed Jul 10 15:39:40 2024 (GMT+08:00);
Number of background scans: 32
Background gain: 1.0
Sample spacing:  1.000
Number of scan points: 16672
Resolution points: 8192
Number of FFT points: 65536
Apodization: N-B strong;
Phase correction: Mertz;
Laser frequency: 15798.3 cm-1
Number of rejected sample scans: 0
Number of rejected background scans: 0
Bench serial number: AUP1200105;
##RESOLUTION=4.000
##XUNITS=1/CM
##YUNITS=ABSORBANCE
##FIRSTX=400.163452
##LASTX=4000.187744
##FIRSTY=0.040097
##MAXX=4000.187744
##MINX=400.163452
##MAXY=1.624612
##MINY=-0.013540
##XFACTOR=1.000000
##YFACTOR=1.000000E-008
##NPOINTS=7468
##DELTAX=0.482125
##ZPD=8192
##XYDATA=(X++(Y..Y))
400.163 4009730 3908569 3846179 3828348 3854159 3915726 4000164 4091701 
404.020 4175023 4238251 4275710 4288913 4286032 4279057 4279818 4295987 
407.877 4328702 4372457 4417829 4455038 4477659 4484338 4478495 4465852 
411.734 4451648 4438173 4424453 4407124 4382935 4350700 4312393 4272624 
415.591 4237136 4210951 4197183 4196730 4208944 4232418 4265839 4308001 
419.448 4357709 4413263 4472479 4532693 4591278 4645855 4694229 4734174 
423.305 4763240 4778874 4779349 4764853 4738558 4706691 4677421 4658476 
427.162 4654559 4665149 4684224 4701739 4706807 4691072 4651450 4590904 
431.019 4517345 4440836 4370831 4313592 4271954 4245362 4231526 4227784 
434.876 4232177 4243498 4260948 4283277 4308301 4332699 4352496 4363792 
438.733 4363693 4351071 4326998 4294591 4258449 4223675 4194749 4174526 
442.590 4163787 4161194 4164056 4169149 4173844 4176558 4176912 4175247 
446.447 4172032 4167384 4161089 4152916 4143316 4133746 4126652 4124742 
450.304 4130011 4142778 4161374 4182426 4201925 4216424 4223960 4224424 
454.161 4219222 4210541 4200651 4191440 4184477 4181192 4183111 4191672 
458.017 4207762 4231039 4259602 4290064 4318423 4341106 4356034 4363093 
461.874 4363907 4360870 4356137 4350681 4344415 4336476 4326333 4314491 
465.731 4302812 4294013 4290843 4294968 4306498 4323978 4345164 4367981 
469.588 4391327 4415271 4440711 4468446 4498511 4529662 4559685 4586134 
473.445 4607289 4622798 4633941 4643042 4652798 4665376 4681852 4702188 
477.302 4725611 4751153 4778139 4806367 4836004 4867136 4899532 4932391 
481.159 4964581 4994960 5022948 5048787 5073683 5099542 5128462 5162189 
485.016 5201591 5246430 5295459 5346735 5398250 5448466 5496867 5544171 
488.873 5592345 5644227 5702973 5771375 5851238 5942950 6045338 6155818 
492.730 6270876 6386698 6499874 6607984 6709918 6805935 6897366 6985974 
496.587 7073223 7159425 7243247 7321382 7388961 7440316 7470176 7474901 
500.444 7453342 7407196 7340501 7258571 7166724 7069025 6967684 6862969 
504.301 6753846 6638796 6516775 6387682 6252639 6113699 5973543 5835012 
508.158 5700990 5574269 5457534 5353247 5263346 5188841 5129453 5083401 
512.015 5047638 5018360 4991840 4965142 4936678 4906261 4874777 4843635 
515.871 4814166 4787180 4762879 4740957 4720892 4702177 4684452 4667482 
519.728 4651048 4634797 4618264 4600885 4582238 4562198 4541037 4519427 
523.585 4498297 4478566 4460935 4445643 4432374 4420269 4408125 4394644 
527.442 4378729 4359730 4337630 4312975 4286722 4259958 4233596 4208209 
531.299 4184009 4160963 4139109 4118673 4100180 4084335 4071746 4062591 
535.156 4056419 4051998 4047566 4041108 4030810 4015473 3994814 3969638 
539.013 3941767 3913805 3888686 3869065 3856698 3851861 3853106 3857364 
542.870 3860624 3858824 3849002 3830059 3803075 3770951 3737523 3706443 
546.727 3680219 3659748 3644508 3633090 3623989 3616116 3608945 3602215 
550.584 3595461 3587647 3577185 3562340 3541910 3515790 3485285 3452716 
554.441 3420829 3391871 3366979 3346004 3327646 3310182 3292064 3272371 
558.298 3250919 3228099 3204552 3180945 3157846 3135820 3115508 3097609 
562.155 3082686 3070861 3061588 3053564 3045035 3034309 3020341 3003181 
566.012 2984035 2964941 2948175 2935508 2927757 2924553 2924531 2925769 
569.869 2926310 2924633 2919907 2912062 2901708 2889876 2877812 2866594 
573.725 2856944 2848958 2842091 2835210 2826942 2816063 2801919 2784731 
577.582 2765582 2746204 2728495 2714080 2703952 2698380 2697052 2699335 
581.439 2704678 2712698 2723300 2736497 2752258 2770391 2790468 2811895 
585.296 2834067 2856483 2878880 2901261 2923913 2947424 2972629 3000538 
589.153 3032182 3068468 3109993 3156935 3209091 3265988 3327071 3391863 
593.010 3459980 3531006 3604233 3678384 3751583 3821358 3884962 3939703 
596.867 3983293 4013945 4030351 4031584 4017058 3986648 3940990 3881767 
600.724 3811910 3735373 3656575 3579675 3507804 3442623 3384297 3331964 
604.581 3284398 3240624 3200338 3163932 3132178 3105845 3085353 3070632 
608.438 3061213 3056365 3055345 3057380 3061724 3067514 3073834 3079743 
612.295 3084503 3087725 3089432 3089973 3089843 3089520 3089332 3089557 
616.152 3090535 3092806 3097090 3104142 3114526 3128321 3145077 3163936 
620.009 3183936 3204329 3224886 3245825 3267733 3291285 3316968 3345058 
623.866 3375620 3408703 3444551 3483811 3527719 3578284 3638418 3711831 
627.723 3802602 3914192 4048039 4201871 4368465 4535281 4685617 4801317 
631.579 4866695 4872343 4817852 4712206 4571706 4416150 4264479 4131237 
635.436 4024728 3946993 3895301 3864297 3848068 3841526 3840924 3843841 
639.293 3848701 3854560 3860974 3868071 3876497 3887245 3901149 3918453 
643.150 3938583 3960248 3981984 4002754 4022367 4041494 4061204 4082275 
647.007 4104590 4126888 4147101 4163006 4173028 4176760 4175094 4169895 
650.864 4163385 4157624 4154222 4154234 4158380 4167212 4181105 4200203 
654.721 4224200 4252258 4283080 4315182 4347178 4378063 4407269 4434542 
658.578 4459771 4482827 4503701 4522653 4540465 4558545 4578701 4602713 
662.435 4631739 4665965 4704430 4745353 4786680 4826680 4864383 4899689 
666.292 4933170 4965732 4998342 5031862 5067143 5105173 5147125 5194288 
670.149 5247759 5308090 5375079 5447770 5524742 5604565 5686253 5769623 
674.006 5855263 5944329 6038137 6137770 6243713 6355648 6472308 6591430 
677.863 6709774 6823297 6927527 7018140 7091720 7146442 7182504 7202136 
681.720 7209128 7208007 7203178 7198196 7195449 7196275 7201283 7210876 
685.577 7225545 7246043 7273256 7307978 7350692 7401488 7460103 7526116 
689.433 7599156 7679043 7765904 7860090 7962177 8072842 8192789 8322694 
693.290 8463139 8614626 8777618 8952676 9140684 9342983 9561507 9798609 
697.147 10056750 10337941 10643246 10972347 11323468 11693530 12078544 
700.522 12474170 12876011 13279846 13681681 14077669 14464284 14838494 
703.897 15198207 15542680 15872742 16190724 16499981 16804274 17107110 
707.272 17411214 17718416 18029906 18346710 18670432 19003920 19351858 
710.647 19721364 20122214 20566948 21070722 21650886 22326286 23116522 
714.021 24041112 25118964 26368132 27805752 29448142 31310722 33407444 
717.396 35749880 38345728 41197324 44299928 47640448 51195700 54930000 
720.771 58790832 62701620 66551632 70184808 73394576 75934104 77554056 
724.146 78066160 77407880 75669376 73063072 69856824 66309232 62631480 
727.521 58975972 55441672 52085632 48934816 45995808 43262012 40718756 
730.896 38346808 36124984 34032044 32048070 30155540 28339866 26589686 
734.270 24896822 23256084 21664964 20123350 18633198 17198164 15823227 
737.645 14514080 13276662 12116601 11038694 10046551 9142296 8326334 7597199 
741.502 6951631 6384559 5889473 5458882 5084923 4759940 4477007 4230137 
745.359 4014377 3825660 3660591 3516317 3390422 3280869 3186020 3104497 
749.216 3035076 2976506 2927398 2886251 2851530 2821839 2796031 2773235 
753.073 2752816 2734227 2716928 2700423 2684412 2668968 2654582 2642171 
756.930 2632819 2627425 2626451 2629730 2636588 2646054 2657211 2669422 
760.787 2682443 2696368 2711462 2728113 2746773 2767977 2792477 2821118 
764.644 2854703 2893727 2938080 2986950 3038959 3092507 3146251 3199499 
768.501 3252455 3306045 3361603 3420327 3482816 3548812 3617130 3685842 
772.358 3752685 3815354 3871914 3921075 3962396 3996341 4024284 4048269 
776.214 4070700 4093962 4120053 4150373 4185680 4226255 4272265 4323982 
780.071 4382061 4447493 4521489 4605139 4699255 4804152 4919725 5045598 
783.928 5181364 5326806 5482002 5647398 5823649 6011479 6211484 6423937 
787.785 6648666 6884915 7131242 7385349 7643839 7901843 8152684 8387542 
791.642 8595511 8764023 8879967 8931340 8909205 8809626 8635061 8394726 
795.499 8103928 7782286 7451343 7131943 6841993 6594757 6398047 6254083 
799.356 6160048 6109164 6092124 6098785 6119681 6147308 6176782 6205779 
803.213 6233937 6261766 6289589 6316969 6342569 6364704 6382042 6394359 
807.070 6402758 6409380 6416636 6426336 6439037 6453936 6469258 6483093 
810.927 6494225 6502629 6509512 6516818 6526502 6539816 6556943 6576977 
814.784 6598314 6619176 6638096 6654163 6667127 6677189 6684867 6690851 
818.641 6695930 6701050 6707278 6715718 6727370 6742891 6762495 6785856 
822.498 6812265 6840858 6870862 6901918 6934077 6967808 7003780 7042645 
826.355 7084830 7130461 7179372 7231188 7285484 7341882 7400058 7459729 
830.212 7520681 7582728 7645844 7710257 7776544 7845595 7918394 7995734 
834.068 8077892 8164403 8254058 8345251 8436370 8526348 8614832 8702159 
837.925 8788963 8875623 8961848 9046529 9128042 9204847 9276160 9342355 
841.782 9404948 9466091 9527639 9590413 9653685 9715328 9772404 9822194 
845.639 9863028 9894816 9918944 9937788 9953811 9968916 9984028 9999123 
849.496 10013626 10026939 10038888 10049915 10061017 10073477 10088572 
852.871 10107356 10130551 10158619 10191821 10230299 10274088 10323099 
856.246 10377172 10436196 10500292 10570130 10647091 10733431 10832104 
859.621 10946464 11079761 11234751 11413335 11616588 11845008 12099071 
862.995 12379843 12689443 13031162 13409318 13828473 14292720 14804749 
866.370 15365140 15972008 16620816 17304534 18013612 18735972 19456980 
869.745 20159252 20822944 21426398 21947492 22365480 22663168 22828740 
873.120 22857014 22749524 22513684 22161268 21706636 21165348 20553284 
876.495 19886240 19179856 18449408 17709518 16973626 16253395 15558320 
879.870 14895444 14269525 13683352 13138211 12634306 12171161 11747877 
883.244 11363311 11016190 10705131 10428780 10185710 9974436 9793297 9640389 
887.101 9513447 9409873 9326792 9261169 9209990 9170426 9139933 9116306 
890.958 9097708 9082634 9069935 9058813 9048889 9040183 9033073 9028134 
894.815 9025924 9026723 9030323 9035983 9042414 9047955 9050716 9048705 
898.672 9039915 9022237 8993440 8951286 8893695 8819174 8727182 8618540 
902.529 8495394 8361022 8219246 8073760 7927551 7782589 7639917 7499997 
906.386 7363260 7230522 7103155 6982940 6871708 6770865 6681043 6602109 
910.243 6533222 6473253 6421173 6376331 6338542 6308010 6285145 6270253 
914.100 6263347 6264054 6271522 6284593 6301862 6321994 6343841 6366706 
917.957 6390390 6415198 6441775 6470821 6502859 6537993 6575811 6615549 
921.814 6656251 6697151 6737886 6778645 6820071 6863066 6908413 6956429 
925.671 7006754 7058316 7109444 7158279 7203202 7243275 7278520 7309963 
929.528 7339447 7369198 7401260 7437131 7477419 7521931 7569924 7620584 
933.385 7673414 7728492 7786506 7848549 7915740 7988947 8068627 8154851 
937.241 8247503 8346524 8452170 8565043 8686074 8816353 8956946 9108669 
941.098 9271976 9446841 9632678 9828334 10032132 10242005 10455699 10671127 
944.955 10886527 11100730 11313005 11522937 11730090 11933845 12133321 
948.330 12327585 12516025 12698767 12876874 13052353 13227744 13405526 
951.705 13587473 13774143 13964620 14156523 14346263 14529324 14700580 
955.080 14854586 14985886 15089349 15160704 15197128 15197681 15163749 
958.455 15099069 15009376 14901789 14784098 14663988 14548509 14443542 
961.829 14353672 14281991 14230126 14198308 14185566 14190067 14209464 
965.204 14241144 14282526 14330983 14383799 14437923 14489870 14535812 
968.579 14571835 14594337 14600500 14588624 14558159 14509553 14443903 
971.954 14362510 14266589 14157057 14034629 13899924 13753736 13597226 
975.329 13432096 13260671 13085857 12911023 12739752 12575546 12421442 
978.703 12279622 12151330 12036792 11935461 11846358 11768489 11701052 
982.078 11643519 11595450 11556224 11524747 11499401 11478068 11458542 
985.453 11438858 11417605 11394092 11368203 11340190 11310440 11279267 
988.828 11247081 11214562 11182881 11153851 11129807 11113231 11106313 
992.203 11110572 11126567 11153992 11192013 11239617 11296073 11361062 
995.578 11434678 11517202 11608906 11709838 11819906 11939009 12067235 
998.952 12205004 12353149 12512726 12684885 12870681 13071077 13287018 
1002.327 13519670 13770629 14042173 14337198 14659192 15012057 15399942 
1005.702 15827131 16298050 16817324 17389940 18021548 18718884 19490262 
1009.077 20346298 21300376 22368920 23570868 24926318 26453940 28167356 
1012.452 30070428 32152066 34381036 36701384 39029972 41257416 43254136 
1015.826 44882668 46015448 46555152 46451928 45711900 44394284 42598796 
1019.201 40448048 38070220 35585672 33098510 30692548 28430640 26356006 
1022.576 24494624 22858078 21446564 20251624 19258750 18449492 17803294 
1025.951 17298884 16915264 16632459 16432130 16297916 16215827 16174410 
1029.326 16164720 16180128 16215864 16268420 16335081 16413441 16501287 
1032.702 16596533 16697520 16803102 16912814 17026812 17145602 17269758 
1036.077 17399626 17534996 17675144 17818732 17963998 18108808 18250876 
1039.452 18387794 18517162 18636682 18744296 18838266 18917208 18980048 
1042.827 19026054 19054594 19065232 19057660 19031898 18988446 18928460 
1046.203 18853848 18767190 18671548 18570180 18466214 18362474 18261244 
1049.578 18164354 18073120 17988556 17911454 17842634 17783094 17734176 
1052.953 17697632 17675570 17670256 17683814 17717876 17773388 17850550 
1056.328 17948932 18067868 18206724 18365082 18542898 18740266 18957386 
1059.704 19194268 19450800 19726756 20022048 20336736 20671100 21025482 
1063.079 21400144 21795048 22210010 22644756 23099322 23574278 24070748 
1066.454 24590318 25134652 25705146 26302732 26927980 27581490 28264484 
1069.829 28979274 29729480 30519876 31355820 32242698 33185322 34187684 
1073.205 35252940 36383640 37581828 38849056 40185984 41591956 43064440 
1076.580 44598888 46188824 47826184 49501948 51206432 52929372 54659832 
1079.955 56385928 58095180 59774804 61413132 63000620 64530920 66001140 
1083.330 67411504 68764424 70063424 71312520 72515960 73678056 74803400 
1086.706 75896760 76962784 78005520 79028296 80033504 81022720 81996520 
1090.081 82953872 83891120 84800992 85671880 86488288 87232152 87885248 
1093.456 88431352 88857904 89155968 89319520 89343888 89224640 88957288 
1096.831 88538240 87965568 87240120 86365600 85348288 84196184 82918600 
1100.207 81525920 80029832 78443072 76779432 75052960 73277720 71467536 
1103.582 69636744 67800952 65978224 64189524 62458552 60810620 59271212 
1106.957 57864452 56611884 55531484 54637144 53938188 53438772 53137076 
1110.332 53024556 53085284 53296000 53626620 54041940 54503596 54972696 
1113.708 55412056 55788256 56073028 56244136 56285804 56189144 55951668 
1117.083 55576836 55072956 54451608 53726112 52910216 52017020 51058788 
1120.458 50046732 48991456 47902924 46790628 45663456 44529684 43396768 
1123.833 42271428 41159668 40066860 38997672 37956028 36944944 35966368 
1127.208 35021172 34109132 33229008 32378886 31556348 30758882 29984126 
1130.584 29230094 28495290 27778750 27079910 26398476 25734254 25086928 
1133.959 24456080 23841188 23241684 22657060 22087000 21531368 20990274 
1137.334 20463968 19952760 19456976 18976852 18512482 18063800 17630544 
1140.709 17212244 16808354 16418275 16041461 15677494 15326203 14987664 
1144.085 14662184 14350249 14052418 13769169 13500765 13247086 13007577 
1147.460 12781122 12566179 12360835 12163103 11971147 11783523 11599308 
1150.835 11418118 11239968 11065066 10893540 10725335 10560130 10397428 
1154.210 10236793 10078049 9921460 9767801 9618312 9474472 9337769 9209486 
1158.068 9090526 8981461 8882588 8794154 8716448 8650035 8595662 8554231 
1161.925 8526701 8513984 8516930 8536497 8573868 8630633 8708815 8810693 
1165.783 8938382 9093320 9275655 9483868 9714478 9962194 10220205 10480776 
1169.640 10735734 10977083 11197343 11389977 11549493 11671765 11754084 
1173.015 11795280 11795682 11756966 11681879 11573890 11436775 11274415 
1176.391 11090618 10889137 10673747 10448319 10216864 9983458 9752112 
1179.766 9526602 9310369 9106454 8917435 8745507 8592399 8459418 8347365 
1183.623 8256515 8186689 8137366 8107782 8097128 8104620 8129563 8171265 
1187.481 8229019 8302011 8389319 8489937 8602891 8727203 8861944 9006163 
1191.338 9158744 9318411 9483697 9653122 9825405 9999669 10175630 10353548 
1195.196 10534100 10718184 10906649 11100142 11299051 11503589 11713897 
1198.571 11930119 12152459 12381136 12616406 12858428 13107353 13363320 
1201.946 13626553 13897382 14176196 14463384 14759284 15064098 15378007 
1205.321 15701249 16034232 16377683 16732551 17100040 17481286 17877262 
1208.697 18288672 18715966 19159398 19619262 20096076 20590704 21104378 
1212.072 21638676 22195304 22775862 23381628 24013362 24671174 25354574 
1215.447 26062592 26793894 27546900 28319686 29109838 29914102 30728236 
1218.822 31547096 32365200 33177670 33981548 34776924 35567748 36361820 
1222.198 37170132 38005576 38881656 39811148 40805452 41874236 43025536 
1225.573 44265892 45600520 47033372 48567088 50203068 51941668 53782504 
1228.948 55724776 57767320 59908444 62145556 64474648 66890192 69385256 
1232.323 71951888 74581800 77266512 79996984 82762680 85550496 88343464 
1235.698 91120448 93856432 96523488 99092112 101532624 103816184 105915928 
1239.074 107807744 109471664 110892872 112062480 112977888 113642608 
1241.967 114065480 114259984 114243616 114036856 113662064 113141976 
1244.860 112497760 111748096 110908520 109992448 109012768 107983400 
1247.753 106919968 105839672 104759824 103696144 102661576 101665984 
1250.646 100716792 99820296 98982560 98209744 97507552 96880200 96329392 
1254.021 95853672 95448504 95106896 94819792 94576464 94363960 94166896 
1257.396 93967072 93744120 93477064 93146368 92736232 92235968 91640488 
1260.772 90949656 90166864 89297752 88349264 87329032 86245040 85105464 
1264.147 83918368 82691416 81431880 80147024 78844632 77533400 76222912 
1267.522 74923064 73642880 72389464 71167176 69977496 68819576 67691304 
1270.897 66590196 65514004 64460952 63429344 62417304 61422600 60442788 
1274.273 59475576 58519216 57572760 56635780 55708140 54789544 53879148 
1277.648 52975644 52077548 51183484 50292580 49404560 48519752 47638960 
1281.023 46763316 45894256 45033456 44182828 43344432 42520208 41711796 
1284.398 40920408 40146800 39391476 38654872 37937600 37240416 36564068 
1287.774 35908864 35274400 34659172 34060632 33475268 32899052 32327744 
1291.149 31757364 31184248 30605332 30018020 29420304 28810828 28188976 
1294.524 27555072 26910508 26257768 25600490 24943192 24291118 23649844 
1297.899 23024866 22421264 21843378 21294602 20777198 20292250 19839656 
1301.275 19418216 19025596 18658632 18313394 17985546 17670686 17364634 
1304.650 17063802 16765372 16467437 16168994 15869872 15570600 15272401 
1308.025 14977026 14686707 14404196 14132397 13874339 13632654 13409257 
1311.400 13204861 13018778 12848762 12691204 12541567 12395024 12247144 
1314.776 12094530 11935212 11768632 11595511 11417324 11235778 11052351 
1318.151 10868020 10683171 10497788 10311646 10124628 9936799 9748574 
1321.526 9560665 9374011 9189773 9009254 8833970 8665631 8506148 8357624 
1325.384 8222250 8102309 8000147 7918130 7858748 7824767 7819210 7845411 
1329.241 7907004 8007712 8151062 8339936 8576111 8859769 9189026 9559718 
1333.098 9965277 10396858 10843584 11292975 11731505 12145320 12520997 
1336.474 12846516 13111979 13310152 13436821 13490656 13473038 13387603 
1339.849 13239847 13036817 12786573 12497900 12179811 11841088 11489876 
1343.224 11133306 10777383 10426842 10085454 9756140 9441266 9142877 8862770 
1347.082 8602401 8362756 8144170 7946248 7767867 7607445 7463158 7333237 
1350.939 7216199 7110961 7016846 6933534 6860851 6798734 6747111 6705748 
1354.796 6674278 6652177 6638788 6633498 6635777 6645442 6662750 6688403 
1358.654 6723693 6770229 6829982 6905047 6997581 7109625 7242908 7398663 
1362.511 7577355 7778545 8000625 8240957 8495808 8760668 9030420 9299554 
1366.369 9562503 9813847 10048621 10262664 10452821 10617089 10754675 
1369.744 10865872 10951757 11013988 11054467 11075085 11077482 11063099 
1373.119 11033013 10988066 10928949 10856404 10771302 10674819 10568499 
1376.494 10454215 10334221 10211030 10087334 9965868 9849340 9740409 9641518 
1380.352 9554895 9482478 9425784 9385834 9363039 9357224 9367589 9392849 
1384.209 9431460 9481651 9541593 9609345 9682868 9760004 9838504 9916216 
1388.067 9991240 10062178 10128231 10189356 10246106 10299569 10351201 
1391.442 10402592 10455400 10511186 10571391 10637443 10710781 10793114 
1394.817 10886624 10994092 11119048 11265684 11438704 11643074 11883703 
1398.192 12165197 12491830 12867537 13296250 13782139 14329906 14944848 
1401.568 15632518 16398108 17245176 18174154 19180576 20253186 21372434 
1404.943 22509442 23626076 24676196 25608292 26369452 26910308 27190060 
1408.318 27181292 26873216 26273296 25406594 24313020 23042952 21652022 
1411.693 20195812 18725472 17284442 15906833 14616995 13430133 12353619 
1415.069 11388610 10531677 9776285 9114096 8535951 8032508 7594843 7214636 
1418.926 6884493 6597895 6349337 6134173 5948531 5789238 5653666 5539689 
1422.783 5445577 5369955 5311698 5269906 5243861 5233045 5237154 5256088 
1426.641 5289888 5338641 5402266 5480445 5572520 5677619 5794798 5923307 
1430.498 6062537 6212130 6371693 6540645 6718039 6902618 7092960 7287678 
1434.356 7485630 7685803 7887233 8088747 8288732 8485317 8676569 8860897 
1438.213 9037537 9206717 9369802 9529106 9687734 9849393 10018156 10198195 
1442.071 10393519 10607430 10842039 11097863 11373597 11666354 11972106 
1445.446 12286352 12604712 12923089 13237593 13544025 13837354 14111482 
1448.821 14359313 14573224 14745840 14870772 14943382 14961158 14924055 
1452.196 14834502 14697152 14518419 14305782 14067231 13810647 13543472 
1455.572 13272497 13003615 12741688 12490176 12251063 12024797 11810569 
1458.947 11606751 11411532 11223296 11040989 10864156 10692701 10526587 
1462.322 10365457 10208425 10054024 9900421 9745742 9588448 9427711 9263518 
1466.179 9096607 8928302 8760200 8593811 8430416 8270925 8115881 7965541 
1470.037 7819970 7679085 7542760 7410757 7282725 7158120 7036217 6916137 
1473.894 6796922 6677571 6557174 6434975 6310455 6183347 6053726 5921923 
1477.752 5788508 5654158 5519564 5385303 5251816 5119423 4988366 4858973 
1481.609 4731659 4606960 4485550 4368111 4255261 4147511 4045253 3948810 
1485.467 3858436 3774358 3696773 3625732 3561196 3502920 3450595 3403921 
1489.324 3362745 3327098 3297393 3274186 3258257 3250387 3251276 3261584 
1493.181 3281843 3312651 3354735 3409053 3476811 3559529 3659102 3777821 
1497.039 3918577 4085079 4282058 4515282 4791297 5116459 5495573 5929784 
1500.896 6414637 6938173 7480200 8012924 8503045 8915324 9217142 9382962 
1504.754 9398512 9263172 8990264 8604909 8139810 7630054 7108233 6600941 
1508.611 6127272 5698891 5321232 4995113 4718198 4486183 4293717 4134971 
1512.469 4004295 3896512 3807271 3733094 3671332 3619952 3577454 3542664 
1516.326 3514700 3492879 3476763 3465972 3460187 3458978 3461764 3467877 
1520.183 3476590 3487211 3499145 3511950 3525265 3538760 3552121 3565013 
1524.041 3577136 3588164 3597840 3605888 3611988 3615757 3616781 3614594 
1527.898 3608807 3599113 3585356 3567514 3545692 3520074 3490996 3458882 
1531.756 3424364 3388220 3351325 3314550 3278719 3244384 3211955 3181624 
1535.613 3153497 3127685 3104266 3083332 3064839 3048607 3034267 3021399 
1539.470 3009614 2998671 2988599 2979583 2971935 2965976 2961887 2959773 
1543.328 2959528 2960992 2963858 2967774 2972345 2977234 2982227 2987385 
1547.185 2993053 2999723 3007985 3018205 3030333 3043829 3057755 3071067 
1551.043 3082877 3092807 3101047 3108307 3115582 3123849 3133792 3145696 
1554.900 3159362 3174357 3190099 3206020 3221722 3236986 3251867 3266678 
1558.758 3281967 3298466 3316927 3337966 3361892 3388608 3417668 3448368 
1562.615 3479961 3511897 3544015 3576574 3610365 3646518 3686444 3731513 
1566.472 3783025 3842016 3909197 3984993 4069744 4163803 4267821 4382818 
1570.330 4510192 4651547 4808336 4981527 5171281 5376772 5596090 5826258 
1574.187 6063147 6301408 6534392 6754120 6951648 7117639 7243228 7320933 
1578.045 7345452 7314148 7227347 7088306 6903039 6679816 6428563 6159923 
1581.902 5884435 5611670 5349653 5104603 4880867 4681044 4506207 4356159 
1585.760 4229654 4124620 4038548 3968547 3911703 3865145 3826303 3792934 
1589.617 3763292 3736159 3710800 3686875 3664346 3643306 3623922 3606339 
1593.474 3590791 3577588 3567245 3560384 3557721 3559832 3567105 3579568 
1597.332 3596923 3618649 3644192 3673060 3705014 3739980 3778001 3819095 
1601.189 3863147 3909872 3958919 4009941 4062763 4117530 4174573 4234405 
1605.047 4297478 4364046 4434116 4507436 4583648 4662423 4743519 4826764 
1608.904 4911869 4998254 5084827 5169929 5251465 5327067 5394387 5451293 
1612.761 5495848 5526341 5541092 5538597 5517652 5477760 5419619 5345411 
1616.619 5258797 5164496 5067543 4972582 4883287 4802171 4730652 4669397 
1620.476 4618548 4577920 4546959 4524836 4510265 4501791 4497820 4497091 
1624.334 4498627 4501913 4506802 4513307 4521475 4531304 4542719 4555562 
1628.191 4569583 4584373 4599432 4614117 4627803 4640200 4651440 4662220 
1632.049 4673554 4686485 4701646 4718882 4737299 4755488 4772133 4786506 
1635.906 4798765 4810013 4821748 4835275 4851315 4869726 4889791 4910633 
1639.763 4931621 4952679 4974273 4997113 5021877 5048898 5078187 5109492 
1643.621 5142523 5177134 5213251 5250842 5289723 5329562 5369897 5410352 
1647.478 5450786 5491394 5532653 5575062 5619067 5664931 5712798 5762779 
1651.336 5815163 5870345 5928804 5990840 6056509 6125642 6197969 6273479 
1655.193 6352536 6435973 6524881 6620371 6723230 6833747 6951798 7076933 
1659.051 7208587 7346256 7489494 7637900 7791125 7948878 8111094 8278107 
1662.908 8450589 8629491 8815653 9009510 9210853 9418853 9632318 9850065 
1666.765 10071164 10295128 10521729 10750755 10981803 11214193 11447178 
1670.141 11680245 11913313 12146931 12382142 12620181 12862243 13109227 
1673.516 13361737 13620070 13884322 14154294 14429531 14709263 14992580 
1676.891 15278532 15566523 15856366 16148295 16442676 16739626 17038750 
1680.266 17339234 17640172 17941182 18242844 18546930 18855930 19172608 
1683.642 19498994 19836050 20183594 20541002 20908036 21285570 21675902 
1687.017 22082536 22509528 22960954 23440514 23951486 24496876 25079596 
1690.392 25702464 26368176 27079276 27838456 28649458 29517838 30451614 
1693.767 31460940 32556820 33748932 35043700 36443372 37947452 39555688 
1697.143 41272324 43108824 45084516 47223964 49552140 52089228 54846680 
1700.518 57826976 61027156 64444788 68083192 71954080 76074848 80463120 
1703.893 85129720 90073112 95277320 100712896 106339584 112108240 117959512 
1707.268 123820864 129603408 135202976 140506912 145405488 149802832 
1710.161 153622336 156805680 159307648 161093696 162143920 162461168 
1713.054 162078256 161056288 159474704 157416288 154955552 152154976 
1715.948 149068816 145750304 142256768 138648816 134985088 131314520 
1718.841 127671744 124076304 120536400 117054152 113630448 110266936 
1721.734 106966320 103730952 100562128 97460160 94425760 91460976 88569848 
1725.109 85757112 83026472 80378448 77809568 75312976 72880536 70505160 
1728.484 68182816 65912904 63697224 61537808 59435028 57386284 55386304 
1731.859 53428436 51506388 49616092 47756372 45928620 44135644 42379992 
1735.235 40662716 38982748 37337352 35723088 34137056 32577878 31046354 
1738.610 29545268 28079066 26652956 25272212 23941508 22664518 21443854 
1741.985 20280922 19176194 18129324 17139416 16205426 15326421 14501826 
1745.360 13731289 13014358 12349986 11736283 11170357 10648588 10167344 
1748.736 9723430 9314279 8938124 8593331 8277966 7989514 7724807 7480451 
1752.593 7253412 7041403 6843082 6657772 6485292 6325390 6177662 6041554 
1756.450 5916328 5801205 5695262 5597276 5505708 5418750 5334783 5252620 
1760.308 5171989 5093278 5017397 4945190 4876889 4812065 4749866 4689524 
1764.165 4630981 4574958 4522818 4475871 4434625 4398399 4365271 4332647 
1768.023 4298111 4260204 4218758 4174726 4129736 4085344 4042622 4002035 
1771.880 3963636 3927306 3893093 3861199 3831933 3805553 3782121 3761492 
1775.738 3743396 3727320 3712733 3698803 3684607 3669251 3652209 3633611 
1779.595 3614390 3596051 3580149 3567577 3558073 3550195 3541678 3530411 
1783.452 3515163 3496194 3475006 3453849 3434540 3417818 3403168 3389001 
1787.310 3373592 3355888 3335904 3314639 3293511 3273695 3255562 3238666 
1791.167 3222025 3204809 3186783 3168529 3151371 3136756 3125947 3119595 
1795.025 3117623 3119333 3123460 3128406 3132295 3133278 3129772 3120825 
1798.882 3106409 3087566 3066181 3044357 3024052 3006384 2991594 2979181 
1802.740 2968463 2958888 2950395 2943344 2938134 2934970 2933692 2933786 
1806.597 2934693 2936017 2937640 2939543 2941440 2942666 2942094 2938595 
1810.454 2931494 2920847 2907667 2893355 2879100 2865270 2851123 2835302 
1814.312 2816628 2795101 2772478 2752323 2739197 2737188 2748593 2772947 
1818.169 2807021 2845543 2882715 2913618 2935228 2946762 2949364 2945378 
1822.027 2937656 2928758 2920714 2914667 2910898 2908826 2907256 2904554 
1825.884 2899185 2889958 2876354 2858689 2837843 2815134 2791911 2769410 
1829.741 2748473 2729646 2713129 2698696 2685878 2673784 2661377 2647640 
1833.599 2631801 2613627 2593451 2572152 2550822 2530416 2511505 2494234 
1837.456 2478427 2463732 2450013 2437168 2425179 2413988 2403197 2392136 
1841.314 2380047 2366200 2350386 2332901 2314644 2296797 2280515 2266493 
1845.171 2254697 2244267 2233651 2220860 2204051 2181966 2154353 2122231 
1849.029 2087742 2053634 2022765 1997374 1978576 1966399 1960013 1958147 
1852.886 1959789 1964332 1971672 1981649 1993679 2006434 2017849 2025513 
1856.743 2027528 2022779 2011585 1995375 1976289 1956616 1937967 1921143 
1860.601 1905898 1891355 1876390 1859918 1841357 1820751 1798562 1775729 
1864.458 1753321 1732246 1713197 1696738 1683349 1673825 1669426 1671689 
1868.316 1682074 1701044 1727437 1757941 1787427 1810111 1821001 1817614 
1872.173 1800868 1774941 1746111 1720820 1703818 1696893 1698719 1705704 
1876.031 1713702 1719242 1720617 1717831 1712211 1705278 1698437 1692636 
1879.888 1688530 1686795 1688092 1693068 1701740 1713377 1726424 1738784 
1883.745 1748551 1754605 1756846 1755981 1753258 1749946 1747149 1745839 
1887.603 1747148 1752234 1762187 1777315 1796573 1817254 1835452 1846915 
1891.460 1848379 1838670 1818835 1791827 1761187 1730017 1700016 1671696 
1895.318 1645089 1620731 1600403 1587099 1584087 1593540 1615422 1646850 
1899.175 1682704 1716914 1744333 1762027 1770145 1771502 1770361 1770861 
1903.032 1775523 1784150 1794078 1800930 1800141 1788777 1766538 1736431 
1906.890 1703855 1675307 1656176 1649196 1653432 1664698 1676934 1684365 
1910.747 1683323 1673455 1657495 1640302 1626917 1621219 1624938 1637293 
1914.605 1655952 1677641 1699217 1717997 1732050 1740287 1742386 1739008 
1918.462 1731333 1720766 1708396 1694477 1678392 1659159 1636377 1611180 
1922.320 1586862 1568419 1561261 1569349 1593750 1632006 1678740 1727496 
1926.177 1772452 1809566 1836553 1852264 1855425 1844600 1818793 1779253 
1930.034 1731043 1682986 1646573 1632385 1646651 1688809 1751403 1822799 
1933.892 1891251 1948691 1993352 2028683 2060667 2094231 2130109 2164589 
1937.749 2190942 2202613 2196133 2172446 2136276 2094080 2051614 2012593 
1941.607 1978339 1948699 1923492 1903508 1889927 1884316 1887372 1898642 
1945.464 1916901 1940548 1968088 1997725 2026572 2050300 2063315 2060100 
1949.322 2037901 1997875 1946403 1893972 1851954 1829711 1832021 1857758 
1953.179 1901342 1954560 2009030 2057398 2093758 2113316 2112595 2090383 
1957.036 2049347 1997227 1946727 1912915 1908594 1939112 1999368 2074129 
1960.894 2142836 2185637 2190717 2156746 2092401 2012268 1931179 1859840 
1964.751 1803045 1759958 1726562 1697622 1667866 1632167 1585042 1521715 
1968.609 1440565 1345050 1246225 1161512 1111189 1111547 1168649 1274352 
1972.466 1407239 1537128 1634215 1677754 1662262 1600500 1520784 1460652 
1976.323 1457978 1540660 1718711 1979544 2289041 2599913 2862996 3038573 
1980.181 3104418 3057534 2912848 2697439 2444256 2185901 1949386 1753539 
1984.038 1608828 1518996 1483300 1498044 1557494 1653240 1774026 1906778 
1987.896 2037794 2154211 2245494 2304025 2324547 2303761 2240889 2138245 
1991.753 2003419 1849208 1693535 1556153 1453786 1396393 1384320 1409309 
1995.611 1458090 1516593 1574967 1628216 1675161 1714833 1743137 1751829 
1999.468 1730394 1669988 1568520 1433411 1281588 1134735 1014032 934144 
2003.325 899991 906849 943847 998534 1060343 1122501 1181215 1233914 1277093 
2007.665 1306153 1316740 1306348 1276172 1230756 1175797 1115564 1051438 
2011.522 980245 896495 795086 673857 536943 394018 259451 149439 78174 54918 
2016.344 81889 153585 257934 378019 495744 595324 665439 701166 703310 
2020.684 677000 628990 565700 491571 409605 322253 233899 151509 84578 43198 
2025.506 34789 60615 114598 182966 248429 294089 309096 292522 253675 209953 
2030.327 180932 182229 220128 289475 375826 460603 528009 570856 592959 
2034.667 606254 625769 662530 717942 783776 845165 886276 897590 878898 
2039.007 839629 795525 762418 751355 764961 797779 839605 879563 910764 
2043.346 932301 949303 971067 1007640 1067347 1154551 1268684 1404089 
2047.204 1550467 1694361 1820649 1915314 1968585 1977435 1945813 1883816 
2051.061 1805049 1723059 1649257 1590780 1550212 1525906 1512960 1505035 
2054.918 1496449 1483484 1465640 1445513 1428047 1418582 1420687 1435205 
2058.776 1459230 1487032 1512439 1531241 1543658 1555178 1574936 1612862 
2062.633 1675515 1763154 1868125 1976708 2073051 2143492 2180539 2184358 
2066.491 2161797 2123066 2078311 2034477 1994393 1957369 1921605 1886216 
2070.348 1852603 1824526 1806961 1804209 1818611 1850078 1895920 1952164 
2074.206 2015038 2081558 2150460 2221856 2296311 2373525 2451023 2523342 
2078.063 2582226 2617981 2621581 2587873 2517270 2416688 2298328 2176846 
2081.920 2065945 1975127 1908319 1864280 1838687 1826773 1824996 1831989 
2085.778 1847061 1868654 1892973 1913877 1924344 1919086 1896772 1861078 
2089.635 1819970 1783277 1759737 1754379 1767586 1795547 1831841 1869462 
2093.493 1902213 1925530 1936457 1933882 1918337 1892498 1860686 1828389 
2097.350 1800617 1780140 1766471 1756073 1743806 1726090 1703044 1679987 
2101.208 1666149 1671701 1703977 1764144 1846268 1938904 2028068 2101817 
2105.065 2152777 2179486 2185317 2176160 2158059 2135664 2112027 2089144 
2108.922 2068829 2053112 2043673 2041137 2044307 2050546 2056460 2059141 
2112.780 2057613 2052663 2046392 2040806 2036379 2031548 2022803 2006021 
2116.637 1977969 1937348 1885388 1825388 1762080 1700254 1643688 1595021 
2120.495 1555111 1523502 1498704 1478568 1460898 1444117 1427538 1411634 
2124.352 1397883 1387865 1382533 1381531 1383167 1384826 1384024 1379292 
2128.209 1370673 1359087 1345515 1329455 1308279 1277399 1231789 1168063 
2132.067 1086653 992837 896954 812023 750843 723154 732415 775770 844415 
2136.406 926116 1008090 1079755 1134198 1168748 1184377 1184379 1172375 
2140.264 1151450 1123491 1089427 1050652 1009989 971786 941335 921984 912779 
2144.604 906103 888288 842646 754776 618425 440206 239290 43927 -115892 
2148.943 -217047 -249198 -217067 -139070 -41031 49751 109602 122328 78685 
2153.283 -23083 -179296 -380482 -611369 -850778 -1072125 -1246605 -1347117 
2157.140 -1353998 -1260039 -1074858 -824743 -548040 -286580 -74871 66982 
2160.998 136107 145540 118745 85212 73518 105821 192295 328469 496083 667987 
2165.819 815219 915705 958936 947514 894235 816242 729560 644628 565584 
2170.159 491574 420211 350697 285411 229895 191191 175593 186174 221247 
2174.499 274649 335445 390285 425605 430248 399417 335571 250488 163145 
2178.838 96111 71163 103456 198131 348455 536732 739913 934303 1101042 
2183.178 1229339 1316225 1365228 1382662 1375490 1349994 1311494 1264565 
2187.035 1213242 1161014 1110655 1063696 1020705 981996 948810 922517 905929 
2191.375 901342 910162 931603 963207 1001430 1042572 1083559 1122903 1159874 
2195.714 1194112 1225628 1253760 1278107 1299192 1317928 1336344 1356647 
2199.572 1380432 1408323 1440157 1475037 1512227 1551116 1591106 1630743 
2203.429 1667316 1696574 1713897 1715469 1700350 1670962 1632721 1592382 
2207.287 1555952 1526893 1505388 1490456 1481467 1479932 1490324 1517523 
2211.144 1564211 1627545 1697341 1757832 1791669 1785664 1735861 1649303 
2215.001 1542588 1436817 1350520 1294855 1271161 1272524 1288476 1310078 
2218.859 1333534 1361071 1397984 1449085 1515175 1591319 1668664 1737422 
2222.716 1790270 1824560 1842180 1847305 1844008 1834182 1817754 1794379 
2226.574 1765394 1735527 1711854 1701879 1710130 1735925 1772864 1810932 
2230.431 1840226 1854410 1853402 1842858 1832387 1831712 1847718 1882679 
2234.289 1934394 1997623 2066155 2134219 2197493 2252910 2298240 2331953 
2238.146 2352973 2360973 2356062 2338698 2309329 2268207 2216108 2155192 
2242.003 2090296 2028944 1980245 1953002 1952117 1976445 2017873 2063143 
2245.861 2097397 2108647 2091468 2048216 1988029 1923333 1865958 1824179 
2249.718 1801281 1796116 1805038 1823844 1849244 1879027 1912066 1947582 
2253.576 1984917 2023676 2063908 2105953 2150011 2194956 2238173 2275434 
2257.433 2301966 2314421 2311905 2296883 2274432 2250614 2230744 2218033 
2261.291 2213295 2216020 2225494 2241820 2265945 2298738 2339566 2385549 
2265.148 2431957 2473387 2506001 2528838 2544205 2556651 2570560 2588351 
2269.005 2609240 2629863 2645694 2653411 2652197 2644002 2632479 2621494 
2272.863 2613428 2608978 2607234 2607346 2609199 2614063 2624040 2640815 
2276.720 2664635 2693889 2725507 2756240 2783850 2808115 2830584 2853830 
2280.578 2880140 2910460 2943752 2977537 3008556 3033810 3051450 3061038 
2284.435 3063175 3059371 3051193 3040154 3027221 3012870 2997047 2979173 
2288.292 2958468 2934282 2906492 2875934 2844364 2814346 2788547 2769044 
2292.150 2756572 2750397 2748382 2747851 2746342 2742372 2735734 2727178 
2296.007 2718026 2709253 2701002 2692512 2682409 2669447 2653158 2634259 
2299.865 2614628 2596777 2583028 2574892 2572458 2574554 2579149 2584043 
2303.722 2587623 2589058 2588181 2585195 2580108 2572627 2562243 2548696 
2307.580 2532776 2516515 2503034 2495878 2497882 2510244 2531869 2559672 
2311.437 2589592 2617662 2641181 2659128 2672071 2681257 2688014 2693229 
2315.294 2697462 2701247 2705830 2713057 2725232 2744152 2770560 2803778 
2319.152 2842237 2884411 2929667 2978580 3032275 3090842 3151578 3208148 
2323.009 3251077 3269848 3255814 3205049 3119707 3008007 2882238 2756084 
2326.867 2641716 2547356 2476242 2426962 2394940 2374497 2360623 2350111 
2330.724 2341525 2334595 2329418 2325843 2323461 2321727 2320474 2320052 
2334.582 2321093 2324279 2329692 2336857 2344572 2351507 2356589 2359208 
2338.439 2359369 2357373 2353623 2348443 2342063 2334776 2327264 2320520 
2342.296 2315638 2313566 2314606 2318236 2323274 2328250 2331846 2333597 
2346.154 2333799 2333562 2334193 2336710 2341448 2347885 2354834 2360862 
2350.011 2364813 2366183 2365265 2363183 2361530 2361982 2365809 2373564 
2353.869 2384971 2398882 2413583 2427262 2438222 2445301 2448033 2446422 
2357.726 2440834 2431683 2419402 2404234 2386511 2366847 2346186 2325658 
2361.583 2306468 2289436 2274897 2262450 2251481 2241332 2231845 2223628 
2365.441 2217843 2215876 2218643 2226259 2237622 2250771 2263373 2273406 
2369.298 2279654 2282029 2281369 2279039 2276402 2274543 2274009 2274921 
2373.156 2277136 2280405 2284286 2288257 2291626 2293588 2293715 2292039 
2377.013 2289444 2287581 2288488 2293988 2304898 2320755 2339807 2359435 
2380.871 2377121 2391198 2401334 2408477 2414363 2420630 2428057 2436190 
2384.728 2443495 2447929 2447752 2442095 2431425 2417254 2401848 2387629 
2388.585 2376733 2370742 2370459 2376131 2387129 2402154 2419133 2435343 
2392.443 2447917 2454337 2453069 2444127 2428840 2409700 2389443 2370262 
2396.300 2353358 2338781 2325760 2313580 2302120 2292134 2285062 2282376 
2400.158 2284786 2291709 2301115 2310134 2315993 2316955 2313032 2306006 
2404.015 2298928 2295073 2296934 2305437 2319745 2337624 2356263 2373020 
2407.873 2386080 2394672 2398933 2399291 2396282 2390103 2380726 2368217 
2411.730 2352950 2335856 2318407 2302319 2289079 2279670 2274377 2272738 
2415.587 2273969 2277130 2281545 2286788 2292574 2298673 2304692 2310043 
2419.445 2314109 2316258 2316121 2313467 2308105 2299945 2288705 2274297 
2423.302 2256726 2236797 2215912 2196015 2179125 2166842 2159723 2157305 
2427.160 2158144 2160683 2163468 2166050 2168616 2171725 2175723 2180232 
2431.017 2184225 2186378 2185906 2183295 2180577 2180819 2187154 2201479 
2434.875 2223655 2251053 2279342 2303765 2320642 2328423 2328099 2322614 
2438.732 2315607 2310266 2308046 2308668 2310289 2310597 2307722 2301016 
2442.589 2291116 2279841 2269273 2261242 2256757 2255837 2257507 2260460 
2446.447 2263257 2264838 2264762 2263344 2261470 2260399 2261399 2265310 
2450.304 2272407 2282145 2293382 2304507 2314085 2321043 2324889 2325877 
2454.162 2324589 2321746 2317788 2312863 2306840 2299475 2290868 2281418 
2458.019 2272066 2264016 2258202 2255183 2254809 2256125 2257776 2258226 
2461.876 2256144 2250670 2241594 2229174 2214067 2197164 2179449 2161896 
2465.734 2145489 2131021 2119074 2109885 2103218 2098374 2094497 2090777 
2469.591 2086689 2082348 2078498 2076283 2076963 2081435 2089851 2101521 
2473.449 2114927 2128005 2138446 2144409 2144709 2139228 2129016 2116214 
2477.306 2103703 2094443 2090773 2093902 2103397 2117371 2132985 2147326 
2481.164 2158185 2164912 2168144 2169455 2170371 2171683 2172616 2171426 
2485.021 2165841 2154474 2137373 2116539 2095415 2077622 2066136 2062074 
2488.878 2064700 2071936 2081335 2091234 2101114 2111704 2124237 2139629 
2492.736 2157937 2177957 2197803 2215475 2229722 2240255 2247669 2253372 
2496.593 2258521 2263983 2269887 2275819 2281110 2285052 2287133 2287024 
2500.451 2284572 2279800 2272749 2263826 2253469 2242627 2232433 2224159 
2504.308 2219150 2218756 2223970 2235541 2253492 2276881 2303745 2331135 
2508.166 2355570 2373877 2383773 2384894 2378603 2367873 2356238 2346827 
2512.023 2341597 2340924 2343959 2349089 2354918 2360571 2365953 2371373 
2515.880 2377194 2383452 2389807 2395729 2400818 2405107 2408921 2412684 
2519.738 2416482 2419771 2421480 2420398 2415753 2407740 2397718 2388120 
2523.595 2381561 2380221 2385155 2395914 2410757 2427319 2443051 2456137 
2527.453 2465701 2471816 2475269 2477001 2477902 2478280 2478066 2476969 
2531.310 2474627 2471058 2466732 2462516 2459388 2458088 2458753 2460861 
2535.167 2463288 2464847 2464758 2463155 2461027 2460248 2462814 2470163 
2539.025 2482702 2499542 2518518 2537185 2553097 2564689 2571425 2573853 
2542.882 2573375 2571647 2570297 2570568 2573195 2578258 2585377 2593605 
2546.740 2601819 2608947 2614246 2617490 2619144 2619839 2620222 2620207 
2550.597 2619101 2615512 2607887 2595378 2578425 2558897 2539781 2524202 
2554.455 2514428 2510997 2512553 2516336 2519471 2520006 2517908 2515140 
2558.312 2515025 2521023 2535394 2558338 2587824 2620230 2651301 2677488 
2562.169 2696637 2708332 2713401 2713520 2710331 2705181 2699046 2692726 
2566.027 2687362 2684252 2684948 2690498 2701140 2715746 2732060 2747195 
2569.884 2758480 2764479 2765408 2763246 2760978 2761626 2767028 2777344 
2573.742 2790873 2804663 2815702 2821882 2822708 2819403 2814345 2810082 
2577.599 2808445 2810030 2814077 2819151 2823736 2827060 2829378 2831818 
2581.457 2835855 2842685 2852457 2864341 2876493 2886638 2892835 2894043 
2585.314 2890523 2883642 2875591 2868785 2865169 2865765 2870328 2877593 
2589.171 2885716 2892874 2897814 2900318 2901166 2901742 2903524 2907483 
2593.029 2913570 2920690 2927064 2930660 2929837 2923974 2913475 2899832 
2596.886 2885249 2872118 2862578 2858270 2860002 2867670 2880280 2896114 
2600.744 2912830 2927874 2938909 2944374 2943742 2937719 2928109 2917398 
2604.601 2908216 2902538 2901498 2905011 2912026 2920781 2929504 2936785 
2608.458 2941868 2944835 2946399 2947591 2949432 2952551 2957093 2962728 
2612.316 2969014 2975508 2982030 2988892 2996416 3004903 3014239 3023765 
2616.173 3032201 3038111 3040274 3038162 3032165 3023555 3014122 3005774 
2620.031 3000000 2997601 2998518 3002066 3007140 3012556 3017258 3020678 
2623.888 3022599 3023271 3023532 3024355 3026956 3032328 3040964 3052833 
2627.746 3067308 3083301 3099617 3115277 3129504 3141883 3151848 3158977 
2631.603 3162495 3161694 3156310 3146692 3134265 3121107 3109722 3102137 
2635.460 3099528 3101720 3107439 3114740 3121721 3126980 3129932 3130710 
2639.318 3129854 3127738 3124506 3119980 3113877 3106100 3097043 3087471 
2643.175 3078508 3071296 3066646 3064965 3066145 3069711 3074908 3080970 
2647.033 3087226 3093113 3098390 3103074 3107318 3111392 3115368 3119101 
2650.890 3121997 3123251 3122068 3118039 3111445 3103341 3095450 3089518 
2654.748 3086944 3088236 3092829 3099302 3105778 3110556 3112450 3111133 
2658.605 3106883 3100370 3092279 3083054 3072786 3061374 3048619 3034394 
2662.462 3018680 3001641 2983575 2964871 2946073 2927914 2911282 2897119 
2666.320 2886329 2879388 2876493 2877230 2880841 2886320 2892662 2899007 
2670.177 2904737 2909436 2912937 2915215 2916331 2916458 2915676 2914022 
2674.035 2911295 2907086 2900922 2892512 2881880 2869738 2857365 2846452 
2677.892 2838555 2834855 2835548 2839988 2846777 2854269 2861008 2866012 
2681.750 2869013 2870212 2870081 2869103 2867613 2865732 2863584 2861291 
2685.607 2859142 2857457 2856711 2857169 2858959 2861991 2865919 2870359 
2689.464 2874728 2878522 2881194 2882478 2882300 2881015 2879200 2877640 
2693.322 2876985 2877655 2879415 2881705 2883603 2884274 2883142 2880096 
2697.179 2875490 2870088 2864655 2859917 2856525 2854853 2855318 2857991 
2701.037 2862820 2869348 2876704 2883761 2889258 2892189 2892199 2889556 
2704.894 2885249 2880610 2876952 2875242 2875983 2879244 2884758 2892086 
2708.751 2900696 2909999 2919148 2927143 2932875 2935497 2934572 2930368 
2712.609 2923868 2916371 2909407 2904117 2901176 2900696 2902419 2905969 
2716.466 2910857 2916716 2923104 2929595 2935682 2940959 2945286 2948931 
2720.324 2952485 2956649 2961870 2968100 2974684 2980428 2984111 2984880 
2724.181 2982595 2977976 2972234 2966871 2963163 2961890 2963248 2966996 
2728.039 2972674 2979661 2987364 2995182 3002547 3008969 3014197 3018368 
2731.896 3021955 3025721 3030369 3036209 3043007 3049734 3055088 3057812 
2735.753 3057189 3053374 3047334 3040624 3035009 3031886 3032122 3035858 
2739.611 3042613 3051494 3061263 3070552 3077998 3082362 3082848 3079361 
2743.468 3072599 3064109 3055935 3050052 3047872 3049798 3055187 3062615 
2747.326 3070409 3077338 3082895 3087473 3091969 3097354 3104247 3112434 
2751.183 3121147 3129303 3135870 3140407 3143112 3144758 3146413 3148998 
2755.041 3153016 3158340 3164405 3170219 3174789 3177276 3177232 3174652 
2758.898 3169998 3164131 3158103 3152983 3149768 3148956 3150662 3154491 
2762.755 3159600 3165020 3169671 3172838 3174097 3173399 3171187 3168108 
2766.613 3164980 3162510 3161386 3161955 3164276 3168077 3172821 3177802 
2770.470 3182210 3185450 3187212 3187521 3186877 3186036 3185901 3187323 
2774.328 3190850 3196691 3204565 3213849 3223636 3232985 3241022 3247229 
2778.185 3251301 3253444 3254085 3253741 3252999 3252267 3251638 3251161 
2782.042 3250692 3250214 3249858 3250108 3251487 3254703 3260253 3268269 
2785.900 3278565 3290496 3303296 3316158 3328561 3340172 3351046 3361411 
2789.757 3371581 3381851 3392447 3403600 3415441 3428164 3441796 3456291 
2793.615 3471298 3486291 3500443 3513087 3523637 3531912 3538102 3542805 
2797.472 3546727 3550660 3555119 3560544 3567079 3574830 3583758 3593713 
2801.330 3604389 3615270 3625610 3634777 3642254 3648021 3652554 3656735 
2805.187 3661568 3667849 3675753 3684856 3694155 3702585 3709321 3714284 
2809.044 3718040 3721749 3726717 3733875 3743524 3755077 3767366 3778910 
2812.902 3788392 3795109 3799039 3800940 3802082 3803917 3807581 3813796 
2816.759 3822537 3833188 3844643 3855948 3866352 3875941 3885388 3896112 
2820.617 3909610 3927128 3949067 3974909 4003286 4032336 4060329 4086113 
2824.474 4109375 4130703 4151286 4172567 4195855 4221995 4251552 4284706 
2828.332 4321393 4361609 4405213 4452083 4501914 4554410 4609087 4665629 
2832.189 4723658 4782943 4843408 4905085 4968191 5033308 5101347 5173759 
2836.046 5252402 5339287 5436251 5544680 5665123 5797412 5940496 6093073 
2839.904 6253707 6421303 6595120 6775134 6961776 7155843 7358465 7570550 
2843.761 7792609 8024422 8264703 8511093 8760381 9008982 9253538 9491494 
2847.619 9721378 9942846 10156224 10362101 10560510 10750943 10932073 
2850.994 11102158 11259459 11402557 11530509 11642633 11738373 11816927 
2854.369 11877228 11917953 11937881 11936428 11913812 11871406 11811513 
2857.744 11737146 11651460 11557436 11457473 11353228 11245625 11135117 
2861.120 11022051 10906788 10790001 10672770 10556348 10441937 10330462 
2864.495 10222369 10117631 10015985 9917041 9820653 9727041 9636476 9549398 
2868.352 9465940 9385883 9308885 9234602 9163085 9095042 9031680 8974453 
2872.210 8924604 8882670 8848368 8820666 8798265 8780212 8766265 8756932 
2876.067 8753514 8757467 8769976 8791616 8822310 8861426 8908197 8961947 
2879.925 9022383 9089506 9163512 9244373 9331881 9425234 9523146 9624013 
2883.782 9726035 9827704 9928101 10027058 10125291 10224141 10325112 
2887.157 10429304 10536985 10647103 10757759 10866447 10970779 11069144 
2890.532 11160997 11246674 11326957 11402468 11473273 11538830 11598282 
2893.908 11650843 11696476 11736000 11770806 11802734 11833309 11863772 
2897.283 11894781 11926734 11960140 11995657 12034077 12076150 12122224 
2900.658 12172413 12226507 12284376 12346439 12413695 12487493 12569065 
2904.033 12659051 12757009 12861420 12970248 13081510 13193905 13307035 
2907.409 13421424 13537888 13657150 13779318 13903879 14029978 14156961 
2910.784 14284511 14413023 14543240 14676049 14811939 14950950 15092751 
2914.159 15236768 15382658 15530252 15679805 15831520 15985501 16141371 
2917.534 16298148 16454381 16608308 16757824 16900978 17035842 17160850 
2920.910 17275052 17378216 17471146 17555412 17633126 17706470 17777042 
2924.285 17845490 17911390 17973402 18029808 18079046 18120176 18153214 
2927.660 18178776 18197990 18211720 18220464 18224148 18222106 18213702 
2931.035 18198510 18176742 18149560 18118746 18086564 18055072 18025818 
2934.411 17999164 17974248 17949076 17920986 17887230 17845732 17795356 
2937.786 17736366 17670024 17598446 17523826 17448198 17372908 17298476 
2941.161 17224656 17150570 17074774 16995572 16911198 16820136 16721365 
2944.536 16614628 16500621 16380751 16257022 16131474 16005720 15880597 
2947.912 15756069 15631403 15505587 15377754 15247677 15115823 14983253 
2951.287 14851472 14721732 14595008 14471528 14350931 14232281 14114624 
2954.662 13996822 13878350 13758972 13638863 13518429 13398038 13277780 
2958.037 13157433 13036416 12914090 12789829 12663323 12534688 12404393 
2961.413 12273112 12141623 12010604 11880802 11752854 11627566 11505765 
2964.788 11387968 11274171 11163525 11054290 10944024 10830043 10710497 
2968.163 10584718 10453637 10319663 10185992 10055802 9931506 9814324 
2971.538 9704060 9599657 9499633 9402567 9307271 9212843 9118433 9023017 
2975.396 8925339 8824252 8718805 8608772 8494797 8378255 8261119 8145420 
2979.253 8033140 7925614 7823809 7728142 7638616 7554840 7475959 7400850 
2983.111 7327956 7255687 7182673 7107922 7031156 6952721 6873327 6793885 
2986.968 6715040 6637157 6560325 6484600 6410195 6337794 6268584 6203867 
2990.825 6144888 6092158 6045476 6003617 5964827 5927138 5888951 5849319 
2994.683 5808205 5766073 5723775 5682039 5641142 5600940 5560945 5520690 
2998.540 5479866 5438606 5397368 5356791 5317250 5278796 5241045 5203191 
3002.398 5164620 5124702 5083504 5041373 4999253 4957940 4918250 4880586 
3006.255 4845051 4811353 4779050 4747539 4716326 4684800 4652590 4619438 
3010.113 4585251 4550102 4514393 4478630 4443404 4409239 4376476 4345249 
3013.970 4315453 4286832 4259002 4231655 4204491 4177322 4150048 4122720 
3017.827 4095440 4068343 4041552 4015068 3988766 3962399 3935700 3908564 
3021.685 3881292 3854572 3829417 3806951 3788027 3772926 3761297 3751985 
3025.542 3743569 3734531 3723768 3710888 3696075 3680012 3663481 3647317 
3029.400 3632039 3617747 3604320 3591497 3578920 3566299 3553571 3540821 
3033.257 3528490 3517230 3507775 3500856 3496838 3495565 3496430 3498380 
3037.115 3500444 3502054 3503303 3505016 3508572 3515240 3525862 3540349 
3040.972 3558039 3577735 3598455 3619993 3642908 3668530 3698323 3733506 
3044.829 3774574 3820942 3871487 3924573 3978694 4032728 4085875 4137455 
3048.687 4187068 4234149 4278360 4319613 4358384 4395297 4431135 4466144 
3052.544 4499658 4530059 4554844 4571523 4578153 4574162 4560591 4539810 
3056.402 4515055 4489333 4465221 4444248 4427096 4413849 4404444 4398672 
3060.259 4396327 4396956 4399735 4403522 4407172 4409828 4411560 4413168 
3064.116 4416140 4421977 4431576 4444643 4459838 4474723 4486703 4493800 
3067.974 4494999 4490649 4482079 4471204 4460043 4450099 4442255 4436820 
3071.831 4433686 4432404 4432574 4433574 4434944 4436250 4437304 4438242 
3075.689 4439728 4442637 4447970 4456299 4467307 4479860 4491838 4500749 
3079.546 4504430 4501610 4492308 4477790 4460323 4442210 4425275 4410143 
3083.404 4396211 4381980 4365603 4345665 4321627 4294060 4264421 4234326 
3087.261 4205326 4178032 4152520 4128344 4105242 4083467 4064147 4048866 
3091.118 4039249 4036026 4038630 4045035 4052224 4057018 4057196 4052207 
3094.976 4043359 4033420 4025805 4023471 4028000 4039338 4056002 4075499 
3098.833 4095268 4113182 4127959 4139055 4146458 4150515 4151668 4150417 
3102.691 4147447 4143522 4139595 4136283 4133935 4132210 4130211 4126501 
3106.548 4119692 4108647 4092834 4072635 4049185 4024012 3999016 3975864 
3110.406 3955840 3939473 3926595 3916388 3907611 3898821 3888820 3876703 
3114.263 3862301 3845783 3827753 3808830 3789562 3770367 3751709 3734141 
3118.120 3718525 3705825 3697095 3692950 3693425 3697630 3704216 3711495 
3121.978 3717979 3722647 3725285 3726232 3726052 3725383 3724585 3723691 
3125.835 3722743 3721603 3720389 3719088 3717798 3716251 3714011 3710290 
3129.693 3704372 3695735 3684271 3670258 3654441 3637683 3620868 3604817 
3133.550 3590298 3577845 3567947 3560765 3556206 3553563 3551828 3549760 
3137.407 3546166 3540341 3532177 3522282 3511670 3501472 3492616 3485508 
3141.265 3480086 3476007 3472856 3470281 3468207 3466581 3465350 3464086 
3145.122 3462244 3459001 3453812 3446547 3437762 3428697 3421073 3416419 
3148.980 3415895 3419531 3426475 3434717 3441986 3446111 3445706 3440525 
3152.837 3431582 3420730 3410123 3401655 3396486 3394797 3395937 3398804 
3156.695 3402197 3405075 3406871 3407145 3405756 3402574 3397513 3390756 
3160.552 3382836 3374862 3368163 3364167 3363692 3366825 3372742 3379669 
3164.409 3385815 3389556 3390341 3388600 3385729 3383555 3383609 3386726 
3168.267 3392675 3400261 3407947 3414258 3418535 3420982 3422806 3425610 
3172.124 3430850 3439044 3449613 3460639 3469608 3473932 3471946 3463421 
3175.982 3449889 3434248 3419933 3409995 3406196 3408515 3415401 3424212 
3179.839 3432259 3437522 3439200 3437721 3434395 3430668 3427728 3426075 
3183.697 3425696 3426226 3427383 3429254 3432240 3436752 3443063 3450913 
3187.554 3459458 3467455 3473644 3477019 3477361 3474993 3470998 3466623 
3191.411 3463027 3460937 3460505 3461223 3462256 3462703 3462032 3460134 
3195.269 3457813 3456088 3456349 3459563 3466079 3475347 3486073 3496466 
3199.126 3504918 3510229 3512128 3511081 3508074 3504219 3500395 3496972 
3202.984 3493886 3490929 3488004 3485144 3482804 3481401 3481347 3482470 
3206.841 3484312 3485936 3486384 3484990 3481469 3476280 3470359 3464851 
3210.698 3460911 3459380 3460620 3464401 3470115 3476693 3483208 3488775 
3214.556 3493076 3496199 3498767 3501618 3505564 3511083 3518092 3525880 
3218.413 3533352 3539395 3543239 3544634 3544180 3542916 3542166 3542904 
3222.271 3545547 3549824 3554834 3559606 3563228 3565372 3566333 3566790 
3226.128 3567695 3569698 3573083 3577511 3582204 3586206 3588608 3588815 
3229.986 3586606 3582123 3575871 3568674 3561616 3555942 3553089 3554256 
3233.843 3560225 3570967 3585549 3602139 3618526 3632555 3643023 3649674 
3237.700 3653620 3656565 3660523 3666752 3675538 3685981 3696538 3705334 
3241.558 3710968 3712689 3710650 3705465 3698095 3689376 3680247 3671448 
3245.415 3663871 3658333 3655521 3655633 3657987 3661092 3662961 3661506 
3249.273 3655531 3645068 3631609 3617771 3606660 3600829 3601750 3609193 
3253.130 3621693 3636774 3651949 3665094 3675244 3682331 3687118 3690731 
3256.988 3694179 3697984 3702198 3706459 3710299 3713453 3716098 3718733 
3260.845 3722155 3726722 3732376 3738233 3742803 3744533 3742344 3736211 
3264.702 3727358 3717891 3710209 3706114 3706216 3709542 3714145 3717672 
3268.560 3718377 3715556 3709989 3703151 3696902 3692375 3690049 3689403 
3272.417 3689579 3689844 3690111 3690887 3693034 3697286 3703922 3712433 
3276.275 3721893 3731289 3739876 3747427 3754112 3760263 3766025 3771042 
3280.132 3774587 3775812 3774056 3769252 3762124 3753990 3746635 3741847 
3283.990 3740999 3744733 3752914 3764596 3778428 3792948 3807037 3820157 
3287.847 3832623 3845116 3858497 3873048 3888287 3902624 3913931 3920074 
3291.704 3919931 3913622 3903017 3891032 3881005 3875529 3875917 3881812 
3295.562 3891569 3902776 3913068 3920555 3924239 3923836 3919692 3912514 
3299.419 3903414 3893682 3884937 3878717 3876182 3877727 3882642 3889203 
3303.277 3895044 3897840 3896148 3889730 3879789 3868529 3858707 3852495 
3307.134 3851222 3854970 3862534 3872095 3881501 3888915 3893279 3894365 
3310.991 3893038 3890878 3889899 3891898 3898227 3909115 3923867 3940722 
3314.849 3957437 3971675 3981558 3985967 3984648 3978098 3967557 3954528 
3318.706 3941000 3928779 3919731 3915226 3916009 3921926 3931949 3944499 
3322.564 3957618 3969758 3979909 3987959 3994289 3999728 4004974 4010415 
3326.421 4016152 4021892 4027428 4032399 4036533 4039477 4040821 4040159 
3330.279 4037385 4032920 4027807 4023612 4021923 4023765 4029333 4037400 
3334.136 4046128 4053371 4057764 4058896 4057710 4055784 4054858 4055751 
3337.993 4058327 4061211 4062526 4060495 4054277 4044050 4031159 4017524 
3341.851 4005150 3995598 3989879 3988051 3989777 3994179 4000268 4006712 
3345.708 4012360 4016164 4017312 4015497 4010854 4003871 3995359 3985910 
3349.566 3976116 3966194 3956167 3946048 3935903 3926018 3917020 3909470 
3353.423 3904212 3901828 3902823 3907254 3914759 3924505 3935258 3945467 
3357.281 3953726 3958877 3960567 3959076 3955436 3950858 3946461 3942749 
3361.138 3939528 3935928 3930816 3923071 3912383 3899026 3884280 3869922 
3364.995 3858125 3850675 3848971 3853313 3863062 3876320 3890522 3902758 
3368.853 3910527 3912291 3908126 3899545 3889162 3879854 3873744 3871499 
3372.710 3872259 3873834 3873963 3870970 3864876 3857265 3850836 3848308 
3376.568 3851338 3859700 3871395 3883083 3891384 3893733 3889333 3879091 
3380.425 3865282 3850826 3838471 3830060 3826856 3829196 3836922 3849506 
3384.282 3866101 3885258 3905045 3923123 3937302 3945838 3948129 3944886 
3388.140 3938057 3930061 3923205 3919104 3918184 3920069 3923834 3928685 
3391.997 3934426 3941484 3950590 3962318 3976570 3992259 4007735 4020975 
3395.855 4030402 4035450 4036544 4035103 4032923 4031609 4032204 4034987 
3399.712 4039692 4045787 4052881 4060787 4069635 4079573 4090583 4102220 
3403.570 4113816 4124593 4133853 4141237 4146952 4151659 4156310 4162087 
3407.427 4170224 4181720 4197413 4217715 4242684 4271852 4304266 4338582 
3411.284 4373334 4406997 4438346 4466530 4491066 4511871 4529115 4543227 
3415.142 4554976 4565328 4575474 4586592 4599710 4615333 4633474 4653398 
3418.999 4674194 4694964 4715147 4734634 4753861 4773259 4793226 4813496 
3422.857 4833549 4852556 4869895 4885329 4899174 4912179 4925107 4938309 
3426.714 4951632 4964375 4975629 4984596 4991195 4995691 4998931 5001738 
3430.572 5004580 5007212 5008856 5008478 5005183 4998511 4988721 4976492 
3434.429 4962874 4948724 4934535 4920274 4905550 4889683 4872153 4852515 
3438.286 4830792 4807394 4783157 4759343 4737431 4719022 4705399 4697138 
3442.144 4693819 4693629 4693744 4690670 4681248 4663289 4636448 4602376 
3446.001 4564467 4526920 4493869 4468300 4451342 4442255 4438603 4437128 
3449.859 4434569 4428266 4416709 4399532 4377654 4352583 4326413 4301077 
3453.716 4278363 4259062 4243171 4229574 4216304 4201077 4182125 4158579 
3457.573 4131320 4102552 4075605 4053778 4039413 4032922 4033002 4036508 
3461.431 4039839 4039754 4034447 4023849 4009219 3992770 3976554 3961856 
3465.288 3949124 3937862 3927353 3917053 3906963 3897626 3889902 3884476 
3469.146 3881655 3881109 3881979 3883132 3883506 3882382 3879332 3874275 
3473.003 3867683 3860049 3852119 3844553 3837882 3832474 3828340 3825197 
3476.861 3822597 3820054 3817488 3815051 3813487 3813495 3815786 3820454 
3480.718 3827050 3834359 3841043 3845764 3847918 3847480 3845325 3842495 
3484.575 3840220 3839105 3839411 3840807 3842808 3845057 3847686 3851146 
3488.433 3856255 3863820 3874185 3887010 3901334 3915533 3927565 3935539 
3492.290 3937923 3933907 3923605 3908065 3889040 3868837 3849807 3833922 
3496.148 3822691 3816755 3816070 3820042 3827723 3838058 3849978 3862377 
3500.005 3874079 3883761 3890198 3892472 3890472 3885032 3878245 3872766 
3503.863 3871501 3876416 3888159 3905518 3925648 3944904 3959874 3968063 
3507.720 3968716 3962617 3952042 3939580 3927843 3918741 3913515 3912669 
3511.577 3916226 3923938 3934962 3947983 3961141 3972176 3978911 3979947 
3515.435 3975102 3965652 3954311 3944367 3938844 3939671 3947173 3959941 
3519.292 3975693 3991631 4005503 4016038 4023200 4027788 4031047 4034151 
3523.150 4037771 4041908 4046322 4050352 4053653 4056354 4059044 4062659 
3527.007 4068218 4076467 4087481 4100718 4115054 4129165 4141661 4151756 
3530.865 4159163 4164046 4166851 4168022 4167700 4165887 4162667 4158097 
3534.722 4152877 4147992 4144659 4143984 4146571 4152470 4161129 4171814 
3538.579 4183586 4195627 4207262 4217720 4226240 4231953 4234217 4232912 
3542.437 4228735 4223060 4217615 4213989 4212982 4214472 4217314 4220098 
3546.294 4221686 4221777 4221264 4221596 4224248 4229957 4238425 4248164 
3550.152 4257289 4263927 4267154 4266911 4264006 4259527 4254478 4249235 
3554.009 4243844 4237883 4230989 4222979 4213854 4203539 4192061 4179223 
3557.866 4164991 4149520 4133248 4117130 4101869 4088073 4075786 4064636 
3561.724 4054150 4044025 4034674 4027005 4022206 4021199 4024216 4030445 
3565.581 4038387 4046221 4052506 4056414 4058054 4057766 4055887 4052090 
3569.439 4045390 4034221 4017223 3993485 3963250 3927829 3889360 3850237 
3573.296 3812895 3779022 3749674 3725308 3705866 3691151 3681081 3675705 
3577.154 3675338 3680215 3690435 3705369 3723442 3741849 3757081 3765316 
3581.011 3763599 3750478 3726828 3695603 3661216 3628371 3600932 3580999 
3584.868 3568842 3563135 3562071 3564106 3568537 3575571 3585916 3599951 
3588.726 3617385 3636956 3656863 3675049 3690062 3701169 3708222 3711560 
3592.583 3711376 3707728 3700508 3689715 3676053 3660865 3646636 3636101 
3596.441 3632101 3636552 3650203 3672158 3700053 3730441 3759265 3782702 
3600.298 3797678 3802526 3797143 3783066 3763155 3741052 3720353 3704150 
3604.156 3694399 3691604 3695119 3703319 3714091 3725368 3735448 3743133 
3608.013 3747992 3750281 3750929 3751320 3753328 3758828 3769378 3785938 
3611.870 3808278 3834650 3862309 3887416 3906173 3915485 3913993 3902175 
3615.728 3882653 3859434 3836997 3819396 3809344 3807628 3813590 3825216 
3619.585 3840214 3856679 3873409 3889898 3906160 3922046 3937125 3950376 
3623.443 3960701 3967138 3969317 3967615 3963055 3956819 3950089 3943345 
3627.300 3936648 3929605 3921957 3913616 3905125 3897249 3890986 3887077 
3631.157 3885904 3887357 3891031 3896346 3902502 3908684 3913868 3916942 
3635.015 3916907 3912932 3904980 3893827 3881327 3870022 3862654 3861276 
3638.872 3866853 3878635 3894376 3910765 3924365 3932343 3933359 3927458 
3642.730 3916238 3901748 3886006 3870102 3854157 3837380 3818893 3798523 
3646.587 3777309 3757824 3743397 3737333 3741651 3756245 3778919 3805527 
3650.445 3831701 3853596 3869228 3878307 3882154 3882357 3880215 3875864 
3654.302 3868672 3857432 3841551 3821361 3798463 3775217 3754001 3736542 
3658.159 3723324 3713726 3706534 3700557 3695086 3690087 3685979 3683150 
3662.017 3681760 3681375 3681140 3680071 3677375 3672529 3665507 3656359 
3665.874 3645220 3632191 3617480 3601562 3585282 3569917 3556788 3546988 
3669.732 3541002 3538595 3538774 3540270 3541806 3542444 3541691 3539169 
3673.589 3534880 3528462 3519789 3508788 3496066 3482781 3470702 3461745 
3677.447 3457369 3458233 3463755 3472243 3481481 3489140 3493610 3494330 
3681.304 3491858 3487640 3483682 3481632 3482861 3487634 3495488 3504917 
3685.161 3513874 3520076 3521361 3516378 3504975 3488388 3469276 3450999 
3689.019 3436839 3428696 3426534 3428306 3430253 3428352 3419603 3402954 
3692.876 3380105 3354591 3331050 3313377 3303938 3302594 3307250 3314745 
3696.734 3322204 3327715 3331151 3333512 3336374 3340925 3347230 3354213 
3700.591 3360159 3363163 3362111 3356864 3348357 3338271 3328584 3320936 
3704.448 3316670 3316351 3319978 3327003 3336287 3346363 3355628 3362561 
3708.306 3366324 3366861 3365090 3362742 3361785 3363917 3370054 3379835 
3712.163 3391917 3403890 3413279 3417705 3415573 3406287 3390337 3369281 
3716.021 3345570 3321970 3301321 3285898 3277134 3275196 3279279 3287741 
3719.878 3298946 3311112 3323168 3334259 3343893 3351516 3356408 3358001 
3723.736 3356043 3350985 3344161 3337539 3333410 3333526 3338683 3348381 
3727.593 3361082 3374495 3386460 3395313 3400357 3401693 3400252 3397157 
3731.450 3393796 3391255 3390456 3391980 3396106 3402558 3410819 3420017 
3735.308 3429395 3438168 3445971 3452827 3459040 3464863 3470523 3475792 
3739.165 3480481 3483980 3485999 3486284 3484631 3480888 3474852 3466394 
3743.023 3455604 3443190 3430293 3418749 3410396 3406527 3407561 3412828 
3746.880 3420747 3429227 3436465 3441359 3443832 3444617 3445365 3447623 
3750.738 3452749 3461381 3473444 3488090 3504188 3520253 3535091 3547544 
3754.595 3557090 3563422 3566715 3567262 3565431 3561486 3555670 3548085 
3758.452 3538869 3528378 3517083 3505532 3494335 3483861 3474327 3465721 
3762.310 3458207 3451978 3447543 3445527 3446516 3450677 3457732 3467108 
3766.167 3477902 3489259 3500786 3512253 3523697 3535043 3546266 3556993 
3770.025 3566844 3575510 3582850 3588736 3592937 3594943 3593895 3588961 
3773.882 3579988 3567486 3553192 3539689 3529543 3524587 3525267 3530487 
3777.740 3537843 3544831 3549544 3551430 3551256 3550557 3550971 3553203 
3781.597 3557075 3561229 3563976 3563854 3560196 3553040 3543102 3531317 
3785.454 3518492 3505267 3492130 3479669 3468822 3460624 3456220 3456403 
3789.312 3461574 3471247 3484361 3499108 3513232 3524369 3530247 3529450 
3793.169 3521643 3508430 3492825 3479144 3471778 3473927 3486405 3507199 
3797.027 3531895 3554776 3570643 3576357 3571563 3558665 3541815 3525425 
3800.884 3512983 3505915 3503658 3504283 3505589 3505557 3503414 3499339 
3804.741 3494363 3489848 3487251 3487628 3491573 3498947 3508938 3520054 
3808.599 3530361 3538066 3542021 3542134 3539642 3536736 3536048 3539708 
3812.456 3548802 3562635 3579249 3595584 3608580 3615585 3615176 3607145 
3816.314 3592598 3573476 3552476 3532288 3515548 3504349 3499945 3502610 
3820.171 3511441 3524375 3538787 3551910 3561401 3565926 3565121 3559578 
3824.029 3550539 3539479 3527743 3516499 3506545 3498454 3492589 3489080 
3827.886 3488198 3489972 3494621 3502240 3512633 3525066 3538369 3550757 
3831.743 3560322 3565465 3565577 3561147 3554042 3546795 3541894 3541028 
3835.601 3544576 3551538 3560023 3568094 3574478 3579124 3582939 3587314 
3839.458 3593457 3601735 3611691 3622262 3632303 3640903 3647956 3653633 
3843.316 3658230 3661566 3662988 3661455 3655964 3646225 3632916 3617834 
3847.173 3603347 3591764 3584841 3583180 3586235 3592665 3600740 3608855 
3851.031 3615930 3621273 3624817 3626614 3627003 3626335 3624988 3623419 
3854.888 3622124 3621193 3620484 3619083 3615657 3608326 3595483 3575938 
3858.745 3549979 3519239 3486942 3457307 3434746 3422876 3423590 3436569 
3862.603 3459467 3488266 3518438 3545928 3567936 3583228 3592362 3596750 
3866.460 3598284 3598602 3598711 3598845 3598953 3598839 3598396 3597928 
3870.318 3597852 3598667 3600387 3602604 3604495 3604826 3602482 3596689 
3874.175 3587564 3575842 3563225 3551721 3543323 3539448 3540545 3546114 
3878.032 3554967 3565397 3575948 3585766 3594669 3602944 3611050 3619040 
3881.890 3626480 3632280 3635202 3634365 3629597 3621790 3612785 3604685 
3885.747 3599464 3598056 3600410 3605040 3610093 3613305 3612950 3607948 
3889.605 3598285 3584565 3568209 3550904 3534544 3520867 3511309 3506766 
3893.462 3507398 3512587 3520993 3530889 3540445 3548186 3553450 3556527 
3897.320 3558510 3560836 3564983 3571637 3580537 3590547 3599927 3606986 
3901.177 3610878 3611865 3611533 3612243 3616375 3625384 3639311 3656586 
3905.034 3674515 3690031 3700830 3705942 3706122 3703457 3700579 3699739 
3908.892 3702167 3707575 3714586 3721069 3724972 3724861 3720273 3711550 
3912.749 3699951 3687038 3674626 3664385 3657773 3655612 3658303 3665222 
3916.607 3675101 3685964 3695477 3701517 3702490 3697399 3686375 3670040 
3920.464 3650014 3628087 3606583 3587797 3573878 3566380 3565982 3572062 
3924.322 3583031 3596472 3609838 3621428 3630630 3638226 3645890 3655471 
3928.179 3668193 3684084 3701857 3719235 3733799 3743389 3746909 3744334 
3932.036 3736404 3724450 3709979 3694385 3679096 3665270 3653891 3645654 
3935.894 3640826 3639034 3639653 3641830 3645076 3649107 3654127 3660374 
3939.751 3667863 3675808 3682821 3687274 3687739 3683786 3676096 3666427 
3943.609 3657212 3650584 3647812 3648926 3652951 3658326 3663648 3667970 
3947.466 3671331 3674238 3677600 3682126 3688218 3695555 3703815 3712066 
3951.323 3719756 3726151 3730942 3733953 3735265 3735252 3734409 3733257 
3955.181 3732213 3731208 3729881 3727616 3723756 3718006 3710647 3702482 
3959.038 3694718 3688626 3685135 3684431 3686221 3689592 3693528 3696982 
3962.896 3699457 3700672 3700854 3700539 3700493 3701399 3703916 3708193 
3966.753 3714150 3720874 3727263 3732123 3734632 3734777 3733322 3731585 
3970.611 3731056 3732357 3735311 3738575 3740280 3738756 3733372 3724783 
3974.468 3714916 3706270 3700946 3699821 3702571 3707556 3713028 3717625 
3978.325 3721147 3724440 3728919 3735677 3744875 3755195 3764479 3769950 
3982.183 3769611 3762489 3749309 3732015 3713328 3696002 3682313 3673331 
3986.040 3669337 3669538 3672519 3676606 3680317 3682638 3683313 3683029 
3989.898 3683406 3686256 3693265 3705005 3721032 3739145 3756507 3770103 
3993.755 3777860 3779210 3775459 3769327 3764194 3762984 3767430 3777399 
3997.613 3791256 3806146 3819010 3827203 3829332 3825228 3816177 
##END=
