##TITLE=eSUN_PLA+_White_Filament_r1_ATR-Corrected
##JCAMP-DX=5.01  $$ Nicolet v. 1
##DATATYPE=INFRARED SPECTRUM
##ORIGIN=Curtin University
##OWNER=Nicolet
##LONGDATE=2024/07/11
##TIME=09:46:06
##SPECTROMETER/DATA SYSTEM=Nicolet iS50
##DATA PROCESSING=
Ratio against background
%Transmittance->Absorbance
ATR Correction
Truncated
ElementMultiply or ElementDivide
##COMMENTS=
Number of sample scans: 32
Collection length: 47.26 sec
Sample gain: 1.0
Background collected on: Thu Jul 11 09:44:08 2024 (GMT+08:00);
Number of background scans: 32
Background gain: 1.0
Sample spacing:  1.000
Number of scan points: 16672
Resolution points: 8192
Number of FFT points: 65536
Apodization: N-B strong;
Phase correction: Mertz;
Laser frequency: 15798.3 cm-1
Number of rejected sample scans: 0
Number of rejected background scans: 0
Bench serial number: AUP1200105;
##RESOLUTION=4.000
##XUNITS=1/CM
##YUNITS=ABSORBANCE
##FIRSTX=400.163452
##LASTX=4000.187744
##FIRSTY=0.070693
##MAXX=4000.187744
##MINX=400.163452
##MAXY=0.937224
##MINY=-0.028655
##XFACTOR=1.000000
##YFACTOR=1.000000E-009
##NPOINTS=7468
##DELTAX=0.482125
##ZPD=8192
##XYDATA=(X++(Y..Y))
400.163 70693264 70207976 69465768 68421032 67077400 65501532 63795024 
403.538 62069984 60425320 58933532 57634724 56537524 55624168 54857448 
406.913 54187776 53563240 52938320 52280848 51574184 50812964 49997844 
410.288 49128184 48200452 47212176 46171008 45102460 44053036 43081756 
413.663 42245308 41577320 41072776 40684156 40330144 39919400 39376796 
417.038 38667712 37808932 36865176 35930584 35103176 34459272 34037988 
420.412 33836068 33812724 33900600 34018968 34086592 34034896 33819608 
423.787 33429612 32890766 32261182 31619612 31048438 30615182 30357404 
427.162 30276184 30339366 30494226 30684682 30868120 31025504 31162704 
430.537 31301546 31467382 31674754 31918958 32171566 32391008 32529678 
433.912 32546676 32419406 32148908 31759772 31294390 30803602 30337194 
437.286 29935812 29626154 29419524 29315188 29302568 29366200 29487246 
440.661 29644936 29817314 29981992 30119128 30215822 30269822 30292044 
444.036 30303692 30329754 30389312 30486112 30603578 30707052 30753072 
447.411 30704054 30541916 30277090 29948334 29612128 29326716 29134578 
450.786 29049968 29055600 29109248 29157318 29150716 29057054 28866078 
454.161 28588252 28248650 27879430 27515130 27190474 26939514 26793870 
457.535 26777476 26899356 27146302 27479082 27836646 28147590 28346980 
460.910 28394072 28283204 28044896 27735758 27419732 27147220 26950600 
464.285 26831658 26771408 26742282 26721206 26697470 26673076 26656642 
467.660 26653990 26660922 26660782 26629216 26542336 26386680 26164990 
471.035 25896198 25610828 25342500 25118822 24956122 24857168 24813858 
474.409 24811178 24832434 24862444 24888782 24901610 24892344 24852214 
477.784 24772794 24646732 24470162 24244546 23978654 23687936 23393152 
481.159 23116182 22875730 22683482 22541910 22444552 22379310 22332444 
484.534 22292942 22255566 22221162 22195108 22183960 22192522 22221944 
487.909 22268992 22327582 22389596 22446188 22487504 22502506 22478622 
491.284 22403644 22268414 22070540 21818372 21531438 21238802 20971538 
494.658 20761858 20630574 20584094 20614138 20700052 20814532 20930128 
498.033 21024380 21083186 21102000 21083572 21035510 20967870 20890320 
501.408 20812278 20742370 20689408 20662044 20668106 20711888 20791908 
504.783 20899056 21016616 21123090 21197102 21223834 21199488 21133074 
508.158 21043524 20953180 20879694 20829274 20794542 20757232 20695870 
511.532 20594286 20449622 20274044 20092002 19932814 19820944 19768950 
514.907 19773704 19818218 19877494 19925910 19944502 19924798 19869796 
518.282 19791570 19706646 19630380 19572968 19535864 19511912 19487176 
521.657 19445206 19373162 19266094 19129808 18979778 18836860 18720706 
525.032 18642388 18604792 18598890 18608766 18616944 18609516 18578742 
528.406 18522128 18440800 18336834 18212916 18073962 17928662 17791234 
531.781 17678490 17605224 17577248 17587112 17614560 17631936 17614804 
535.156 17551468 17449352 17333512 17238818 17197462 17227926 17328496 
538.531 17478586 17645996 17797402 17907722 17964790 17969334 17930960 
541.906 17862784 17777682 17685602 17594174 17508378 17430748 17360174 
545.281 17292046 17218294 17130570 17023274 16897304 16760707 16627137 
548.655 16511574 16425893 16374938 16356785 16364597 16390033 16427075 
552.030 16473174 16528901 16596777 16679997 16782092 16907270 17060362 
555.405 17245336 17460858 17699148 17941554 18160558 18325914 18413154 
558.780 18412140 18331166 18195928 18041612 17903162 17805670 17758992 
562.155 17759028 17792420 17843952 17902564 17963172 18025794 18092214 
565.529 18162810 18235786 18308212 18377996 18444806 18509784 18573802 
568.904 18634918 18688776 18729856 18755488 18768996 18780398 18804442 
572.279 18855452 18941472 19060908 19202384 19349296 19485336 19600500 
575.654 19693008 19768292 19834422 19897644 19958734 20013954 20057610 
579.029 20086024 20100526 20107924 20117806 20139020 20176414 20229856 
582.404 20294874 20366092 20439336 20513844 20591064 20673200 20760566 
585.778 20850146 20936116 21011596 21071064 21112850 21139298 21156032 
589.153 21170156 21187376 21211136 21241818 21278172 21318872 21364104 
592.528 21416258 21479386 21557714 21653150 21763684 21883290 22002290 
595.903 22109920 22197274 22258918 22294478 22307284 22302830 22287296 
599.278 22265940 22243916 22227640 22225480 22248588 22308466 22413996 
602.652 22567232 22761600 22981732 23207506 23419300 23603626 23756894 
606.027 23885306 24001170 24118498 24247258 24390858 24546512 24707564 
609.402 24867342 25021768 25170344 25315960 25462550 25613924 25772840 
612.777 25941290 26120670 26311964 26514626 26726278 26941590 27153304 
616.152 27353828 27538034 27705438 27859824 28008706 28160210 28320030 
619.527 28490358 28669394 28854044 29041196 29229848 29420886 29615950 
622.901 29815400 30017556 30218548 30413590 30599202 30773866 30938374 
626.276 31095204 31246460 31394098 31539458 31684454 31832054 31986166 
629.651 32150004 32324302 32505338 32685660 32855886 33008740 33142094 
633.026 33261246 33377852 33506606 33660664 33847944 34069304 34319004 
636.401 34586736 34860292 35127012 35374780 35592152 35769288 35899420 
639.775 35981960 36024144 36041056 36053688 36083700 36147476 36252292 
643.150 36394704 36563344 36743608 36923344 37095944 37261636 37424992 
646.525 37592488 37769068 37957852 38160724 38379604 38616320 38872412 
649.900 39145452 39427984 39706152 39962580 40180900 40350696 40471476 
653.275 40553604 40614496 40674116 40749140 40849440 40977504 41130608 
656.650 41304344 41495480 41702720 41926072 42164276 42413012 42664232 
660.024 42906780 43128832 43320660 43476508 43595868 43682928 43746732 
663.399 43799404 43854908 43927236 44028668 44166584 44342392 44550204 
666.774 44778376 45012152 45237648 45445124 45631228 45798684 45954560 
670.149 46106448 46260720 46420464 46586144 46756668 46930660 47107032 
673.524 47284112 47458636 47624408 47772752 47894212 47981728 48034296 
676.898 48059044 48071572 48093120 48145932 48247464 48406304 48618164 
680.273 48868264 49134584 49393732 49627380 49827040 49995564 50145992 
683.648 50296820 50466236 50666456 50900696 51163020 51441484 51722332 
687.023 51994580 52252724 52497048 52731600 52961572 53191264 53423624 
690.398 53661844 53911468 54182224 54488280 54845548 55268736 55766716 
693.773 56341268 56986792 57692820 58447416 59239552 60059200 60894912 
697.147 61730416 62541044 63293376 63948312 64467220 64820356 64992464 
700.522 64986496 64821152 64525744 64131952 63667944 63155196 62608608 
703.897 62040464 61463976 60896776 60360072 59875212 59459100 59119096 
707.272 58851960 58645076 58480528 58340972 58213468 58090036 57965752 
710.647 57833640 57680716 57486064 57222804 56863500 56387200 55786028 
714.021 55067268 54251972 53369484 52449116 51513944 50575716 49634976 
717.396 48683620 47709700 46702528 45656392 44572364 43458848 42329884 
720.771 41204216 40102500 39045772 38052820 37138656 36312600 35577936 
724.146 34932456 34370136 33884080 33468348 33120212 32840990 32635614 
727.521 32511820 32478206 32543264 32714222 32996338 33392392 33903636 
730.896 34529772 35269560 36121740 37084436 38153896 39323200 40580108 
734.270 41906576 43278788 44669996 46053664 47407724 48717032 49974416 
737.645 51178672 52332512 53438348 54497192 55508220 56470840 57387136 
741.020 58263356 59110644 59942756 60772540 61609024 62455004 63307516 
744.395 64159332 65002508 65831528 66645332 67448240 68248880 69058496 
747.770 69888656 70749168 71646768 72584232 73559816 74568104 75600600 
751.144 76646752 77694912 78732024 79742120 80704896 81594520 82379424 
754.519 83025472 83500696 83781624 83858184 83735336 83430856 82969056 
757.894 82372232 81654720 80818848 79857888 78761672 77524280 76149984 
761.269 74655656 73067880 71418088 69736128 68046448 66367544 64713188 
764.644 63096324 61531388 60033352 58615876 57286864 56046132 54884280 
768.018 53785092 52730492 51705568 50702404 49721444 48769516 47855952 
771.393 46987760 46166520 45387056 44638692 43907888 43182600 42455060 
774.768 41723328 40990028 40260428 39538896 38827096 38123308 37424012 
778.143 36726952 36034108 35353044 34695984 34075708 33501186 32972946 
781.518 32481562 32009468 31536270 31044726 30526228 29982618 29425048 
784.893 28868504 28326694 27807974 27314128 26842082 26387438 25947732 
788.267 25524022 25119414 24736844 24375934 24032166 23697934 23365228 
791.642 23029642 22692840 22362892 22052254 21774802 21541846 21359492 
795.017 21227400 21139130 21083170 21045146 21009960 20963908 20897552 
798.392 20807044 20695428 20572042 20449612 20341188 20255520 20195116 
801.767 20155778 20128382 20103060 20073354 20037708 19999272 19963636 
805.141 19935376 19915496 19900556 19884710 19862316 19831396 19795444 
808.516 19762646 19743524 19747034 19777248 19831572 19900398 19969332 
811.891 20022568 20046054 20030982 19975560 19886056 19775352 19660636 
815.266 19559660 19486744 19449256 19445742 19466884 19498176 19524482 
818.641 19534438 19523522 19494244 19454482 19413576 19379078 19354044 
822.016 19336992 19323884 19310278 19293800 19274384 19253694 19232852 
825.390 19210940 19184226 19147386 19095770 19028164 18947644 18862096 
828.765 18781122 18713110 18662458 18627966 18603976 18583688 18562326 
832.140 18540724 18526286 18531494 18570332 18655086 18792364 18982184 
835.515 19219154 19496092 19806812 20148844 20524496 20938812 21398040 
838.890 21907492 22469678 23085178 23753064 24471580 25238236 26048364 
842.264 26894006 27762310 28637422 29501328 30338086 31135844 31888072 
845.639 32592002 33245876 33845076 34381316 34842768 35218508 35503592 
849.014 35704188 35839744 35943212 36056204 36224956 36494152 36903372 
852.389 37484860 38262080 39249336 40451352 41863436 43472668 45260540 
855.764 47206856 49293772 51507924 53839308 56277308 58804324 61390836 
859.139 63993260 66557996 69029904 71362856 73529440 75524520 77363312 
862.513 79072176 80677920 82197656 83633840 84976496 86208536 87315784 
865.888 88293224 89149408 89904248 90584720 91218048 91825648 92419320 
869.263 93000112 93557872 94074040 94523592 94878464 95110688 95195208 
872.638 95111752 94844224 94378320 93698024 92782320 91604752 90136152 
876.013 88351728 86239488 83808496 81092064 78146424 75043360 71860280 
879.387 68669952 65532872 62494172 59584792 56825108 54229824 51811600 
882.762 49583240 47557064 45743876 44150556 42778756 41623824 40675672 
886.137 39920244 39341244 38922148 38646884 38500332 38467100 38529960 
889.512 38669112 38862284 39085892 39318364 39542672 39749004 39934972 
892.887 40103852 40261796 40413360 40559188 40694880 40813036 40905608 
896.262 40967104 40997032 40999984 40984216 40959284 40933484 40912104 
899.636 40896928 40887020 40879836 40873384 40866604 40861484 40863200 
903.011 40879588 40920088 40993324 41103720 41249436 41420684 41601080 
906.386 41771700 41915860 42025100 42101284 42156384 42207760 42270612 
909.761 42352112 42446308 42535520 42595292 42602580 42543168 42417272 
913.136 42238800 42031372 41820744 41627168 41460128 41317756 41188808 
916.510 41058516 40913984 40748224 40561988 40361524 40155536 39950756 
919.885 39749232 39547668 39338312 39113432 38868784 38607484 38340736 
923.260 38086380 37864108 37689900 37570080 37498448 37456780 37418628 
926.635 37357244 37252556 37096584 36896416 36671616 36449140 36255900 
930.010 36112724 36029840 36006752 36033532 36095528 36176936 36264968 
933.385 36350620 36429808 36501828 36568380 36631944 36694808 36758808 
936.759 36824588 36892292 36962372 37036356 37117964 37213796 37333160 
940.134 37486352 37683736 37932744 38236480 38592564 38994780 39434148 
943.509 39902048 40391832 40901080 41430692 41984360 42566168 43179728 
946.884 43826076 44504328 45212244 45947360 46707884 47493744 48305872 
950.259 49146456 50016320 50915128 51839268 52782052 53733404 54679892 
953.633 55605380 56492268 57321368 58073504 58729792 59273320 59689720 
957.008 59969156 60106144 60101564 59961556 59698288 59328384 58872788 
960.383 58355156 57801672 57239244 56694800 56192332 55751696 55385780 
963.758 55098800 54886964 54738612 54637920 54566948 54509308 54451752 
967.133 54384868 54302408 54200160 54074504 53922356 53740864 53528472 
970.508 53286024 53016620 52726268 52422556 52114024 51808716 51514176 
973.882 51236088 50979596 50748240 50544852 50371628 50231040 50125940 
977.257 50060316 50039232 50067920 50151108 50291200 50487384 50735064 
980.632 51026852 51354452 51710476 52090080 52491476 52914916 53360796 
984.007 53828096 54312732 54809084 55311636 55817260 56327320 56848520 
987.382 57391036 57966408 58583388 59246716 59956108 60707648 61494768 
990.756 62311168 63150688 64008100 64877852 65753752 66628500 67495832 
994.131 68351216 69194112 70028120 70860560 71700296 72555928 73433944 
997.506 74338656 75272400 76237280 77235776 78270968 79345344 80460128 
1000.881 81613584 82802304 84022280 85271496 86551888 87869936 89236376 
1004.256 90663352 92162464 93742736 95409976 97168408 99021520 100973752 
1007.630 103030688 105197528 107478112 109872904 112379576 114994424 
1010.523 117715368 120543816 123486272 126553240 129757272 133109096 
1013.416 136615776 140280688 144104000 148085872 152227296 156531168 
1016.309 160998784 165626928 170404032 175308416 180309712 185374368 
1019.201 190469536 195570688 200662496 205738416 210795856 215832016 
1022.094 220839520 225807856 230725728 235587984 240398912 245174992 
1024.987 249941632 254728048 259560496 264457888 269431424 274488640 
1027.880 279638528 284898080 290293888 295860928 301636352 307652992 
1030.773 313931808 320478432 327283712 334325536 341572576 348988352 
1033.666 356531808 364158176 371817216 379452896 387003328 394403264 
1036.559 401585920 408486304 415043296 421201120 426909152 432124288 
1039.452 436809344 440935744 444483200 447442368 449813760 451608128 
1042.345 452844000 453545696 453738880 453447744 452693504 451494592 
1045.238 449869792 447843744 445450624 442737760 439764992 436600416 
1048.131 433314304 429973024 426634752 423348576 420154816 417088704 
1051.024 414180736 411456960 408935456 406625312 404523744 402619392 
1053.917 400896320 399341824 397950816 396730208 395698976 394885120 
1056.811 394322208 394046176 394093568 394503072 395315104 396573024 
1059.704 398320960 400600608 403447456 406888320 410938528 415603872 
1062.597 420880416 426757472 433216448 440231968 447770432 455791040 
1065.490 464247648 473092736 482280352 491770016 501526656 511520992 
1068.383 521727904 532126560 542701504 553446272 564363584 575464064 
1071.276 586757952 598247552 609913856 621712064 633571328 645404288 
1074.169 657119680 668636928 679893952 690847680 701465792 711715008 
1077.062 721547776 730895552 739667008 747754304 755038464 761402112 
1079.955 766736960 770953984 773989120 775811584 776421888 775850944 
1082.848 774149568 771380352 767607040 762891328 757294976 750886400 
1085.741 743744128 735961472 727641472 718889088 709800704 700456512 
1088.634 690916608 681225280 671415488 661519488 651572416 641616448 
1091.527 631697856 621862208 612147904 602580800 593169856 583909312 
1094.420 574779584 565756160 556814528 547938624 539122112 530369760 
1097.313 521692224 513101408 504604704 496201984 487886272 479647232 
1100.207 471475296 463367616 455328096 447368608 439505472 431757440 
1103.100 424142816 416679904 409386720 402282496 395386944 388721248 
1105.993 382305056 376156640 370293632 364734464 359499552 354613024 
1108.886 350101984 345993056 342307296 339056192 336237696 333835968 
1111.779 331824992 330172896 328847552 327821600 327074624 326592640 
1114.672 326365920 326386176 326643648 327127936 327828128 328736448 
1117.565 329850688 331176032 332724192 334510816 336550240 338850336 
1120.458 341408160 344207328 347216416 350391552 353677824 357012928 
1123.351 360327776 363548352 366595168 369385440 371834272 373859232 
1126.244 375386496 376356960 376731488 376493760 375649056 374221664 
1129.137 372247968 369771584 366836544 363483616 359747008 355652736 
1132.030 351216768 346445120 341335648 335881024 330073440 323910304 
1134.923 317396800 310547616 303385216 295936064 288226560 280282784 
1137.816 272130816 263800768 255330896 246769744 238175040 229609808 
1140.709 221135392 212806304 204666000 196747248 189075504 181672832 
1143.603 174561520 167766560 161314736 155232352 149541440 144256592 
1146.496 139383264 134917632 130847304 127154040 123816472 120812952 
1149.389 118123112 115730456 113622128 111788848 110223592 108919048 
1152.282 107866072 107052088 106460632 106073352 105871808 105840440 
1155.175 105969008 106254040 106698248 107309072 108095448 109065936 
1158.068 110226840 111581488 113131624 114879688 116831504 118998224 
1160.961 121398296 124057656 127008824 130290032 133942392 138009168 
1163.854 142533392 147559024 153130496 159294672 166103072 173612320 
1166.747 181885696 190991392 201000128 211981344 223997776 237101152 
1169.640 251327184 266692464 283192288 300799296 319462528 339106816 
1172.533 359629760 380899904 402755104 424999200 447401408 469696864 
1175.426 491588544 512751520 532841024 551503040 568390784 583184896 
1178.319 595613568 605472256 612636864 617068992 618816192 618003456 
1181.212 614821824 609516032 602367168 593676672 583748864 572875328 
1184.105 561322432 549324544 537080576 524755712 512484480 500375584 
1186.999 488516256 476976128 465810048 455061024 444761440 434935360 
1189.892 425598272 416758112 408415264 400563360 393190976 386283264 
1192.785 379823712 373795584 368182496 362967904 358134272 353662528 
1195.678 349532768 345724928 342220384 339001760 336054304 333363872 
1198.571 330916768 328697568 326690208 324878208 323245504 321778336 
1201.464 320463744 319289696 318242944 317308064 316466656 315697888 
1204.357 314981088 314295520 313620224 312933792 312212576 311429920 
1207.250 310557600 309567840 308436736 307147264 305689760 304060384 
1210.143 302257280 300276928 298112576 295755072 293196096 290432704 
1213.036 287470624 284324992 281017376 277571584 274008800 270345120 
1215.929 266590720 262753104 258839872 254861984 250834704 246777056 
1218.822 242708656 238647952 234609744 230605088 226640768 222721152 
1221.715 218848560 215024688 211250560 207528624 203861024 200252688 
1224.608 196709360 193238992 189849056 186546624 183336112 180218448 
1227.501 177190928 174248496 171384224 168592288 165868896 163214160 
1230.395 160632416 158132128 155723856 153419200 151227120 149152480 
1233.288 147194064 145344992 143593712 141926224 140329632 138793952 
1236.181 137313280 135885584 134511696 133193480 131932240 130727784 
1239.074 129578176 128480432 127430752 126425384 125460592 124533776 
1241.967 123642888 122787672 121969880 121192976 120461640 119780760 
1244.860 119152848 118578328 118053768 117573584 117131864 116724480 
1247.753 116350056 116011528 115713816 115463024 115263808 115118224 
1250.646 115025600 114983608 114989648 115042264 115141808 115290112 
1253.539 115489688 115743272 116052232 116417272 116838512 117315264 
1256.432 117846296 118429328 119059000 119726848 120421240 121127248 
1259.325 121829056 122511376 123161744 123771120 124334264 124849328 
1262.218 125316440 125736896 126111584 126440896 126723928 126958328 
1265.111 127140376 127265168 127326608 127318752 127235424 127071128 
1268.004 126821432 126482544 126051544 125526128 124903984 124183752 
1270.897 123364072 122444936 121427376 120313928 119107920 117813592 
1273.791 116434912 114975632 113437808 111823136 110132976 108369600 
1276.684 106536960 104641688 102692664 100699736 98672864 96620768 94550696 
1280.059 92469552 90385728 88311088 86261576 84257088 82318448 80464688 
1283.434 78709400 77059568 75515792 74075448 72736048 71499144 70371656 
1286.809 69365808 68496512 67777736 67219440 66825576 66593708 66516688 
1290.185 66584156 66784120 67103660 67529080 68044448 68632240 69273440 
1293.560 69949176 70642592 71340016 72031872 72711864 73375592 74018144 
1296.935 74633416 75213936 75751168 76238064 76669912 77045584 77367704 
1300.310 77641528 77874248 78073088 78244456 78393600 78524288 78639128 
1303.686 78739256 78825040 78896408 78953112 78994600 79020880 79031352 
1307.061 79026456 79005664 78968360 78913872 78841592 78751920 78647040 
1310.436 78530680 78408400 78286216 78170136 78063720 77967784 77880384 
1313.811 77797064 77712584 77622856 77526080 77424120 77321664 77225640 
1317.187 77142984 77078784 77035960 77014088 77011256 77025040 77054128 
1320.562 77098752 77161288 77244192 77348856 77474352 77616824 77771120 
1323.937 77932152 78097720 78269832 78454928 78662712 78904072 79187504 
1327.312 79518552 79899136 80328896 80807752 81337080 81920960 82565072 
1330.688 83273936 84048976 84885960 85775480 86705464 87663600 88641512 
1334.063 89635792 90649008 91686608 92754936 93858024 94996728 96168856 
1337.438 97371288 98602176 99862040 101153880 102482432 103851480 105262960 
1340.813 106716264 108209000 109739240 111306648 112914152 114567256 
1343.706 116272824 118037048 119863912 121754008 123705064 125713464 
1346.599 127774488 129884136 132038968 134234400 136464464 138720560 
1349.492 140990960 143261808 145518400 147746560 149933296 152066080 
1352.385 154132960 156120064 158011904 159792064 161444496 162956960 
1355.279 164322896 165542640 166622192 167570896 168398416 169112096 
1358.172 169716848 170215712 170612416 170913072 171128288 171270576 
1361.065 171354512 171393152 171396368 171371296 171321552 171247616 
1363.958 171147568 171014496 170835968 170591504 170253328 169787712 
1366.851 169159104 168333760 167284944 165995936 164462368 162694272 
1369.744 160716944 158572944 156323312 154048304 151845776 149826736 
1372.637 148108976 146808336 146029024 145854224 146339104 147504624 
1375.530 149335840 151781776 154757808 158151152 161827312 165638128 
1378.423 169432544 173064992 176405648 179346208 181802496 183714112 
1381.316 185041344 185762000 185868320 185364960 184267024 182599600 
1384.209 180396720 177699824 174558064 171028160 167173088 163060896 
1387.102 158759872 154333856 149836704 145307888 140772544 136242800 
1389.995 131723512 127217248 122729480 118271456 113861512 109524344 
1392.888 105290064 101192024 97265280 93543720 90057792 86831264 83879992 
1396.264 81209928 78818584 76696152 74827608 73194472 71776120 70551176 
1399.639 69497576 68593896 67820432 67160144 66599032 66126436 65734596 
1403.014 65417224 65168836 64984180 64858660 64787848 64768560 64797924 
1406.389 64873628 64992084 65149060 65338596 65555104 65793940 66053240 
1409.765 66333152 66635996 66963248 67314568 67685656 68069312 68456256 
1413.140 68838464 69211288 69574728 69932760 70291560 70656672 71030376 
1416.515 71410576 71791696 72165864 72526792 72870504 73197568 73511992 
1419.890 73820120 74128624 74442616 74765368 75098008 75440800 75793728 
1423.266 76157824 76535560 76931112 77349712 77797056 78278184 78796352 
1426.641 79352728 79945752 80571784 81226848 81908304 82617016 83358128 
1430.016 84141016 84977560 85879680 86857168 87916208 89060288 90291824 
1433.391 91616368 93044768 94595744 96295592 98176424 100273160 102620224 
1436.767 105248848 108185592 111451520 115062360 119027808 123349872 
1439.660 128022328 133028672 138342624 143928624 149742448 155732224 
1442.553 161838912 167994432 174123488 180145456 185980224 191555648 
1445.446 196812960 201710816 206223920 210339600 214051856 217357328 
1448.339 220253744 222739600 224816208 226487584 227759376 228636992 
1451.232 229124624 229224608 228937936 228266096 227209488 225767888 
1454.125 223937584 221711584 219081600 216042736 212599968 208770272 
1457.018 204584272 200081120 195302896 190287920 185069680 179677616 
1459.911 174140480 168489888 162759040 156982800 151192256 145415232 
1462.804 139675216 133996248 128405512 122935632 117622688 112501144 
1465.697 107599216 102934760 98514904 94339816 90407008 86714928 83264456 
1469.073 80056536 77089072 74354400 71837720 69519504 67377872 65392396 
1472.448 63546112 61826812 60225108 58734460 57349324 56064424 54874992 
1475.823 53775948 52761388 51823724 50952884 50137320 49365184 48626704 
1479.198 47916216 47233100 46580820 45964984 45390124 44858640 44368660 
1482.573 43915296 43491512 43090444 42705760 42333204 41969396 41613072 
1485.949 41264588 40926304 40602164 40297212 40016136 39761436 39532568 
1489.324 39325404 39133952 38951828 38774344 38599056 38425008 38250740 
1492.699 38072260 37882172 37669996 37425224 37139856 36811392 36443732 
1496.074 36045448 35627928 35201468 34773396 34348008 33927548 33514466 
1499.450 33112946 32729548 32371368 32044664 31752754 31495142 31268548 
1502.825 31067522 30886850 30721622 30567714 30420900 30276058 30126558 
1506.200 29965966 29789432 29595326 29386162 29168466 28951172 28742956 
1509.575 28550238 28376524 28221816 28083346 27956782 27837112 27718854 
1512.951 27596610 27465632 27322258 27164856 26994632 26816756 26638350 
1516.326 26467716 26311564 26172712 26049652 25936108 25823812 25705510 
1519.701 25577350 25439924 25298356 25159340 25028590 24908572 24797822 
1523.076 24690944 24582704 24468960 24349034 24225272 24101406 23980520 
1526.452 23862100 23742676 23616800 23479170 23327942 23165958 23000710 
1529.827 22841796 22699034 22577984 22478708 22396548 22323110 22249632 
1533.202 22169496 22080020 21982246 21880642 21780246 21685580 21598390 
1536.577 21518458 21442954 21367934 21289772 21205300 21114000 21016702 
1539.953 20916514 20816328 20718248 20622178 20526372 20427568 20322710 
1543.328 20211108 20094706 19978778 19869234 19771386 19686732 19612902 
1546.703 19543778 19472554 19394434 19309144 19221170 19137798 19066582 
1550.078 19011440 18970742 18937316 18902282 18857442 18799190 18730166 
1553.454 18657612 18591524 18540436 18508328 18493780 18490878 18491362 
1556.829 18487124 18472326 18444256 18403276 18351444 18292206 18228952 
1560.204 18165076 18103394 18046194 17995124 17951042 17913466 17881560 
1563.579 17853836 17828588 17804976 17781826 17759564 17738456 17720264 
1566.955 17707390 17703402 17711780 17735150 17773574 17823440 17877772 
1570.330 17927706 17964734 17983878 17984906 17973630 17958916 17950454 
1573.705 17954670 17973398 18002956 18035688 18063346 18079650 18082282 
1577.080 18073326 18058512 18044438 18037388 18042522 18062964 18100568 
1580.456 18154640 18222736 18299536 18377034 18445858 18497648 18526564 
1583.831 18532260 18519460 18497366 18476452 18464964 18467336 18482668 
1587.206 18506600 18533350 18558922 18582130 18604704 18631178 18665408 
1590.581 18710160 18765612 18830846 18903282 18981350 19063756 19150232 
1593.957 19239864 19331456 19422998 19512216 19597522 19678750 19757636 
1597.332 19836734 19918832 20006048 20098830 20196478 20297524 20400658 
1600.707 20504630 20609166 20712788 20812984 20905810 20985886 21048216 
1604.082 21089552 21110578 21115054 21110486 21105196 21106706 21119074 
1607.458 21142598 21174036 21208564 21242068 21272566 21301540 21332394 
1610.833 21369544 21415352 21469830 21529962 21591506 21651050 21707978 
1614.208 21765494 21829558 21906690 22000332 22109232 22226286 22340814 
1617.583 22441816 22522182 22581608 22626006 22666826 22715206 22779304 
1620.958 22860422 22953078 23047020 23130526 23194190 23234378 23252342 
1624.334 23253794 23245732 23234154 23222396 23211298 23199576 23186114 
1627.709 23170192 23152418 23134072 23116712 23101128 23087988 23077512 
1631.084 23070378 23067310 23069214 23075802 23085974 23097150 23106202 
1634.459 23110338 23108368 23100742 23089518 23077284 23065202 23052550 
1637.835 23036358 23011796 22974546 22921620 22853070 22771630 22682858 
1641.210 22593874 22511918 22443962 22395338 22370004 22369376 22392350 
1644.585 22434736 22489068 22545286 22592134 22618854 22618492 22588664 
1647.960 22532782 22459566 22381298 22310992 22260106 22236604 22243778 
1651.336 22280130 22339990 22415190 22496820 22577486 22653112 22722340 
1654.711 22787190 22851292 22917806 22988440 23063030 23139140 23213196 
1658.086 23282246 23344420 23400206 23452730 23506652 23567594 23640968 
1661.461 23730142 23836796 23959058 24092632 24230404 24363884 24484684 
1664.837 24586048 24664812 24722154 24764274 24800642 24842974 24901970 
1668.212 24984968 25094236 25226652 25375148 25529714 25680722 25819854 
1671.587 25941978 26044890 26129490 26198512 26257682 26314244 26377222 
1674.962 26456290 26560340 26694756 26860330 27050940 27255836 27461066 
1678.338 27653070 27823032 27969536 28099428 28226226 28366604 28535868 
1681.713 28742876 28987914 29262474 29552088 29839472 30110444 30356048 
1685.088 30575964 30776434 30968550 31164264 31373780 31604194 31858918 
1688.463 32138530 32441624 32765600 33107642 33464734 33834340 34214656 
1691.839 34605124 35006832 35423156 35857836 36315352 36798356 37307696 
1695.214 37842248 38399316 38976352 39572596 40188640 40826272 41488304 
1698.589 42175352 42886908 43620736 44375056 45150548 45951796 46787848 
1701.964 47670388 48612096 49623672 50712584 51882340 53132876 54462180 
1705.340 55867188 57344584 58891328 60503948 62178180 63909920 65694644 
1708.715 67530536 69419592 71367456 73384840 75485272 77682856 79990224 
1712.090 82415632 84961872 87625888 90398064 93264480 96208144 99212200 
1715.465 102261616 105346400 108461200 111605568 114782464 117994656 
1718.358 121243416 124527864 127845216 131193696 134575872 138000752 
1721.251 141484720 145051744 148731152 152555904 156559952 160777696 
1724.145 165241920 169983424 175029712 180406048 186136208 192245376 
1727.038 198763104 205725168 213175552 221163456 229740624 238958208 
1729.931 248864256 259507184 270940576 283229472 296452128 310695264 
1732.824 326041600 342553280 360257440 379139456 399151168 420229408 
1735.717 442316448 465376064 489391264 514348512 540209920 566886464 
1738.610 594223680 622003712 649964992 677828864 705321152 732181696 
1741.503 758162176 783018496 806509248 828406912 848515776 866687936 
1744.396 882827648 896883008 908828352 918652352 926356608 931968128 
1747.289 935553792 937223808 937118656 935382400 932135232 927458560 
1750.182 921401984 914005504 905324672 895446272 884480448 872539200 
1753.075 859708480 846032640 831518976 816158784 799959040 782967040 
1755.968 765277440 747025920 728364864 709442496 690383808 671289664 
1758.861 652240320 633304960 614550464 596044928 577855552 560047360 
1761.754 542682176 525818176 509508800 493802592 478736640 464332128 
1764.647 450588096 437482208 424973696 413014944 401562496 390585088 
1767.541 380067168 370004864 360396704 351233504 342491008 334127840 
1770.434 326090912 318321280 310763584 303372064 296112064 288958624 
1773.327 281891584 274892768 267941504 261016064 254093680 247153456 
1776.220 240178288 233156256 226081920 218956320 211788288 204593696 
1779.113 197396384 190225296 183111776 176086016 169171552 162384688 
1782.006 155733936 149224304 142862576 136660896 130639224 124822872 
1784.899 119236736 113899432 108817976 103986952 99393216 95020720 90858920 
1788.274 86905792 83167976 79658008 76386104 73356968 70565136 67995296 
1791.649 65625020 63429020 61382712 59466608 57666296 55974096 54387416 
1795.025 52906528 51533948 50270668 49114068 48057368 47087768 46189540 
1798.400 45345236 44540336 43764044 43010932 42279440 41569392 40880636 
1801.775 40210036 39553728 38906488 38265848 37633992 37017168 36426068 
1805.150 35873616 35371012 34925716 34537804 34199472 33894868 33602112 
1808.526 33297304 32959762 32577194 32149446 31688354 31215678 30755460 
1811.901 30326284 29936102 29579148 29240250 28900888 28548898 28183734 
1815.276 27818924 27477138 27182412 26950668 26783834 26669142 26585062 
1818.651 26509480 26427006 26333466 26232898 26131358 26030144 25922404 
1822.027 25793978 25628888 25417086 25159144 24867724 24563598 24268720 
1825.402 23998236 23756128 23534094 23316876 23087132 22833026 22552070 
1828.777 22251684 21947332 21658198 21399916 21182886 21006352 20860476 
1832.152 20727638 20587208 20420742 20217210 19975422 19704176 19417678 
1835.528 19131756 18856810 18597388 18350930 18114822 17888622 17680304 
1838.903 17503442 17372056 17294002 17264514 17263554 17261344 17227516 
1842.278 17141348 16999010 16814646 16614014 16423246 16257992 16116889 
1845.653 15982850 15831228 15640749 15403800 15130555 14845844 14582292 
1849.029 14368774 14221998 14141421 14110975 14103542 14090048 14046386 
1852.404 13959925 13832203 13678702 13524586 13398157 13322351 13308563 
1855.779 13350655 13425975 13501587 13543515 13527190 13445308 13310361 
1859.154 13148758 12991359 12863277 12777048 12730807 12713366 12712522 
1862.530 12721957 12742369 12781609 12845213 12932516 13031236 13120971 
1865.905 13176891 13178726 13115241 12985775 12798105 12566437 12306613 
1869.280 12038002 11783170 11568449 11422126 11368484 11418895 11565088 
1872.655 11778297 12012704 12217173 12348725 12384001 12322848 12185340 
1876.031 12003690 11809685 11628370 11475200 11359144 11286140 11264232 
1879.406 11301405 11403399 11567696 11781103 12017825 12246442 12432873 
1882.781 12548110 12569001 12481338 12278480 11965814 11561563 11101257 
1886.156 10637685 10234014 9951083 9831012 9883161 10077920 10352870 
1889.531 10630272 10839500 10939315 10925914 10832936 10712674 10618854 
1892.907 10586872 10624583 10716219 10829852 10931659 10996871 11013164 
1896.282 10979607 10900947 10786648 10646448 10494160 10347174 10227916 
1899.657 10156976 10148400 10202488 10304503 10428273 10545229 10632822 
1903.032 10682014 10696732 10689472 10672235 10647956 10609597 10542949 
1906.408 10433797 10279184 10091001 9895664 9727528 9616537 9578521 9609488 
1910.265 9684783 9766591 9814742 9796387 9693407 9507308 9257632 8976950 
1914.123 8702181 8472032 8316427 8253328 8283872 8390697 8539167 8681510 
1917.980 8767560 8754090 8619062 8368673 8040706 7698128 7415362 7259816 
1921.837 7273199 7458861 7777366 8155605 8502780 8735650 8796548 8669836 
1925.695 8380598 7987509 7564070 7183331 6898842 6741550 6715665 6804459 
1929.552 6975105 7189019 7406964 7595956 7734249 7814612 7844289 7838747 
1933.410 7814451 7777338 7719508 7619667 7454769 7217492 6929320 6646019 
1937.267 6447981 6417239 6604897 7008026 7562458 8154449 8653946 8955365 
1941.125 9006343 8824134 8485087 8094283 7749658 7519671 7424451 7448912 
1944.982 7554460 7704760 7869088 8032810 8184854 8313931 8406395 8452876 
1948.839 8456142 8437099 8436118 8495901 8647909 8896444 9213352 9542111 
1952.697 9820300 9994136 10030857 9923340 9680375 9314486 8836023 8251309 
1956.554 7570103 6819820 6053698 5348602 4791471 4458653 4393904 4598010 
1960.412 5022750 5596152 6233260 6864733 7443001 7944352 8363927 8709299 
1964.269 8992299 9230452 9446201 9668499 9923453 10230899 10589479 10967006 
1968.126 11302391 11516023 11525788 11277570 10764603 10046089 9239037 
1971.502 8496280 7972329 7779903 7958016 8466159 9191976 9996654 10755498 
1975.359 11401757 11935094 12420056 12935778 13543495 14249332 15005444 
1978.734 15734740 16369617 16877224 17264408 17558912 17788650 17957616 
1982.110 18049430 18036378 17907324 17680010 17404618 17145210 16949336 
1985.485 16817406 16697168 16498663 16124625 15518638 14690537 13722794 
1988.860 12745239 11890133 11256319 10881862 10743705 10780911 10928866 
1992.235 11139163 11388543 11661408 11929062 12131662 12181710 11979272 
1995.611 11451975 10591146 9468558 8231985 7080452 6211217 5770001 5814399 
1999.468 6295051 7059938 7880372 8501377 8690204 8289760 7265980 5714862 
2003.325 3860428 2007920 479058 -458728 -648468 -81602 1106844 2678212 
2007.183 4368860 5948870 7281071 8327118 9130505 9772524 10340915 10894837 
2011.040 11455987 12007491 12497863 12849743 12982577 12830715 12374139 
2014.416 11663633 10825139 10037777 9493039 9333782 9597898 10197083 
2017.791 10929152 11540413 11806709 11611752 10984523 10087721 9162120 
2021.166 8440480 8077438 8102623 8435423 8907169 9339816 9579230 9543536 
2025.023 9231560 8715916 8118623 7592762 7279296 7285633 7642776 8293461 
2028.881 9088773 9818408 10276167 10325568 9953465 9289107 8565661 8048740 
2032.738 7934842 8279990 8970682 9761455 10360938 10538816 10201267 9419562 
2036.596 8390256 7366768 6574311 6163028 6178973 6586260 7286161 8153984 
2040.453 9058647 9874598 10487087 10805622 10776320 10404388 9763385 8993248 
2044.311 8274489 7785994 7658226 7942845 8595562 9500161 10498346 11436949 
2048.168 12199465 12724307 13003033 13059773 12930857 12646972 12224894 
2051.543 11675818 11012414 10257215 9446827 8631919 7864127 7191604 6645268 
2055.401 6237187 5961094 5803517 5745480 5769191 5859756 6000489 6164798 
2059.258 6323786 6441218 6488998 6457988 6368085 6270309 6238819 6354178 
2063.115 6680176 7238834 8002390 8890669 9793732 10595972 11205967 11577417 
2066.973 11718249 11679967 11536798 11362767 11210968 11099456 11018519 
2070.348 10937412 10821553 10645999 10407481 10124820 9841705 9617904 
2073.723 9520285 9609874 9926822 10475908 11216699 12065861 12907141 
2077.099 13613688 14079517 14243157 14104518 13724169 13203544 12655586 
2080.474 12173869 11807788 11557769 11382583 11226211 11042409 10817830 
2083.849 10575253 10371952 10273045 10332584 10569936 10959758 11438211 
2087.224 11916152 12301655 12521229 12534225 12336840 11955662 11433848 
2090.600 10818932 10150765 9461985 8780551 8140237 7588956 7186379 6996729 
2094.457 7066385 7403491 7964404 8653153 9344700 9914800 10274306 10395331 
2098.314 10312215 10106928 9880494 9720322 9677752 9764110 9957419 10221340 
2102.172 10523289 10840351 11157103 11457942 11715586 11895145 11960264 
2105.547 11893455 11708162 11454121 11206254 11042299 11015982 11137294 
2108.922 11370939 11648565 11891978 12038856 12056489 11944211 11721618 
2112.298 11413443 11036008 10597643 10102781 9562304 9001669 8460921 7983460 
2116.155 7605565 7343014 7186175 7105083 7059884 7011979 6931724 6802696 
2120.012 6616885 6371599 6068968 5717779 5335665 4952685 4606732 4332070 
2123.870 4149463 4055810 4024346 4010761 3968238 3857781 3657296 3356028 
2127.727 2945380 2408952 1723134 864432 -170881 -1346675 -2579305 -3746088 
2131.585 -4711414 -5365447 -5660251 -5626480 -5369298 -5035704 -4771563 
2134.960 -4677351 -4781461 -5043844 -5374960 -5672543 -5853285 -5870724 
2138.335 -5721659 -5447813 -5120263 -4832367 -4687841 -4777883 -5170173 
2141.710 -5876592 -6847179 -7969876 -9090039 -10056064 -10750153 -11129682 
2145.086 -11227127 -11132299 -10949719 -10760622 -10585890 -10394787 
2147.979 -10123801 -9718704 -9171969 -8537941 -7927491 -7478234 -7315530 
2151.354 -7527619 -8152169 -9183266 -10595235 -12354146 -14426594 -16776077 
2154.729 -19334822 -21982756 -24523618 -26692162 -28173408 -28654652 
2157.622 -27907586 -25869500 -22716414 -18864690 -14866998 -11267102 
2160.515 -8437139 -6498520 -5328667 -4650762 -4134214 -3504066 -2604271 
2163.891 -1423994 -80886 1238241 2343446 3102063 3477433 3521946 3358844 
2167.748 3142514 3014994 3078380 3379721 3894138 4536286 5159197 5590437 
2171.605 5652044 5217703 4247496 2828361 1167422 -438057 -1683223 -2331354 
2175.463 -2298508 -1679953 -722265 256009 966546 1237162 1052230 541217 
2179.320 -72780 -553995 -719864 -494014 93810 928385 1853601 2727402 3446587 
2183.660 3967111 4291854 4460631 4517117 4505890 4456526 4385089 4299650 
2187.517 4214472 4152708 4158357 4287341 4591689 5095610 5778013 6556511 
2191.375 7302330 7873378 8159107 8111586 7773580 7253747 6690626 6195511 
2195.232 5811367 5498035 5158624 4693595 4054507 3282581 2500865 1873292 
2199.090 1537798 1555070 1883069 2397033 2947341 3418120 3773969 4064074 
2202.947 4384382 4824602 5414496 6104825 6783223 7325877 7652828 7766584 
2206.804 7754571 7748672 7875143 8193527 8682868 9245762 9754792 10108963 
2210.662 10269510 10275749 10223998 10225634 10360200 10643559 11020294 
2214.037 11387983 11628306 11653194 11431450 10999842 10452051 9909828 
2217.412 9493205 9286609 9318090 9559314 9937023 10356224 10731602 11005691 
2221.270 11165533 11232151 11252318 11274354 11333292 11444740 11609649 
2224.645 11824945 12093158 12424449 12827739 13296440 13796404 14263654 
2228.020 14621086 14799070 14765604 14541416 14199841 13844374 13579726 
2231.396 13477853 13563026 13806750 14151227 14527741 14879007 15166709 
2234.771 15371110 15479019 15476337 15346961 15082513 14690834 14206234 
2238.146 13684515 13196609 12805032 12554442 12458211 12504655 12666352 
2241.521 12912059 13212666 13545664 13888187 14215962 14501655 14724208 
2244.896 14873420 14959409 15010375 15064843 15155475 15294406 15468825 
2248.272 15646448 15785560 15854385 15837554 15742147 15588968 15403016 
2251.647 15204819 15008090 14825643 14673232 14573146 14552841 14629043 
2255.022 14800850 15039386 15293869 15504851 15623190 15624779 15517526 
2258.397 15333165 15112128 14885875 14670525 14463869 14259827 14061673 
2261.773 13892351 13791095 13802852 13959647 14262325 14673949 15128205 
2265.148 15547482 15866868 16054073 16117869 16097706 16050117 16024048 
2268.523 16043268 16099937 16162060 16187208 16144838 16029190 15867082 
2271.898 15711894 15627338 15667835 15861114 16197864 16636094 17111126 
2275.274 17559802 17935996 18224834 18442630 18626810 18817098 19039126 
2278.649 19292320 19551840 19776784 19927640 19982738 19947094 19853128 
2282.024 19750108 19687786 19706214 19819974 20020188 20276298 20546878 
2285.399 20788334 20963656 21046456 21025124 20901534 20688978 20410672 
2288.775 20094176 19766896 19451886 19165004 18912580 18693222 18502208 
2292.150 18332888 18181704 18046260 17926870 17823384 17736194 17664222 
2295.525 17608556 17570830 17554928 17564734 17601270 17659752 17730970 
2298.900 17801214 17857376 17890520 17898928 17887082 17862418 17831456 
2302.276 17795668 17751322 17691888 17612624 17513674 17403116 17294384 
2305.651 17201710 17136828 17104418 17104416 17133576 17189434 17271926 
2309.026 17382794 17522214 17686872 17865492 18042346 18201598 18331612 
2312.401 18430706 18507448 18576268 18653392 18750400 18871674 19015374 
2315.777 19176044 19348456 19530440 19721844 19923934 20139390 20373086 
2319.152 20636814 20951638 21347790 21855124 22489036 23233168 24025738 
2322.527 24759860 25300262 25512902 25298524 24622896 23525288 22114004 
2325.902 20542642 18978034 17567846 16415533 15564935 15003963 14678215 
2329.278 14514796 14443257 14412493 14394013 14378737 14365099 14353257 
2332.653 14337802 14311836 14268135 14206382 14131974 14056681 13991717 
2336.028 13944853 13915554 13898251 13884632 13867944 13846924 13825901 
2339.403 13810678 13806608 13812913 13823776 13827175 13810753 13764903 
2342.779 13686543 13580224 13456875 13330738 13216523 13125418 13064586 
2346.154 13034990 13034204 13056573 13095261 13143578 13195779 13247528 
2349.529 13294332 13331534 13353835 13355155 13330268 13276236 13193843 
2352.904 13089628 12972981 12856300 12749851 12659561 12585361 12520852 
2356.280 12457587 12387577 12305451 12211439 12110359 12008380 11910794 
2359.655 11817451 11723521 11620544 11498471 11349697 11171056 10965792 
2363.030 10742998 10514309 10293804 10093510 9922447 9785363 9682426 9609926 
2366.887 9562330 9534672 9524418 9533011 9565609 9629675 9731025 9871116 
2370.745 10043724 10236660 10433918 10619462 10782867 10921332 11039680 
2374.120 11147035 11251422 11354745 11451516 11528590 11570740 11565682 
2377.495 11510675 11414938 11299415 11191027 11118386 11102945 11154461 
2380.871 11269160 11430184 11611488 11785230 11926487 12019007 12058193 
2384.246 12050563 12012234 11963655 11924814 11913230 11939794 12008774 
2387.621 12119562 12266037 12439178 12627000 12814369 12985806 13123973 
2390.996 13215756 13251966 13230720 13156959 13041265 12897034 12740239 
2394.372 12584691 12444758 12334183 12264698 12245153 12277909 12355044 
2397.747 12459872 12567968 12655843 12706988 12719763 12708231 12696372 
2401.122 12709552 12762286 12851298 12956151 13045494 13090124 13075732 
2404.497 13009141 12917438 12838535 12805761 12837708 12931430 13065094 
2407.873 13206582 13327131 13409344 13451082 13462830 13460428 13458673 
2411.248 13465813 13482024 13502448 13518427 13521533 13503497 13457907 
2414.623 13381669 13276070 13150584 13023035 12918473 12862192 12872623 
2417.998 12954592 13094040 13261885 13421461 13539865 13595690 13587023 
2421.374 13527479 13441744 13356304 13292220 13259903 13261402 13291777 
2424.749 13343317 13405867 13470070 13524613 13558981 13564201 13536261 
2428.124 13478894 13404150 13327994 13268766 13238053 13241007 13272424 
2431.499 13324496 13386952 13453353 13520683 13589674 13660003 13730854 
2434.875 13798631 13861612 13919961 13977027 14038289 14105714 14173088 
2438.250 14224688 14239213 14195259 14081905 13904622 13686010 13460314 
2441.625 13263657 13124052 13052249 13045402 13091008 13176068 13294051 
2445.000 13445239 13633846 13858438 14107806 14359053 14582014 14749264 
2448.375 14845036 14870259 14839198 14771833 14683862 14578084 14447085 
2451.751 14277103 14059581 13800361 13520521 13255463 13040000 12900392 
2455.126 12843317 12856378 12914252 12989040 13059655 13116457 13160090 
2458.501 13195907 13225961 13245631 13244104 13210383 13141160 13044829 
2461.876 12943600 12867115 12842132 12884708 12990676 13139176 13294620 
2465.252 13419208 13483466 13473442 13393896 13267483 13126300 13004946 
2468.627 12930331 12918282 12969090 13070114 13198450 13328925 13438732 
2472.002 13512765 13545182 13540022 13506232 13455743 13395027 13327814 
2475.377 13250113 13155785 13039083 12899346 12741462 12577311 12422011 
2478.753 12291591 12197522 12147881 12145255 12189597 12279848 12413724 
2482.128 12588689 12797622 13026747 13255503 13457477 13606049 13681813 
2485.503 13679965 13613136 13511579 13414084 13360361 13377974 13477315 
2488.878 13646512 13861000 14088311 14302042 14484788 14632406 14747966 
2492.254 14834443 14889896 14905591 14869940 14777229 14634972 14468716 
2495.629 14317507 14225413 14224475 14327565 14518925 14758971 14995295 
2499.004 15176849 15266529 15249649 15132119 14938017 14697337 14442674 
2502.379 14201999 13999000 13852075 13775514 13776066 13852261 13991129 
2505.755 14168836 14355726 14521848 14643346 14708819 14719394 14685575 
2509.130 14622341 14546275 14468670 14399548 14345074 14311744 14304033 
2512.505 14325671 14375748 14448881 14534120 14619222 14691865 14743930 
2515.880 14772017 14778484 14767367 14746103 14721449 14702449 14697315 
2519.256 14714508 14758702 14829828 14919272 15012482 15091331 15141323 
2522.631 15154727 15135584 15097615 15058193 15032832 15028749 15043749 
2526.006 15069104 15095830 15118572 15140306 15168755 15211908 15271902 
2529.381 15339143 15397233 15422782 15397659 15313249 15175571 15002646 
2532.757 14820154 14653102 14520211 14429901 14380572 14362375 14362552 
2536.132 14367414 14368526 14361548 14349202 14340425 14350054 14394199 
2539.507 14487465 14637313 14840554 15082141 15338214 15579407 15781268 
2542.882 15928362 16019443 16067630 16094539 16122913 16169779 16237978 
2546.258 16315367 16375147 16386814 16321380 16163228 15916971 15609003 
2549.633 15282588 14990488 14782194 14691284 14731926 14893754 15148082 
2553.008 15456771 15778532 16078783 16330356 16515829 16623877 16649278 
2556.383 16592836 16464151 16280921 16070737 15864728 15692728 15575117 
2559.759 15519828 15521030 15564735 15634617 15720194 15816487 15926346 
2563.134 16051505 16190337 16334670 16470278 16582919 16663862 16712299 
2566.509 16735898 16746728 16755398 16765973 16776638 16779958 16767466 
2569.884 16733447 16676245 16598366 16504636 16401974 16299974 16211953 
2573.260 16157210 16156344 16227128 16375236 16591396 16845968 17096962 
2576.635 17299292 17420384 17447754 17394282 17292200 17182624 17101400 
2580.010 17069356 17089300 17149976 17232818 17321350 17405658 17485048 
2583.385 17563514 17646014 17734466 17826610 17915752 17993692 18051122 
2586.760 18079658 18073010 18028808 17949302 17843538 17726158 17615976 
2590.136 17529908 17479296 17463454 17472460 17489580 17499634 17494344 
2593.511 17477520 17462966 17467956 17505254 17575676 17666914 17757236 
2596.886 17822502 17846616 17825536 17769984 17699024 17635212 17594384 
2600.261 17582776 17596710 17625796 17658134 17684962 17704096 17718764 
2603.637 17734750 17759596 17796370 17846226 17905746 17970814 18037668 
2607.012 18105510 18176722 18256736 18350752 18461682 18586102 18714716 
2610.387 18832310 18921718 18969380 18969888 18928416 18860176 18785922 
2613.762 18726264 18696520 18703226 18745612 18816644 18908422 19014430 
2617.138 19129740 19251198 19374116 19493034 19600438 19691200 19763454 
2620.513 19821158 19872786 19928946 19995820 20074666 20157960 20233416 
2623.888 20287312 20308918 20294504 20247938 20179482 20104456 20036486 
2627.263 19989852 19973760 19992044 20041894 20114276 20195120 20266764 
2630.639 20313862 20325840 20301516 20250910 20188304 20130822 20090554 
2634.014 20071316 20068506 20072358 20073452 20068328 20060976 20062772 
2637.389 20085032 20134954 20211412 20304624 20398058 20476844 20529474 
2640.764 20555228 20559156 20552840 20546432 20547950 20559100 20576762 
2644.140 20594428 20604698 20600778 20579814 20540102 20483766 20414384 
2647.515 20337744 20259742 20185826 20119478 20062396 20015390 19979270 
2650.890 19957526 19954808 19978644 20032884 20116216 20218548 20320744 
2654.265 20399084 20430368 20400318 20306140 20159808 19982544 19798888 
2657.641 19628356 19481522 19356510 19243022 19125562 18991226 18831144 
2661.016 18643514 18431480 18201756 17962316 17721590 17488258 17271374 
2664.391 17078644 16916422 16787318 16688826 16613426 16552435 16496265 
2667.766 16441150 16387545 16341899 16311757 16303668 16318634 16352363 
2671.142 16394809 16434399 16460709 16468082 16454613 16423980 16382014 
2674.517 16334372 16286355 16242007 16204923 16178079 16164536 16166009 
2677.892 16182326 16210975 16245482 16279735 16306525 16321527 16323201 
2681.267 16314605 16299879 16284246 16270047 16257195 16242353 16219661 
2684.643 16183881 16131675 16063662 15984708 15901854 15823578 15757730 
2688.018 15708925 15678881 15665801 15666625 15676567 15691936 15709115 
2691.393 15725669 15737884 15742963 15737014 15718034 15686113 15644498 
2694.768 15599884 15562408 15542562 15548512 15585065 15650338 15736837 
2698.144 15831888 15921356 15990471 16028054 16027743 15989879 15918616 
2701.519 15822114 15711704 15597451 15489792 15396263 15322585 15271304 
2704.894 15243160 15235615 15244960 15265119 15289370 15311451 15325539 
2708.269 15328447 15319357 15300442 15275694 15250488 15229546 15217878 
2711.645 15217125 15228933 15252034 15283795 15320304 15356003 15385062 
2715.020 15402198 15403838 15389981 15364355 15334342 15309701 15300192 
2718.395 15313126 15351251 15412024 15488437 15570451 15648203 15712833 
2721.770 15759571 15787045 15797153 15793731 15783086 15769873 15759036 
2725.146 15753312 15753536 15758155 15764603 15769314 15769538 15764356 
2728.521 15755143 15744824 15736517 15731964 15730431 15728809 15724067 
2731.896 15713725 15698979 15683765 15674604 15677828 15696472 15728807 
2735.271 15768494 15806366 15835425 15851445 15856540 15857307 15862033 
2738.646 15876137 15901094 15931861 15959598 15973819 15965952 15933869 
2742.022 15881430 15816912 15752187 15697947 15662106 15647724 15653512 
2745.397 15674416 15703166 15731830 15755067 15768345 15771573 15767608 
2748.772 15761329 15758187 15762890 15777009 15798708 15822813 15843971 
2752.147 15857188 15860980 15858123 15855167 15859421 15877737 15912428 
2755.523 15961567 16017847 16071647 16113715 16137643 16140932 16126616 
2758.898 16101085 16072210 16047122 16031204 16025845 16029293 16036823 
2762.273 16043145 16040938 16025644 15993917 15946036 15884120 15813738 
2765.648 15741665 15675606 15621227 15582896 15561738 15557297 15567531 
2769.024 15591714 15629193 15681285 15747534 15825711 15909785 15989982 
2772.399 16053451 16090045 16093120 16065184 16015904 15960272 15913572 
2775.774 15885863 15877532 15881222 15883515 15872564 15843982 15803449 
2779.149 15766358 15751923 15775375 15841674 15942825 16060272 16172064 
2782.525 16260365 16317105 16347786 16365299 16384309 16414737 16456965 
2785.900 16502481 16539497 16557897 16555799 16540593 16525939 16525988 
2789.275 16548797 16593825 16651241 16706800 16748413 16770435 16777083 
2792.650 16779230 16791136 16824350 16883946 16966102 17060692 17154470 
2796.026 17235036 17294024 17330374 17346902 17351864 17354948 17366498 
2799.401 17394518 17444004 17515338 17605438 17706410 17809018 17903476 
2802.776 17982890 18043294 18085150 18111930 18128436 18139004 18146368 
2806.151 18152036 18156948 18162140 18170078 18184812 18210792 18250196 
2809.527 18304068 18369778 18442880 18518758 18593432 18666812 18741166 
2812.902 18821604 18913534 19021024 19146272 19286640 19437396 19590312 
2816.277 19737508 19871776 19989596 20090668 20180482 20267868 20363546 
2819.652 20477790 20617356 20781506 20963134 21147796 21317136 21453240 
2823.028 21544286 21586910 21589832 21569616 21551006 21556874 21606008 
2826.403 21706244 21853716 22034536 22229654 22418956 22587630 22729262 
2829.778 22847080 22950138 23051904 23164414 23296088 23450396 23625916 
2833.153 23818460 24022866 24233122 24444920 24654138 24857332 25051700 
2836.529 25237528 25416734 25595154 25781444 25984912 26210672 26460292 
2839.904 26729080 27006190 27280954 27544410 27794244 28037650 28288510 
2843.279 28565922 28888910 29271816 29722162 30240534 30820292 31451962 
2846.654 32122504 32816484 33514664 34192908 34820972 35365836 35794388 
2850.030 36079820 36205628 36171484 35991040 35689772 35298424 34847672 
2853.405 34361260 33854464 33334992 32804680 32264810 31719554 31178046 
2856.780 30655908 30170276 29739762 29378292 29094656 28888854 28753988 
2860.155 28675824 28636918 28618364 28603592 28581434 28546554 28500990 
2863.531 28453176 28415156 28401488 28425108 28497112 28623934 28808258 
2866.906 29048276 29338992 29672012 30037540 30423656 30821516 31223038 
2870.281 31626582 32035068 32457788 32905300 33386640 33906668 34461716 
2873.656 35040008 35625224 36198544 36745340 37256620 37731644 38174280 
2877.031 38592040 38988440 39364620 39714556 40028952 40295044 40502444 
2880.407 40642896 40713196 40715280 40656396 40548184 40406492 40248592 
2883.782 40093324 39955584 39846320 39767136 39713576 39674024 39634056 
2887.157 39580060 39504820 39407428 39296196 39183544 39086176 39018816 
2890.532 38992528 39011384 39074316 39173452 39297056 39431872 39566068 
2893.908 39690904 39804016 39909256 40015024 40132328 40270288 40433080 
2897.283 40618856 40818588 41021196 41215560 41395920 41563464 41726600 
2900.658 41896360 42083404 42293192 42524868 42771572 43024168 43275516 
2904.033 43521900 43765732 44012168 44266900 44533244 44809896 45091888 
2907.409 45374132 45655320 45941072 46243960 46581320 46971204 47426000 
2910.784 47949728 48536768 49174804 49847912 50543972 51257832 51991112 
2914.159 52749724 53540756 54364080 55211124 56063020 56894840 57677504 
2917.534 58387896 59008972 59533156 59960668 60297268 60550028 60726276 
2920.910 60831340 60870316 60848884 60774508 60656944 60507868 60338028 
2924.285 60157900 59975896 59799148 59631920 59477348 59336472 59209780 
2927.660 59094744 58992588 58905340 58841144 58812708 58838040 58935592 
2931.035 59121672 59404504 59785840 60256940 60807252 61424960 62101960 
2934.411 62836824 63632740 64496832 65438136 66464276 67582144 68797360 
2937.786 70115312 71536536 73056800 74661432 76325536 78011280 79676224 
2941.161 81275720 82772080 84136112 85351072 86406896 87296304 88010520 
2944.536 88538912 88869024 88992488 88908496 88625680 88161432 87537320 
2947.912 86774824 85892192 84901848 83816496 82649376 81417640 80143616 
2951.287 78850288 77556632 76276424 75014112 73770168 72542984 71334504 
2954.662 70150960 69004328 67904288 66859008 65868808 64929760 64035184 
2958.037 63180380 62366112 61598184 60884024 60229028 59630880 59080888 
2961.413 58564128 58067428 57582352 57109948 56657964 56238220 55859600 
2964.788 55522500 55218728 54932756 54646460 54347516 54030496 53700752 
2968.163 53369144 53048376 52749408 52477672 52233788 52015172 51820496 
2971.538 51650704 51512112 51413168 51361856 51363004 51415840 51513488 
2974.914 51644428 51796960 51960636 52130032 52306484 52498736 52719428 
2978.289 52985968 53314148 53719472 54211520 54796096 55473256 56237644 
2981.664 57080440 57991100 58959264 59976780 61041520 62158496 63339480 
2985.039 64603828 65972612 67467384 69099376 70870184 72765408 74756568 
2988.415 76802656 78857120 80872760 82808640 84633448 86327832 87883024 
2991.790 89298800 90578256 91725472 92739080 93614280 94339024 94900880 
2995.165 95287064 95490264 95512912 95365552 95065304 94632808 94085296 
2998.540 93435080 92684792 91833832 90878280 89818536 88660496 87415368 
3001.916 86095416 84711312 83267496 81763072 80195152 78564888 76883480 
3005.291 75174392 73468608 71800408 70194688 68663040 67197944 65779960 
3008.666 64383068 62986932 61583200 60179056 58791860 57444060 56152640 
3012.041 54923820 53751404 52620108 51510620 50406288 49297896 48184176 
3015.417 47073028 45978320 44915716 43902236 42951300 42071376 41263912 
3018.792 40520328 39823864 39152796 38483204 37798608 37092832 36374152 
3022.167 35659748 34975236 34342068 33775612 33278384 32842726 32454744 
3025.542 32100144 31766680 31449832 31146830 30856426 30573806 30291252 
3028.917 29994912 29671246 29308644 28901698 28453188 27974934 27484918 
3032.293 27005792 26560324 26167964 25839454 25576114 25365938 25188736 
3035.668 25018468 24831866 24615310 24369088 24106950 23852570 23630240 
3039.043 23457894 23338710 23262448 23207906 23151806 23077236 22977208 
3042.418 22858182 22733182 22618202 22525768 22461006 22424752 22412808 
3045.794 22422410 22451010 22497274 22556084 22618714 22669960 22693274 
3049.169 22675078 22610208 22505444 22379472 22257584 22164152 22114804 
3052.544 22111716 22142670 22185978 22216234 22211096 22158718 22059486 
3055.919 21923586 21771084 21623904 21501506 21418510 21381210 21385614 
3059.295 21422152 21475804 21530610 21574608 21601718 21612646 21614606 
3062.670 21616154 21626156 21647720 21679502 21714182 21742788 21758284 
3066.045 21756960 21741068 21716082 21688922 21664536 21644488 21626806 
3069.420 21606428 21579952 21544366 21501112 21452266 21401234 21348740 
3072.796 21293436 21232736 21163430 21086244 21006656 20935740 20887578 
3076.171 20875324 20906448 20979734 21084738 21204394 21319850 21415546 
3079.546 21483080 21523050 21542908 21552714 21562728 21576266 21593758 
3082.921 21610528 21622940 21628088 21627312 21622802 21616622 21605352 
3086.297 21582852 21539456 21467776 21364686 21236620 21097298 20963666 
3089.672 20852672 20773364 20725858 20702570 20690922 20678856 20659086 
3093.047 20630668 20597250 20564444 20536732 20516294 20502100 20493732 
3096.422 20490778 20494284 20506852 20528176 20556284 20583668 20601052 
3099.798 20601024 20578882 20538480 20489406 20446264 20424608 20436862 
3103.173 20488368 20577586 20695342 20827564 20956284 21064884 21139444 
3106.548 21171580 21161692 21117704 21054144 20987952 20933668 20900714 
3109.923 20888782 20891496 20899028 20905824 20911684 20926546 20964142 
3113.299 21038844 21156420 21312308 21489016 21662654 21809094 21910992 
3116.674 21962136 21966478 21935230 21881192 21815168 21744190 21672668 
3120.049 21605116 21547632 21508516 21494294 21505706 21536458 21572586 
3123.424 21597258 21594490 21555862 21482190 21384412 21278718 21180574 
3126.800 21101140 21045462 21013348 21001848 21008978 21034226 21077482 
3130.175 21137714 21209344 21281734 21341188 21373778 21371376 21333646 
3133.550 21270806 21198884 21137590 21102860 21103790 21140168 21203156 
3136.925 21279678 21357490 21429422 21495140 21561834 21640384 21738726 
3140.301 21861004 22000242 22141762 22265136 22351514 22387020 22369068 
3143.676 22306648 22216574 22119698 22034348 21972482 21937398 21927626 
3147.051 21938190 21964442 22002996 22052264 22108978 22166130 22213968 
3150.426 22241130 22239014 22207084 22153910 22096482 22055378 22046646 
3153.802 22077736 22141540 22219606 22287920 22324268 22316734 22268478 
3157.177 22196078 22126426 22087694 22101174 22175918 22307080 22476822 
3160.552 22659830 22828548 22960052 23038870 23058794 23022344 22939102 
3163.927 22822582 22688338 22550770 22424252 22319780 22246624 22209172 
3167.302 22209144 22242708 22301248 22372612 22442934 22500256 22537628 
3170.678 22555792 22564138 22577928 22615550 22690900 22810846 22971468 
3174.053 23159208 23354412 23537822 23695516 23823404 23926066 24013028 
3177.428 24095192 24177172 24257148 24327070 24375574 24394392 24381360 
3180.803 24340652 24283410 24220142 24158472 24101824 24048706 23998684 
3184.179 23954228 23924146 23920788 23956520 24035438 24150696 24282654 
3187.554 24405848 24495226 24537530 24536078 24510640 24491216 24506644 
3190.929 24573518 24692182 24843838 25000934 25133968 25223634 25264296 
3194.304 25264234 25238938 25205016 25173132 25146952 25123786 25100068 
3197.680 25074510 25050888 25035134 25034592 25051640 25085316 25130884 
3201.055 25182400 25237826 25298670 25371418 25461484 25571146 25695880 
3204.430 25824446 25941700 26033358 26090408 26112950 26110166 26098066 
3207.805 26095928 26119234 26178622 26274546 26399978 26540420 26679068 
3211.181 26798574 26888080 26943648 26969180 26975724 26976082 26981978 
3214.556 26998512 27023194 27048102 27062478 27057628 27031906 26991508 
3217.931 26947838 26916002 26906772 26926566 26973558 27040796 27118392 
3221.306 27197542 27273228 27342408 27404646 27458296 27500418 27525668 
3224.682 27530546 27513522 27478178 27433998 27393618 27371654 27379456 
3228.057 27424116 27506530 27622474 27764216 27922824 28089136 28256388 
3231.432 28418796 28571652 28708936 28825172 28914542 28973544 29000070 
3234.807 28995964 28966698 28919798 28861612 28797938 28728656 28652362 
3238.183 28565860 28467842 28361802 28259024 28175394 28130294 28139410 
3241.558 28212410 28346140 28527180 28731866 28931268 29096740 29205536 
3244.933 29242808 29205326 29101300 28948398 28772846 28604842 28475234 
3248.308 28410278 28427018 28529990 28709914 28945422 29206538 29461408 
3251.684 29679314 29839208 29928052 29946358 29903344 29816932 29709794 
3255.059 29603840 29517138 29460600 29435876 29436266 29451096 29470112 
3258.434 29488142 29507832 29538658 29593430 29680538 29799560 29939372 
3261.809 30080340 30201056 30285248 30327608 30336398 30329278 30327018 
3265.185 30346970 30397434 30476994 30576484 30683310 30786630 30878920 
3268.560 30956306 31016108 31057114 31076864 31075792 31055456 31021812 
3271.935 30981734 30943862 30913616 30893348 30881380 30875512 30874622 
3275.310 30881160 30899132 30933852 30986996 31056148 31132750 31205610 
3278.686 31263716 31299852 31312234 31304612 31281888 31250812 31216282 
3282.061 31180750 31145534 31113090 31085524 31065400 31055618 31057950 
3285.436 31073528 31103564 31149856 31214872 31299826 31402956 31516824 
3288.811 31629838 31726732 31793460 31821634 31812924 31777110 31730476 
3292.187 31692520 31680428 31706042 31775732 31889304 32043092 32227204 
3295.562 32426138 32618784 32778990 32881692 32908968 32855644 32733760 
3298.937 32571488 32404940 32268882 32187934 32169484 32204832 32274316 
3302.312 32355458 32431596 32495548 32549672 32600898 32655720 32717734 
3305.688 32783688 32847640 32902204 32941192 32961920 32964590 32950330 
3309.063 32922488 32883980 32839510 32795146 32756378 32728038 32711808 
3312.438 32706130 32706290 32705880 32700646 32687542 32666684 32637726 
3315.813 32601342 32554838 32495160 32421872 32338448 32254998 32185930 
3319.188 32146748 32149504 32198496 32288220 32405778 32534968 32660720 
3322.564 32773000 32866954 32942586 33000882 33041056 33060502 33056840 
3325.939 33027920 32976672 32909616 32838266 32775234 32732378 32717158 
3329.314 32732948 32776628 32841418 32918308 32999064 33076346 33148792 
3332.689 33216066 33282004 33348530 33413488 33469428 33502764 33497878 
3336.065 33442438 33333578 33181374 33006854 32839998 32708868 32633706 
3339.440 32619860 32659202 32731380 32811626 32878756 32918834 32926078 
3342.815 32903638 32858524 32800150 32738578 32683570 32643958 32627918 
3346.190 32639648 32677806 32734576 32797824 32853608 32889318 32897916 
3349.566 32878474 32834842 32773488 32699964 32618254 32530502 32438636 
3352.941 32345728 32255304 32169736 32089602 32011498 31930532 31844206 
3356.316 31755246 31674556 31619202 31606466 31646706 31737566 31862580 
3359.691 31993788 32101366 32161522 32164086 32114164 32028362 31927388 
3363.067 31828452 31740874 31665578 31598356 31534984 31475696 31425518 
3366.442 31392980 31386878 31410750 31464384 31540386 31628270 31715848 
3369.817 31792038 31847022 31875092 31871662 31835352 31768426 31676016 
3373.192 31566006 31448432 31335406 31237200 31163642 31120798 31110048 
3376.568 31127398 31161108 31195732 31212304 31195150 31136248 31039482 
3379.943 30920502 30802414 30709120 30656644 30647744 30670422 30702262 
3383.318 30720030 30704828 30651274 30567014 30470030 30382292 30324084 
3386.693 30309964 30348758 30441418 30584200 30766466 30970136 31170792 
3390.069 31338136 31444270 31469054 31408790 31278822 31110256 30942472 
3393.444 30811276 30739644 30732988 30779042 30855440 30938868 31010026 
3396.819 31059942 31088260 31099802 31102144 31101954 31104758 31114116 
3400.194 31129920 31149640 31163258 31157666 31117070 31030762 30898604 
3403.570 30734528 30565360 30424486 30341048 30328646 30382698 30477902 
3406.945 30578888 30652374 30675498 30644556 30571530 30480028 30392888 
3410.320 30325454 30278760 30242438 30197564 30124642 30010168 29851010 
3413.695 29655598 29445150 29247598 29091908 29003574 28995666 29067056 
3417.071 29200008 29365578 29530518 29665248 29752756 29789658 29785308 
3420.446 29754818 29711370 29660978 29604434 29535164 29452100 29358608 
3423.821 29266950 29194008 29152762 29148764 29175898 29218096 29257056 
3427.196 29276808 29272704 29249712 29220350 29198156 29193108 29206832 
3430.572 29232840 29260952 29280018 29281232 29259484 29213482 29144276 
3433.947 29056366 28956604 28854850 28762820 28691778 28647402 28627744 
3437.322 28622706 28614762 28586726 28526050 28431326 28312894 28188740 
3440.697 28079084 27999840 27957872 27952612 27977210 28026112 28097000 
3444.073 28192092 28314084 28463104 28630220 28795884 28934248 29019340 
3447.448 29032128 28967356 28836176 28663620 28482770 28325184 28214512 
3450.823 28160786 28159476 28194056 28241472 28278986 28290400 28270328 
3454.198 28225178 28171272 28130294 28121738 28158332 28240094 28354332 
3457.573 28478882 28586428 28654882 28672544 28641378 28577252 28503648 
3460.949 28444164 28415048 28418540 28446816 28482696 28508178 28511916 
3464.324 28491790 28456212 28418750 28391816 28382188 28387658 28398042 
3467.699 28402460 28392714 28369958 28342868 28326422 28336450 28383624 
3471.074 28471946 28598042 28754076 28930340 29118638 29311116 29499682 
3474.450 29673878 29820900 29926164 29979298 29975466 29917584 29817616 
3477.825 29691308 29557332 29430030 29322802 29246110 29210196 29225174 
3481.200 29299660 29437918 29635524 29877576 30140560 30396836 30621894 
3484.575 30798846 30923308 31000430 31043622 31067254 31086052 31113114 
3487.951 31159646 31235806 31351168 31508826 31704672 31923748 32142208 
3491.326 32333694 32476318 32560478 32591932 32588742 32573848 32566872 
3494.701 32576804 32598928 32622122 32635022 32631714 32617978 32606378 
3498.076 32610752 32639526 32689628 32748744 32799826 32826382 32823320 
3501.452 32794766 32754470 32719384 32705388 32721154 32767884 32839660 
3504.827 32926648 33016506 33097014 33155348 33181046 33165772 33106674 
3508.202 33005864 32870940 32713306 32544118 32371700 32201268 32038178 
3511.577 31887058 31757410 31660538 31607014 31600896 31635184 31689926 
3514.953 31736128 31743456 31690248 31568516 31386808 31166184 30931854 
3518.328 30705698 30500214 30320032 30161942 30024050 29906228 29811826 
3521.703 29744640 29702786 29676386 29646646 29588694 29480732 29308824 
3525.078 29072372 28785780 28474654 28170044 27899810 27684642 27531802 
3528.454 27437140 27383990 27351186 27315876 27260904 27177464 27066970 
3531.829 26937636 26802566 26671516 26550328 26439242 26333012 26227840 
3535.204 26124428 26028264 25948402 25894976 25872170 25876766 25899488 
3538.579 25926864 25948758 25960170 25963464 25963300 25962664 25959156 
3541.955 25944554 25909052 25848232 25766036 25678920 25608268 25574850 
3545.330 25588598 25644280 25722914 25797748 25843562 25845758 25801336 
3548.705 25717684 25604726 25470336 25315956 25140388 24946372 24744438 
3552.080 24555870 24408406 24325614 24319586 24379942 24479328 24580058 
3555.456 24645156 24650888 24595804 24495932 24379270 24273126 24195578 
3558.831 24148912 24124396 24106578 24082770 24048046 24008040 23974978 
3562.206 23963118 23981466 24031114 24105236 24190302 24271188 24333862 
3565.581 24369078 24371892 24343980 24289286 24214046 24126186 24033140 
3568.957 23942842 23861526 23797124 23757098 23749252 23780336 23854206 
3572.332 23970408 24121520 24291080 24457336 24593214 24673420 24679038 
3575.707 24602564 24449760 24239998 24003364 23773808 23584058 23459400 
3579.082 23411760 23438272 23523556 23641020 23760092 23852214 23897122 
3582.458 23885276 23818934 23709786 23574336 23426560 23276228 23124788 
3585.833 22968498 22800486 22616046 22415784 22207778 22005408 21824596 
3589.208 21678724 21575754 21516424 21493620 21496026 21510130 21522914 
3592.583 21525440 21510706 21475568 21418330 21339224 21239458 21123606 
3595.958 20997350 20870102 20751648 20652132 20578682 20533844 20513884 
3599.334 20511556 20517814 20523338 20523306 20514450 20498214 20475930 
3602.709 20448436 20414282 20372258 20321636 20266036 20211638 20168358 
3606.084 20143462 20139860 20153688 20173576 20186322 20181272 20156228 
3609.459 20121614 20094014 20094880 20139374 20231022 20360160 20503896 
3612.835 20634218 20726374 20763834 20742094 20668168 20554902 20419648 
3616.210 20280244 20155378 20063990 20025390 20054768 20161026 20341044 
3619.585 20577874 20841294 21096802 21313750 21472516 21571728 21622782 
3622.960 21646470 21662984 21684490 21711484 21737142 21749286 21741220 
3626.336 21712316 21672074 21634018 21611426 21613812 21643498 21697574 
3629.711 21770688 21856382 21950766 22048716 22145354 22234212 22306984 
3633.086 22358048 22386902 22400374 22411530 22437104 22492494 22585780 
3636.461 22715762 22874522 23049842 23229630 23407780 23584150 23762306 
3639.837 23948238 24143054 24341992 24534754 24703936 24833094 24908716 
3643.212 24923540 24881464 24795346 24686030 24577056 24491128 24443822 
3646.587 24440552 24476424 24540412 24617554 24698158 24780748 24870124 
3649.962 24976598 25106946 25257986 25415224 25554076 25648082 25678526 
3653.338 25642184 25554280 25445082 25349264 25294652 25293436 25335540 
3656.713 25395758 25438012 25432376 25359744 25221448 25034116 24825938 
3660.088 24629186 24470346 24367268 24325764 24339806 24396610 24476110 
3663.463 24558832 24625186 24660238 24656822 24613942 24539964 24447962 
3666.839 24354214 24275002 24222056 24199694 24205962 24230868 24259726 
3670.214 24276126 24264744 24217172 24130568 24010344 23867992 23716472 
3673.589 23568012 23429540 23301786 23180680 23059180 22933578 22803634 
3676.964 22674278 22550712 22438240 22333902 22230042 22112684 21969352 
3680.340 21794220 21590882 21373672 21162984 20976868 20826822 20709382 
3683.715 20610100 20506092 20375358 20202190 19985348 19736086 19477152 
3687.090 19234386 19033014 18889598 18809224 18786204 18805234 18847648 
3690.465 18896258 18937458 18966662 18986342 19003926 19028446 19065724 
3693.841 19115526 19169922 19218882 19250880 19259214 19243634 19209452 
3697.216 19166092 19120610 19076604 19033708 18988440 18941058 18896140 
3700.591 18864612 18860742 18894964 18969162 19072674 19183418 19274582 
3703.966 19321304 19309658 19238754 19121614 18979360 18836332 18713286 
3707.342 18625258 18579336 18578896 18624318 18714266 18846148 19012030 
3710.717 19201116 19395990 19574262 19713380 19792270 19796960 19721932 
3714.092 19572652 19365802 19126414 18885630 18674338 18519940 18438138 
3717.467 18432056 18489520 18586256 18692492 18777946 18820652 18809996 
3720.843 18749578 18652722 18540884 18436378 18359300 18322502 18330364 
3724.218 18380162 18461050 18561316 18668106 18772056 18868296 18956570 
3727.593 19037742 19112822 19179044 19231784 19264280 19272898 19260380 
3730.968 19235098 19210312 19198032 19204266 19225146 19246402 19250890 
3734.344 19225206 19166834 19086538 19007096 18953064 18942986 18980504 
3737.719 19052744 19135782 19203176 19235238 19227436 19190290 19142732 
3741.094 19108074 19103390 19135830 19204292 19299880 19411940 19530314 
3744.469 19647968 19757626 19852746 19923646 19957750 19944610 19876164 
3747.844 19753534 19586634 19396454 19210902 19060136 18968810 18950126 
3751.220 18999212 19095722 19204340 19286068 19307544 19251256 19120326 
3754.595 18939160 18743870 18574100 18459180 18412082 18426656 18481650 
3757.970 18552778 18616874 18663226 18691952 18711358 18731278 18757500 
3761.345 18789782 18820558 18839612 18835596 18801054 18733204 18634686 
3764.721 18512682 18379808 18251578 18144900 18075172 18053002 18079926 
3768.096 18148510 18244640 18352544 18458838 18557588 18648278 18733942 
3771.471 18815082 18884110 18926984 18926240 18867448 18747050 18574772 
3774.846 18371358 18161972 17967984 17803952 17673914 17577882 17517378 
3778.222 17499244 17535138 17637228 17808848 18040172 18305404 18568590 
3781.597 18793864 18954448 19040922 19058690 19025360 18961706 18883072 
3784.972 18798970 18711674 18623096 18537796 18464786 18416128 18401462 
3788.347 18424750 18479398 18550562 18618576 18663874 18672852 18639658 
3791.723 18568716 18470828 18362752 18262150 18185428 18143124 18139202 
3795.098 18167696 18214888 18261966 18289976 18288484 18254930 18198466 
3798.473 18136264 18086772 18064380 18076854 18122050 18191192 18273982 
3801.848 18359978 18441542 18512810 18569698 18607992 18626540 18626224 
3805.224 18613030 18597028 18589434 18599058 18628332 18671264 18716630 
3808.599 18751414 18767700 18764970 18749214 18731160 18719738 18720060 
3811.974 18729584 18743194 18754380 18761864 18767558 18776068 18792118 
3815.349 18816228 18845844 18875974 18904836 18933832 18970000 19018592 
3818.725 19082936 19156004 19224610 19268010 19270444 19223822 19133770 
3822.100 19017182 18896602 18791886 18714822 18667082 18641502 18628984 
3825.475 18622746 18621760 18630772 18658382 18711516 18794294 18905702 
3828.850 19041014 19191130 19344376 19485734 19596188 19655808 19645566 
3832.226 19554896 19385970 19156632 18897210 18647654 18444832 18316878 
3835.601 18274600 18310048 18402830 18522630 18639770 18730712 18781550 
3838.976 18789442 18759254 18701782 18629374 18553990 18485024 18429298 
3842.351 18388620 18360548 18340064 18320736 18297278 18266858 18229482 
3845.727 18188358 18146452 18107112 18071114 18038586 18008884 17982140 
3849.102 17961320 17949000 17950092 17967296 18001400 18051380 18114146 
3852.477 18187768 18271086 18363856 18466594 18578142 18694764 18807672 
3855.852 18904596 18973250 19000954 18982388 18919480 18825146 18719676 
3859.228 18627758 18571380 18563744 18604216 18678204 18757772 18812648 
3862.603 18816424 18755996 18635244 18474208 18303440 18154914 18053740 
3865.978 18012880 18030664 18096238 18193050 18306728 18424462 18541066 
3869.353 18652002 18754414 18843890 18915232 18962862 18982348 18971866 
3872.729 18933742 18872250 18793482 18705096 18615262 18534238 18470334 
3876.104 18432902 18426494 18452292 18505632 18577954 18658740 18738642 
3879.479 18810506 18871472 18919192 18951972 18965640 18954728 18914028 
3882.854 18843784 18750106 18647956 18556844 18496816 18479592 18504402 
3886.229 18557076 18613540 18646190 18635612 18575794 18477668 18365456 
3889.605 18269510 18216012 18218658 18273824 18362374 18456682 18528984 
3892.980 18561142 18549354 18503000 18442680 18389520 18360742 18363276 
3896.355 18395434 18447832 18510424 18574730 18638534 18702352 18771024 
3899.730 18848468 18937038 19035698 19142886 19255074 19368212 19477070 
3903.106 19572486 19644246 19680432 19671478 19616316 19520958 19403722 
3906.481 19285024 19185416 19116300 19076234 19054622 19033136 18997500 
3909.856 18942596 18877200 18820182 18794590 18819054 18899228 19027270 
3913.231 19181450 19335022 19463198 19548380 19582016 19565402 19505204 
3916.607 19411396 19293812 19162944 19029434 18906140 18802778 18729200 
3919.982 18688828 18679572 18693820 18721600 18754120 18784806 18812218 
3923.357 18836084 18855618 18866350 18861436 18831010 18769412 18676496 
3926.732 18560416 18438658 18329638 18250330 18207836 18198100 18206780 
3930.108 18214148 18203222 18166882 18112240 18059292 18034120 18062012 
3933.483 18157212 18316470 18521370 18742690 18945900 19106586 19209426 
3936.858 19256364 19259908 19238652 19210258 19185952 19171278 19165438 
3940.233 19166334 19175278 19194264 19229628 19285212 19360232 19449936 
3943.609 19543632 19629558 19697790 19741188 19756294 19742308 19698296 
3946.984 19622660 19514466 19373972 19207658 19027298 18851276 18701828 
3950.359 18598126 18554346 18575274 18654306 18776254 18919426 19060786 
3953.734 19180608 19264820 19309170 19318152 19305132 19287604 19282396 
3957.110 19301584 19348758 19419814 19505086 19594224 19681002 19765020 
3960.485 19851048 19943080 20040844 20134122 20204714 20233344 20205646 
3963.860 20122532 20002192 19875724 19776472 19729170 19736754 19777970 
3967.235 19816408 19809640 19728928 19569736 19355994 19135710 18964470 
3970.611 18889366 18933428 19088192 19315672 19559338 19758892 19865830 
3973.986 19856784 19735322 19532582 19296786 19081612 18932340 18877888 
3977.361 18924942 19057286 19243256 19444612 19625376 19760188 19837946 
3980.736 19860764 19841020 19793782 19734792 19674720 19620776 19577366 
3984.112 19548226 19534708 19538536 19558532 19590416 19625646 19655274 
3987.487 19669408 19662032 19629528 19574960 19506480 19435978 19379232 
3990.862 19352828 19373084 19449922 19583228 19759930 19953554 20129976 
3994.237 20253038 20296324 20251098 20130458 19964660 19795094 19659786 
3997.613 19584732 19574770 19618264 19690576 19764520 19820922 19851600 
##END=
