##TITLE=Flashforge_PLA_White_Filament_r2_ATR-Corrected
##JCAMP-DX=5.01  $$ Nicolet v. 1
##DATATYPE=INFRARED SPECTRUM
##ORIGIN=Curtin University
##OWNER=Nicolet
##LONGDATE=2024/07/10
##TIME=10:50:19
##SPECTROMETER/DATA SYSTEM=Nicolet iS50
##DATA PROCESSING=
Ratio against background
%Transmittance->Absorbance
ATR Correction
Truncated
ElementMultiply or ElementDivide
##COMMENTS=
Number of sample scans: 32
Collection length: 47.27 sec
Sample gain: 1.0
Background collected on: Wed Jul 10 10:49:00 2024 (GMT+08:00);
Number of background scans: 32
Background gain: 1.0
Sample spacing:  1.000
Number of scan points: 16672
Resolution points: 8192
Number of FFT points: 65536
Apodization: N-B strong;
Phase correction: Mertz;
Laser frequency: 15798.3 cm-1
Number of rejected sample scans: 0
Number of rejected background scans: 0
Bench serial number: AUP1200105;
##RESOLUTION=4.000
##XUNITS=1/CM
##YUNITS=ABSORBANCE
##FIRSTX=400.163452
##LASTX=4000.187744
##FIRSTY=0.057545
##MAXX=4000.187744
##MINX=400.163452
##MAXY=1.042165
##MINY=-0.034114
##XFACTOR=1.000000
##YFACTOR=1.000000E-008
##NPOINTS=7468
##DELTAX=0.482125
##ZPD=8192
##XYDATA=(X++(Y..Y))
400.163 5754546 5607180 5496977 5424221 5382162 5361402 5351367 5342152 
404.020 5325212 5294047 5244378 5174958 5087907 4988830 4885721 4787025 
407.877 4699210 4624952 4562621 4507116 4452022 4391850 4323625 4247270 
411.734 4164975 4080101 3996072 3915792 3841704 3775705 3719149 3672489 
415.591 3634848 3603932 3576645 3550291 3523831 3498518 3477347 3463211 
419.448 3456724 3454502 3449345 3432244 3395743 3337284 3260954 3176957 
423.305 3098678 3038545 3004265 2996834 3010823 3036787 3064506 3085737 
427.162 3095703 3093111 3079133 3056396 3028315 2998888 2972645 2954203 
431.019 2947115 2952539 2968182 2988324 3005717 3013658 3008595 2991462 
434.876 2967223 2942734 2923949 2913579 2910344 2909847 2906931 2898032 
438.733 2882673 2863568 2845203 2831865 2825806 2826530 2831066 2835242 
442.590 2835190 2828488 2814629 2794839 2771475 2747342 2725081 2706723 
446.447 2693295 2684640 2679399 2675314 2669995 2661761 2650347 2637059 
450.304 2624156 2613710 2606408 2600851 2593927 2582004 2562707 2536270 
454.161 2505864 2476609 2453693 2440264 2436224 2438235 2441098 2439926 
458.017 2432111 2418231 2401599 2386601 2376785 2373341 2374767 2377643 
461.874 2378114 2373522 2363351 2348931 2333600 2320429 2311314 2306341 
465.731 2303833 2301100 2295514 2285548 2271452 2255340 2240702 2231433 
469.588 2230637 2239698 2257647 2281237 2305646 2325656 2337001 2337419 
473.445 2327126 2308611 2285860 2263301 2244818 2233037 2228995 2232090 
477.302 2240277 2250386 2258561 2260843 2253839 2235501 2205688 2166377 
481.159 2121308 2075092 2032087 1995357 1966192 1944232 1928224 1916910 
485.016 1909781 1907214 1910133 1919148 1933906 1952732 1972946 1991655 
488.873 2006659 2017178 2023932 2028705 2033480 2039557 2047040 2054868 
492.730 2061248 2064456 2063489 2058183 2049763 2039749 2029577 2020146 
496.587 2011593 2003454 1995082 1986145 1976973 1968632 1962642 1960472 
500.444 1962983 1970022 1980421 1992320 2003866 2013824 2022038 2029386 
504.301 2037317 2047115 2059187 2072725 2085828 2096157 2101775 2101945 
508.158 2097407 2090237 2083101 2078416 2077594 2080656 2086304 2092396 
512.015 2096521 2096680 2091674 2081315 2066364 2048292 2028884 2009783 
515.871 1992049 1975830 1960330 1944068 1925474 1903592 1878688 1852406 
519.728 1827469 1806882 1792943 1786501 1786670 1791173 1797109 1801917 
523.585 1804051 1803218 1800063 1795415 1790104 1784164 1777051 1768068 
527.442 1756867 1743882 1730366 1718154 1709113 1704604 1705042 1709719 
531.299 1716915 1724204 1729008 1729107 1723187 1711171 1694222 1674539 
535.156 1654707 1637075 1623122 1613226 1606837 1602986 1600920 1600589 
539.013 1602601 1607917 1617073 1629630 1643932 1657458 1667496 1672110 
542.870 1670737 1664334 1654992 1645190 1636990 1631597 1629259 1629566 
546.727 1631853 1635571 1640391 1646097 1652437 1658988 1665177 1670357 
550.584 1674010 1675752 1675327 1672580 1667486 1660317 1651817 1643373 
554.441 1636777 1633858 1635823 1642601 1652922 1664297 1673832 1679117 
558.298 1678913 1673405 1663908 1652304 1640370 1629371 1620035 1612786 
562.155 1608002 1606094 1607287 1611276 1616982 1622681 1626483 1627115 
566.012 1624542 1620157 1616394 1615799 1620009 1629119 1641546 1654738 
569.869 1666093 1673974 1678178 1679861 1680917 1683197 1687832 1695008 
573.725 1704025 1713725 1722884 1730478 1735786 1738443 1738473 1736407 
577.582 1733383 1731132 1731727 1737109 1748503 1765967 1788287 1813231 
581.439 1838110 1860521 1878797 1892232 1900978 1905675 1907193 1906416 
585.296 1904194 1901439 1899115 1898165 1899335 1902975 1908879 1916378 
589.153 1924515 1932302 1938920 1943880 1947061 1948730 1949505 1950371 
593.010 1952583 1957501 1966200 1979113 1995669 2014323 2032769 2048626 
596.867 2060036 2066258 2067765 2065938 2062531 2059022 2056320 2054712 
600.724 2054181 2054805 2056939 2061130 2067731 2076570 2086694 2096672 
604.581 2105073 2111210 2115580 2119846 2126311 2137090 2153235 2174293 
608.438 2198434 2223136 2246075 2265971 2282897 2298152 2313603 2330996 
612.295 2351304 2374551 2399907 2426173 2452189 2477194 2500847 2523223 
616.152 2544501 2564900 2584590 2603717 2622486 2641174 2660082 2679465 
620.009 2699402 2719813 2740432 2760983 2781277 2801272 2821154 2841261 
623.866 2862020 2883840 2907036 2931781 2958007 2985390 3013246 3040590 
627.723 3066181 3088745 3107245 3121158 3130749 3137080 3141880 3147195 
631.579 3154884 3166203 3181501 3200169 3220865 3241945 3261915 3279849 
635.436 3295574 3309631 3323022 3336944 3352411 3370102 3390233 3412630 
639.293 3436778 3461905 3487063 3511276 3533601 3553390 3570428 3585086 
643.150 3598212 3610978 3624497 3639490 3656060 3673704 3691564 3708820 
647.007 3725031 3740361 3755493 3771310 3788485 3807208 3827031 3847086 
650.864 3866377 3884185 3900234 3914719 3928050 3940649 3952711 3964311 
654.721 3975538 3986808 3999012 4013426 4031403 4053949 4081262 4112548 
658.578 4146128 4179857 4211609 4239782 4263526 4282711 4297714 4309064 
662.435 4317287 4322777 4325993 4327591 4328522 4330008 4333269 4339210 
666.292 4348135 4359695 4372995 4386975 4400885 4414562 4428562 4443925 
670.149 4461782 4482789 4506744 4532427 4557792 4580445 4598263 4610008 
674.006 4615684 4616638 4615231 4614352 4616747 4624413 4638203 4657676 
677.863 4681296 4706837 4731859 4754399 4773118 4787717 4798791 4807611 
681.720 4815737 4824651 4835401 4848526 4864033 4881540 4900440 4920114 
685.577 4939978 4959563 4978410 4996138 5012356 5026848 5039538 5050653 
689.433 5060665 5070256 5080232 5091328 5104085 5118811 5135493 5153826 
693.290 5173255 5193036 5212359 5230490 5246895 5261376 5274116 5285600 
697.147 5296492 5307408 5318708 5330479 5342502 5354432 5365929 5376814 
701.004 5387021 5396491 5405010 5412112 5417084 5419149 5417712 5412655 
704.861 5404362 5393813 5382233 5370903 5360843 5352630 5346307 5341417 
708.718 5337003 5331729 5323881 5311595 5293080 5266961 5232643 5190481 
712.575 5141753 5088343 5032188 4974779 4916732 4857754 4796843 4732750 
716.432 4664429 4591336 4513506 4431408 4345685 4256994 4165918 4073110 
720.289 3979350 3885700 3793397 3703732 3617822 3536500 3460322 3389752 
724.146 3325315 3267770 3218087 3177253 3146061 3124924 3113845 3112529 
728.003 3120690 3138274 3165599 3203346 3252458 3313883 3388444 3476708 
731.860 3578880 3694712 3823331 3963135 4111707 4265947 4422443 4578006 
735.717 4730153 4877532 5019876 5157749 5291953 5422967 5550636 5674119 
739.574 5792167 5903610 6007772 6104674 6195001 6279848 6360381 6437646 
743.431 6512464 6585531 6657505 6729147 6801236 6874551 6949676 7026960 
747.287 7106551 7188438 7272570 7358839 7447024 7536655 7626822 7716276 
751.144 7803440 7886766 7964921 8036993 8102416 8160759 8211348 8252950 
755.001 8283615 8300905 8302196 8285317 8248987 8193137 8118893 8028262 
758.858 7923617 7807226 7680905 7545966 7403344 7253985 7099096 6940434 
762.715 6780236 6620986 6465107 6314500 6170343 6032925 5901798 5775958 
766.572 5654159 5535238 5418283 5302791 5188679 5076242 4966046 4858747 
770.429 4754910 4654895 4558643 4465724 4375498 4287293 4200667 4115617 
774.286 4032576 3952255 3875311 3802027 3732073 3664562 3598304 3532217 
778.143 3465706 3398872 3332394 3267181 3204015 3143175 3084330 3026770 
782.000 2969619 2912235 2854329 2795892 2737035 2677677 2617485 2555935 
785.857 2492626 2427596 2361521 2295689 2231721 2171164 2115033 2063660 
789.714 2016733 1973486 1933105 1894951 1858721 1824365 1791881 1761214 
793.571 1732084 1704137 1677031 1650657 1625249 1601421 1580048 1562067 
797.428 1548235 1538940 1534030 1532851 1534277 1537033 1539831 1541746 
801.285 1542249 1541295 1539087 1535854 1531782 1526750 1520484 1512833 
805.141 1503927 1494401 1485273 1477700 1472555 1470098 1469811 1470624 
808.998 1471185 1470401 1467793 1463599 1458633 1454025 1450751 1449481 
812.855 1450400 1453378 1458052 1463989 1470717 1477707 1484373 1490076 
816.712 1494239 1496513 1496890 1495773 1493880 1492071 1491161 1491812 
820.569 1494368 1498951 1505379 1513269 1521980 1530726 1538695 1545257 
824.426 1550231 1553984 1557420 1561762 1568062 1576900 1588124 1600969 
828.283 1614365 1627508 1640219 1653111 1667359 1684289 1704788 1729037 
832.140 1756452 1786023 1816811 1848332 1880892 1915385 1952913 1994411 
835.997 2040239 2090146 2143360 2198917 2256020 2314250 2373701 2434934 
839.854 2498808 2566302 2638197 2714862 2795981 2880468 2966423 3051427 
843.711 3132952 3208838 3277717 3339147 3393490 3441430 3483535 3519884 
847.568 3550024 3573330 3589527 3599308 3604611 3608600 3615203 3628507 
851.425 3652180 3689102 3741373 3810538 3897903 4004773 4132379 4281714 
855.282 4453091 4645861 4858152 5086983 5328413 5577968 5830985 6083069 
859.139 6330273 6569399 6798058 7014697 7218474 7409101 7586566 7750959 
862.995 7902249 8040300 8164850 8275660 8372486 8455135 8523316 8576601 
866.852 8614435 8636265 8641852 8631454 8606033 8567055 8516108 8454338 
870.709 8381975 8298128 8200997 8088449 7958778 7811352 7646917 7467468 
874.566 7275806 7074856 6867137 6654513 6438228 6219167 5998264 5776733 
878.423 5556195 5338646 5126308 4921464 4726330 4542928 4372988 4217840 
882.280 4078221 3954251 3845407 3750698 3668939 3599071 3540435 3492873 
886.137 3456601 3431959 3419059 3417472 3426078 3443119 3466368 3493440 
889.994 3522016 3550128 3576202 3599188 3618480 3633940 3645834 3654743 
893.851 3661441 3666780 3671475 3676045 3680674 3685256 3689368 3692440 
897.708 3693780 3692780 3688923 3682007 3672124 3659751 3645683 3630947 
901.565 3616613 3603631 3592697 3584206 3578314 3575043 3574327 3576101 
905.422 3580125 3585944 3592728 3599255 3604150 3606095 3604220 3598418 
909.279 3589397 3578635 3567996 3559345 3554095 3552927 3555703 3561505 
913.136 3568912 3576312 3582180 3585396 3585417 3582360 3576967 3570411 
916.993 3564028 3558944 3555793 3554526 3554511 3554711 3554103 3552116 
920.849 3548758 3544769 3541297 3539561 3540383 3543920 3549616 3556323 
924.706 3562715 3567624 3570405 3570984 3569920 3568055 3566327 3565486 
928.563 3565957 3567886 3571218 3575848 3581741 3589006 3597770 3608114 
932.420 3619845 3632504 3645316 3657441 3668200 3677380 3685367 3693169 
936.277 3702152 3713752 3729091 3748693 3772471 3799820 3829794 3861392 
940.134 3893621 3925514 3956062 3984259 4009191 4030320 4047791 4062679 
943.991 4076931 4093071 4113590 4140394 4174315 4215030 4261332 4311623 
947.848 4364436 4418822 4474354 4530929 4588401 4646330 4703914 4760224 
951.705 4814492 4866410 4916119 4963979 5010074 5053783 5093480 5126615 
955.562 5150103 5160929 5156738 5136220 5099205 5046471 4979435 4899794 
959.419 4809274 4709572 4602413 4489701 4373660 4256857 4142100 4032322 
963.276 3930174 3837808 3756462 3686360 3626595 3575332 3530208 3488820 
967.133 3449230 3410393 3372236 3335557 3301639 3271816 3247050 3227773 
970.990 3213902 3204991 3200515 3200066 3203409 3210400 3220879 3234481 
974.847 3250655 3268667 3287802 3307503 3327542 3348010 3369323 3392078 
978.703 3416916 3444405 3474907 3508543 3545183 3584453 3625773 3668461 
982.560 3711802 3755135 3797972 3839990 3881135 3921559 3961609 4001792 
986.417 4042609 4084565 4127992 4173097 4219771 4267850 4317158 4367703 
990.274 4419704 4473632 4530051 4589406 4651801 4716819 4783614 4851096 
994.131 4918229 4984408 5049592 5114342 5179630 5246564 5316058 5388696 
997.988 5464760 5544325 5627488 5714524 5805873 5902147 6003844 6111277 
1001.845 6224459 6343180 6467060 6595803 6729287 6867660 7011349 7161003 
1005.702 7317471 7481749 7654869 7837924 8031956 8237912 8456521 8688276 
1009.559 8933458 9192138 9464346 9750108 10049528 10362829 10690271 11032147 
1013.416 11388650 11759850 12145681 12545797 12959650 13386336 13824697 
1016.791 14273159 14729917 15192972 15660305 16130054 16600512 17070324 
1020.166 17538368 18003682 18465242 18921886 19372214 19814660 20247664 
1023.540 20670018 21081046 21480956 21870952 22253380 22631608 23009934 
1026.916 23393326 23787216 24196998 24627710 25083518 25567496 26081392 
1030.291 26625728 27199998 27802980 28433066 29088316 29766544 30465102 
1033.666 31180784 31909760 32647640 33389630 34130836 34866252 35590820 
1037.041 36299120 36985096 37642036 38262636 38839532 39365856 39835980 
1040.417 40245796 40592976 40876736 41097424 41256292 41355140 41396208 
1043.792 41382132 41315892 41200812 41040464 40838768 40599940 40328608 
1047.167 40029884 39709208 39372152 39024128 38670084 38314416 37960864 
1050.542 37612708 37272884 36944048 36628388 36327444 36041796 35770960 
1053.917 35513588 35267884 35032256 34806060 34590136 34387212 34201740 
1057.293 34039760 33908372 33815296 33768296 33774976 33842412 33977156 
1060.668 34185152 34471808 34842016 35300108 35849744 36493684 37233464 
1064.043 38069132 38998896 40019248 41124992 42309708 43566148 44886788 
1067.418 46264036 47690472 49158756 50661628 52191932 53742760 55307736 
1070.794 56881260 58458608 60035736 61608864 63173924 64726128 66259752 
1074.169 67768128 69244024 70680032 72069056 73404648 74681176 75893792 
1077.544 77038000 78109280 79102528 80011424 80828296 81544448 82151000 
1080.919 82639744 83004488 83241280 83348576 83326464 83176344 82900416 
1084.295 82502096 81986776 81362480 80639984 79832256 78953160 78016128 
1087.670 77033064 76014016 74967336 73900464 72820256 71733192 70644992 
1091.045 69560192 68481640 67410624 66347264 65291144 64241864 63199424 
1094.420 62164044 61136048 60115588 59102692 58097436 57100324 56112312 
1097.796 55134688 54168696 53215068 52273572 51343132 50422220 49509516 
1101.171 48604396 47707324 46819812 45944028 45082308 44236916 43409888 
1104.546 42603180 41818844 41059424 40327720 39626868 38959904 38329684 
1107.921 37738640 37188812 36681892 36219224 35801844 35430260 35104404 
1111.297 34823520 34586388 34391368 34236688 34120648 34041624 33998032 
1114.672 33988140 34009932 34061256 34139964 34244280 34373128 34526304 
1118.047 34704380 34908420 35139548 35398512 35685308 35999136 36338336 
1121.422 36700312 37081684 37478040 37883796 38292088 38694636 39081940 
1124.798 39443652 39769188 40048448 40272568 40434684 40530388 40557888 
1128.173 40517844 40412764 40246288 40022416 39744816 39416532 39040000 
1131.548 38617128 38149560 37638764 37085964 36492104 35857712 35183076 
1134.923 34468456 33714532 32922834 32095986 31237766 30352970 29447028 
1138.299 28525770 27595090 26660818 25728562 24803744 23891482 22996636 
1141.674 22123672 21276728 20459702 19676280 18929940 18224036 17561572 
1145.049 16945106 16376340 15856004 15383656 14957802 14576072 14235678 
1148.424 13933778 13667810 13435759 13236110 13067798 12930024 12822083 
1151.800 12743148 12692246 12668255 12669776 12695272 12743038 12811396 
1155.175 12898685 13003489 13124730 13261808 13414490 13582987 13767847 
1158.550 13969800 14189734 14428581 14687276 14966692 15267640 15590936 
1161.925 15937512 16308679 16706325 17133146 17592780 18089674 18628904 
1165.301 19215908 19856164 20555048 21317848 22149898 23056672 24044052 
1168.676 25118244 26285786 27553264 28926996 30412632 32014758 33736240 
1172.051 35577788 37537108 39608280 41781196 44040968 46367516 48735272 
1175.426 51113200 53464824 55749036 57921492 59936728 61751120 63325852 
1178.802 64629768 65641184 66348720 66751212 66856880 66682224 66250796 
1182.177 65591724 64738100 63724916 62587136 61357736 60066400 58738600 
1185.552 57395392 56053580 54726328 53423924 52154392 50924052 49738000 
1188.927 48600160 47513456 46479648 45499404 44572424 43697640 42873536 
1192.302 42098404 41370584 40688568 40050896 39456196 38902904 38389392 
1195.678 37913920 37474744 37070168 36698524 36358164 36047380 35764356 
1199.053 35507240 35274164 35063428 34873564 34703276 34551300 34416216 
1202.428 34296252 34189112 34092120 34002372 33917084 33833736 33750148 
1205.803 33664424 33574704 33479008 33375072 33260428 33132560 32989168 
1209.179 32828382 32648770 32449350 32229460 31988568 31726422 31442964 
1212.554 31138554 30814006 30470538 30109734 29733354 29343224 28941234 
1215.929 28529358 28109702 27684450 27255732 26825362 26394660 25964320 
1219.304 25534558 25105384 24677000 24250060 23825852 23406164 22992960 
1222.680 22588022 22192632 21807366 21432274 21066948 20710948 20363964 
1226.055 20025988 19697300 19378464 19070102 18772768 18486858 18212522 
1229.430 17949678 17698032 17457172 17226652 17006150 16795436 16594465 
1232.805 16403303 16221949 16050267 15887837 15733948 15587810 15448608 
1236.181 15315764 15189007 15068373 14954025 14846015 14744149 14647825 
1239.556 14556170 14468321 14383613 14301857 14223373 14148796 14078808 
1242.931 14013888 13954112 13899149 13848442 13801390 13757619 13717024 
1246.306 13679774 13646075 13616112 13589899 13567387 13548589 13533767 
1249.682 13523476 13518550 13519846 13528033 13543291 13565274 13593143 
1253.057 13625811 13662305 13701984 13744718 13790862 13841026 13895869 
1256.432 13955714 14020485 14089587 14162052 14236778 14312731 14389117 
1259.807 14465408 14541262 14616340 14690056 14761581 14829734 14893287 
1263.183 14951129 15002432 15046743 15083858 15113568 15135375 15148374 
1266.558 15151285 15142623 15121034 15085684 15036336 14973409 14897692 
1269.933 14810064 14711182 14601222 14479983 14346896 14201334 14042774 
1273.308 13871020 13686234 13488989 13280110 13060699 12831904 12594858 
1276.684 12350615 12100005 11843775 11582539 11316966 11047939 10776633 
1280.059 10504571 10233518 9965345 9701847 9444594 9194906 8953936 8722710 
1283.916 8502348 8294020 8098981 7918362 7753145 7603978 7471238 7355088 
1287.774 7255646 7172960 7107135 7058195 7026027 7010270 7010349 7025332 
1291.631 7054074 7095083 7146577 7206463 7272406 7342015 7413104 7483902 
1295.489 7553294 7620736 7686048 7749146 7809695 7866961 7919933 7967529 
1299.346 8009025 8044240 8073695 8098388 8119496 8137998 8154446 8168820 
1303.203 8180744 8189596 8194912 8196393 8194125 8188405 8179769 8168798 
1307.061 8156126 8142236 8127504 8112068 8095895 8078799 8060611 8041294 
1310.918 8021139 8000718 7980789 7962047 7944955 7929544 7915465 7902162 
1314.776 7889129 7876188 7863603 7852034 7842314 7835249 7831443 7831111 
1318.633 7834185 7840308 7848913 7859199 7870225 7880892 7890203 7897469 
1322.490 7902567 7906047 7909094 7913244 7919982 7930352 7944803 7963187 
1326.348 7985066 8010062 8038039 8069259 8104214 8143329 8186801 8234441 
1330.205 8285878 8340660 8398635 8459958 8525105 8594640 8669029 8748426 
1334.063 8832657 8921279 9013751 9109522 9208161 9309296 9412666 9518178 
1337.920 9625929 9736319 9850068 9968052 10091172 10220065 10354909 10495424 
1341.778 10641041 10791171 10945504 11104184 11267815 11437175 11612926 
1345.153 11795420 11984455 12179472 12379707 12584457 12793224 13005710 
1348.528 13221709 13440812 13662346 13885146 14107718 14328337 14545281 
1351.903 14756873 14961579 15157972 15344630 15520126 15683050 15832153 
1355.279 15966505 16085520 16189156 16277768 16352020 16412812 16461124 
1358.654 16497913 16524117 16540617 16548283 16547941 16540469 16526799 
1362.029 16507947 16484964 16458817 16430196 16399358 16365862 16328485 
1365.404 16285239 16233483 16170090 16091777 15995359 15878099 15738107 
1368.780 15574756 15389115 15184279 14965504 14740165 14517316 14307156 
1372.155 14120328 13967332 13857970 13800815 13802797 13868627 14000255 
1375.530 14196248 14451537 14757380 15101723 15470132 15846941 16216482 
1378.905 16564403 16878506 17149086 17368918 17532842 17637300 17679956 
1382.281 17659598 17576092 17430522 17225230 16963750 16650756 16291921 
1385.656 15893842 15463768 15009235 14537500 14054835 13566044 13074203 
1389.031 12580949 12086922 11592586 11098827 10607276 10120305 9640753 
1392.406 9171569 8715584 8275369 7853308 7451631 7072474 6717678 6388620 
1396.264 6086012 5809762 5559027 5332419 5128129 4944205 4778633 4629369 
1400.121 4494413 4371750 4259521 4155982 4059721 3969760 3885511 3806753 
1403.979 3733515 3665851 3603689 3546786 3494667 3446710 3402277 3360754 
1407.836 3321639 3284483 3248940 3214752 3181765 3150062 3120047 3092377 
1411.693 3067877 3047319 3031194 3019420 3011369 3005980 3002023 2998552 
1415.551 2995052 2991644 2988918 2987703 2988764 2992611 2999347 3008847 
1419.408 3020814 3034940 3051010 3068852 3088367 3109461 3132142 3156652 
1423.266 3183489 3213435 3247408 3286215 3330312 3379766 3434210 3493156 
1427.123 3556181 3623227 3694631 3771101 3853421 3942402 4038559 4142200 
1430.980 4253502 4372591 4499722 4635366 4780311 4935805 5103535 5285752 
1434.838 5485241 5705131 5948675 6218989 6518777 6850367 7215756 7616810 
1438.695 8055340 8532971 9050804 9608869 10205627 10837775 11500181 12186185 
1442.553 12888001 13597214 14305134 15003218 15683363 16338298 16961794 
1445.928 17548778 18095158 18597682 19053778 19461530 19819818 20128504 
1449.303 20388406 20601168 20768892 20893566 20976872 21020072 21024036 
1452.678 20989392 20916566 20805616 20656020 20466728 20236230 19963180 
1456.054 19646978 19288402 18889666 18454174 17985828 17488570 16965884 
1459.429 16421051 15857305 15278265 14687940 14090703 13490908 12892671 
1462.804 12299893 11716136 11144789 10589075 10051759 9534990 9040121 
1466.179 8567795 8118184 7691473 7288018 6908419 6553229 6222612 5916042 
1470.037 5632250 5369477 5125909 4899963 4690581 4497089 4318963 4155588 
1473.894 4006127 3869490 3744528 3630094 3525153 3428708 3339729 3257105 
1477.752 3179783 3106926 3038113 2973339 2913032 2857619 2807368 2762110 
1481.609 2721325 2684247 2650145 2618435 2588869 2561215 2535271 2510649 
1485.467 2486861 2463480 2440317 2417572 2395731 2375305 2356606 2339429 
1489.324 2323177 2307056 2290438 2273164 2255647 2238712 2223260 2209827 
1493.181 2198384 2188298 2178503 2167915 2155687 2141529 2125704 2108951 
1497.039 2092274 2076696 2063090 2051942 2043392 2037037 2032128 2027622 
1500.896 2022456 2015789 2007266 1997090 1986005 1975044 1965284 1957553 
1504.754 1952319 1949532 1948795 1949418 1950670 1951757 1952006 1950870 
1508.611 1948038 1943510 1937634 1931095 1924790 1919584 1916107 1914598 
1512.469 1914807 1916134 1917850 1919292 1919996 1919729 1918479 1916235 
1516.326 1913053 1908985 1904148 1898717 1893020 1887443 1882350 1877953 
1520.183 1874294 1871240 1868546 1865938 1863199 1860142 1856667 1852691 
1524.041 1848194 1843200 1837813 1832195 1826516 1820834 1815112 1809070 
1527.898 1802504 1795226 1787341 1779223 1771428 1764597 1759148 1755217 
1531.756 1752622 1750958 1749851 1748994 1748344 1747871 1747590 1747325 
1535.613 1746703 1745298 1742815 1739148 1734538 1729450 1724395 1719745 
1539.470 1715594 1711787 1708035 1704049 1699789 1695327 1690862 1686536 
1543.328 1682381 1678275 1674114 1669878 1665722 1661953 1658926 1656796 
1547.185 1655542 1654828 1654302 1653582 1652550 1651307 1650168 1649433 
1551.043 1649314 1649795 1650698 1651722 1652657 1653376 1653878 1654239 
1554.900 1654567 1654942 1655461 1656217 1657428 1659252 1661808 1664989 
1558.758 1668480 1671749 1674274 1675650 1675897 1675307 1674376 1673530 
1562.615 1672969 1672455 1671410 1669206 1665348 1659735 1652800 1645319 
1566.472 1638270 1632451 1628283 1625719 1624346 1623546 1622730 1621556 
1570.330 1619923 1617995 1616066 1614424 1613212 1612421 1611912 1611450 
1574.187 1610860 1610050 1609100 1608208 1607663 1607748 1608636 1610289 
1578.045 1612532 1615032 1617470 1619539 1621138 1622292 1623178 1624006 
1581.902 1625016 1626328 1628005 1629999 1632269 1634696 1637225 1639779 
1585.760 1642284 1644657 1646912 1649061 1651259 1653738 1656736 1660486 
1589.617 1665053 1670339 1676132 1682058 1687781 1693060 1697823 1702156 
1593.474 1706330 1710603 1715247 1720375 1726033 1732057 1738264 1744426 
1597.332 1750364 1755979 1761289 1766352 1771287 1776226 1781281 1786514 
1601.189 1791990 1797800 1804061 1810970 1818651 1827161 1836408 1846087 
1605.047 1855745 1864891 1873196 1880566 1887273 1893832 1900931 1909113 
1608.904 1918638 1929315 1940608 1951689 1961890 1970763 1978362 1985169 
1612.761 1991985 1999632 2008680 2019248 2031003 2043156 2054762 2064959 
1616.619 2073249 2079590 2084478 2088683 2093095 2098400 2104930 2112547 
1620.476 2120723 2128617 2135396 2140374 2143233 2144047 2143359 2141899 
1624.334 2140476 2139713 2139977 2141266 2143301 2145692 2148040 2150105 
1628.191 2151893 2153521 2155327 2157507 2160178 2163178 2166180 2168721 
1632.049 2170271 2170438 2169037 2166112 2161979 2157073 2151942 2147035 
1635.906 2142646 2138869 2135564 2132420 2129100 2125325 2121067 2116487 
1639.763 2112017 2108120 2105235 2103523 2102909 2102944 2103073 2102794 
1643.621 2101880 2100415 2098910 2098060 2098551 2100783 2104820 2110253 
1647.478 2116471 2122709 2128411 2133187 2136924 2139661 2141565 2142827 
1651.336 2143718 2144637 2146143 2148914 2153678 2160957 2170868 2183058 
1655.193 2196715 2210788 2224171 2235882 2245380 2252510 2257564 2261180 
1659.051 2264197 2267528 2272086 2278543 2287367 2298567 2311798 2326239 
1662.908 2340805 2354379 2366123 2375704 2383478 2390327 2397529 2406276 
1666.765 2417415 2431172 2447123 2464286 2481497 2497668 2512265 2525142 
1670.623 2536859 2548217 2560156 2573389 2588366 2605083 2623215 2642225 
1674.480 2661554 2680732 2699592 2718172 2736749 2755710 2775420 2796098 
1678.338 2817793 2840414 2863778 2887700 2912112 2936951 2962327 2988307 
1682.195 3014949 3042219 3070066 3098398 3127176 3156405 3186169 3216551 
1686.052 3247685 3279627 3312429 3346125 3380737 3416311 3452877 3490448 
1689.910 3529058 3568773 3609795 3652453 3697209 3744547 3794870 3848216 
1693.767 3904297 3962471 4021843 4081632 4141401 4201196 4261642 4323763 
1697.625 4388708 4457582 4531278 4610485 4695789 4787571 4886179 4991766 
1701.482 5104246 5223256 5348329 5478995 5615074 5756815 5904998 6060783 
1705.340 6225487 6400348 6586333 6784010 6993796 7215979 7450942 7699080 
1709.197 7960756 8236136 8525158 8827548 9143249 9472485 9816190 10175819 
1713.054 10553212 10950061 11367638 11806506 12266767 12748265 13251098 
1716.430 13775742 14323038 14893748 15488160 16105716 16745245 17405360 
1719.805 18085268 18785224 19506818 20252532 21025094 21826542 22657854 
1723.180 23518750 24408230 25325218 26269158 27240304 28239668 29268608 
1726.555 30328540 31420898 32547110 33708708 34907380 36144628 37421560 
1729.931 38738644 40096052 41494440 42935900 44424260 45964888 47563140 
1733.306 49222580 50943136 52720624 54548108 56418432 58327132 60274344 
1736.681 62264448 64304064 66398580 68549520 70752736 72999240 75277008 
1740.056 77573608 79877472 82177552 84461328 86712928 88911960 91034704 
1743.432 93056544 94955104 96711816 98312112 99743600 100994600 102053368 
1746.807 102909256 103554560 103986152 104205360 104216472 104024352 
1749.700 103633152 103046776 102270696 101314248 100191496 98919496 97515624 
1753.075 95994008 94364208 92631456 90799520 88873648 86862824 84779976 
1756.450 82640568 80459968 78251640 76026248 73792520 71558704 69334040 
1759.826 67129440 64957248 62829924 60758876 58753504 56820644 54964496 
1763.201 53187080 51488316 49866596 48318768 46840932 45428868 44078872 
1766.576 42788112 41554940 40378360 39257460 38190452 37174224 36204212 
1769.951 35274828 34380100 33514464 32673212 31852650 31049770 30262148 
1773.327 29487324 28722808 27966080 27214786 26466936 25721064 24976118 
1776.702 24231418 23486462 22740788 21994000 21245902 20496744 19747494 
1780.077 18999840 18256306 17519926 16794112 16082123 15387014 14711280 
1783.452 14057024 13425767 12818605 12236183 11678874 11146882 10640419 
1786.828 10159835 9705699 9278499 8878511 8505327 8157744 7833787 7531076 
1790.685 7247375 6981037 6731099 6497296 6279529 6077598 5890649 5717461 
1794.542 5556491 5406532 5266782 5137121 5017516 4907875 4807507 4715159 
1798.400 4629170 4547955 4470421 4396260 4325769 4259501 4197790 4140350 
1802.257 4086275 4034348 3983346 3932534 3881771 3831481 3782326 3734934 
1806.115 3689558 3646123 3604294 3563687 3523989 3485130 3447040 3409775 
1809.972 3373116 3336723 3299984 3262142 3222416 3180107 3134830 3086743 
1813.830 3036656 2986249 2937809 2893984 2857122 2828803 2809192 2797067 
1817.687 2790053 2785452 2780922 2775235 2768285 2760743 2753311 2746131 
1821.544 2738354 2728456 2714566 2695452 2670735 2641101 2607876 2572524 
1825.402 2535921 2498323 2459436 2419139 2377737 2336466 2297228 2262129 
1829.259 2232530 2208873 2190155 2174584 2159994 2144819 2128410 2111010 
1833.117 2093425 2076308 2059591 2042494 2023446 2001019 1974315 1943653 
1836.974 1910506 1877168 1846020 1818882 1796430 1778248 1763139 1749657 
1840.832 1736726 1724102 1712083 1701426 1692592 1685524 1679172 1671967 
1844.689 1662077 1648181 1629769 1607544 1582999 1558255 1535266 1515503 
1848.546 1499659 1487674 1478742 1471967 1466244 1460786 1455002 1448758 
1852.404 1442018 1434937 1427634 1420103 1411950 1402630 1391217 1377023 
1856.261 1359577 1339130 1316607 1293635 1271839 1252809 1237258 1225266 
1860.119 1216149 1209273 1204192 1201173 1200977 1204664 1212607 1224348 
1863.976 1238209 1251740 1262218 1267723 1267354 1261733 1252353 1241255 
1867.833 1230032 1219591 1209899 1200443 1190373 1179174 1166498 1152442 
1871.691 1137103 1120716 1103430 1085730 1068327 1052353 1038997 1029215 
1875.548 1023168 1020140 1018532 1016527 1012505 1005961 997348 988259 
1879.406 980716 976807 977859 984643 997023 1014384 1035592 1059141 1082791 
1883.745 1103935 1119678 1127517 1126001 1115654 1098799 1079594 1062684 
1887.603 1052350 1051073 1059467 1076110 1098474 1123764 1149740 1174670 
1891.460 1197541 1217223 1232578 1242251 1245433 1242107 1233369 1221142 
1895.318 1207330 1192876 1177378 1158989 1135692 1106285 1071809 1035577 
1899.175 1002649 977971 964682 962633 968377 976063 979677 974861 960588 
1903.515 938834 914218 891547 874747 865315 862682 864655 868979 873912 
1907.854 879231 885563 894410 906876 923688 944571 968543 993842 1018442 
1912.194 1039758 1055377 1063097 1061920 1051782 1034530 1013136 991409 
1916.051 972773 959720 952797 951032 951927 952462 949576 941221 926122 
1920.391 904405 877171 846807 816316 789397 769236 758297 756827 763187 
1924.730 773367 782471 785772 780338 765786 744651 721373 701155 688109 
1929.070 684395 689317 700057 712191 721216 723507 717470 703463 684253 
1933.410 663760 646548 636163 634713 641687 654464 668743 680411 686507 
1937.749 686782 683359 680544 682657 692733 710854 734306 758393 778589 
1942.089 792181 800272 807185 819803 844407 884782 939304 1001088 1058841 
1946.428 1100058 1114186 1096609 1050271 986045 919858 868821 845399 854485 
1950.768 890142 938101 979006 995013 974810 917837 833631 739316 653329 
1955.108 590377 556647 549406 558905 572750 580003 575292 558267 533392 
1959.447 506468 482602 464230 452378 447145 449954 463327 490261 531812 
1963.787 586452 648702 711579 767483 812594 845625 869461 887362 901954 
1968.126 912258 914598 903527 875513 829730 770476 703873 636697 572270 
1972.466 510228 446143 377228 303321 232392 178889 162000 197451 293348 
1976.806 444112 632256 831007 1014013 1161446 1265748 1328871 1359510 
1980.663 1365368 1351236 1316937 1260981 1183207 1088643 987383 893752 
1984.521 820786 777552 765249 779231 810474 851064 896416 947414 1007138 
1988.860 1078160 1157644 1237146 1302927 1341332 1342742 1306158 1238913 
1992.718 1154998 1069065 992744 930744 881490 838855 796240 748915 695419 
1997.057 636317 572537 503393 427211 341829 247946 149870 56939 -19614 
2001.397 -68545 -83180 -62777 -12786 57420 137099 218001 294772 366409 
2005.736 433372 497142 556425 608444 647484 667335 662084 629121 569645 
2010.076 490764 403797 323430 263023 231893 230417 250503 275768 287716 
2014.416 271120 221544 145970 63407 -2852 -31287 -11254 54804 151290 255569 
2019.237 343868 399278 414604 393651 347988 293644 245488 215472 209376 
2023.577 227694 265375 314021 363116 402794 425591 429525 416522 393711 
2027.917 368715 349091 337918 335069 336789 338807 336963 330355 319001 
2032.256 305765 293153 284896 285328 299860 332649 386668 458574 539511 
2036.596 614683 668495 688640 672506 627909 572474 527237 510304 530023 
2040.935 583321 656754 733290 797576 841710 864719 870851 864792 849084 
2045.275 822996 786727 743749 705365 687907 709336 780076 897263 1042099 
2049.615 1184753 1293161 1344030 1328562 1254316 1140740 1013298 896058 
2053.472 806890 754013 736701 746595 772423 802552 827788 841981 842646 
2057.812 830153 808276 783317 763433 756144 766606 794576 834341 875521 
2062.151 906399 917202 904248 870368 824523 778218 742105 722090 718932 
2066.491 728121 742839 756461 765102 767963 767436 767055 770616 780378 
2070.830 797373 820652 848273 876954 903133 922585 932358 930596 918277 
2075.170 899009 878848 864008 859915 868675 889007 916258 944637 968589 
2079.510 984902 993018 994795 992600 988688 983687 977052 967428 953971 
2083.849 936067 914188 888565 859282 825797 788168 747664 708003 674955 
2088.189 655442 654437 673058 706386 744384 773766 782763 764464 720153 
2092.528 658711 594825 543681 517163 519522 547388 591478 641008 687425 
2096.868 727884 764848 804158 851186 907966 970698 1030975 1077489 1100059 
2101.208 1092363 1054517 992762 918276 844140 782619 741878 725361 730919 
2105.547 752643 782327 812069 835754 850385 855591 853665 847710 841196 
2109.887 836746 836302 840813 850536 864983 882978 902116 919337 930830 
2114.226 933497 925260 906309 878678 845947 811621 778275 746065 713173 
2118.566 676113 631550 577010 512736 440925 365694 291618 222819 161901 
2122.906 110051 66760 30756 -295 -28669 -56977 -87252 -120824 -157375 
2127.245 -195123 -230222 -258341 -275137 -278210 -267579 -246772 -221479 
2131.103 -199141 -186732 -190299 -212720 -254501 -312134 -379687 -447953 
2134.960 -507181 -547178 -560970 -545947 -506252 -451865 -398240 -361844 
2138.817 -357252 -392609 -468184 -575980 -702222 -831148 -948906 -1046344 
2142.675 -1120784 -1174166 -1212301 -1241396 -1266871 -1291747 -1317295 
2146.050 -1342587 -1366292 -1385630 -1397724 -1398480 -1384024 -1351190 
2149.425 -1299670 -1231917 -1156182 -1083506 -1029030 -1007638 -1033702 
2152.801 -1117222 -1264312 -1474660 -1742840 -2056019 -2395952 -2735560 
2156.176 -3042850 -3280464 -3411372 -3405868 -3251686 -2959519 -2566768 
2159.551 -2126952 -1695679 -1313223 -999036 -750521 -554635 -395051 -261755 
2163.408 -150898 -64660 -4618 31120 51955 70529 100868 150593 219048 295942 
2168.230 365136 409019 414871 376190 295701 181033 44559 -101517 -244411 
2172.570 -372211 -473264 -537334 -556947 -531397 -468256 -384430 -302547 
2176.427 -245834 -230384 -261592 -331862 -424475 -517583 -591678 -632129 
2180.285 -632233 -591094 -513153 -403851 -270780 -122304 30616 176117 301984 
2184.624 399248 463853 499553 515399 524108 537303 562470 600719 647585 
2188.964 694998 734320 757912 761078 740891 696437 627579 536130 426183 
2193.303 305554 185214 78680 -1374 -45280 -49376 -16327 44778 122209 202802 
2198.125 276282 335434 378042 405083 420692 429755 437732 448409 464664 
2202.465 487133 514740 545090 575331 602470 625335 643736 659358 674261 
2206.804 690749 709059 728103 744106 752308 747522 726275 687307 633147 
2211.144 569200 503927 446453 406670 392320 409116 458819 539414 644304 
2215.484 762945 881384 984564 1058398 1093457 1086753 1043915 977807 905652 
2219.823 844314 806072 794732 805813 828727 851857 866798 872211 873582 
2224.163 881320 905234 951342 1018243 1098475 1180069 1251205 1302560 
2228.020 1329841 1332539 1313123 1275355 1223772 1163571 1102297 1048501 
2231.878 1011494 997984 1009845 1041875 1082843 1118319 1135527 1127313 
2235.735 1094850 1046273 994166 950185 921990 910713 912586 921013 930471 
2240.075 937970 944093 951426 962754 979272 1000438 1024345 1049469 1074919 
2244.414 1100815 1127172 1152765 1174165 1186674 1185271 1167400 1133823 
2248.272 1089704 1042589 1000566 969112 949647 939030 931430 920491 902695 
2252.611 878719 854024 837012 836604 858822 904895 969974 1044741 1117426 
2256.951 1177617 1218625 1239338 1243612 1238754 1232173 1229319 1231682 
2260.808 1237164 1241350 1240423 1232726 1220266 1207840 1201947 1207838 
2264.666 1228060 1261406 1303343 1347240 1386111 1414039 1427008 1423179 
2268.523 1403177 1369685 1327775 1284388 1247796 1225836 1224649 1246419 
2272.381 1288925 1345612 1407466 1465072 1511587 1543604 1562134 1570861 
2276.238 1575033 1579321 1586924 1599047 1615557 1635470 1657913 1681992 
2280.095 1707292 1733271 1759491 1785312 1810474 1834712 1858110 1880722 
2283.953 1902584 1923302 1942613 1959966 1975065 1987630 1997349 2003337 
2287.810 2004394 1998697 1984705 1961394 1929291 1890148 1847145 1803796 
2291.668 1763430 1728225 1699300 1676560 1659626 1648012 1641549 1640333 
2295.525 1644319 1652901 1664799 1677925 1690114 1699382 1704611 1705542 
2299.383 1702808 1697530 1690878 1683805 1676970 1670629 1665092 1660724 
2303.240 1658185 1658175 1661487 1668225 1678018 1689556 1700944 1709897 
2307.097 1714710 1714469 1709686 1702037 1694106 1688421 1686929 1690247 
2310.955 1697951 1708766 1721520 1735464 1750594 1767410 1786240 1806713 
2314.812 1827730 1847533 1864627 1878345 1889420 1899600 1911366 1926865 
2318.670 1947737 1974828 2008954 2050982 2102095 2162808 2231753 2304166 
2322.527 2371476 2422104 2443970 2427345 2367918 2267867 2136007 1985653 
2326.385 1832031 1689163 1567565 1472801 1405593 1362706 1338915 1328500 
2330.242 1326530 1329113 1333496 1337545 1339638 1338740 1334490 1327394 
2334.099 1318674 1309817 1302141 1296367 1292699 1290724 1290065 1290401 
2337.957 1291625 1293578 1295854 1297550 1297558 1294716 1288518 1279175 
2341.814 1267835 1256034 1245307 1236533 1229808 1224480 1219543 1214124 
2345.672 1207846 1200763 1193363 1186126 1179579 1173903 1169193 1165560 
2349.529 1163177 1162203 1162835 1164776 1167560 1170314 1172115 1172016 
2353.386 1169417 1164119 1156460 1147031 1136952 1127351 1119412 1113855 
2357.244 1110783 1109478 1108401 1105666 1099587 1089270 1075086 1058393 
2361.101 1041198 1025193 1011119 998228 984795 968591 948289 923990 897735 
2365.441 872970 853441 842065 840046 846449 858741 873555 887815 899398 
2369.781 907542 912559 915646 918130 921314 926125 933182 942656 954435 
2374.120 967817 981992 995888 1008696 1019975 1029780 1038485 1046542 
2377.978 1054044 1060826 1066210 1069811 1071454 1071807 1071856 1072719 
2381.835 1074922 1078170 1081141 1082165 1079766 1073448 1063957 1053330 
2385.692 1044017 1038375 1037802 1042701 1052501 1066151 1082726 1101623 
2389.550 1122508 1145326 1169536 1194339 1218235 1239499 1256187 1266753 
2393.407 1270066 1265714 1254117 1236614 1215358 1193198 1173114 1157763 
2397.265 1148583 1145706 1147519 1151550 1154940 1155550 1152566 1146742 
2401.122 1139838 1134299 1131977 1134055 1140496 1150652 1163463 1177860 
2404.979 1192868 1207635 1220941 1231448 1237625 1238390 1233447 1223949 
2408.837 1212099 1200874 1193047 1190564 1193702 1201391 1211396 1221317 
2412.694 1229050 1233810 1235691 1235849 1235586 1236197 1238265 1241996 
2416.552 1246862 1252354 1257702 1262404 1265900 1267864 1268068 1266625 
2420.409 1263963 1261041 1258962 1258750 1260893 1264954 1269456 1272358 
2424.267 1271457 1265392 1254096 1239072 1222898 1208631 1198696 1194370 
2428.124 1195397 1200631 1208497 1218011 1228720 1240867 1254529 1269045 
2431.981 1282435 1291949 1294629 1288593 1273960 1253006 1229680 1208359 
2435.839 1192501 1183799 1182057 1186023 1194132 1205897 1221484 1241782 
2439.696 1266705 1294680 1322091 1343942 1355359 1353307 1337772 1312120 
2443.554 1281949 1253626 1232166 1220141 1217161 1220688 1227193 1233734 
2447.411 1238604 1241638 1243696 1246010 1249548 1254492 1260464 1266702 
2451.269 1272277 1276564 1279052 1279566 1278197 1275273 1271434 1267610 
2455.126 1264706 1263604 1264675 1267856 1272529 1277961 1283339 1288117 
2458.983 1291866 1294395 1295235 1293921 1289875 1282848 1272987 1261059 
2462.841 1248179 1235510 1223712 1212902 1202601 1192181 1181353 1170696 
2466.698 1161366 1154999 1152803 1155020 1160777 1168257 1175392 1180760 
2470.556 1183986 1186080 1188754 1193889 1202471 1214514 1228659 1242853 
2474.413 1254790 1262717 1265560 1263085 1255652 1244058 1229238 1212473 
2478.271 1195048 1178498 1164262 1153808 1147886 1146955 1150742 1158678 
2482.128 1169869 1183434 1198296 1213307 1227077 1238381 1246009 1249583 
2485.985 1249675 1247934 1246751 1248768 1255824 1268521 1285813 1305270 
2489.843 1323592 1337673 1345352 1345996 1340414 1330742 1319512 1309240 
2493.700 1301741 1298079 1298338 1302145 1308690 1317012 1326159 1335151 
2497.558 1343007 1348956 1352150 1352202 1348891 1342425 1333265 1322207 
2501.415 1310139 1298310 1287821 1280081 1276123 1276688 1281820 1290573 
2505.272 1300944 1310202 1315194 1313261 1302820 1284195 1259446 1232389 
2509.130 1207532 1189218 1180485 1182704 1194976 1214868 1238896 1263595 
2512.987 1286026 1304459 1318205 1327598 1333268 1335962 1336159 1334052 
2516.845 1329741 1323444 1315837 1308160 1301925 1298854 1300024 1305799 
2520.702 1315092 1326039 1335764 1341619 1341402 1334237 1320570 1302068 
2524.560 1280972 1259668 1239876 1222939 1209470 1199983 1195082 1195581 
2528.417 1202160 1215105 1233616 1255910 1278945 1299339 1313904 1320657 
2532.274 1318956 1309941 1295871 1279844 1264688 1252892 1245731 1243657 
2536.132 1246061 1251797 1259304 1267181 1274337 1280348 1285332 1290054 
2539.989 1295109 1301061 1307638 1314030 1318881 1320879 1319254 1314251 
2543.847 1306935 1299241 1293047 1289862 1290242 1293893 1299636 1306227 
2547.704 1312256 1317007 1320042 1321506 1321875 1321817 1322264 1324105 
2551.562 1328068 1334472 1342976 1352579 1361639 1368707 1372444 1372617 
2555.419 1369773 1365368 1361004 1358156 1357812 1360427 1366150 1375359 
2559.276 1388333 1405497 1426466 1450009 1473686 1494280 1508586 1514533 
2563.134 1511849 1502292 1489280 1476618 1467329 1462971 1463168 1466269 
2566.991 1470000 1472681 1473458 1472795 1471656 1471502 1473400 1478155 
2570.849 1486261 1498066 1513677 1533037 1555415 1579259 1601965 1620540 
2574.706 1631810 1633414 1624403 1605414 1578603 1547389 1515472 1486573 
2578.563 1463634 1448637 1442285 1444165 1452732 1465903 1481291 1496946 
2582.421 1511473 1524359 1535585 1545358 1553616 1559802 1563203 1563337 
2586.278 1560423 1555969 1552304 1552350 1558082 1569983 1586370 1603687 
2590.136 1617671 1624590 1622401 1611650 1595050 1576756 1560802 1550280 
2593.993 1546255 1548094 1553690 1560588 1566598 1570423 1571691 1571040 
2597.851 1569499 1568568 1569506 1573534 1581268 1592728 1607068 1622638 
2601.708 1637098 1648004 1653122 1651310 1642530 1628303 1611167 1594394 
2605.565 1581207 1574276 1575084 1583845 1599287 1619153 1640451 1660243 
2609.423 1676079 1686640 1691674 1692153 1689682 1686024 1682523 1679829 
2613.280 1677819 1675975 1673629 1670518 1666852 1663422 1661310 1661413 
2617.138 1664315 1669990 1677851 1687080 1696656 1705822 1714040 1721143 
2620.995 1727313 1733063 1738877 1745435 1753071 1761903 1771498 1781140 
2624.853 1789728 1796427 1800637 1802435 1802350 1801390 1800394 1799990 
2628.710 1800099 1800226 1799653 1797867 1794868 1791256 1788157 1786801 
2632.567 1788050 1792188 1798641 1806258 1813585 1819310 1822650 1823561 
2636.425 1822581 1820881 1819820 1820730 1824491 1831487 1841196 1852661 
2640.282 1864219 1874316 1881489 1885134 1885398 1883330 1880442 1878443 
2644.140 1878474 1881017 1885573 1891049 1896047 1899351 1900340 1899027 
2647.997 1896055 1892332 1888609 1885401 1882736 1880160 1877110 1872933 
2651.854 1867291 1860164 1851900 1843027 1834169 1825862 1818259 1811296 
2655.712 1804538 1797392 1789172 1779429 1767958 1754937 1740750 1726032 
2659.569 1711239 1696818 1682778 1669003 1655118 1640710 1625350 1608815 
2663.427 1590979 1572039 1552343 1532680 1513934 1497162 1483285 1472975 
2667.284 1466305 1462686 1460980 1459740 1457550 1453442 1447022 1438754 
2671.142 1429525 1420571 1412950 1407513 1404433 1403502 1404025 1405112 
2674.999 1405850 1405412 1403180 1398963 1392887 1385578 1377837 1370659 
2678.856 1364817 1360850 1358796 1358420 1359258 1360913 1363172 1366015 
2682.714 1369508 1373702 1378349 1383069 1387278 1390687 1393215 1395140 
2686.571 1396904 1398813 1400695 1401848 1401125 1397337 1389896 1379115 
2690.429 1366293 1353613 1343455 1337804 1337575 1342462 1350980 1360973 
2694.286 1370176 1376772 1379756 1379117 1375667 1370787 1366023 1362768 
2698.144 1361909 1363744 1367788 1372991 1377961 1381394 1382310 1380411 
2702.001 1376137 1370322 1364116 1358369 1353500 1349418 1345607 1341422 
2705.858 1336320 1330192 1323291 1316134 1309346 1303409 1298678 1295306 
2709.716 1293267 1292453 1292656 1293594 1294869 1295998 1296547 1296296 
2713.573 1295299 1294029 1293140 1293388 1295273 1299061 1304415 1310790 
2717.431 1317332 1323385 1328420 1332190 1334886 1336791 1338359 1340046 
2721.288 1342143 1344652 1347363 1349791 1351280 1351328 1349714 1346748 
2725.146 1343315 1340685 1340082 1342402 1347611 1354814 1362313 1368196 
2729.003 1370917 1369896 1365582 1359591 1353919 1350478 1350277 1353327 
2732.860 1358465 1364018 1368272 1370236 1369873 1368171 1366642 1366966 
2736.718 1370132 1376282 1384554 1393471 1401401 1407204 1410482 1411787 
2740.575 1412201 1412982 1414867 1417819 1420909 1422585 1421354 1416268 
2744.433 1407325 1395701 1383329 1372418 1364716 1361181 1361531 1364615 
2748.290 1368732 1372150 1373644 1372798 1369886 1365683 1361119 1357005 
2752.147 1353581 1350830 1348253 1345444 1342081 1338200 1334206 1330738 
2756.005 1328404 1327657 1328481 1330598 1333335 1336072 1338321 1339914 
2759.862 1341063 1342019 1343021 1343931 1344258 1343299 1340303 1334871 
2763.720 1327123 1317771 1307915 1298845 1291606 1286894 1285006 1285887 
2767.577 1289253 1294873 1302396 1311360 1321208 1331051 1339924 1346953 
2771.435 1351403 1353106 1352236 1349340 1345077 1340107 1334986 1330143 
2775.292 1326088 1323324 1322457 1323961 1328042 1334396 1342296 1350750 
2779.149 1358657 1365319 1370596 1374887 1378891 1383371 1388842 1395312 
2783.007 1402270 1408950 1414439 1418035 1419317 1418256 1415204 1410751 
2786.864 1405699 1401000 1397402 1395746 1396343 1399258 1404072 1410020 
2790.722 1416147 1421716 1426276 1429892 1433042 1436501 1440898 1446740 
2794.579 1453745 1461372 1468683 1474759 1478944 1481215 1482034 1482355 
2798.437 1483192 1485391 1489309 1494768 1501168 1507797 1514033 1519679 
2802.294 1524914 1530151 1535766 1541910 1548263 1554280 1559376 1563335 
2806.151 1566419 1569467 1573401 1578958 1586213 1594462 1602222 1607892 
2810.009 1610159 1608576 1603700 1596972 1590280 1585483 1583895 1586282 
2813.866 1592740 1602933 1616229 1631828 1648664 1665498 1680731 1692905 
2817.724 1700900 1704297 1703717 1700647 1697196 1695506 1697179 1702900 
2821.581 1712339 1724446 1737763 1750925 1762953 1773525 1782582 1790541 
2825.438 1797752 1804529 1810948 1816950 1822252 1826623 1829835 1831917 
2829.296 1833066 1833902 1835119 1837450 1841343 1846704 1852962 1859138 
2833.153 1864114 1867157 1868085 1867621 1866985 1867789 1871484 1879035 
2837.011 1890798 1906443 1925179 1945998 1967735 1989320 2009692 2028046 
2840.868 2043864 2057161 2068520 2079262 2090918 2105100 2122948 2144833 
2844.726 2170210 2198038 2227091 2256497 2285996 2315897 2346679 2378509 
2848.583 2410723 2441878 2469671 2491793 2506362 2512666 2511307 2504211 
2852.440 2494075 2483840 2475994 2472254 2473271 2478841 2487898 2499131 
2856.298 2511102 2522750 2533581 2543817 2554357 2566603 2581853 2601018 
2860.155 2624112 2650152 2677299 2703590 2727335 2748077 2766754 2785478 
2864.013 2807027 2834119 2868268 2909678 2957037 3008175 3060859 3113553 
2867.870 3165830 3218544 3273153 3331288 3393895 3461052 3531819 3604569 
2871.728 3677324 3748273 3815763 3878646 3935891 3986831 4031019 4068496 
2875.585 4099764 4125839 4147948 4167150 4183966 4197871 4207648 4211441 
2879.442 4207429 4194497 4172552 4142740 4107027 4067810 4027290 3987007 
2883.300 3947709 3909358 3871369 3832995 3793627 3752985 3711143 3668778 
2887.157 3626925 3587171 3551234 3521055 3498096 3483422 3477083 3478125 
2891.015 3484694 3494396 3504702 3513614 3519907 3523452 3525084 3526332 
2894.872 3528883 3534196 3542926 3555005 3569568 3585292 3600737 3614894 
2898.729 3627139 3637737 3647184 3656415 3666105 3676730 3688230 3700378 
2902.587 3712768 3725094 3737217 3749266 3761468 3774220 3787871 3802856 
2906.444 3819535 3838406 3859809 3883914 3910536 3939160 3968804 3998525 
2910.302 4027554 4055724 4083560 4112287 4143364 4178117 4217393 4261115 
2914.159 4308502 4358202 4408796 4458996 4508060 4555767 4602183 4647598 
2918.017 4692282 4736282 4779618 4822130 4863793 4904708 4945167 4985772 
2921.874 5027149 5069932 5114768 5162047 5211920 5264374 5319159 5375977 
2925.731 5434437 5494368 5555513 5617891 5681444 5746278 5812536 5880688 
2929.589 5951361 6025493 6104225 6188626 6279487 6377253 6481820 6592769 
2933.446 6709523 6831662 6958915 7091474 7229534 7373237 7522720 7677756 
2937.304 7837932 8002745 8171680 8344260 8519572 8696523 8873335 9047727 
2941.161 9216942 9378148 9528640 9666072 9788566 9894628 9983037 10052756 
2945.019 10103146 10133804 10144898 10137334 10112509 10072384 10019108 
2948.394 9954856 9881929 9802430 9718484 9632239 9545572 9460021 9376680 
2952.251 9295953 9217608 9141198 9066100 8992086 8919350 8848552 8780614 
2956.109 8716451 8656568 8600894 8548505 8497879 8446912 8393428 8335493 
2959.966 8271947 8202612 8128506 8051434 7973860 7897906 7824988 7755279 
2963.823 7687662 7619975 7549875 7475420 7395676 7310943 7222642 7132743 
2967.681 7043326 6955997 6871690 6790644 6712869 6638071 6566158 6497028 
2971.538 6430688 6366925 6305637 6246466 6189340 6134381 6082217 6033786 
2975.396 5990428 5953471 5924049 5903008 5890728 5887128 5891881 5904435 
2979.253 5924310 5951223 5985170 6026503 6076113 6135005 6204378 6285315 
2983.111 6378691 6484883 6603719 6734553 6876187 7027196 7186039 7351315 
2986.968 7521885 7697058 7876477 8059833 8246647 8435838 8625426 8812494 
2990.825 8993220 9163445 9319098 9456729 9573913 9669302 9742629 9794439 
2994.683 9825804 9837896 9832060 9809430 9771017 9717657 9649904 9568235 
2998.540 9473151 9365263 9245547 9115391 8976614 8831157 8680671 8526492 
3002.398 8369254 8209266 8046315 7880387 7711674 7540797 7368657 7196294 
3006.255 7024692 6854618 6686812 6521661 6359642 6200940 6045639 5893376 
3010.113 5743649 5595788 5449316 5304125 5160787 5020318 4883947 4752644 
3013.970 4626936 4506655 4391239 4279935 4172353 4068496 3968830 3873740 
3017.827 3783444 3697461 3614838 3534338 3454951 3376295 3298771 3223556 
3021.685 3152073 3085557 3024649 2969130 2918071 2870007 2823532 2777387 
3025.542 2730783 2683607 2636209 2589467 2544547 2502584 2464680 2431333 
3029.400 2402442 2377329 2354605 2332746 2310281 2286137 2259884 2231758 
3033.257 2202555 2173442 2145777 2120756 2099399 2082218 2069182 2059731 
3037.115 2052627 2046360 2039488 2030856 2020013 2007194 1993145 1978735 
3040.972 1964629 1950950 1937308 1923070 1907807 1891445 1874642 1858366 
3044.829 1843683 1831402 1821664 1814176 1808487 1804157 1801290 1800387 
3048.687 1802054 1806845 1814619 1824485 1835021 1844403 1851021 1853692 
3052.544 1852016 1846246 1837110 1825541 1812625 1799296 1786517 1775039 
3056.402 1765704 1759116 1755668 1755472 1758203 1763091 1768967 1774414 
3060.259 1777848 1777820 1773382 1764368 1751476 1736290 1721048 1708004 
3064.116 1698998 1694894 1695480 1699501 1705078 1710358 1713920 1715178 
3067.974 1714346 1712093 1709457 1707161 1705770 1705338 1705801 1706811 
3071.831 1708110 1709419 1710605 1711492 1712143 1712587 1712917 1713124 
3075.689 1713062 1712371 1710492 1706898 1701320 1693871 1685170 1676136 
3079.546 1667679 1660367 1654106 1648299 1642169 1635066 1627114 1619293 
3083.404 1613136 1610482 1612472 1619407 1630089 1642298 1653299 1660454 
3087.261 1661925 1657099 1646688 1632318 1616432 1601466 1589480 1581915 
3091.118 1579250 1580947 1585682 1591435 1596287 1598559 1597553 1593476 
3094.976 1587519 1581342 1576451 1573583 1572437 1571623 1569167 1563222 
3098.833 1552840 1538529 1522241 1507062 1496399 1493089 1498506 1512241 
3102.691 1532042 1554473 1575583 1592103 1601916 1604570 1601175 1593696 
3106.548 1584529 1575536 1567865 1561639 1556484 1551880 1547661 1544201 
3110.406 1542356 1543012 1546650 1552886 1560460 1567473 1571828 1572102 
3114.263 1567721 1559247 1548087 1535975 1524580 1514822 1507088 1501159 
3118.120 1496586 1493109 1490822 1490143 1491784 1496102 1503004 1511738 
3121.978 1520926 1528745 1533471 1533728 1529056 1519975 1508107 1495786 
3125.835 1485776 1480487 1481658 1489669 1503677 1521610 1540704 1558108 
3129.693 1571586 1579823 1582763 1581149 1576543 1570372 1563926 1557877 
3133.550 1552561 1547895 1543858 1540451 1537872 1536500 1536548 1538234 
3137.407 1541677 1546867 1553730 1562226 1572083 1582816 1593554 1603232 
3141.265 1610598 1614816 1615548 1613236 1608952 1603908 1599042 1594734 
3145.122 1590424 1585196 1578057 1568681 1557626 1546347 1536637 1529857 
3148.980 1526515 1525872 1526296 1526023 1523807 1519617 1514675 1510821 
3152.837 1509774 1512286 1517758 1524341 1529806 1532503 1532007 1529545 
3156.695 1527642 1529176 1536424 1550045 1569123 1590961 1612206 1629477 
3160.552 1640259 1643467 1639392 1629549 1616153 1601597 1588015 1576826 
3164.409 1568783 1563709 1560913 1559295 1557750 1555440 1551952 1547369 
3168.267 1542244 1537202 1533082 1530597 1530320 1532645 1537766 1545449 
3172.124 1555239 1566011 1576574 1585641 1592297 1596210 1597687 1597493 
3175.982 1596479 1594933 1592609 1588548 1581653 1571093 1557068 1540782 
3179.839 1524408 1510363 1500631 1496149 1496652 1500844 1506956 1513251 
3183.697 1518791 1523266 1527189 1531304 1536509 1543263 1551675 1561286 
3187.554 1571220 1580411 1587659 1592132 1593452 1591929 1588620 1585085 
3191.411 1582725 1582505 1584520 1587894 1591184 1593148 1593185 1591712 
3195.269 1590217 1590447 1593729 1600290 1609051 1618072 1625091 1628542 
3199.126 1628112 1624743 1620397 1617154 1616571 1619240 1624733 1631848 
3202.984 1639095 1644926 1648149 1647946 1643864 1636138 1625540 1613586 
3206.841 1602393 1594185 1590780 1592901 1600033 1610320 1621331 1630635 
3210.698 1636703 1639252 1639176 1637957 1637266 1638029 1640462 1644005 
3214.556 1647678 1650426 1651461 1650145 1646122 1639273 1629725 1618029 
3218.413 1605403 1593508 1584447 1579947 1581155 1588008 1599170 1612561 
3222.271 1625849 1637111 1645384 1650612 1653561 1655279 1656565 1657796 
3226.128 1658844 1659363 1659102 1658149 1657141 1656999 1658687 1662810 
3229.986 1669329 1677463 1685882 1692831 1696725 1696392 1691409 1682077 
3233.843 1669316 1654504 1639157 1624686 1612391 1603510 1599085 1599920 
3237.700 1606321 1617933 1633458 1650792 1667470 1681178 1690621 1695839 
3241.558 1698233 1700007 1703305 1709366 1718007 1727488 1735286 1738864 
3245.415 1736532 1727916 1713964 1696417 1677233 1658122 1640380 1624943 
3249.273 1612715 1604613 1601246 1602801 1608443 1616397 1624222 1629456 
3253.130 1630537 1627300 1620943 1613538 1607254 1603466 1602252 1602544 
3256.988 1602661 1601152 1597317 1591516 1585069 1579745 1577183 1578683 
3260.845 1584947 1596218 1612215 1632209 1654914 1678383 1700254 1718041 
3264.702 1729682 1734142 1731704 1723766 1712584 1700369 1688842 1678847 
3268.560 1670416 1663188 1656836 1651337 1647031 1644379 1643602 1644436 
3272.417 1646171 1647894 1648806 1648566 1647525 1646275 1645496 1645508 
3276.275 1646167 1646805 1646630 1644927 1641577 1637038 1632135 1627891 
3280.132 1625129 1624203 1624991 1627012 1629605 1632275 1634682 1636694 
3283.990 1638222 1639013 1638626 1636290 1631344 1623477 1613054 1601207 
3287.847 1589798 1580899 1576217 1576635 1581947 1590876 1601627 1612415 
3291.704 1621972 1629822 1636008 1641004 1645086 1648153 1649907 1650071 
3295.562 1648590 1646157 1643714 1642263 1642382 1643794 1645582 1646508 
3299.419 1645554 1642532 1638127 1633609 1630275 1628820 1629046 1629904 
3303.277 1630065 1628432 1624672 1619151 1612776 1606343 1600186 1594072 
3307.134 1587612 1580587 1573503 1567471 1564175 1565112 1570984 1581459 
3310.991 1595188 1610409 1625402 1639014 1650955 1661279 1670251 1677781 
3314.849 1683392 1686116 1685060 1679603 1669696 1655930 1639437 1621585 
3318.706 1603908 1587984 1575193 1566670 1562938 1563855 1568387 1574768 
3322.564 1581007 1585177 1586375 1584601 1581011 1577488 1575912 1577700 
3326.421 1583444 1592790 1604691 1617656 1630080 1640444 1647398 1650014 
3330.279 1647909 1641439 1631742 1620770 1610812 1603911 1601295 1602968 
3334.136 1607701 1613419 1617976 1619886 1618846 1615615 1611768 1608870 
3337.993 1607850 1608597 1610104 1610762 1609215 1604826 1598074 1590335 
3341.851 1583714 1580103 1580902 1586348 1595593 1606780 1617612 1625858 
3345.708 1629904 1629130 1624050 1616019 1607033 1599066 1593777 1592178 
3349.566 1594461 1600301 1608905 1619251 1630286 1640943 1650110 1656774 
3353.423 1660057 1659442 1655061 1647823 1639245 1631362 1626053 1624757 
3357.281 1627881 1634708 1643415 1651574 1656719 1656968 1651486 1640857 
3361.138 1626756 1611730 1598221 1588235 1582594 1580894 1581752 1583398 
3364.995 1584347 1583976 1582771 1582028 1583338 1587850 1595714 1605894 
3368.853 1616540 1625587 1631375 1633189 1631503 1627602 1623181 1619764 
3372.710 1618482 1619809 1623623 1629474 1636524 1643701 1649727 1653141 
3376.568 1652574 1647152 1636739 1622159 1605244 1588259 1573456 1562509 
3380.425 1556189 1554226 1555659 1559256 1563759 1568241 1572023 1574728 
3384.282 1576143 1576197 1574993 1572893 1570622 1568896 1568472 1569762 
3388.140 1572686 1576632 1580647 1583641 1584797 1583513 1579627 1573378 
3391.997 1565401 1556740 1548645 1542696 1540381 1542907 1550776 1563445 
3395.855 1579519 1596794 1612823 1625513 1633666 1637040 1636453 1633394 
3399.712 1629537 1626191 1624144 1623417 1623248 1622624 1620244 1615081 
3403.570 1606771 1595712 1583442 1572184 1564709 1563391 1569772 1583787 
3407.427 1603834 1626913 1649420 1668019 1680536 1686235 1685777 1680986 
3411.284 1674000 1666668 1660284 1655476 1652405 1651198 1651808 1654249 
3415.142 1658431 1663757 1669211 1673339 1674720 1672254 1665790 1656244 
3418.999 1645424 1635747 1629448 1627925 1631558 1639295 1649235 1659179 
3422.857 1667269 1672493 1674966 1675523 1675380 1675329 1675404 1674813 
3426.714 1672236 1666466 1657008 1644504 1630724 1618100 1608920 1604850 
3430.572 1606431 1613058 1623513 1636226 1650001 1664000 1677705 1690597 
3434.429 1702033 1710963 1716349 1717408 1714056 1707028 1697834 1688453 
3438.286 1680706 1675849 1674343 1675858 1679343 1683636 1687562 1690266 
3442.144 1691403 1691213 1690365 1689806 1690585 1693384 1698389 1704942 
3446.001 1711844 1717408 1720236 1719610 1715853 1710441 1705537 1703395 
3449.859 1705644 1712786 1724070 1737763 1751647 1763789 1772821 1778360 
3453.716 1780947 1781497 1781259 1781206 1781872 1783198 1784629 1785295 
3457.573 1784269 1781075 1775885 1769719 1764411 1762047 1764334 1772122 
3461.431 1784681 1799927 1814945 1826706 1833152 1833814 1829898 1823878 
3465.288 1818577 1816215 1817839 1823196 1831135 1840321 1849837 1859518 
3469.146 1869808 1881404 1894507 1908627 1922543 1934658 1943538 1948516 
3473.003 1949777 1948439 1946004 1944071 1943828 1946045 1950830 1958183 
3476.861 1967907 1979759 1993437 2008497 2024416 2040540 2056225 2071180 
3480.718 2085403 2099328 2113620 2128994 2145977 2164933 2185794 2208315 
3484.575 2231993 2256208 2280059 2302560 2322478 2338602 2349862 2355704 
3488.433 2356135 2352117 2345233 2337607 2331588 2329174 2331833 2340097 
3492.290 2353581 2371043 2390711 2410586 2429010 2444958 2458335 2469998 
3496.148 2481406 2494267 2509841 2528614 2549928 2572123 2592924 2610195 
3500.005 2622494 2629404 2631902 2631816 2631364 2632494 2636328 2642808 
3503.863 2650968 2659143 2665536 2668585 2667380 2661611 2651360 2637064 
3507.720 2619135 2598069 2574507 2549180 2523377 2498613 2476576 2458792 
3511.577 2446089 2438372 2434545 2432679 2430624 2426380 2418952 2408506 
3515.435 2396448 2384956 2376408 2372674 2374728 2382275 2394027 2407927 
3519.292 2421761 2433408 2441219 2444090 2441461 2433259 2419911 2402101 
3523.150 2380970 2357772 2333730 2309958 2287143 2265713 2245773 2227407 
3527.007 2210663 2195552 2182003 2169768 2158170 2146333 2133427 2119048 
3530.865 2103622 2088490 2075549 2066770 2063398 2065543 2071888 2080064 
3534.722 2087304 2091104 2090071 2083895 2073608 2060838 2047565 2035537 
3538.579 2026228 2020480 2018522 2020080 2024099 2028999 2032901 2034225 
3542.437 2032040 2026702 2019782 2013763 2011099 2013419 2020881 2032083 
3546.294 2044539 2055773 2063985 2068864 2071326 2073001 2075369 2078929 
3550.152 2083205 2086815 2088351 2086916 2082607 2076090 2068426 2060282 
3554.009 2051588 2041759 2030244 2017033 2003163 1990543 1981180 1976351 
3557.866 1975795 1977639 1978731 1975822 1966796 1951592 1932419 1913232 
3561.724 1898653 1892470 1896693 1910778 1931969 1956110 1978586 1995628 
3565.581 2004993 2006257 2000831 1991105 1980060 1970271 1963448 1960325 
3569.439 1960686 1963897 1969002 1975415 1982681 1990488 1998310 2005534 
3573.296 2010986 2013428 2011901 2005957 1995861 1982546 1967261 1951146 
3577.154 1935063 1919387 1904439 1890702 1879194 1871488 1869220 1873710 
3581.011 1885094 1902068 1921967 1941226 1956416 1964988 1965962 1959912 
3584.868 1948714 1934747 1920176 1906445 1894226 1883389 1873572 1864475 
3588.726 1855954 1848068 1840903 1834254 1827603 1820301 1811637 1801333 
3592.583 1789486 1776770 1764208 1752667 1742786 1734697 1728136 1722634 
3596.441 1717696 1713143 1708878 1705215 1702418 1700657 1700174 1701270 
3600.298 1704524 1710662 1720277 1733441 1749314 1765796 1780038 1788899 
3604.156 1790105 1783024 1769249 1752209 1736279 1725541 1722376 1727053 
3608.013 1737679 1751101 1764019 1774269 1781207 1785619 1788968 1792535 
3611.870 1796768 1801137 1804465 1805759 1804595 1801480 1797626 1794583 
3615.728 1793586 1795340 1799991 1807444 1817482 1829767 1844009 1859518 
3619.585 1875177 1889483 1901002 1908674 1912584 1913774 1914005 1915414 
3623.443 1919606 1927397 1938631 1952519 1967969 1984057 2000188 2015837 
3627.300 2030542 2043743 2054610 2062691 2067935 2071159 2073835 2077681 
3631.157 2084235 2093986 2106483 2120144 2132967 2142793 2148166 2148598 
3635.015 2144647 2137606 2129525 2122517 2118658 2119611 2126244 2138537 
3638.872 2155429 2174967 2194745 2212452 2226483 2236321 2242749 2247330 
3642.730 2251899 2257707 2265047 2273027 2279918 2283724 2282935 2277061 
3646.587 2267005 2254754 2243162 2235196 2233138 2238227 2250222 2267459 
3650.445 2287255 2306285 2321738 2331548 2335122 2333355 2328270 2322558 
3654.302 2318848 2319043 2323969 2333248 2345444 2358566 2370609 2380050 
3658.159 2386146 2389106 2389987 2390388 2391983 2396053 2403031 2412191 
3662.017 2421698 2428965 2431380 2427103 2415566 2397617 2375351 2351419 
3665.874 2328273 2307331 2288912 2272511 2257008 2241552 2225698 2209744 
3669.732 2194365 2180169 2167522 2156427 2146550 2137559 2129270 2121718 
3673.589 2114941 2108583 2102025 2094220 2084205 2071412 2056173 2039611 
3677.447 2023467 2009282 1998006 1989666 1983101 1976757 1969004 1959040 
3681.304 1946876 1933647 1921145 1911172 1905062 1903286 1905129 1909023 
3685.161 1912868 1914354 1911639 1903681 1890406 1872803 1852490 1831470 
3689.019 1811435 1793561 1778157 1764926 1753486 1743675 1735877 1730997 
3692.876 1730110 1733848 1741980 1753208 1765430 1776244 1783656 1786787 
3696.734 1785844 1782101 1777291 1772840 1769453 1767044 1764499 1760775 
3700.591 1754918 1746532 1736023 1724285 1712557 1702240 1694340 1689674 
3704.448 1688629 1691069 1696301 1702999 1709463 1713943 1714700 1710863 
3708.306 1702505 1690644 1677042 1663736 1652389 1644245 1639602 1638324 
3712.163 1639941 1643944 1649924 1657510 1666080 1674814 1682394 1687713 
3716.021 1690072 1689706 1687723 1686087 1686928 1691591 1700377 1712018 
3719.878 1724248 1734588 1741255 1743861 1743738 1743328 1745399 1751923 
3723.736 1763349 1778285 1793925 1806862 1814224 1814321 1807114 1794200 
3727.593 1778024 1761483 1746925 1736024 1729467 1727080 1727891 1730362 
3731.450 1732760 1733209 1730084 1722407 1710016 1693660 1674926 1655915 
3735.308 1638626 1624772 1615292 1610524 1610394 1614454 1622443 1634201 
3739.165 1649391 1667341 1686687 1705526 1721579 1732814 1737899 1736983 
3743.023 1731479 1724205 1718535 1717653 1723668 1736921 1755974 1778008 
3746.880 1799323 1816365 1826192 1827356 1819929 1805568 1787134 1767981 
3750.738 1751212 1739139 1732754 1731758 1734859 1740109 1745498 1749708 
3754.595 1751932 1752371 1751766 1751236 1751649 1753485 1756277 1759170 
3758.452 1760806 1760188 1756851 1751145 1744369 1738018 1733140 1729999 
3762.310 1727563 1723992 1717119 1705569 1689632 1671513 1654928 1644314 
3766.167 1643303 1653509 1674172 1701919 1732112 1759680 1780684 1792969 
3770.025 1796482 1792784 1784323 1773675 1762949 1753599 1746356 1741626 
3773.882 1739334 1739265 1740903 1743527 1746557 1749473 1752100 1754765 
3777.740 1757797 1761577 1765965 1770279 1773403 1774275 1772298 1767725 
3781.597 1761656 1755548 1750908 1748382 1747794 1748030 1747593 1745205 
3785.454 1740243 1733074 1724509 1715727 1707489 1700098 1693339 1686884 
3789.312 1680795 1675757 1672887 1673328 1677805 1686014 1696269 1706109 
3793.169 1712561 1713401 1707433 1695201 1678521 1660264 1643287 1629826 
3797.027 1620949 1616556 1615694 1616941 1619231 1622017 1625477 1630350 
3800.884 1637463 1647402 1660168 1675026 1690767 1705915 1719107 1729425 
3804.741 1736396 1740259 1741652 1741554 1741099 1741448 1743491 1747894 
3808.599 1754887 1764331 1775564 1787541 1798883 1808174 1813930 1814977 
3812.456 1810597 1800596 1785421 1766079 1744053 1721029 1698640 1678151 
3816.314 1660495 1645940 1634461 1625968 1620617 1618802 1621179 1628310 
3820.171 1640160 1655760 1673258 1690072 1703743 1712441 1715512 1713667 
3824.029 1708661 1702718 1697760 1695030 1694692 1696430 1699424 1703033 
3827.886 1706925 1711163 1715942 1721196 1726528 1731208 1734170 1734542 
3831.743 1731862 1726152 1718004 1708456 1698648 1689892 1683110 1679137 
3835.601 1678373 1680894 1686396 1694172 1703427 1713213 1722525 1730645 
3839.458 1736839 1740400 1740657 1737018 1729366 1717982 1703973 1689074 
3843.316 1675291 1664401 1657535 1654603 1654708 1656331 1657877 1658432 
3847.173 1657816 1656582 1655708 1656057 1658003 1661522 1666265 1671872 
3851.031 1678087 1685026 1692766 1701191 1710083 1718732 1726443 1732659 
3854.888 1737173 1740100 1741506 1741452 1739694 1735896 1729863 1721852 
3858.745 1712729 1703668 1695975 1690541 1687574 1686699 1686948 1687573 
3862.603 1687900 1687697 1686666 1684562 1680672 1674221 1664768 1652622 
3866.460 1639257 1626965 1618254 1615169 1618463 1627504 1640355 1654801 
3870.318 1668851 1681481 1692392 1701712 1709156 1713905 1714534 1709872 
3874.175 1699543 1684791 1668298 1653696 1644383 1642604 1648710 1661201 
3878.032 1677200 1693230 1705852 1712504 1711496 1702215 1685256 1662555 
3881.890 1637149 1613157 1594967 1586334 1589427 1603967 1627141 1654444 
3885.747 1680692 1701657 1715098 1721100 1721470 1718834 1715467 1712569 
3889.605 1710230 1707734 1704169 1698990 1692597 1685774 1679666 1675392 
3893.462 1673633 1674478 1677657 1682413 1687718 1692399 1695359 1695869 
3897.320 1693836 1689871 1685306 1681718 1680321 1681364 1683986 1686374 
3901.177 1686348 1682313 1673681 1661340 1647233 1633790 1623204 1616992 
3905.034 1615912 1620096 1629389 1643600 1662389 1684860 1709353 1733306 
3908.892 1753696 1767419 1772310 1767540 1754025 1734013 1710504 1686821 
3912.749 1665742 1649385 1639049 1635283 1637855 1645994 1658143 1672537 
3916.607 1687211 1700684 1712011 1721178 1728760 1735545 1742003 1748121 
3920.464 1753402 1757109 1758848 1758775 1757771 1756857 1756824 1757683 
3924.322 1758451 1757314 1752300 1742121 1726513 1706553 1684527 1663445 
3928.179 1646105 1634769 1630698 1633882 1643245 1656701 1671582 1685244 
3932.036 1695345 1700566 1700920 1697666 1693004 1689301 1688350 1690664 
3935.894 1695322 1700417 1703602 1703047 1698248 1690127 1680700 1672537 
3939.751 1667720 1667528 1671701 1679105 1687857 1696202 1702860 1707476 
3943.609 1710350 1712328 1714306 1716879 1720086 1723518 1726318 1727744 
3947.466 1727400 1725603 1723316 1721954 1722799 1726618 1733135 1741015 
3951.323 1748132 1752273 1751879 1746628 1737513 1726888 1717346 1711243 
3955.181 1709837 1712970 1719230 1726417 1732282 1735063 1733976 1729312 
3959.038 1722302 1714641 1708237 1704655 1704982 1709511 1717567 1727987 
3962.896 1739046 1749087 1756676 1761215 1762717 1761617 1758699 1754505 
3966.753 1749195 1742729 1734974 1726154 1717094 1709227 1704162 1703372 
3970.611 1707445 1715918 1727051 1738493 1747745 1752824 1752811 1748035 
3974.468 1739841 1730221 1721305 1714808 1712062 1713561 1719385 1729044 
3978.325 1741663 1756069 1770840 1784443 1795332 1802306 1804657 1802423 
3982.183 1796402 1787980 1778930 1770944 1765397 1763144 1764291 1768413 
3986.040 1774724 1782185 1789781 1796552 1801749 1804891 1805670 1804366 
3989.898 1801578 1798323 1795721 1794869 1796462 1800649 1806988 1814787 
3993.755 1823243 1831982 1840951 1850591 1861292 1873133 1885500 1897067 
3997.613 1906133 1910997 1910451 1904224 1893093 1878665 1863029 
##END=
