##TITLE=Flashforge_PLA_White_Filament_r4_ATR-Corrected
##JCAMP-DX=5.01  $$ Nicolet v. 1
##DATATYPE=INFRARED SPECTRUM
##ORIGIN=Curtin University
##OWNER=Nicolet
##LONGDATE=2024/07/10
##TIME=10:59:33
##SPECTROMETER/DATA SYSTEM=Nicolet iS50
##DATA PROCESSING=
Ratio against background
%Transmittance->Absorbance
ATR Correction
Truncated
ElementMultiply or ElementDivide
##COMMENTS=
Number of sample scans: 32
Collection length: 47.27 sec
Sample gain: 1.0
Background collected on: Wed Jul 10 10:58:01 2024 (GMT+08:00);
Number of background scans: 32
Background gain: 1.0
Sample spacing:  1.000
Number of scan points: 16672
Resolution points: 8192
Number of FFT points: 65536
Apodization: N-B strong;
Phase correction: Mertz;
Laser frequency: 15798.3 cm-1
Number of rejected sample scans: 0
Number of rejected background scans: 0
Bench serial number: AUP1200105;
##RESOLUTION=4.000
##XUNITS=1/CM
##YUNITS=ABSORBANCE
##FIRSTX=400.163452
##LASTX=4000.187744
##FIRSTY=0.064598
##MAXX=4000.187744
##MINX=400.163452
##MAXY=1.192373
##MINY=-0.017244
##XFACTOR=1.000000
##YFACTOR=1.000000E-008
##NPOINTS=7468
##DELTAX=0.482125
##ZPD=8192
##XYDATA=(X++(Y..Y))
400.163 6459784 6322542 6181383 6046792 5927861 5832180 5763644 5721171 
404.020 5699390 5690141 5684891 5676721 5661429 5637050 5603071 5558857 
407.877 5503331 5434934 5352849 5257948 5153307 5043693 4934544 4830350 
411.734 4733842 4645711 4565191 4490976 4422012 4357675 4297749 4241905 
415.591 4189608 4139995 4092311 4045935 4000374 3954620 3906976 3854638 
419.448 3794557 3724542 3644745 3558443 3471850 3392639 3328010 3282477 
423.305 3256836 3248155 3251215 3260399 3271336 3281331 3289087 3293509 
427.162 3293062 3285605 3269409 3244298 3212673 3179214 3149690 3128790 
431.019 3118498 3117305 3121187 3125296 3126828 3125756 3125019 3128782 
434.876 3140109 3158962 3181594 3201586 3212261 3209111 3191649 3163216 
438.733 3129487 3095819 3065121 3036747 3007309 2972624 2930300 2881469 
442.590 2831195 2787141 2757228 2747001 2757956 2787025 2827718 2871997 
446.447 2912430 2943770 2963567 2971724 2969595 2958815 2940814 2916585 
450.304 2887161 2854025 2819389 2785953 2756436 2732719 2715477 2703912 
454.161 2696164 2689908 2683086 2674363 2663336 2650244 2635702 2620174 
458.017 2603862 2586682 2568537 2549466 2529912 2510549 2492269 2475826 
461.874 2461772 2450359 2441681 2435497 2432329 2432430 2435988 2442805 
465.731 2452107 2462444 2471809 2478017 2479233 2474316 2463227 2446946 
469.588 2427202 2405955 2384853 2364841 2346029 2327870 2309551 2290413 
473.445 2270284 2249489 2228707 2208607 2189570 2171577 2154406 2137887 
477.302 2122288 2108374 2097274 2090028 2087065 2087769 2090481 2092779 
481.159 2092181 2086800 2075883 2059932 2040474 2019577 1999387 1981701 
485.016 1967893 1958847 1955012 1956377 1962349 1971630 1982339 1992214 
488.873 1999152 2001675 1999309 1992637 1983023 1972089 1961308 1951685 
492.730 1943846 1938253 1935460 1935933 1940519 1949277 1961397 1974963 
496.587 1987242 1995376 1997150 1991697 1979829 1963827 1946925 1932499 
500.444 1923410 1921452 1927175 1939845 1957672 1978020 1997881 2014264 
504.301 2024801 2028225 2024693 2015724 2003804 1991633 1981348 1973920 
508.158 1968977 1965118 1960565 1953814 1944208 1932047 1918427 1904814 
512.015 1892665 1883145 1877088 1875016 1877242 1883796 1894374 1908195 
515.871 1924014 1940217 1955085 1967078 1975051 1978240 1976289 1969065 
519.728 1956667 1939493 1918398 1894764 1870470 1847517 1827595 1811635 
523.585 1799559 1790346 1782482 1774363 1765299 1755288 1745125 1736010 
527.442 1729049 1724745 1722836 1722194 1721131 1717683 1710074 1697103 
531.299 1678488 1655045 1628753 1602518 1579725 1563576 1556404 1559146 
535.156 1571142 1590272 1613519 1637646 1659867 1678193 1691617 1699881 
539.013 1703218 1702067 1696973 1688496 1677317 1664127 1649636 1634429 
542.870 1618911 1603345 1587963 1573173 1559624 1548147 1539623 1534614 
546.727 1533262 1535181 1539622 1545760 1552901 1560627 1568729 1576989 
550.584 1585017 1592136 1597526 1600436 1600520 1597894 1593174 1587169 
554.441 1580599 1573830 1566856 1559330 1551185 1542522 1533901 1526178 
558.298 1520323 1517144 1517088 1520205 1526305 1535080 1546252 1559618 
562.155 1574976 1591917 1609778 1627546 1643951 1657624 1667350 1672283 
566.012 1672134 1667321 1658960 1648809 1639027 1631857 1629179 1632084 
569.869 1640537 1653312 1668216 1682494 1693530 1699406 1699395 1694085 
573.725 1685205 1675185 1666589 1661484 1661070 1665404 1673496 1683655 
577.582 1693893 1702532 1708627 1712201 1714297 1716647 1721206 1729652 
581.439 1742851 1760659 1781998 1805113 1828121 1849412 1868008 1883560 
585.296 1896254 1906440 1914393 1920147 1923526 1924344 1922676 1919054 
589.153 1914503 1910409 1908192 1908942 1913162 1920600 1930409 1941393 
593.010 1952407 1962656 1971958 1980680 1989592 1999518 2011025 2024151 
596.867 2038363 2052645 2065774 2076666 2084665 2089666 2092172 2093050 
600.724 2093253 2093562 2094390 2095757 2097528 2099549 2102067 2105737 
604.581 2111594 2120738 2133933 2151181 2171610 2193514 2214876 2233881 
608.438 2249639 2262398 2273622 2285495 2300312 2319731 2344355 2373581 
612.295 2405920 2439411 2472179 2502771 2530306 2554362 2574917 2592181 
616.152 2606681 2619307 2631386 2644527 2660296 2679730 2702958 2729003 
620.009 2756000 2781744 2804395 2823104 2838272 2851386 2864493 2879464 
623.866 2897465 2918688 2942508 2967920 2993993 3020257 3046692 3073586 
627.723 3101118 3129116 3156932 3183568 3208018 3229559 3248028 3263833 
631.579 3277793 3290880 3303955 3317582 3331967 3347035 3362541 3378234 
635.436 3393891 3409422 3424838 3440223 3455723 3471433 3487400 3503541 
639.293 3519642 3535405 3550530 3564812 3578280 3591211 3604117 3617653 
643.150 3632351 3648543 3666196 3684907 3704043 3722868 3740809 3757591 
647.007 3773285 3788279 3803132 3818398 3834465 3851499 3869512 3888433 
650.864 3908248 3929046 3950964 3974026 3997981 4022174 4045591 4067096 
654.721 4085827 4101544 4114842 4127109 4140140 4155584 4174397 4196483 
658.578 4220704 4245227 4268158 4288123 4304691 4318369 4330393 4342146 
662.435 4354691 4368460 4383224 4398286 4412834 4426246 4438299 4449143 
666.292 4459236 4469220 4479802 4491718 4505710 4522434 4542367 4565588 
670.149 4591654 4619504 4647528 4673849 4696650 4714564 4726960 4734149 
674.006 4737334 4738405 4739689 4743474 4751681 4765428 4784855 4808999 
677.863 4836027 4863550 4889139 4910922 4927854 4939950 4948151 4953975 
681.720 4959043 4964734 4971932 4981056 4992189 5005243 5020153 5036807 
685.577 5055054 5074534 5094712 5114896 5134451 5153003 5170569 5187607 
689.433 5204827 5222986 5242555 5263554 5285502 5307506 5328557 5347780 
693.290 5364717 5379442 5392568 5405048 5417971 5432249 5448457 5466622 
697.147 5486309 5506735 5526957 5546052 5563347 5578335 5590777 5600535 
701.004 5607528 5611708 5613057 5611676 5607819 5601870 5594323 5585591 
704.861 5575959 5565478 5553994 5541203 5526760 5510332 5491698 5470668 
708.718 5447174 5421214 5392908 5362564 5330544 5297200 5262673 5226692 
712.575 5188434 5146599 5099645 5046230 4985565 4917695 4843481 4764328 
716.432 4681758 4596974 4510559 4422507 4332493 4240205 4145791 4050006 
720.289 3954199 3860043 3769226 3683123 3602609 3528072 3459533 3396828 
724.146 3339822 3288511 3243103 3203998 3171771 3147054 3130551 3122897 
728.003 3124676 3136387 3158496 3191496 3236005 3292784 3362723 3446684 
731.860 3545264 3658511 3785650 3924991 4073913 4229151 4387124 4544466 
735.717 4698391 4847033 4989502 5125793 5256498 5382401 5504156 5621970 
739.574 5735622 5844471 5947811 6045158 6136556 6222649 6304645 6384056 
743.431 6462341 6540622 6619506 6699098 6779204 6859607 6940325 7021751 
747.287 7104625 7189867 7278341 7370659 7467007 7567075 7670054 7774687 
751.144 7879317 7981983 8080540 8172802 8256747 8330651 8393199 8443389 
755.001 8480519 8503862 8512641 8505923 8482708 8442149 8383759 8307605 
758.858 8214326 8105120 7981550 7845420 7698665 7543266 7381236 7214665 
762.715 7045612 6876092 6707939 6542748 6381785 6225971 6075861 5931687 
766.572 5793359 5660540 5532704 5409252 5289661 5173585 5060912 4951767 
770.429 4846328 4744682 4646667 4551783 4459322 4368466 4278571 4189350 
774.286 4100973 4014061 3929466 3848054 3770401 3696634 3626357 3558687 
778.143 3492385 3426095 3358566 3288871 3216538 3141680 3064952 2987419 
782.000 2910375 2835082 2762515 2693214 2627236 2564234 2503669 2445052 
785.857 2388118 2332936 2279844 2229213 2181208 2135470 2091067 2046589 
789.714 2000458 1951426 1899065 1844102 1788438 1734828 1686216 1645010 
793.571 1612422 1588145 1570545 1557105 1545265 1533065 1519577 1504911 
797.428 1489788 1475076 1461249 1448233 1435576 1422830 1410009 1397799 
801.285 1387438 1380273 1377159 1377940 1381519 1385973 1389269 1389988 
805.141 1387851 1383869 1379973 1378350 1380709 1387677 1398601 1411718 
808.998 1424721 1435339 1441906 1443726 1441047 1434857 1426580 1417581 
812.855 1408911 1401090 1394113 1387617 1381139 1374407 1367575 1361286 
816.712 1356542 1354493 1356064 1361677 1371206 1383976 1399012 1415301 
820.569 1432016 1448619 1464722 1480012 1494106 1506482 1516603 1524134 
824.426 1529109 1532025 1533783 1535496 1538258 1542859 1549700 1558828 
828.283 1569981 1582747 1596693 1611425 1626635 1642159 1658025 1674536 
832.140 1692276 1712093 1734957 1761757 1793147 1829329 1869957 1914335 
835.997 1961460 2010375 2060306 2110850 2161996 2214117 2267783 2323691 
839.854 2382429 2444379 2509713 2578376 2650163 2724855 2802153 2881632 
843.711 2962494 3043384 3122259 3196511 3263370 3320475 3366544 3401742 
847.568 3427744 3447327 3463714 3479826 3497823 3519057 3544449 3575066 
851.425 3612650 3659901 3720206 3797119 3893679 4011881 4152493 4315161 
855.282 4498784 4701814 4922384 5158246 5406506 5663492 5924901 6186106 
859.139 6442785 6691424 6929683 7156322 7370938 7573378 7763407 7940420 
862.995 8103462 8251444 8383359 8498511 8596592 8677610 8741862 8789818 
866.852 8821964 8838764 8840468 8827087 8798348 8753827 8693144 8616222 
870.709 8523419 8415524 8293554 8158429 8010725 7850603 7678023 7493229 
874.566 7297098 7091450 6878891 6662410 6444781 6228091 6013520 5801595 
878.423 5592578 5387041 5186051 4991146 4803988 4625943 4457820 4299954 
882.280 4152565 4016235 3892171 3782217 3688446 3612478 3554990 3515339 
886.137 3491678 3481343 3481341 3488776 3501094 3516070 3531855 3546975 
889.994 3560540 3572405 3583225 3594297 3606973 3622127 3639630 3658259 
893.851 3676015 3690874 3701456 3707592 3710205 3710845 3710940 3711084 
897.708 3710851 3708968 3703985 3695032 3682277 3667042 3651357 3637405 
901.565 3626836 3620449 3618093 3618920 3621650 3624972 3627688 3628846 
905.422 3627805 3624417 3619033 3612611 3606562 3602417 3601391 3604043 
909.279 3609942 3617917 3626310 3633543 3638558 3640963 3641049 3639470 
913.136 3636935 3634075 3631379 3629323 3628472 3629443 3632708 3638270 
916.993 3645418 3652722 3658299 3660303 3657515 3649753 3637860 3623546 
920.849 3608717 3595001 3583320 3573816 3566062 3559339 3553037 3546771 
924.706 3540456 3534136 3527934 3521973 3516485 3511875 3508792 3508051 
928.563 3510367 3516193 3525412 3537384 3551048 3565240 3579038 3591981 
932.420 3604128 3615883 3627735 3640032 3652838 3665960 3679137 3692292 
936.277 3705581 3719510 3734700 3751755 3770960 3792268 3815273 3839422 
940.134 3864137 3889027 3913948 3939022 3964459 3990560 4017590 4045809 
943.991 4075466 4106866 4140305 4176075 4214379 4255277 4298689 4344424 
947.848 4392329 4442325 4494456 4548884 4605748 4665025 4726415 4789288 
951.705 4852649 4915266 4975763 5032708 5084701 5130322 5168085 5196380 
955.562 5213437 5217410 5206458 5179026 5134083 5071387 4991663 4896664 
959.419 4789081 4672327 4550171 4426421 4304516 4187294 4076805 3974319 
963.276 3880318 3794759 3717157 3646897 3583380 3526153 3474955 3429732 
967.133 3390496 3357247 3329855 3307988 3291121 3278562 3269608 3263561 
970.990 3259846 3257994 3257672 3258687 3260981 3264713 3270269 3278303 
974.847 3289545 3304663 3324027 3347483 3374396 3403737 3434442 3465705 
978.703 3497348 3529757 3563766 3600237 3639691 3682028 3726549 3772243 
982.560 3818146 3863738 3909201 3955212 4002738 4052569 4105026 4159783 
986.417 4216071 4272928 4329515 4385445 4440736 4495752 4551092 4607262 
990.274 4664587 4723169 4782878 4843439 4904515 4965770 5026955 5088059 
994.131 5149328 5211329 5274889 5340903 5410139 5483035 5559614 5639555 
997.988 5722439 5807984 5896244 5987645 6082879 6182621 6287355 6397258 
1001.845 6512251 6632297 6757531 6888525 7026089 7171188 7324537 7486517 
1005.702 7657014 7835704 8022308 8216924 8420239 8633496 8858236 9096072 
1009.559 9348356 9615978 9899424 10198849 10514181 10845303 11192027 
1012.934 11554171 11931498 12323757 12730704 13152143 13587864 14037570 
1016.309 14500649 14975987 15461868 15955998 16455671 16958200 17461108 
1019.683 17962524 18461232 18956522 19447910 19934884 20416656 20892210 
1023.058 21360506 21820798 22273036 22718122 23157988 23595534 24034352 
1026.433 24478414 24931850 25398806 25883294 26389208 26920336 27480150 
1029.809 28071734 28697520 29358998 30056522 30789124 31554564 32349408 
1033.184 33169240 34008932 34862888 35725100 36589236 37448556 38295856 
1036.559 39123488 39923460 40687712 41408496 42078708 42692192 43243788 
1039.934 43729396 44145788 44490696 44762688 44961364 45087392 45142560 
1043.310 45129560 45051704 44912840 44717132 44469344 44175136 43841236 
1046.685 43475384 43085896 42680896 42267516 41851396 41436568 41026048 
1050.060 40622388 40228412 39847464 39483024 39138116 38814516 38512368 
1053.435 38230240 37965952 37717520 37484156 37266724 37067824 36891252 
1056.811 36741372 36622624 36539496 36496784 36500036 36555992 36672436 
1060.186 36857720 37119904 37465872 37900512 38426484 39044300 39752880 
1063.561 40550120 41433364 42399660 43445756 44567900 45761572 47021380 
1066.936 48341148 49714100 51133364 52592408 54085624 55608748 57158952 
1070.312 58734648 60334880 61958356 63602484 65262644 66932040 68602376 
1073.687 70264784 71911152 73535064 75131928 76698584 78232320 79730024 
1077.062 81187568 82599464 83959208 85258928 86489096 87637808 88690336 
1080.437 89629448 90436784 91095200 91591200 91916832 92070264 92054840 
1083.813 91877360 91546240 91070664 90460096 89724776 88876024 87926336 
1087.188 86889032 85777584 84605184 83384352 82126976 80844088 79545712 
1090.563 78240304 76934344 75632192 74336416 73048528 71769856 70502328 
1093.938 69248592 68011632 66794060 65597296 64421140 63263964 62123208 
1097.313 60996212 59881036 58776796 57683736 56602792 55535184 54481988 
1100.689 53443884 52421224 51414132 50422980 49448508 48492088 47555792 
1104.064 46642256 45754488 44895604 44068540 43275896 42519892 41802516 
1107.439 41125844 40492104 39903720 39363204 38872744 38433768 38046632 
1110.814 37710472 37423344 37182672 36985504 36828880 36709992 36626140 
1114.190 36574632 36552708 36557740 36587416 36640120 36715184 36812912 
1117.565 36934400 37080996 37253948 37454020 37681328 37935420 38215556 
1120.940 38520700 38849492 39199860 39568560 39950616 40339024 40724808 
1124.315 41097524 41446000 41759296 42027616 42242996 42399680 42494208 
1127.691 42525120 42492516 42397384 42241188 42025304 41750944 41419076 
1131.066 41030688 40586972 40089440 39539836 38940104 38292004 37597104 
1134.441 36856808 36072536 35246032 34379812 33477226 32542542 31580772 
1137.816 30597422 29598322 28589458 27576902 26566884 25565800 24580156 
1141.192 23616488 22681094 21779764 20917538 20098448 19325318 18599982 
1144.567 17923270 17295376 16716038 16184856 15701315 15264836 14874603 
1147.942 14529511 14228041 13968192 13747649 13563876 13414297 13296475 
1151.317 13208239 13147666 13113096 13103154 13116586 13152353 13209595 
1154.693 13287538 13385573 13503148 13639793 13795075 13968715 14160532 
1158.068 14370640 14599350 14847168 15114716 15402639 15711558 16042222 
1161.443 16395651 16773413 17177836 17612114 18080230 18586724 19136492 
1164.818 19734546 20385994 21096168 21870802 22716190 23639272 24647348 
1168.194 25747774 26947504 28252726 29668754 31199860 32849398 34619712 
1171.569 36511876 38525160 40656272 42898468 45241036 47668500 50160296 
1174.944 52690588 55228192 57736696 60175132 62499000 64662188 66619448 
1178.319 68329128 69755856 70872600 71662328 72118976 72247800 72065120 
1181.695 71597200 70878128 69946696 68842896 67604872 66266680 64857524 
1185.070 63402056 61921376 60434120 58957048 57505196 56091304 54725276 
1188.445 53413896 52160788 50967272 49833084 48757416 47739540 46778972 
1191.820 45875400 45028240 44236344 43497804 42810164 42170624 41576524 
1195.196 41025536 40515860 40046076 39614956 39221284 38863716 38540740 
1198.571 38250752 37992032 37762828 37561120 37384648 37230728 37096248 
1201.946 36977888 36872272 36776252 36687128 36602600 36520944 36440572 
1205.321 36359836 36276724 36188720 36092772 35985420 35863104 35722436 
1208.697 35560568 35375412 35165672 34930848 34671072 34386884 34079096 
1212.072 33748616 33396352 33023200 32630018 32217752 31787432 31340394 
1215.447 30878312 30403320 29917952 29425008 28927374 28427828 27928806 
1218.822 27432310 26939916 26452718 25971446 25496518 25028110 24566320 
1222.198 24111274 23663304 23223068 22791492 22369668 21958694 21559366 
1225.573 21172040 20796694 20433040 20080784 19739934 19410812 19094026 
1228.948 18790158 18499396 18221376 17955094 17699136 17452194 17213450 
1232.323 16982960 16761656 16551130 16353057 16168639 15998161 15840815 
1235.698 15694828 15557793 15427232 15301147 15178248 15058124 14941064 
1239.074 14827821 14719246 14616042 14518543 14426668 14339997 14257818 
1242.449 14179330 14103751 14030436 13959000 13889362 13821808 13756901 
1245.824 13695428 13638201 13586031 13539404 13498540 13463329 13433388 
1249.199 13408341 13387883 13372044 13361195 13356017 13357294 13365692 
1252.575 13381502 13404495 13433871 13468508 13507088 13548477 13591956 
1255.950 13637289 13684723 13734697 13787694 13843894 13903077 13964608 
1259.325 14027517 14090666 14152965 14213486 14271472 14326413 14377952 
1262.700 14425805 14469680 14509216 14543895 14573076 14595950 14611593 
1266.076 14619109 14617646 14606456 14584945 14552608 14509007 14453754 
1269.451 14386481 14306881 14214797 14110194 13993180 13863924 13722512 
1272.826 13568923 13402978 13224480 13033447 12830256 12615833 12391611 
1276.201 12159342 11920895 11677914 11431617 11182728 10931613 10678512 
1279.577 10423815 10168251 9913000 9659666 9410036 9165968 8929152 8701068 
1283.434 8483031 8276193 8081644 7900430 7733468 7581483 7444943 7324056 
1287.292 7218830 7129264 7055413 6997517 6955945 6931028 6922903 6931253 
1291.149 6955249 6993481 7044076 7104827 7173442 7247580 7325098 7403983 
1295.006 7482470 7558964 7632124 7700856 7764479 7822663 7875480 7923354 
1298.864 7966875 8006693 8043256 8076762 8107099 8133954 8156945 8175737 
1302.721 8190243 8200575 8207004 8209860 8209418 8205874 8199311 8189872 
1306.579 8177793 8163456 8147452 8130415 8112929 8095444 8078139 8061010 
1310.436 8043875 8026525 8008809 7990760 7972523 7954433 7936865 7920286 
1314.293 7905023 7891270 7879049 7868135 7858213 7848929 7840080 7831748 
1318.151 7824406 7818722 7815585 7815684 7819327 7826335 7836032 7847434 
1322.008 7859554 7871601 7883230 7894598 7906192 7918758 7933078 7949906 
1325.866 7969897 7993725 8021980 8055247 8094010 8138534 8188808 8244526 
1329.723 8305188 8370219 8439101 8511543 8587468 8667029 8750486 8838177 
1333.581 8930379 9027255 9128858 9235045 9345514 9459781 9577328 9697559 
1337.438 9820040 9944551 10071167 10200296 10332654 10469024 10610300 
1340.813 10757127 10909994 11069031 11234073 11404823 11580855 11761864 
1344.188 11947799 12138893 12335619 12538585 12748310 12965006 13188422 
1347.564 13417849 13652162 13889988 14129888 14370507 14610524 14848617 
1350.939 15083322 15312940 15535493 15748794 15950653 16139014 16312280 
1354.314 16469406 16609995 16734278 16842916 16936802 17016722 17083232 
1357.689 17136530 17176602 17203472 17217436 17219418 17210964 17194128 
1361.065 17171172 17144162 17114680 17083642 17051274 17017288 16980996 
1364.440 16941366 16896970 16845854 16785448 16712557 16623595 16514972 
1367.815 16383700 16227898 16047318 15843646 15620700 15384336 15142393 
1371.190 14904447 14681384 14485016 14327431 14220206 14173582 14195472 
1374.566 14290750 14460520 14701973 15008342 15369347 15771843 16200602 
1377.941 16639251 17071250 17480904 17854228 18179386 18446982 18649932 
1381.316 18783192 18843562 18829596 18741620 18581700 18353676 18062764 
1384.691 17715296 17318290 16879108 16405214 15903999 15382460 14847000 
1388.067 14303109 13755150 13206472 12659438 12115739 11576758 11043761 
1391.442 10518150 10001532 9495881 9003622 8527653 8071352 7638310 7231906 
1395.299 6854884 6508790 6193829 5908791 5651356 5418625 5207571 5015538 
1399.157 4840436 4680761 4535440 4403522 4283948 4175400 4076349 3985222 
1403.014 3900659 3821670 3747710 3678681 3614599 3555442 3500897 3450413 
1406.872 3403224 3358587 3315961 3275144 3236261 3199586 3165397 3133811 
1410.729 3104723 3077901 3053156 3030430 3009909 2991982 2977116 2965680 
1414.586 2957803 2953306 2951714 2952404 2954695 2958109 2962314 2967349 
1418.444 2973458 2981090 2990742 3002870 3017785 3035631 3056402 3080020 
1422.301 3106423 3135560 3167469 3202142 3239591 3279798 3322773 3368672 
1426.159 3417914 3471140 3529155 3592800 3662744 3739350 3822776 3912960 
1430.016 4009976 4114102 4225862 4346040 4475458 4614880 4765081 4927003 
1433.874 5101998 5292069 5499904 5728738 5982036 6263213 6575328 6921180 
1437.731 7303314 7724229 8186204 8691122 9239885 9832007 10465324 11136054 
1441.588 11839107 12568459 13317415 14078619 14844011 15604769 16351649 
1444.964 17075450 17767846 18421816 19032032 19594530 20106522 20565994 
1448.339 20971652 21322984 21620512 21865588 22060288 22206790 22307066 
1451.714 22362416 22373614 22340940 22264348 22143498 21977740 21766092 
1455.089 21507404 21200784 20846184 20444828 19999366 19513562 18991748 
1458.465 18438226 17857126 17252518 16628794 15990886 15344220 14694317 
1461.840 14046167 13403788 12770143 12147313 11537181 10941788 10363735 
1465.215 9806021 9271714 8763445 8283044 7831423 7408535 7013592 6645292 
1469.073 6302038 5982216 5684332 5407138 5149716 4911308 4691279 4488799 
1472.930 4302905 4132451 3976266 3833355 3703006 3584632 3477723 3381381 
1476.787 3294349 3214965 3141397 3072092 3005990 2942762 2882562 2825925 
1480.645 2773262 2724694 2680037 2638881 2600881 2565892 2533992 2505338 
1484.502 2479956 2457521 2437287 2418274 2399406 2379869 2359255 2337628 
1488.360 2315447 2293367 2272042 2251966 2233439 2216422 2200703 2185861 
1492.217 2171443 2156972 2142091 2126687 2110883 2094929 2079204 2063949 
1496.074 2049250 2034969 2020907 2006926 1993128 1979923 1967900 1957652 
1499.932 1949519 1943385 1938686 1934564 1930141 1924886 1918708 1912056 
1503.789 1905687 1900402 1896638 1894329 1892810 1891053 1888030 1883038 
1507.647 1875975 1867376 1858202 1849528 1842175 1836506 1832373 1829231 
1511.504 1826441 1823537 1820383 1817170 1814280 1812007 1810366 1809049 
1515.362 1807441 1804966 1801295 1796548 1791230 1786053 1781670 1778301 
1519.219 1775737 1773306 1770164 1765623 1759334 1751452 1742521 1733269 
1523.076 1724395 1716439 1709680 1704225 1700061 1697098 1695134 1693839 
1526.934 1692775 1691410 1689269 1686083 1681860 1676924 1671817 1667078 
1530.791 1663130 1660091 1657814 1655874 1653797 1651130 1647540 1642894 
1534.649 1637209 1630691 1623659 1616514 1609725 1603704 1598759 1595006 
1538.506 1592259 1590184 1588274 1586065 1583290 1579818 1575716 1571166 
1542.364 1566264 1561123 1555760 1550247 1544714 1539404 1534557 1530346 
1546.221 1526720 1523338 1519691 1515108 1509101 1501470 1492454 1482703 
1550.078 1473206 1465000 1458969 1455593 1454806 1456030 1458302 1460490 
1553.936 1461612 1461076 1458870 1455510 1451837 1448768 1446951 1446587 
1557.793 1447425 1448796 1449983 1450421 1449808 1448176 1445675 1442381 
1561.651 1438249 1433158 1427102 1420349 1413620 1407976 1404505 1403969 
1565.508 1406440 1411233 1417035 1422402 1426143 1427744 1427461 1426101 
1569.365 1424627 1423689 1423351 1423081 1421982 1419292 1414626 1408325 
1573.223 1401324 1394856 1390173 1388144 1389065 1392671 1398277 1405055 
1577.080 1412221 1419201 1425672 1431437 1436346 1440269 1443104 1444801 
1580.938 1445519 1445661 1445823 1446660 1448750 1452396 1457523 1463682 
1584.795 1470183 1476276 1481396 1485245 1487867 1489582 1490814 1491954 
1588.653 1493284 1494948 1497038 1499667 1502960 1507090 1512133 1518016 
1592.510 1524376 1530752 1536602 1541479 1545224 1547988 1550170 1552271 
1596.367 1554768 1557976 1562051 1567023 1572890 1579694 1587451 1596151 
1600.225 1605617 1615545 1625476 1635037 1643976 1652371 1660543 1669025 
1604.082 1678281 1688508 1699564 1710961 1721940 1731782 1739965 1746407 
1607.940 1751427 1755684 1760059 1765388 1772290 1781062 1791588 1803463 
1611.797 1816114 1828950 1841565 1853833 1865927 1878163 1890914 1904323 
1615.655 1918192 1932023 1945055 1956597 1966098 1973449 1978896 1982907 
1619.512 1986075 1988864 1991577 1994307 1997023 1999684 2002209 2004563 
1623.369 2006692 2008561 2010165 2011592 2013137 2015136 2017974 2021800 
1627.227 2026372 2030952 2034468 2035787 2034117 2029363 2022299 2014320 
1631.084 2007120 2002091 1999924 2000320 2002175 2003912 2004019 2001463 
1634.942 1995992 1988082 1978708 1969017 1959935 1952036 1945522 1940271 
1638.799 1936071 1932673 1929914 1927684 1925966 1924761 1924092 1924003 
1642.656 1924489 1925474 1926705 1927863 1928602 1928697 1928192 1927474 
1646.514 1927170 1928065 1930794 1935600 1942250 1950127 1958357 1966144 
1650.371 1972946 1978555 1983216 1987430 1991781 1996810 2002862 2010010 
1654.229 2018127 2026925 2036080 2045319 2054530 2063850 2073542 2084055 
1658.086 2095808 2108996 2123387 2138293 2152627 2165163 2174922 2181556 
1661.944 2185510 2188011 2190736 2195490 2203560 2215496 2230933 2248818 
1665.801 2267691 2286129 2303042 2318001 2331184 2343389 2355683 2369162 
1669.658 2384692 2402550 2422339 2443067 2463324 2481752 2497407 2510130 
1673.516 2520663 2530526 2541584 2555518 2573332 2595108 2619971 2646474 
1677.373 2673100 2698711 2722757 2745328 2766982 2788457 2810419 2833372 
1681.231 2857676 2883538 2911179 2940785 2972480 3006246 3041873 3079014 
1685.088 3117208 3156130 3195439 3234923 3274345 3313394 3351676 3388827 
1688.946 3424691 3459448 3493682 3528349 3564515 3603179 3644964 3690126 
1692.803 3738556 3789925 3843900 3900223 3958710 4019321 4082116 4147156 
1696.660 4214645 4284854 4358251 4435393 4516815 4602911 4693863 4789621 
1700.518 4890044 4995155 5105243 5221113 5343848 5474766 5615123 5765847 
1704.375 5927460 6100047 6283317 6476862 6680375 6893717 7117074 7350897 
1708.233 7595803 7852549 8122027 8405255 8703323 9017486 9349037 9699228 
1712.090 10069095 10459307 10870111 11301321 11752493 12223337 12713917 
1715.465 13224977 13757859 14314301 14895880 15503459 16136874 16794978 
1718.841 17475998 18178402 18901418 19645574 20412388 21204012 22022396 
1722.216 22868868 23743860 24647510 25580036 26542448 27536648 28565138 
1725.591 29630244 30733492 31875378 33055630 34273852 35530312 36826116 
1728.966 38163132 39543268 40967872 42437808 43954076 45518912 47136708 
1732.342 48813716 50556784 52370940 54257224 56211508 58225556 60290068 
1735.717 62398428 64549468 66748076 69003240 71324400 73717776 76183792 
1739.092 78716976 81307880 83945648 86620392 89323128 92044144 94770464 
1742.467 97483608 100159744 102770816 105287360 107680120 109920512 
1745.360 111979864 113828768 115437864 116780640 117837320 118597784 
1748.253 119061992 119237304 119134296 118763136 118132568 117250920 
1751.146 116128864 114781032 113225696 111482384 109569024 107500328 
1754.040 105288360 102944744 100483504 97922592 95283616 92589488 89862120 
1757.415 87120112 84378384 81649256 78943976 76273960 73651352 71088192 
1760.790 68595448 66182100 63854848 61618216 59475304 57428044 55477404 
1764.165 53622848 51862156 50191224 48604712 47096632 45661568 44295232 
1767.541 42994636 41757636 40582068 39464984 38402300 37388724 36418376 
1770.916 35485212 34583676 33708788 32856008 32021242 31200472 30389916 
1774.291 29586160 28786352 27988478 27191206 26393894 25596202 24797858 
1777.666 23998610 23198164 22396510 21594114 20792212 19992902 19199058 
1781.042 18414064 17641490 16884788 16147050 15430817 14738125 14070429 
1784.417 13428645 12813263 12224402 11662132 11126580 10618249 10137910 
1787.792 9686404 9264310 8871463 8506693 8167998 7852739 7558482 7283274 
1791.649 7026227 6787126 6566325 6363920 6179378 6011367 5857797 5716241 
1795.507 5584281 5459863 5341470 5228003 5118839 5013673 4912606 4815978 
1799.364 4724392 4638448 4558567 4484559 4415711 4350580 4287537 4224905 
1803.222 4161515 4096878 4031241 3965512 3901063 3839333 3781772 3729452 
1807.079 3682994 3642360 3606800 3574926 3544916 3514833 3483178 3449000 
1810.937 3412168 3373117 3332499 3290760 3247995 3203904 3158251 3111225 
1814.794 3063939 3018389 2977190 2942755 2916705 2899032 2888125 2881050 
1818.651 2874421 2865245 2851727 2833310 2810625 2784821 2757213 2728787 
1822.509 2700232 2671915 2644250 2617611 2592372 2568608 2546032 2523762 
1826.366 2500593 2475265 2446835 2415016 2380378 2344152 2308042 2273957 
1830.224 2243493 2217821 2197452 2182123 2170869 2162043 2153457 2142658 
1834.081 2127417 2106011 2077865 2043593 2005088 1965073 1926734 1892720 
1837.938 1864856 1843612 1828160 1816719 1807049 1796908 1784698 1769602 
1841.796 1751682 1731654 1710672 1689822 1669902 1651075 1632910 1614483 
1845.653 1594766 1572879 1548616 1522439 1495647 1469784 1446386 1426462 
1849.511 1410212 1397225 1386710 1377999 1370976 1366066 1364080 1365441 
1853.368 1369881 1375992 1381556 1384047 1381605 1373627 1361191 1346493 
1857.226 1332302 1320759 1312867 1307987 1304508 1300256 1293435 1283247 
1861.083 1269742 1253738 1236345 1218639 1201643 1186439 1174370 1166996 
1864.940 1165693 1171123 1182642 1197914 1213586 1225839 1231641 1229501 
1868.798 1220006 1205264 1188154 1171170 1155910 1142745 1131406 1121615 
1872.655 1113783 1108980 1108800 1114360 1125622 1140993 1157623 1172038 
1876.513 1181309 1183751 1179480 1169885 1157357 1143965 1131081 1118893 
1880.370 1106656 1093284 1077981 1060740 1042735 1025913 1012814 1005446 
1884.228 1005236 1012137 1024741 1040416 1055956 1068137 1074599 1074126 
1888.085 1066941 1054377 1038602 1021915 1006605 994421 986812 984888 989402 
1892.425 1000646 1018336 1041070 1066688 1092048 1113921 1129336 1136336 
1896.282 1134357 1124063 1107227 1086048 1062889 1039947 1018860 1001030 
1900.139 987381 978276 973381 972002 972688 974096 975076 975164 974632 
1904.479 974202 974378 975245 975868 974709 970072 960880 947336 931237 
1908.819 915228 902450 895137 894313 899268 908298 919344 931050 943154 
1913.158 956503 972460 991854 1013992 1036692 1055965 1067270 1066696 
1917.016 1052562 1025840 990785 953632 921304 899219 890032 892539 902265 
1921.355 912724 917568 912544 896995 874183 850278 832149 825550 832566 
1925.695 851497 876987 902053 920017 926356 919534 901031 874229 843651 
1930.034 813651 788501 771998 767683 778276 805280 847326 900072 956032 
1934.374 1006168 1041616 1056692 1049909 1024664 987629 946457 906933 871665 
1938.714 839748 808735 776499 743825 714487 694955 691184 706564 739269 
1943.053 782834 826865 861317 878845 877689 861684 839429 820711 813795 
1947.393 822597 845763 877125 908162 930076 936942 926714 901659 867133 
1951.732 829830 795104 766008 742157 721199 699805 676409 651623 629450 
1956.072 615249 614382 629360 659230 698910 741266 779327 808928 829643 
1960.412 845314 860983 881679 909852 945221 985247 1027364 1069147 1109870 
1964.751 1148574 1184256 1214058 1235067 1244533 1242398 1231267 1216413 
1968.609 1203110 1195062 1191946 1191133 1187869 1180353 1169794 1162490 
1972.466 1166968 1190555 1236612 1303550 1385263 1475361 1569270 1667965 
1976.323 1774208 1891378 2017430 2143109 2252915 2329414 2358798 2335584 
1980.181 2262460 2149567 2010170 1859440 1711446 1579437 1474179 1403507 
1984.038 1370526 1372757 1401956 1446009 1491927 1530293 1557412 1577209 
1987.896 1597476 1625551 1663301 1703949 1732951 1732503 1687799 1593468 
1991.753 1455910 1292772 1127562 983466 876793 815116 796602 813161 854007 
1996.093 908831 967784 1022955 1066186 1090567 1090582 1064638 1015382 
1999.950 950225 879427 813625 760792 726168 710597 713906 734638 772237 
2004.290 825831 893742 971218 1050797 1122865 1178325 1209972 1215942 
2008.147 1197850 1160834 1111619 1057852 1007152 967758 945605 944060 960198 
2012.487 985334 1006091 1009909 990173 951389 909473 887880 907897 980589 
2016.826 1099646 1243039 1380100 1484747 1543932 1564363 1567577 1580688 
2020.684 1622391 1694728 1779576 1847070 1866168 1818670 1705697 1547285 
2024.541 1375041 1221277 1108163 1044090 1022661 1030052 1049478 1067510 
2028.399 1074798 1066474 1039706 994969 935635 870034 810577 771693 763644 
2032.738 789447 840580 901322 952910 981884 985526 972693 959542 963726 
2037.078 996316 1059857 1146640 1243918 1337268 1414767 1468411 1493547 
2040.935 1486845 1446480 1371122 1263156 1128456 978693 828265 692587 584082 
2045.275 510684 474946 476333 512845 581685 678696 796425 921724 1037682 
2049.615 1125995 1172890 1173476 1133252 1066360 991532 926661 884571 869897 
2053.954 879351 903476 930942 952619 964307 966750 964139 960968 960552 
2058.294 963114 967325 970531 970717 966832 959384 949275 938128 927529 
2062.633 919639 916967 922887 940324 971565 1016463 1072166 1132824 1190761 
2066.973 1237159 1264100 1265089 1236593 1177904 1092156 986104 870216 
2070.830 757959 664221 602602 583245 609596 677967 777250 891533 1002899 
2075.170 1095481 1157872 1185151 1178748 1145198 1094196 1036820 983311 
2079.027 942274 919130 916259 932231 962602 1000542 1038221 1068351 1085800 
2083.367 1088224 1076828 1054716 1026787 997680 971230 950134 936339 930910 
2087.707 934759 947726 968367 992877 1015410 1028265 1024151 997899 948922 
2092.046 882002 807658 739828 693451 680308 706456 769723 860630 963768 
2096.386 1061856 1139493 1186518 1199678 1182837 1145034 1098245 1053944 
2100.243 1021120 1004203 1003315 1014698 1032983 1052492 1069455 1081993 
2104.101 1090664 1096786 1101823 1105867 1107561 1104219 1092877 1071337 
2107.958 1039421 999239 955230 913247 879409 858419 853060 863090 885539 
2112.298 915418 946635 973207 990255 994510 984786 961156 925264 879112 
2116.637 825482 767410 708797 653636 606178 569757 546367 535356 534185 
2120.977 538314 542784 543509 538370 527031 510496 489656 464205 431917 
2125.316 389810 334943 266857 188049 104257 22625 -50381 -111600 -161997 
2129.656 -206293 -250657 -300531 -357610 -419678 -481108 -535296 -576948 
2133.513 -603812 -616156 -616042 -604924 -582817 -548406 -501175 -443294 
2137.371 -381409 -325447 -286682 -273570 -289270 -329803 -386077 -446240 
2141.228 -500210 -541243 -567857 -581842 -586532 -585153 -580371 -574725 
2145.086 -572241 -577654 -596402 -630704 -678060 -730306 -775658 -802527 
2148.943 -805650 -788341 -763730 -749166 -760694 -805855 -880491 -970262 
2152.801 -1057175 -1126474 -1174438 -1209704 -1250467 -1314498 -1411150 
2156.176 -1531673 -1649420 -1724364 -1717555 -1606016 -1395226 -1119619 
2159.551 -831636 -580944 -399696 -293896 -251688 -250151 -268591 -293458 
2163.408 -319101 -343984 -367707 -385156 -388535 -367702 -316430 -235214 
2167.266 -133945 -28789 61269 120656 140553 121998 74002 10313 -54855 
2171.605 -110343 -150950 -175746 -187167 -187568 -177861 -157109 -124088 
2175.463 -79778 -29798 15771 43112 40018 -1096 -78153 -179322 -282883 
2179.802 -364033 -398857 -372781 -283458 -143291 25583 195966 343961 454444 
2184.142 524192 559228 571733 574096 574747 576098 576276 570023 554098 
2188.482 527042 491612 452251 414223 381024 354583 335030 322635 318042 
2192.821 323761 341968 373671 416482 464687 509427 541857 555018 546992 
2197.161 520861 484398 447114 417796 401635 399696 408619 422915 436318 
2201.500 444122 443626 435190 420908 404950 391913 387071 395026 419636 
2205.840 462731 524098 600311 685994 773104 853472 919364 964826 986536 
2210.180 984406 960523 919606 867235 809770 753238 703147 663739 637946 
2214.519 626697 629167 642752 663834 687983 711506 731380 746911 758578 
2218.859 768813 780232 795202 814692 838261 863820 888737 910207 926813 
2223.198 937657 943321 944337 941192 933929 922763 908176 892110 877529 
2227.538 868596 868769 880193 902311 932096 964611 995068 1019773 1037867 
2231.878 1050948 1062054 1074080 1088379 1103427 1115803 1120612 1113445 
2235.735 1091666 1055283 1006917 951495 895214 844752 806515 786195 788040 
2240.075 814483 865239 937376 1024690 1119039 1210985 1291692 1353671 
2243.932 1392236 1405321 1393634 1359663 1307444 1241670 1167421 1090058 
2247.790 1014746 945817 886860 839309 803123 776155 755608 738882 725082 
2252.129 715563 714747 728714 764021 824764 911253 1018087 1134879 1247689 
2256.469 1342409 1407587 1437757 1433692 1402561 1355043 1302559 1254456 
2260.326 1216395 1189720 1172988 1163486 1159115 1158975 1163942 1175180 
2264.184 1193721 1218890 1248993 1280822 1311358 1337950 1359145 1374442 
2268.041 1384198 1388914 1389613 1386995 1382332 1377011 1372695 1370888 
2271.898 1372889 1379196 1389761 1403898 1420504 1438374 1456339 1473288 
2275.756 1488587 1501934 1513863 1525477 1538339 1553914 1572981 1594767 
2279.613 1617458 1637983 1653487 1662160 1663995 1661163 1657269 1656465 
2283.471 1662016 1675565 1696813 1723597 1752880 1781275 1805886 1824331 
2287.328 1835191 1837608 1831701 1818239 1798763 1775151 1749574 1723660 
2291.186 1698406 1674105 1650619 1627745 1605702 1585321 1567786 1554007 
2295.043 1544417 1538469 1534984 1532578 1530219 1527765 1525704 1524733 
2298.900 1525076 1526007 1525801 1522282 1513918 1500387 1483307 1465813 
2302.758 1451798 1444700 1446489 1457086 1474539 1495560 1516702 1535041 
2306.615 1548959 1558157 1563569 1566692 1569202 1572312 1576705 1582236 
2310.473 1588345 1594370 1600010 1605488 1611724 1619848 1630811 1644701 
2314.330 1660610 1676591 1690451 1700378 1705836 1707807 1708569 1710963 
2318.188 1717678 1730633 1751030 1779457 1816364 1862056 1915976 1975838 
2322.045 2036592 2090202 2126703 2136217 2111591 2050463 1956380 1838153 
2325.902 1707929 1578847 1462350 1366151 1293413 1243015 1210962 1191978 
2329.760 1181330 1175567 1172803 1172124 1172991 1174836 1176776 1177981 
2333.617 1177919 1176387 1173609 1169907 1165554 1160682 1155386 1149970 
2337.475 1145006 1141216 1139312 1139610 1141781 1145011 1148156 1150299 
2341.332 1151038 1150483 1149338 1148319 1147942 1148194 1148855 1149452 
2345.189 1149862 1150145 1150649 1151570 1152734 1153459 1152641 1149140 
2349.047 1142276 1131963 1118993 1104571 1090153 1076794 1065218 1055624 
2352.904 1047948 1042034 1037741 1034841 1032909 1031119 1028239 1022843 
2356.762 1013912 1001082 985014 967404 950421 936202 926185 920646 918703 
2361.101 918662 918707 917347 913980 908788 902653 896453 890867 885848 
2365.441 881040 875852 870052 863926 858526 855094 854761 857935 863999 
2369.781 871531 878622 883570 885493 884492 881636 878430 876428 876677 
2374.120 879655 885301 893371 903596 915843 929877 945213 960828 975283 
2378.460 986897 994330 996920 995052 989958 983469 977416 973280 971828 
2382.799 973307 977410 983699 991634 1000778 1010651 1020889 1031180 1041452 
2387.139 1051769 1062514 1073913 1085997 1098127 1109303 1118131 1123489 
2390.996 1124957 1122997 1118994 1114724 1111591 1110260 1110372 1110796 
2394.854 1110209 1107946 1104134 1100031 1097275 1097319 1100559 1106193 
2398.711 1112271 1116367 1116358 1111229 1101219 1087926 1073577 1060606 
2402.569 1050839 1045469 1044907 1049139 1057799 1070448 1086575 1105433 
2406.426 1125793 1145955 1163766 1177076 1183921 1183375 1175563 1161992 
2410.283 1145212 1128461 1114837 1106888 1105776 1111443 1122437 1136492 
2414.141 1151161 1164293 1174599 1181762 1186281 1189182 1191557 1194282 
2417.998 1197648 1201501 1205243 1208151 1209454 1208706 1205685 1200447 
2421.856 1193415 1185154 1176436 1168177 1161069 1155810 1152686 1151567 
2425.713 1151747 1152236 1151611 1148572 1142173 1132048 1118593 1102972 
2429.571 1086923 1072319 1061062 1054495 1053256 1057257 1065746 1077398 
2433.428 1090563 1103702 1115454 1125002 1132035 1136721 1139614 1141325 
2437.285 1142229 1142536 1142003 1140391 1137390 1133162 1128082 1122788 
2441.143 1117861 1113585 1109872 1106436 1102982 1099690 1097223 1096621 
2445.000 1098737 1103825 1110904 1118143 1123165 1124107 1120386 1113032 
2448.858 1104495 1097743 1095114 1097429 1103708 1111705 1118737 1122955 
2452.715 1124006 1122962 1121827 1122474 1125761 1131325 1137665 1142939 
2456.573 1145738 1145552 1142847 1138618 1133934 1129570 1125707 1122419 
2460.430 1119715 1117866 1117212 1117933 1119702 1121628 1122334 1120591 
2464.287 1115587 1107505 1097208 1086182 1075895 1067305 1060934 1056922 
2468.145 1055303 1056418 1060681 1068698 1080628 1096194 1114358 1133699 
2472.002 1152620 1169605 1183501 1193419 1198674 1199015 1194730 1186985 
2475.860 1177836 1170045 1166274 1168393 1176430 1188364 1200761 1209584 
2479.717 1211796 1206348 1194573 1179753 1165859 1156027 1151604 1151878 
2483.574 1154539 1156767 1156310 1152398 1145556 1137420 1129873 1124481 
2487.432 1122125 1123343 1128051 1136369 1148159 1163139 1180396 1198506 
2491.289 1215515 1229535 1239127 1243820 1244119 1241142 1236266 1230653 
2495.147 1224695 1218401 1211511 1203991 1196201 1189053 1183568 1180516 
2499.004 1180040 1181541 1183711 1185338 1185315 1183432 1180183 1176538 
2502.862 1173496 1171760 1171331 1172002 1173443 1175943 1180391 1188106 
2506.719 1200048 1216104 1234353 1251107 1261597 1261494 1248422 1223075 
2510.576 1189297 1153297 1121600 1099391 1088680 1088233 1094304 1102305 
2514.434 1108626 1112088 1113901 1117112 1124907 1139261 1160020 1184712 
2518.291 1209351 1229667 1242066 1244533 1236731 1219916 1196509 1169645 
2522.149 1142819 1119350 1102007 1092548 1091481 1097874 1109864 1125232 
2526.006 1141996 1159047 1175811 1192297 1208121 1222319 1233356 1239523 
2529.864 1239700 1234052 1224036 1212024 1200297 1190373 1182269 1174893 
2533.721 1166743 1156952 1145962 1135690 1128733 1127556 1133298 1145395 
2537.578 1161475 1178430 1193073 1203224 1207841 1207152 1202182 1194316 
2541.436 1185010 1175743 1167777 1162378 1160385 1162189 1167572 1175820 
2545.293 1186109 1197819 1210787 1225221 1241190 1258089 1274203 1286899 
2549.151 1293226 1290967 1279672 1261184 1239437 1219574 1206393 1203218 
2553.008 1210970 1228084 1251240 1276541 1300333 1320265 1335324 1345700 
2556.865 1352025 1355024 1354799 1351048 1342987 1329964 1311977 1290107 
2560.723 1266431 1243936 1225796 1214457 1210875 1214287 1222304 1231665 
2564.580 1239389 1243893 1245425 1246054 1248670 1255983 1269357 1288383 
2568.438 1311061 1334768 1357016 1376510 1393150 1407540 1420409 1431818 
2572.295 1441107 1447085 1448816 1446366 1440875 1434569 1429713 1427958 
2576.153 1429738 1434156 1439449 1443828 1446123 1446064 1444162 1441246 
2580.010 1437879 1434450 1430924 1427570 1425125 1424811 1428128 1435971 
2583.867 1448128 1462797 1476849 1486568 1488729 1481782 1466359 1445287 
2587.725 1422805 1403627 1391531 1388647 1394986 1408557 1426143 1444068 
2591.582 1459219 1469531 1474460 1474926 1472736 1470128 1468938 1470265 
2595.440 1473979 1479194 1484402 1488191 1489584 1488535 1485487 1481384 
2599.297 1477008 1472770 1468609 1464263 1459585 1455053 1451759 1451329 
2603.155 1455163 1464101 1477606 1493915 1510329 1523846 1532145 1534118 
2607.012 1530111 1521638 1510885 1499954 1490238 1482551 1476841 1472838 
2610.869 1470280 1469149 1469560 1471804 1475891 1481716 1488868 1497041 
2614.727 1505964 1515699 1526263 1537834 1550148 1562662 1574618 1585208 
2618.584 1593735 1600012 1604189 1606703 1608081 1608791 1609211 1609639 
2622.442 1610472 1612276 1615604 1620892 1628211 1637182 1647004 1656663 
2626.299 1665267 1672320 1677591 1681362 1683889 1685329 1685629 1684524 
2630.156 1681985 1678198 1673888 1670125 1668051 1668507 1671831 1677680 
2634.014 1685116 1692945 1699936 1705148 1707969 1708246 1706057 1701855 
2637.871 1696329 1690376 1685086 1681490 1680288 1681731 1685439 1690533 
2641.729 1695674 1699715 1701740 1701509 1699312 1695906 1692329 1689471 
2645.586 1688107 1688539 1690778 1694442 1698836 1703143 1706419 1708004 
2649.444 1707522 1705025 1700978 1696180 1691317 1686820 1682632 1678247 
2653.301 1672834 1665645 1656231 1644674 1631552 1617812 1604451 1592194 
2657.158 1581371 1571794 1562813 1553588 1543110 1530629 1515663 1498175 
2661.016 1478620 1457856 1436891 1416807 1398372 1382031 1367758 1355269 
2664.873 1344214 1334353 1325597 1318108 1312010 1307216 1303367 1299901 
2668.731 1296327 1292394 1288405 1285033 1283055 1283036 1284924 1288038 
2672.588 1291091 1292837 1292318 1289272 1284084 1277559 1270548 1263651 
2676.446 1257084 1250855 1245019 1239952 1236364 1235016 1236540 1240881 
2680.303 1247226 1254238 1260228 1263958 1264697 1262624 1258493 1253452 
2684.160 1248535 1244399 1241314 1239082 1237253 1235290 1232632 1228867 
2688.018 1223732 1217363 1210118 1202890 1196622 1192298 1190404 1190825 
2691.875 1192768 1194874 1195764 1194536 1190918 1185440 1179258 1173741 
2695.733 1169973 1168549 1169444 1172063 1175667 1179480 1182861 1185303 
2699.590 1186581 1186594 1185423 1183285 1180594 1177811 1175335 1173410 
2703.448 1171982 1170951 1170011 1168971 1167812 1166544 1165158 1163482 
2707.305 1161162 1157844 1153347 1148060 1142890 1139122 1138092 1140616 
2711.162 1146633 1155129 1164436 1172722 1178650 1181657 1182085 1180823 
2715.020 1178888 1176980 1175335 1173790 1172098 1170123 1168094 1166373 
2718.877 1165342 1165157 1165674 1166590 1167580 1168652 1170043 1172090 
2722.735 1174904 1178073 1180716 1181572 1179547 1174257 1166357 1157414 
2726.592 1149519 1144649 1144003 1147728 1154914 1163929 1173113 1181103 
2730.449 1187205 1191409 1194142 1195870 1197097 1198058 1198891 1199698 
2734.307 1200614 1201750 1203069 1204371 1205115 1204805 1202846 1199008 
2738.164 1193538 1187112 1180786 1175769 1173096 1173395 1176765 1182788 
2742.022 1190557 1198917 1206793 1213277 1217908 1220593 1221662 1221564 
2745.879 1220731 1219345 1217390 1214624 1210763 1205797 1199983 1193955 
2749.737 1188570 1184701 1182903 1183294 1185389 1188277 1190843 1191908 
2753.594 1190541 1186308 1179335 1170268 1160286 1150919 1143652 1139757 
2757.451 1139837 1143772 1150533 1158505 1165769 1170719 1172410 1170860 
2761.309 1166926 1162066 1157824 1155485 1155594 1157950 1161906 1166465 
2765.166 1170767 1174274 1176719 1178211 1178925 1179056 1178660 1177698 
2769.024 1175995 1173457 1170102 1166098 1161898 1158049 1155264 1154176 
2772.881 1155277 1158687 1164039 1170478 1176836 1181935 1184898 1185355 
2776.739 1183693 1180777 1177710 1175433 1174317 1174214 1174399 1174091 
2780.596 1172751 1170516 1168142 1166920 1168091 1172454 1179996 1189878 
2784.453 1200529 1210289 1217714 1222148 1223591 1222767 1220805 1218599 
2788.311 1216776 1215512 1214658 1214018 1213518 1213579 1214835 1218081 
2792.168 1224019 1232727 1243700 1255820 1267561 1277379 1284179 1287565 
2796.026 1287936 1286417 1284475 1283507 1284581 1288091 1293843 1301143 
2799.883 1309197 1317169 1324544 1331087 1336741 1341552 1345633 1349113 
2803.740 1352079 1354801 1357627 1361084 1365586 1371547 1379043 1387877 
2807.598 1397703 1407948 1418046 1427488 1435880 1442759 1447821 1450727 
2811.455 1451381 1449971 1447118 1443810 1441304 1440721 1442835 1447660 
2815.313 1454657 1462714 1470651 1477704 1483635 1488869 1494359 1501025 
2819.170 1509319 1519149 1529579 1539483 1547698 1553652 1557469 1560131 
2823.028 1562983 1567287 1573876 1582799 1593366 1604478 1614940 1623955 
2826.885 1631208 1637097 1642237 1647389 1653018 1659181 1665432 1671086 
2830.742 1675345 1677561 1677475 1675174 1671263 1666600 1662335 1659753 
2834.600 1659931 1663755 1671532 1682999 1697281 1713000 1728573 1742809 
2838.457 1754885 1764743 1773031 1780759 1788938 1798257 1808993 1820891 
2842.315 1833538 1846746 1860648 1875972 1893619 1914662 1939641 1968409 
2846.172 2000096 2033135 2065618 2095693 2121868 2143082 2158938 2169488 
2850.030 2175150 2176758 2175270 2171860 2167679 2163765 2161053 2160187 
2853.887 2161572 2165546 2172418 2182500 2196101 2213397 2234228 2257962 
2857.744 2283541 2309663 2334970 2358571 2379973 2399454 2417755 2435977 
2861.602 2455282 2476753 2501186 2529078 2560656 2595760 2633948 2674575 
2865.459 2716869 2760220 2804377 2849614 2896748 2946865 3000950 3059519 
2869.317 3122276 3188227 3255776 3323501 3390318 3455978 3521010 3586312 
2873.174 3652580 3719788 3786888 3851775 3911706 3963923 4006183 4037208 
2877.031 4056976 4066608 4067832 4062789 4053439 4041199 4026760 4010010 
2880.889 3990133 3966076 3936703 3901466 3860552 3815167 3767225 3719068 
2884.746 3672970 3630525 3592528 3558848 3528668 3501053 3475098 3450524 
2888.604 3427464 3406494 3388187 3372984 3360945 3351766 3344956 3340121 
2892.461 3337076 3335900 3336899 3340527 3347002 3356346 3368147 3381776 
2896.319 3396417 3411458 3426388 3441175 3455910 3470800 3485962 3501210 
2900.176 3515940 3529343 3540567 3549075 3554838 3558465 3561134 3564170 
2904.033 3568740 3575639 3584867 3595920 3607970 3620231 3632339 3644592 
2907.891 3657691 3672652 3690546 3712071 3737579 3766864 3799486 3834641 
2911.748 3871547 3909413 3947420 3984963 4021552 4056977 4091466 4125635 
2915.606 4160544 4197250 4236786 4279706 4325974 4374967 4425535 4476410 
2919.463 4526439 4575039 4622058 4668095 4714032 4760925 4809609 4860602 
2923.321 4913876 4968973 5025259 5082142 5139260 5196867 5255730 5317177 
2927.178 5382637 5453570 5530745 5614399 5703839 5797830 5894663 5992833 
2931.035 6091261 6189654 6288501 6389099 6493152 6602470 6718526 6842366 
2934.893 6974396 7114645 7262844 7418676 7582038 7752968 7931599 8117846 
2938.750 8311417 8511224 8715469 8921640 9126481 9326282 9517061 9694846 
2942.608 9855891 9997143 10116232 10211886 10283849 10332787 10360086 
2945.983 10367360 10356122 10327476 10282077 10220283 10142615 10050216 
2949.358 9945268 9830961 9711459 9591186 9474307 9364055 9262355 9169986 
2953.216 9086686 9011687 8944128 8883224 8828225 8778359 8732323 8688449 
2957.073 8644659 8598829 8549133 8494636 8435150 8371498 8304750 8236103 
2960.930 8166259 8095281 8022628 7947383 7868696 7785900 7698806 7607764 
2964.788 7513424 7416867 7319291 7222124 7126847 7034892 6947355 6864857 
2968.645 6787230 6713572 6642461 6572414 6502361 6432117 6362232 6294161 
2972.503 6229474 6169562 6115184 6066453 6023122 5984914 5951846 5924535 
2976.360 5903806 5890558 5885194 5887582 5897148 5913206 5935471 5964507 
2980.218 6001542 6048397 6106778 6177946 6262198 6359049 6467491 6586301 
2984.075 6714639 6851929 6998051 7152921 7316241 7487572 7666216 7851281 
2987.932 8042027 8237605 8436950 8638525 8839892 9037860 9228390 9407100 
2991.790 9569878 9713187 9834555 9932572 10006912 10058063 10086893 10094587 
2995.647 10082418 10051587 10003307 9938868 9859580 9766921 9662274 9546869 
2999.505 9421767 9287266 9143224 8989211 8824817 8650220 8466599 8276289 
3003.362 8082527 7888835 7698316 7512880 7332937 7157585 6985094 6813711 
3007.219 6642314 6470678 6299500 6129849 5962871 5799329 5639564 5483659 
3011.077 5331632 5183523 5039489 4899588 4763479 4630685 4500425 4372237 
3014.934 4246207 4123157 4004388 3891320 3784869 3685154 3591381 3502249 
3018.792 3416321 3332875 3251783 3173710 3099533 3029850 2964658 2903111 
3022.649 2843948 2785847 2727947 2670025 2612539 2556327 2502206 2450674 
3026.507 2401751 2355291 2310864 2268357 2227952 2190037 2155324 2124446 
3030.364 2097829 2075289 2056378 2040004 2024718 2009042 1991627 1971557 
3034.221 1948565 1923101 1896257 1869440 1844242 1821959 1803395 1788766 
3038.079 1777480 1768426 1760105 1750964 1739699 1725696 1709097 1691015 
3041.936 1673021 1656975 1644160 1635192 1629692 1626570 1624581 1622775 
3045.794 1620968 1619601 1619356 1620502 1622567 1624225 1623623 1619410 
3049.651 1611463 1601254 1591502 1585288 1584935 1590794 1601168 1612448 
3053.509 1620568 1622073 1615240 1600435 1579706 1555981 1532110 1510234 
3057.366 1491611 1476899 1466405 1460406 1459058 1462127 1468693 1477384 
3061.223 1486262 1493667 1498519 1500808 1501075 1500387 1499638 1499206 
3065.081 1498939 1498435 1497335 1495660 1493696 1491906 1490382 1488921 
3068.938 1486820 1483516 1478638 1472555 1466151 1460558 1456620 1454554 
3072.796 1453938 1453878 1453488 1452233 1450288 1448157 1446499 1445891 
3076.653 1446396 1447993 1450478 1453932 1458449 1464195 1470790 1477314 
3080.510 1482281 1483845 1480671 1472261 1459337 1443643 1427420 1412597 
3084.368 1400395 1391020 1383852 1377902 1372311 1366667 1361032 1355736 
3088.225 1351100 1347321 1344110 1341228 1338221 1334924 1331181 1327137 
3092.083 1322905 1318724 1314863 1311880 1310418 1311191 1314637 1320848 
3095.940 1329238 1338646 1347705 1354984 1359570 1361182 1360253 1357747 
3099.798 1354783 1352431 1351262 1351399 1352325 1353086 1352517 1349602 
3103.655 1343663 1334928 1324467 1314200 1306384 1303022 1305189 1312782 
3107.512 1324204 1337128 1348964 1357674 1362307 1363164 1361251 1357954 
3111.370 1354416 1351272 1348513 1346066 1343847 1341992 1340856 1340751 
3115.227 1341469 1342532 1343115 1342499 1340453 1337562 1334921 1333969 
3119.085 1335595 1339862 1345769 1351459 1354979 1354666 1350038 1341658 
3122.942 1331103 1320262 1310767 1303497 1298325 1294344 1290173 1284579 
3126.800 1276829 1267132 1256418 1246235 1238236 1233866 1233878 1238181 
3130.657 1246044 1256099 1266953 1277204 1285992 1292833 1297780 1301125 
3134.514 1303401 1305143 1306865 1309132 1312303 1316471 1321533 1326954 
3138.372 1331988 1335795 1337827 1337833 1336105 1333232 1329905 1326640 
3142.229 1323606 1320687 1317630 1314382 1311155 1308421 1306781 1306455 
3146.087 1307329 1308740 1309919 1310310 1309942 1309521 1310111 1312724 
3149.944 1317699 1324456 1331299 1336269 1337454 1333820 1325416 1313488 
3153.802 1300059 1287292 1276875 1269991 1267019 1267846 1271956 1278653 
3157.659 1287012 1295796 1303579 1308892 1310455 1307622 1300622 1290660 
3161.516 1279734 1270127 1263913 1262402 1265853 1273410 1283413 1293791 
3165.374 1302564 1308343 1310565 1309578 1306377 1302306 1298710 1296333 
3169.231 1295237 1295095 1295058 1294502 1293161 1291417 1289926 1289401 
3173.089 1290212 1292064 1294160 1295451 1295180 1293412 1290953 1289386 
3176.946 1290134 1294155 1301154 1309696 1317731 1323068 1324439 1321831 
3180.803 1316435 1310303 1305436 1303282 1304171 1307446 1311786 1315925 
3184.661 1318969 1320660 1321286 1321347 1321281 1321214 1321158 1321156 
3188.518 1321547 1323113 1326812 1333469 1343254 1355500 1368561 1380207 
3192.376 1388214 1390966 1387949 1379801 1368273 1355524 1343767 1334636 
3196.233 1329032 1327009 1328043 1331302 1335879 1340949 1345806 1350012 
3200.091 1353160 1354991 1355324 1354136 1351469 1347537 1342639 1337247 
3203.948 1331983 1327703 1325351 1325990 1330522 1339463 1352828 1369782 
3207.805 1388815 1407824 1424500 1436573 1442430 1441336 1433739 1421195 
3211.663 1406177 1391855 1381195 1376564 1379083 1388324 1402204 1417705 
3215.520 1431328 1440230 1442643 1438540 1429268 1417128 1404620 1393692 
3219.378 1385368 1379693 1376032 1373446 1371227 1368942 1366570 1364209 
3223.235 1361900 1359505 1356925 1354118 1351278 1348901 1347721 1348409 
3227.093 1351244 1356229 1362728 1370006 1376996 1382853 1386918 1388800 
3230.950 1388467 1386198 1382533 1378186 1373882 1370170 1367204 1364790 
3234.807 1362558 1360120 1357541 1355351 1354665 1356588 1361762 1370014 
3238.665 1379938 1389421 1396164 1398508 1395951 1389228 1379923 1369791 
3242.522 1359842 1350302 1340445 1329469 1317025 1303885 1291815 1283141 
3246.380 1279901 1283044 1291964 1304852 1319036 1331999 1341826 1347645 
3250.237 1349486 1347947 1343688 1337427 1329663 1321103 1312476 1304870 
3254.094 1299296 1296626 1297308 1301332 1308286 1317562 1328366 1339970 
3257.952 1351480 1361936 1370314 1375642 1377263 1374958 1369042 1360036 
3261.809 1348595 1335145 1319967 1303532 1286646 1270893 1258443 1251698 
3265.667 1252418 1261097 1276320 1295198 1313679 1327905 1335043 1333906 
3269.524 1325137 1310744 1293397 1275741 1260115 1248194 1241356 1240478 
3273.382 1246153 1258286 1276017 1297654 1320822 1342960 1361721 1375525 
3277.239 1383610 1385974 1382964 1375281 1363680 1349192 1333264 1317783 
3281.096 1304888 1296521 1293628 1296068 1302362 1310216 1317261 1321891 
3284.954 1323711 1323554 1323089 1323986 1327280 1332960 1340083 1347109 
3288.811 1352521 1355294 1354975 1351674 1345643 1337155 1326354 1313426 
3292.669 1298877 1283797 1269836 1258990 1253172 1253675 1260787 1273631 
3296.526 1290391 1308845 1326690 1342203 1354556 1363747 1370524 1375901 
3300.384 1380849 1385965 1391082 1395549 1398206 1397968 1393961 1386119 
3304.241 1375047 1362038 1348761 1336819 1327384 1320910 1317166 1315412 
3308.098 1314852 1314955 1315799 1317883 1322060 1329016 1338798 1350433 
3311.956 1362105 1371389 1375810 1373650 1364517 1349484 1331002 1312339 
3315.813 1296754 1286810 1283782 1287384 1296023 1307027 1317448 1324542 
3319.671 1326333 1322118 1312529 1299584 1286337 1276307 1272616 1277188 
3323.528 1290039 1309117 1330705 1350134 1363220 1367233 1361657 1348280 
3327.385 1330606 1312750 1298330 1289716 1287599 1291292 1299172 1309359 
3331.243 1320130 1330080 1338105 1343336 1345381 1344226 1340541 1335505 
3335.100 1330546 1327035 1325342 1324942 1324330 1321576 1315350 1305505 
3338.958 1293382 1281513 1272723 1269021 1270846 1276803 1284036 1289472 
3342.815 1290731 1287151 1279937 1271649 1265349 1263451 1266988 1275335 
3346.673 1286492 1297777 1306525 1310866 1309924 1304011 1294412 1283109 
3350.530 1272252 1264035 1260084 1261363 1267819 1278378 1291228 1304161 
3354.387 1315204 1322986 1327238 1328741 1329067 1330021 1333130 1339059 
3358.245 1347438 1356852 1365338 1370848 1371944 1368106 1360130 1349736 
3362.102 1339306 1331223 1327130 1327590 1332009 1338713 1345656 1350970 
3365.960 1353583 1353259 1350774 1347319 1343964 1341352 1339381 1337500 
3369.817 1334931 1331257 1326624 1321821 1317895 1315885 1316299 1318664 
3373.675 1321988 1324715 1325513 1323818 1319809 1314795 1310501 1308713 
3377.532 1310525 1316031 1324193 1332878 1339689 1342366 1339540 1331163 
3381.389 1318511 1304058 1290915 1282099 1279964 1285597 1298698 1317575 
3385.247 1339549 1361567 1380695 1394767 1402738 1404716 1401947 1396366 
3389.104 1390137 1385132 1382426 1382373 1384350 1387304 1389929 1391272 
3392.962 1390801 1388660 1385384 1381664 1378080 1374880 1371941 1368922 
3396.819 1365436 1361358 1356746 1352052 1347709 1344025 1340965 1338222 
3400.677 1335217 1331597 1327237 1322557 1318491 1316118 1316282 1319336 
3404.534 1324758 1331241 1337110 1340716 1341179 1338612 1334245 1330025 
3408.391 1328162 1330321 1337246 1348504 1362709 1377843 1391853 1403016 
3412.249 1410119 1412464 1409627 1401662 1388797 1371945 1352646 1333264 
3416.106 1316482 1304951 1300361 1302955 1311376 1323011 1334661 1343675 
3419.964 1348678 1349760 1348441 1346892 1347002 1349778 1355083 1361787 
3423.821 1368264 1373048 1375108 1374156 1370547 1365000 1358535 1352298 
3427.678 1347538 1345526 1347195 1353105 1362927 1375483 1388938 1401273 
3431.536 1410939 1417324 1421025 1423475 1426328 1430882 1437608 1445889 
3435.393 1454389 1461652 1466456 1468387 1467615 1464830 1460814 1456129 
3439.251 1451259 1446365 1441665 1437332 1433481 1430125 1427067 1424088 
3443.108 1421075 1418394 1416853 1417697 1422067 1430275 1441761 1454668 
3446.966 1466473 1474891 1478328 1476873 1471956 1465918 1461010 1458559 
3450.823 1458532 1459613 1459759 1457261 1451296 1442407 1432222 1422856 
3454.680 1416410 1414077 1416182 1422298 1431399 1442503 1454849 1467882 
3458.538 1481256 1494657 1507519 1519170 1528728 1535370 1538388 1537490 
3462.395 1532883 1525168 1515586 1505596 1496775 1490374 1487173 1487287 
3466.253 1490231 1495415 1502364 1511125 1522583 1537840 1558063 1583439 
3470.110 1613138 1644641 1674485 1698946 1714958 1721108 1718018 1708339 
3473.968 1695935 1685088 1679291 1680549 1688992 1703076 1720206 1737610 
3477.825 1753191 1765933 1776137 1785119 1794454 1805625 1819040 1834165 
3481.682 1849599 1863438 1873988 1880265 1882372 1881242 1878614 1876408 
3485.540 1876258 1879383 1886485 1897648 1912654 1930895 1951532 1973488 
3489.397 1995396 2015847 2033506 2047467 2057400 2063664 2067339 2069982 
3493.255 2073483 2079743 2090311 2106401 2128357 2155597 2186562 2218764 
3497.112 2249300 2275346 2294849 2307145 2313089 2314880 2315434 2317614 
3500.969 2323339 2333165 2346011 2359804 2371905 2379989 2382652 2379689 
3504.827 2372173 2362048 2351756 2343491 2338835 2338189 2340835 2345005 
3508.684 2348467 2349121 2345759 2338511 2328805 2318979 2311395 2307684 
3512.542 2308131 2311508 2315560 2317793 2316184 2309845 2299000 2284652 
3516.399 2268221 2250805 2233174 2215551 2198103 2180890 2163850 2146891 
3520.257 2129314 2110255 2088652 2063981 2036802 2008934 1983203 1962779 
3524.114 1950015 1945670 1948526 1955725 1963755 1969397 1970684 1967106 
3527.971 1959359 1948533 1935632 1921177 1905500 1889015 1872966 1859330 
3531.829 1850369 1848051 1853007 1864114 1878625 1892846 1903194 1907047 
3535.686 1903263 1892289 1875549 1854797 1831800 1808112 1785097 1764452 
3539.544 1747920 1737363 1734065 1738216 1748528 1762310 1775918 1785731 
3543.401 1789110 1785100 1774675 1760554 1746322 1735629 1731040 1733712 
3547.259 1742910 1756462 1771208 1784044 1792531 1795725 1794160 1789750 
3551.116 1785161 1782951 1784800 1791056 1800600 1811434 1821080 1827548 
3554.973 1829691 1827615 1822462 1815985 1810043 1806079 1804821 1806055 
3558.831 1808638 1810936 1810966 1807070 1798327 1784963 1768625 1752068 
3562.688 1738661 1731578 1732767 1742352 1758283 1776752 1793078 1802823 
3566.546 1802983 1792717 1773470 1748601 1722379 1698999 1681678 1672316 
3570.403 1671095 1677252 1688998 1704408 1721309 1737916 1752602 1764011 
3574.260 1771304 1774011 1772297 1766844 1758778 1749547 1740506 1732686 
3578.118 1726542 1721871 1717895 1713582 1707852 1700118 1690476 1679764 
3581.975 1669481 1661440 1657164 1657519 1662231 1669861 1677973 1683962 
3585.833 1685450 1681196 1671344 1657490 1642059 1627791 1616692 1609628 
3589.690 1606107 1604688 1603305 1600335 1594743 1586313 1575548 1563278 
3593.548 1550235 1537011 1524048 1511948 1501579 1494009 1490360 1491438 
3597.405 1497137 1506629 1518231 1530162 1540905 1549639 1556123 1560682 
3601.262 1563421 1564233 1562406 1557394 1549151 1538554 1527630 1519103 
3605.120 1515471 1518472 1528098 1542806 1559825 1576284 1589596 1598311 
3608.977 1602076 1601215 1596161 1587420 1575209 1560252 1543564 1527176 
3612.835 1513541 1505149 1503767 1509843 1522246 1538644 1556234 1572536 
3616.692 1585927 1596066 1603483 1609485 1615248 1621581 1628776 1636374 
3620.550 1643622 1649672 1653966 1656551 1657960 1659466 1662478 1668269 
3624.407 1677350 1689227 1702285 1714146 1722499 1725923 1724415 1719808 
3628.264 1715091 1713556 1717564 1727811 1742779 1759601 1774763 1785500 
3632.122 1790484 1790320 1787149 1783867 1783312 1787434 1796855 1810873 
3635.979 1827942 1846200 1863855 1879895 1894220 1907477 1921019 1936189 
3639.837 1954014 1974642 1997269 2020382 2042319 2061770 2078379 2092793 
3643.694 2106172 2119776 2133813 2147425 2158509 2164734 2164310 2156977 
3647.552 2144277 2129247 2115599 2106506 2103721 2107332 2115883 2127319 
3651.409 2139493 2150716 2159954 2166557 2170169 2170578 2168066 2163491 
3655.266 2158547 2155369 2155985 2161796 2172657 2187170 2202906 2217294 
3659.124 2228098 2234207 2235325 2231844 2224142 2212491 2197330 2179363 
3662.981 2160138 2141955 2127486 2118968 2117278 2121544 2129172 2136666 
3666.839 2140826 2139642 2132632 2120952 2106303 2090221 2073644 2056535 
3670.696 2038586 2019660 2000265 1981679 1965431 1952716 1943880 1938245 
3674.553 1934113 1929535 1922590 1912069 1897269 1878152 1854964 1828298 
3678.411 1799040 1768623 1739102 1712870 1692131 1678414 1671929 1671630 
3682.268 1675276 1680193 1683891 1684691 1681741 1675139 1665402 1653269 
3686.126 1639469 1624765 1610095 1596522 1585253 1577426 1573781 1574406 
3689.983 1578785 1585783 1593685 1600687 1604788 1604033 1596816 1581996 
3693.841 1559611 1530970 1498695 1466466 1438288 1417471 1405733 1402728 
3697.698 1406458 1413823 1421845 1428769 1434311 1439482 1446066 1455015 
3701.555 1466256 1478033 1487610 1492385 1490759 1483100 1471786 1460247 
3705.413 1452248 1450356 1455253 1465791 1479134 1491997 1501604 1506289 
3709.270 1506088 1502078 1495957 1489290 1483241 1478048 1473511 1469320 
3713.128 1465203 1461334 1458133 1456162 1455941 1457658 1461090 1465777 
3716.985 1471013 1476064 1480158 1482551 1482681 1480088 1474571 1466490 
3720.843 1456629 1446293 1436813 1429409 1424630 1422201 1421028 1419744 
3724.700 1416902 1411832 1404680 1396593 1389090 1383641 1381054 1381071 
3728.557 1382657 1384294 1384747 1383481 1381166 1379400 1380139 1385156 
3732.415 1394939 1408792 1424584 1439420 1450441 1455872 1455136 1449667 
3736.272 1442060 1435801 1433938 1438808 1450827 1468950 1490642 1512668 
3740.130 1531688 1545035 1551378 1550677 1544218 1534115 1522796 1512451 
3743.987 1504420 1499130 1495741 1492653 1487847 1479484 1466195 1447643 
3747.844 1424554 1398643 1372280 1348231 1328988 1316408 1311265 1313350 
3751.702 1321476 1333791 1348078 1362332 1374822 1384319 1390192 1392379 
3755.559 1391252 1387791 1383275 1379598 1378696 1382476 1392336 1408757 
3759.417 1430988 1456960 1483484 1507039 1524112 1532409 1531070 1520885 
3763.274 1504129 1483910 1463537 1445791 1432599 1424803 1422103 1423682 
3767.132 1428284 1434737 1441873 1449023 1455584 1461214 1465648 1468634 
3770.989 1469880 1469047 1465679 1459586 1450907 1440472 1429746 1420871 
3774.846 1416108 1417235 1425037 1438699 1456013 1473675 1488223 1496939 
3778.704 1498571 1493442 1483536 1471467 1459914 1450773 1444890 1442091 
3782.561 1441302 1441372 1441087 1439715 1436964 1433074 1428664 1424747 
3786.419 1422461 1422756 1426025 1431979 1439341 1446046 1450016 1449580 
3790.276 1444292 1434973 1423550 1412352 1403205 1396908 1392700 1389239 
3794.134 1384903 1379057 1372284 1366536 1364123 1366947 1375366 1387987 
3797.991 1401869 1413445 1419591 1418717 1411025 1398416 1383760 1370296 
3801.848 1360411 1355592 1356233 1361830 1371254 1383286 1396580 1409675 
3805.706 1421236 1430269 1435920 1438075 1436971 1433361 1427967 1421452 
3809.563 1414122 1406165 1397736 1389153 1381038 1374298 1369734 1367920 
3813.421 1368857 1372139 1376913 1382249 1387497 1392325 1396760 1401145 
3817.278 1405505 1409689 1413107 1414894 1414192 1410299 1402997 1392617 
3821.135 1380077 1366553 1353383 1342024 1333562 1329261 1330054 1336647 
3824.993 1349399 1367958 1391035 1416205 1440234 1459590 1471085 1472908 
3828.850 1465197 1450266 1432082 1415585 1405139 1403459 1410972 1425556 
3832.708 1443167 1458991 1468746 1469700 1461336 1445318 1424940 1404405 
3836.565 1387854 1378376 1377434 1384390 1396606 1410390 1421600 1427194 
3840.423 1425769 1418350 1407669 1397526 1391218 1390481 1394636 1401271 
3844.280 1406880 1408687 1405909 1399982 1394182 1392083 1396151 1406624 
3848.137 1421149 1435808 1446471 1450306 1446499 1436399 1422359 1406760 
3851.995 1391171 1376043 1361015 1345985 1331275 1318145 1307947 1301571 
3855.852 1298786 1298317 1298274 1297328 1295120 1292796 1292223 1295297 
3859.710 1302856 1314168 1327121 1339034 1347791 1352435 1353494 1352695 
3863.567 1351909 1352685 1355615 1360742 1367638 1376113 1386087 1397370 
3867.425 1409367 1420695 1429287 1433085 1430755 1422555 1410344 1397225 
3871.282 1386471 1380397 1379715 1383418 1389439 1395396 1399582 1401543 
3875.139 1401924 1402164 1403659 1407330 1413283 1420817 1428678 1435478 
3878.997 1440232 1442537 1442807 1442351 1442828 1445848 1452397 1462243 
3882.854 1473728 1484100 1490191 1489700 1481952 1468384 1452425 1437930 
3886.712 1428213 1424571 1425722 1428575 1429285 1424784 1414084 1398482 
3890.569 1381019 1365568 1355040 1350945 1352672 1358183 1364853 1370264 
3894.427 1372866 1372086 1368340 1362719 1356719 1352241 1351185 1355192 
3898.284 1365268 1381285 1401632 1423615 1443938 1459693 1469091 1471841 
3902.141 1469376 1463845 1457452 1451671 1447114 1443249 1439460 1435345 
3905.999 1431176 1427724 1426046 1426732 1429780 1434148 1438426 1441164 
3909.856 1441263 1438763 1434615 1430479 1428447 1430309 1437153 1448889 
3913.714 1464212 1480626 1494887 1503760 1504718 1496643 1480373 1458367 
3917.571 1434447 1412684 1396482 1387661 1386378 1391079 1399396 1408685 
3921.428 1416888 1422841 1426475 1428643 1430601 1433792 1439344 1448019 
3925.286 1459687 1473471 1487771 1500579 1509781 1513892 1512122 1504848 
3929.143 1493306 1479173 1464146 1449471 1435700 1423056 1411539 1401531 
3933.001 1393729 1389156 1388683 1392520 1399906 1409241 1418328 1425143 
3936.858 1428566 1428478 1426140 1423473 1422713 1425572 1432841 1444298 
3940.716 1458748 1474560 1489876 1503062 1512774 1518139 1518707 1514239 
3944.573 1505050 1491837 1475854 1458839 1442798 1429867 1421812 1419783 
3948.430 1424019 1433758 1447485 1463196 1478911 1492929 1504060 1511679 
3952.288 1515550 1515642 1512034 1504779 1494059 1480298 1464222 1447112 
3956.145 1430608 1416547 1406779 1402747 1405324 1414500 1429221 1447663 
3960.003 1467224 1485111 1498794 1506603 1508004 1503818 1495577 1485560 
3963.860 1475568 1466845 1459909 1454813 1451426 1450105 1451394 1456197 
3967.718 1464965 1477262 1491752 1506247 1518703 1527818 1533790 1538171 
3971.575 1543324 1551213 1562650 1576628 1590716 1601833 1607583 1607007 
3975.432 1601073 1592160 1583086 1575698 1570570 1566585 1561548 1553277 
3979.290 1540641 1523880 1504682 1485668 1469391 1457835 1451731 1450789 
3983.147 1453813 1459206 1465347 1470863 1474690 1476147 1474967 1471402 
3987.005 1466051 1460100 1454906 1451978 1452486 1457047 1465422 1476679 
3990.862 1489006 1500510 1509270 1514002 1514345 1510978 1505408 1499716 
3994.719 1495732 1494831 1497455 1503151 1510946 1519585 1527905 1535079 
3998.577 1540490 1543563 1543749 1540552 1534012 
##END=
