##TITLE=Flashforge_PLA_White_Filament_r7_ATR-Corrected
##JCAMP-DX=5.01  $$ Nicolet v. 1
##DATATYPE=INFRARED SPECTRUM
##ORIGIN=Curtin University
##OWNER=Nicolet
##LONGDATE=2024/07/10
##TIME=11:26:18
##SPECTROMETER/DATA SYSTEM=Nicolet iS50
##DATA PROCESSING=
Ratio against background
%Transmittance->Absorbance
ATR Correction
Truncated
ElementMultiply or ElementDivide
##COMMENTS=
Number of sample scans: 32
Collection length: 47.28 sec
Sample gain: 1.0
Background collected on: Wed Jul 10 11:22:30 2024 (GMT+08:00);
Number of background scans: 32
Background gain: 1.0
Sample spacing:  1.000
Number of scan points: 16672
Resolution points: 8192
Number of FFT points: 65536
Apodization: N-B strong;
Phase correction: Mertz;
Laser frequency: 15798.3 cm-1
Number of rejected sample scans: 0
Number of rejected background scans: 0
Bench serial number: AUP1200105;
##RESOLUTION=4.000
##XUNITS=1/CM
##YUNITS=ABSORBANCE
##FIRSTX=400.163452
##LASTX=4000.187744
##FIRSTY=0.066038
##MAXX=4000.187744
##MINX=400.163452
##MAXY=1.070399
##MINY=-0.028517
##XFACTOR=1.000000
##YFACTOR=1.000000E-008
##NPOINTS=7468
##DELTAX=0.482125
##ZPD=8192
##XYDATA=(X++(Y..Y))
400.163 6603756 6496087 6396154 6298530 6197915 6093175 5986281 5881011 
404.020 5780712 5686463 5596238 5505630 5409772 5305855 5195069 5083155 
407.877 4978715 4890323 4822919 4775346 4739976 4704954 4658350 4592562 
411.734 4507485 4410719 4314776 4232388 4171699 4133370 4110779 4092957 
415.591 4068872 4031434 3979297 3916372 3849187 3783667 3722602 3665216 
419.448 3608428 3549568 3488612 3429046 3376864 3338331 3317295 3313518 
423.305 3322399 3336567 3348138 3351011 3342124 3321642 3292115 3257386 
427.162 3221636 3188938 3162947 3146731 3142298 3149929 3167565 3190788 
431.019 3213492 3229282 3233185 3223103 3200386 3169380 3136061 3106335 
434.876 3084336 3071546 3066699 3066598 3067268 3065281 3058710 3047577 
438.733 3033772 3020535 3011507 3009807 3017018 3032703 3054288 3077583 
442.590 3097794 3110735 3113825 3106589 3090475 3068054 3042087 3014715 
446.447 2987210 2960339 2934926 2912449 2895090 2885287 2884767 2893659 
450.304 2909967 2929798 2948318 2961135 2965447 2960690 2948367 2931221 
454.161 2912132 2893334 2876076 2860777 2847572 2836729 2828779 2824298 
458.017 2823423 2825516 2828998 2831755 2831638 2827036 2817154 2801952 
461.874 2781720 2756780 2727242 2693014 2654980 2614651 2574610 2538151 
465.731 2508534 2488126 2477647 2475988 2480541 2487966 2495038 2499323 
469.588 2499400 2494729 2485268 2471141 2452512 2429755 2403704 2375834 
473.445 2348230 2323216 2302805 2288222 2279631 2276189 2276406 2278563 
477.302 2281201 2283304 2284338 2284066 2282344 2278944 2273432 2265224 
481.159 2253613 2238039 2218221 2194464 2167827 2140174 2114021 2092094 
485.016 2076612 2068712 2068027 2072742 2080098 2087330 2092467 2094968 
488.873 2095745 2096586 2099288 2104712 2112292 2120049 2125278 2125482 
492.730 2119302 2107015 2090468 2072371 2055907 2043365 2035737 2032614 
496.587 2032458 2033275 2033316 2031791 2029123 2026927 2027484 2032988 
500.444 2044595 2061798 2082236 2102090 2117145 2124096 2121732 2111561 
504.301 2097592 2085238 2079710 2084411 2099774 2123103 2149338 2172513 
508.158 2187472 2191193 2183381 2166277 2143690 2119857 2098222 2080779 
512.015 2067791 2058144 2050007 2041627 2032005 2021246 2010558 2001740 
515.871 1996492 1995652 1998710 2003737 2007877 2008198 2002560 1990293 
519.728 1972281 1950564 1927476 1904899 1883727 1863959 1845211 1827453 
523.585 1811514 1799122 1792341 1792550 1800037 1813148 1828668 1842665 
527.442 1851603 1853323 1847536 1835661 1820141 1803550 1787823 1773800 
531.299 1761271 1749355 1737030 1723713 1709533 1695492 1683277 1674933 
535.156 1672308 1676556 1687636 1704134 1723369 1741903 1756333 1764071 
539.013 1763917 1756230 1742541 1724983 1705599 1685869 1666665 1648541 
542.870 1632092 1618352 1608717 1604632 1607079 1616067 1630514 1648405 
546.727 1667318 1685000 1699809 1710859 1717924 1721158 1720880 1717541 
550.584 1711807 1704651 1697461 1691718 1688695 1688954 1692120 1696852 
554.441 1701255 1703437 1702122 1696969 1688923 1679637 1671074 1664912 
558.298 1662139 1662852 1666309 1671256 1676231 1679986 1681722 1681211 
562.155 1678773 1675178 1671411 1668497 1667278 1668389 1672134 1678538 
566.012 1687346 1698079 1710017 1722285 1733923 1744061 1752085 1757760 
569.869 1761311 1763329 1764655 1766202 1768796 1773145 1779843 1789408 
573.725 1802215 1818340 1837328 1858044 1878653 1896896 1910616 1918364 
577.582 1919822 1916033 1909107 1901644 1896040 1893861 1895609 1900756 
581.439 1908152 1916485 1924731 1932290 1939046 1945191 1951084 1957167 
585.296 1963922 1971883 1981549 1993262 2006994 2022154 2037567 2051621 
589.153 2062646 2069335 2071154 2068590 2063087 2056757 2051929 2050580 
593.010 2053936 2062169 2074477 2089336 2104945 2119749 2132814 2144030 
596.867 2154008 2163741 2174170 2185705 2198111 2210462 2221534 2230198 
600.724 2235838 2238576 2239231 2239087 2239579 2241941 2247062 2255395 
604.581 2266986 2281576 2298703 2317765 2338112 2359141 2380404 2401555 
608.438 2422363 2442549 2461723 2479310 2494738 2507730 2518588 2528374 
612.295 2538849 2551986 2569407 2591759 2618466 2647824 2677545 2705475 
616.152 2730202 2751346 2769416 2785378 2800259 2814821 2829635 2845284 
620.009 2862572 2882496 2905911 2933028 2962982 2993855 3023065 3048222 
623.866 3067969 3082445 3093240 3102692 3112987 3125391 3139932 3155725 
627.723 3171695 3187297 3202892 3219587 3238629 3260664 3285269 3310991 
631.579 3335855 3358162 3377154 3393254 3407822 3422572 3438891 3457378 
635.436 3477775 3499196 3520527 3540793 3559326 3575805 3590199 3602727 
639.293 3613916 3624625 3635960 3649076 3664823 3683382 3704081 3725533 
643.150 3746033 3764103 3778973 3790818 3800653 3809914 3820075 3832199 
647.007 3846838 3863999 3883325 3904168 3925669 3946838 3966613 3984061 
650.864 3998706 4010693 4020965 4031035 4042607 4057046 4074999 4096232 
654.721 4119802 4144445 4168997 4192683 4215172 4236373 4256274 4274767 
658.578 4291615 4306659 4319898 4331561 4342007 4351525 4360232 4368059 
662.435 4374944 4381136 4387370 4394830 4404850 4418432 4435811 4456290 
666.292 4478417 4500485 4521109 4539606 4556110 4571262 4585767 4599993 
670.149 4613831 4626851 4638677 4649329 4659336 4669526 4680669 4693022 
674.006 4706190 4719232 4731117 4741269 4749920 4758125 4767486 4779547 
677.863 4795240 4814543 4836487 4859472 4881735 4901901 4919303 4934036 
681.720 4946825 4958695 4970656 4983391 4997100 5011444 5025651 5038724 
685.577 5049746 5058140 5063979 5068006 5071557 5076278 5083721 5094956 
689.433 5110287 5129239 5150727 5173350 5195796 5217116 5236849 5255019 
693.290 5271977 5288233 5304295 5320528 5337102 5354042 5371199 5388298 
697.147 5405047 5421109 5436244 5450275 5463156 5474874 5485430 5494705 
701.004 5502457 5508342 5511997 5513177 5511897 5508492 5503588 5497942 
704.861 5492301 5487153 5482597 5478308 5473664 5467882 5460252 5450274 
708.718 5437665 5422304 5404050 5382627 5357490 5327925 5293274 5253080 
712.575 5207367 5156601 5101657 5043546 4983138 4920949 4857053 4791144 
716.432 4722678 4651031 4575697 4496312 4412726 4325032 4233625 4139319 
720.289 4043407 3947582 3853790 3763902 3679439 3601318 3529855 3464934 
724.146 3406331 3354019 3308310 3269787 3239094 3216636 3202466 3196328 
728.003 3197933 3207279 3224939 3252048 3290119 3340611 3404580 3482440 
731.860 3573985 3678522 3795177 3922930 4060582 4206563 4358741 4514348 
735.717 4670303 4823552 4971690 5113237 5247773 5375696 5497797 5614845 
739.574 5727362 5835602 5939787 6040270 6137712 6232912 6326564 6418989 
743.431 6509983 6598960 6685292 6768733 6849737 6929498 7009689 7092024 
747.287 7177695 7267093 7359741 7454453 7549774 7644285 7736871 7826727 
751.144 7913229 7995666 8073111 8144316 8207837 8262223 8306233 8339022 
755.001 8360190 8369662 8367536 8353786 8328103 8289746 8237590 8170363 
758.858 8086943 7986766 7870152 7738460 7594065 7440100 7280064 7117364 
762.715 6954927 6794905 6638647 6486659 6338882 6194893 6054160 5916310 
766.572 5781327 5649604 5521933 5399306 5282641 5172484 5068754 4970682 
770.429 4876954 4786061 4696667 4607962 4519853 4432755 4347379 4264261 
774.286 4183551 4104852 4027355 3950144 3872575 3794479 3716355 3639134 
778.143 3563959 3491776 3423095 3357721 3294844 3233158 3171201 3107678 
782.000 3041828 2973569 2903528 2832904 2763114 2695451 2630763 2569257 
785.857 2510564 2453893 2398402 2343434 2288752 2234511 2181200 2129393 
789.714 2079603 2032157 1987218 1944827 1905057 1868007 1833873 1802877 
793.571 1775197 1750852 1729737 1711477 1695498 1680989 1667011 1652581 
797.428 1636953 1619787 1601345 1582519 1564706 1549443 1538029 1531141 
801.285 1528636 1529603 1532684 1536388 1539680 1541990 1543322 1544018 
805.141 1544511 1545088 1545814 1546613 1547395 1548258 1549554 1551767 
808.998 1555329 1560394 1566713 1573565 1579966 1584873 1587473 1587376 
812.855 1584687 1579917 1573849 1567298 1560907 1555016 1549666 1544652 
816.712 1539714 1534715 1529870 1525774 1523440 1524068 1528758 1538241 
820.569 1552559 1570975 1592115 1614153 1635267 1653954 1669340 1681278 
824.426 1690248 1697091 1702829 1708287 1714013 1720204 1726769 1733480 
828.283 1740166 1746840 1753818 1761717 1771402 1783766 1799556 1819139 
832.140 1842371 1868620 1896996 1926592 1956999 1988416 2021771 2058478 
835.997 2099998 2147353 2200694 2259186 2321252 2385002 2448935 2512349 
839.854 2575615 2639940 2706960 2778074 2853938 2934211 3017634 3102261 
843.711 3185982 3266793 3343009 3413258 3476428 3531565 3577944 3615213 
847.568 3643663 3664376 3679306 3691121 3702940 3717998 3739357 3769732 
851.425 3811430 3866366 3936103 4021778 4124143 4243496 4379746 4532471 
855.282 4701127 4885114 5083870 5296665 5522426 5759396 6004926 6255476 
859.139 6506848 6754538 6994316 7222614 7436852 7635387 7817429 7982674 
862.995 8131031 8262409 8376755 8474076 8554602 8618918 8667922 8702633 
866.852 8724018 8732593 8728454 8711113 8679792 8633672 8572245 8495505 
870.709 8403995 8298722 8180901 8051669 7911921 7762142 7602570 7433314 
874.566 7254673 7067333 6872572 6672229 6468652 6264341 6061753 5862856 
878.423 5668989 5480641 5297632 5119231 4944677 4773490 4605992 4443456 
882.280 4288194 4143238 4011907 3897212 3801317 3725152 3668351 3629358 
886.137 3605793 3594885 3593844 3600114 3611511 3626248 3642894 3660415 
889.994 3678114 3695611 3712823 3729761 3746445 3762667 3777990 3791704 
893.851 3803029 3811229 3815825 3816680 3814024 3808343 3800366 3790848 
897.708 3780593 3770312 3760603 3751848 3744154 3737296 3730824 3724121 
901.565 3716725 3708448 3699605 3690883 3683247 3677534 3674277 3673431 
905.422 3674455 3676504 3678698 3680410 3681430 3681923 3682288 3682869 
909.279 3683849 3685091 3686329 3687218 3687633 3687603 3687431 3687408 
913.136 3687746 3688397 3689067 3689274 3688584 3686656 3683446 3679135 
916.993 3674030 3668385 3662369 3655966 3649127 3641806 3634157 3626471 
920.849 3619207 3612755 3607371 3603039 3599553 3596599 3593974 3591724 
924.706 3590180 3589788 3591015 3593997 3598560 3604111 3609911 3615288 
928.563 3619893 3623739 3627224 3630858 3635122 3640269 3646382 3653444 
932.420 3661644 3671412 3683472 3698616 3717418 3739920 3765504 3792916 
936.277 3820551 3846847 3870691 3891617 3909907 3926369 3942111 3958194 
940.134 3975417 3994195 4014629 4036492 4059508 4083357 4107852 4132934 
943.991 4158731 4185461 4213441 4243007 4274500 4308231 4344571 4383909 
947.848 4426684 4473303 4524034 4578862 4637331 4698527 4761131 4823581 
951.705 4884340 4942076 4995797 5044829 5088620 5126644 5158150 5182174 
955.562 5197561 5203023 5197359 5179479 5148480 5103667 5044684 4971609 
959.419 4885139 4786771 4678832 4564317 4446635 4329134 4214747 4105719 
963.276 4003558 3909167 3823102 3745779 3677559 3618624 3568869 3527653 
967.133 3493851 3465918 3442241 3421471 3402768 3385914 3371195 3359113 
970.990 3350191 3344696 3342636 3343841 3348109 3355334 3365594 3379019 
974.847 3395712 3415589 3438354 3463512 3490513 3518915 3548466 3579135 
978.703 3610995 3644108 3678447 3713832 3750032 3786940 3824637 3863514 
982.560 3904162 3947170 3992898 4041316 4091880 4143721 4195855 4247417 
986.417 4297925 4347302 4395816 4443972 4492192 4540814 4590052 4640065 
990.274 4690956 4742902 4796045 4850455 4906026 4962529 5019701 5077407 
994.131 5135800 5195377 5256901 5321185 5388885 5460287 5535314 5613583 
997.988 5694709 5778393 5864617 5953518 6045289 6140035 6237726 6338305 
1001.845 6441872 6548896 6660341 6777536 6901961 7034861 7177013 7328584 
1005.702 7489270 7658595 7836259 8022457 8217928 8423896 8641861 8873257 
1009.559 9119281 9380738 9658057 9951286 10260181 10584255 10922791 11274964 
1013.416 11639904 12016822 12405251 12805010 13216282 13639423 14074790 
1016.791 14522399 14981768 15451744 15930517 16415758 16904736 17394684 
1020.166 17883014 18367412 18845970 19317184 19779902 20233242 20676676 
1023.540 21110040 21533726 21948744 22356956 22760948 23164072 23570168 
1026.916 23983382 24407872 24847604 25306102 25786474 26291176 26822120 
1030.291 27380506 27966804 28580734 29221204 29886336 30573514 31279444 
1033.666 32000294 32731724 33469004 34206948 34939988 35662068 36366716 
1037.041 37047072 37696176 38307256 38874164 39391744 39856128 40264712 
1040.417 40615984 40909256 41144312 41321160 41440056 41501660 41507192 
1043.792 41458508 41358356 41210008 41017296 40784456 40516064 40217000 
1047.167 39892664 39548828 39191656 38827388 38462100 38101324 37749612 
1050.542 37410308 37085416 36775528 36480144 36197944 35927336 35666832 
1053.917 35415448 35172916 34939576 34716348 34504692 34306592 34124816 
1057.293 33963200 33826904 33722472 33657584 33640516 33679484 33782072 
1060.668 33954864 34203244 34531600 34943436 35441492 36027584 36702360 
1064.043 37464892 38312508 39240796 40244020 41315700 42449320 43638752 
1067.418 44878472 46163316 47488172 48847616 50235940 51647324 53076440 
1070.794 54518748 55970792 57429844 58893460 60358716 61821932 63278668 
1074.169 64723956 66152896 67560896 68943568 70296408 71614184 72890624 
1077.544 74118256 75289016 76394520 77426528 78376864 79237224 79998904 
1080.919 80652648 81189432 81601224 81882056 82028896 82041736 81923408 
1084.295 81678632 81313768 80836240 80254712 79579240 78821464 77994248 
1087.670 77111048 76184752 75226584 74245224 73246536 72233640 71208056 
1091.045 70170448 69121880 68064368 67001112 65936024 64873280 63816540 
1094.420 62768716 61731828 60707312 59696292 58699740 57718264 56751780 
1097.796 55799116 54858060 53925644 52998936 52075940 51156360 50241696 
1101.171 49334948 48439728 47559456 46696620 45852636 45028244 44223944 
1104.546 43440604 42679732 41943400 41234032 40554052 39905832 39291756 
1107.921 38714356 38176336 37680652 37229920 36826084 36469904 36160756 
1111.297 35896704 35674916 35492080 35344776 35229760 35143980 35084552 
1114.672 35048832 35034476 35039736 35063784 35106656 35169280 35253124 
1118.047 35359712 35490240 35645368 35825108 36028876 36255660 36504036 
1121.422 36772044 37057112 37355832 37663956 37976264 38286768 38588740 
1124.798 38874796 39137168 39367856 39559152 39704208 39797736 39836468 
1128.173 39819272 39746756 39620592 39442684 39214392 38936324 38608436 
1131.548 38230564 37802820 37325988 36801536 36231340 35617348 34961432 
1134.923 34265236 33530432 32759028 31953510 31117102 30253736 29367968 
1138.299 28464862 27549898 26628774 25707274 24791146 23885844 22996472 
1141.674 22127786 21284116 20469702 19688482 18944118 18239782 17577932 
1145.049 16960018 16386554 15857190 15371059 14927115 14524479 14162479 
1148.424 13840584 13558091 13313897 13106301 12933111 12791833 12680116 
1151.800 12595931 12537834 12504791 12496030 12510695 12547739 12605867 
1155.175 12683728 12780179 12894437 13026212 13175650 13343002 13528647 
1158.550 13732773 13955411 14196539 14456168 14734569 15032332 15350445 
1161.925 15690416 16054276 16444676 16864892 17318738 17810504 18344742 
1165.301 18926174 19559600 20249894 21002140 21821664 22714124 23685360 
1168.676 24741244 25887380 27128928 28470388 29915502 31467066 33126628 
1172.051 34893984 36766532 38738476 40800364 42938568 45135228 47368284 
1175.426 49611704 51835640 54006744 56088776 58043736 59833728 61423248 
1178.802 62781636 63885348 64719172 65276980 65561372 65583056 65359812 
1182.177 64915156 64276748 63474552 62538856 61498724 60380684 59208184 
1185.552 58001496 56777872 55551892 54335880 53139960 51972304 50839192 
1188.927 49745176 48693396 47685604 46722580 45804288 44930084 44099164 
1192.302 43310584 42563732 41858260 41194220 40571780 39990980 39451452 
1195.678 38952236 38491728 38067784 37677912 37319532 36990120 36687456 
1199.053 36409564 36154832 35921944 35709812 35517444 35343688 35187036 
1202.428 35045396 34915952 34795440 34680276 34567260 34453784 34338148 
1205.803 34219340 34096784 33969768 33837052 33696628 33545816 33381692 
1209.179 33201564 33003358 32785848 32548658 32292044 32016686 31723454 
1212.554 31413356 31087422 30746772 30392500 30025620 29647076 29257726 
1215.929 28858436 28450188 28034208 27611980 27185204 26755586 26324746 
1219.304 25894082 25464798 25037972 24614652 24195922 23782926 23376728 
1222.680 22978290 22588340 22207342 21835492 21472836 21119266 20774582 
1226.055 20438610 20111190 19792338 19482292 19181556 18890816 18610826 
1229.430 18342160 18084920 17838762 17602814 17376010 17157392 16946452 
1232.805 16743331 16548720 16363554 16188630 16024229 15869965 15724859 
1236.181 15587659 15457200 15332770 15214200 15101741 14995746 14896335 
1239.556 14803104 14715166 14631152 14549693 14469558 14390023 14310908 
1242.931 14232582 14155857 14081836 14011781 13946980 13888510 13837121 
1246.306 13793083 13756044 13725179 13699302 13677223 13658051 13641411 
1249.682 13627505 13616979 13610654 13609216 13613027 13622127 13636267 
1253.057 13655168 13678750 13707127 13740648 13779686 13824524 13875096 
1256.432 13930966 13991390 14055355 14121778 14189605 14257954 14326099 
1259.807 14393485 14459766 14524627 14587803 14648907 14707421 14762633 
1263.183 14813621 14859363 14898831 14931032 14955167 14970508 14976554 
1266.558 14972796 14958823 14934132 14898327 14851032 14792004 14721118 
1269.933 14638345 14543761 14437510 14319685 14190470 14049949 13898216 
1273.308 13735345 13561288 13375956 13179216 12970972 12751390 12521002 
1276.684 12280889 12032659 11778311 11520068 11259963 10999686 10740353 
1280.059 10482570 10226619 9972724 9721255 9472983 9229094 8991109 8760770 
1283.916 8539858 8330033 8132807 7949424 7780873 7627952 7491217 7371038 
1287.774 7267612 7180947 7110911 7057269 7019647 6997622 6990609 6997995 
1291.631 7019011 7052624 7097590 7152289 7214802 7283003 7354747 7428056 
1295.489 7501242 7573119 7642778 7709633 7773246 7833185 7889009 7940324 
1299.346 7986806 8028330 8064968 8096866 8124300 8147508 8166688 8182156 
1303.203 8194272 8203634 8210964 8217103 8222715 8228133 8233216 8237323 
1307.061 8239460 8238578 8233841 8224928 8212135 8196349 8178797 8160841 
1310.918 8143603 8127752 8113492 8100593 8088636 8077221 8066206 8055790 
1314.776 8046491 8038876 8033406 8030222 8029002 8029095 8029681 8030078 
1318.633 8029949 8029451 8029145 8029930 8032647 8037971 8046188 8057259 
1322.490 8070807 8086307 8103279 8121349 8140380 8160516 8182102 8205662 
1326.348 8231780 8260948 8293473 8329426 8368680 8411164 8456957 8506563 
1330.205 8560760 8620592 8686885 8759969 8839291 8923664 9011316 9100604 
1334.063 9190450 9280660 9372030 9465982 9564002 9667233 9776064 9890160 
1337.920 10008638 10130477 10254792 10381175 10509609 10640448 10774262 
1341.295 10911773 11053803 11201187 11354775 11515235 11682771 11857107 
1344.671 12037382 12222324 12410593 12601179 12793578 12987919 13184726 
1348.046 13384584 13587813 13794133 14002636 14211985 14420429 14626271 
1351.421 14827764 15023325 15211357 15390360 15558909 15715797 15860133 
1354.796 15991408 16109461 16214289 16305880 16384122 16448846 16499956 
1358.172 16537720 16562989 16577162 16582085 16579667 16571562 16558924 
1361.547 16542467 16522582 16499639 16474104 16446619 16417642 16387092 
1364.922 16353960 16316171 16270612 16213562 16141216 16050234 15938196 
1368.297 15804046 15648173 15472713 15281506 15080132 14875889 14677519 
1371.673 14494799 14338093 14217666 14143121 14122666 14162554 14266370 
1375.048 14434488 14663722 14947273 15274920 15633731 16009016 16385542 
1378.423 16748586 17085060 17384006 17636802 17836934 17979556 18061222 
1381.798 18079682 18034034 17924862 17754280 17525860 17244140 16914364 
1385.174 16542073 16133051 15693253 15228797 14745840 14250213 13746944 
1388.549 13240016 12732178 12225188 11720131 11217917 10719572 10226505 
1391.924 9740486 9263708 8798762 8348513 7916169 7504964 7117916 6757416 
1395.781 6424843 6120506 5843560 5592400 5364935 5159028 4972666 4804100 
1399.639 4651753 4514166 4389824 4277184 4174689 4080884 3994461 3914384 
1403.496 3839868 3770336 3705328 3644443 3587268 3533356 3482268 3433679 
1407.354 3387368 3343412 3302073 3263856 3229340 3199062 3173394 3152404 
1411.211 3135767 3122864 3112750 3104369 3096716 3089015 3080830 3072222 
1415.069 3063659 3055918 3049874 3046266 3045547 3047732 3052536 3059441 
1418.926 3067967 3077883 3089216 3102309 3117632 3135672 3156778 3181164 
1422.783 3208935 3240156 3274828 3312996 3354671 3399876 3448594 3501005 
1426.641 3557433 3618424 3684694 3756993 3835815 3921344 4013409 4111597 
1430.498 4215520 4325136 4440881 4563740 4695168 4836982 4991112 5159695 
1434.356 5344963 5549379 5775557 6026309 6304387 6612408 6952696 7327367 
1438.213 7738283 8187057 8674904 9202377 9768990 10373044 11011337 11679276 
1442.071 12371043 13079707 13797407 14515573 15225218 15917411 16583826 
1445.446 17217280 17812094 18364062 18870250 19328674 19738050 20097760 
1448.821 20407856 20669038 20882562 21049972 21172830 21252536 21290342 
1452.196 21287362 21244698 21163284 21043632 20885448 20687666 20448612 
1455.572 20166676 19841178 19473008 19064950 18621180 18146678 17646420 
1458.947 17124784 16585499 16031864 15466826 14893214 14313623 13730398 
1462.322 13145693 12561789 11981478 11408357 10846750 10301300 9776124 
1465.697 9274270 8797254 8345204 7917376 7512717 7130465 6770246 6432011 
1469.555 6115783 5821382 5548380 5296065 5063457 4849448 4652649 4471378 
1473.412 4303660 4147501 4001171 3863524 3734196 3613434 3501849 3399865 
1477.270 3307421 3223808 3147890 3078342 3014079 2954465 2899229 2848266 
1481.127 2801398 2758213 2718051 2680224 2644300 2610179 2578122 2548420 
1484.984 2521337 2496693 2473987 2452486 2431562 2410831 2390317 2370319 
1488.842 2351240 2333367 2316710 2301024 2285970 2271217 2256668 2242466 
1492.699 2228861 2216151 2204471 2193649 2183349 2172988 2162008 2149956 
1496.557 2136657 2122283 2107235 2092202 2077931 2065120 2054278 2045660 
1500.414 2039229 2034753 2031794 2029859 2028421 2027104 2025514 2023409 
1504.271 2020691 2017425 2013793 2010142 2006843 2004119 2002057 2000437 
1508.129 1998846 1996785 1993851 1989800 1984696 1978758 1972373 1965896 
1511.986 1959658 1953860 1948653 1944155 1940471 1937662 1935690 1934398 
1515.844 1933524 1932767 1931881 1930813 1929640 1928580 1927803 1927260 
1519.701 1926726 1925719 1923705 1920226 1915130 1908521 1900819 1892519 
1523.559 1884158 1876105 1868649 1861949 1856050 1850927 1846489 1842520 
1527.416 1838757 1834940 1830891 1826595 1822285 1818348 1815195 1813224 
1531.273 1812622 1813338 1815151 1817700 1820590 1823471 1826066 1828108 
1535.131 1829394 1829753 1829130 1827543 1825196 1822350 1819371 1816484 
1538.988 1813826 1811354 1808823 1805897 1802224 1797511 1791602 1784505 
1542.846 1776438 1767810 1759209 1751302 1744683 1739678 1736253 1733888 
1546.703 1731752 1728840 1724276 1717635 1709017 1698962 1688424 1678359 
1550.561 1669575 1662524 1657313 1653829 1651754 1650775 1650575 1650744 
1554.418 1650876 1650518 1649308 1647046 1643857 1640097 1636433 1633498 
1558.275 1631872 1631800 1633226 1635758 1638859 1641924 1644424 1645934 
1562.133 1646166 1644971 1642327 1638387 1633530 1628267 1623198 1618874 
1565.990 1615706 1613844 1613288 1613838 1615287 1617422 1620097 1623134 
1569.848 1626387 1629551 1632354 1634556 1636071 1637027 1637817 1638911 
1573.705 1640813 1643779 1647836 1652623 1657547 1661938 1665251 1667179 
1577.563 1667748 1667229 1666024 1664496 1662929 1661431 1660028 1658710 
1581.420 1657541 1656704 1656452 1657063 1658665 1661234 1664536 1668130 
1585.277 1671603 1674561 1676880 1678548 1679774 1680748 1681646 1682508 
1589.135 1683315 1683977 1684563 1685107 1685779 1686658 1687801 1689091 
1592.992 1690403 1691672 1693028 1694817 1697593 1701888 1708006 1715933 
1596.850 1725222 1735157 1745012 1754244 1762695 1770591 1778439 1786797 
1600.707 1796097 1806488 1817865 1829878 1842112 1854137 1865565 1876145 
1604.564 1885682 1894139 1901661 1908559 1915287 1922325 1930085 1938705 
1608.422 1948037 1957710 1967192 1976071 1984150 1991520 1998483 2005411 
1612.279 2012701 2020557 2029134 2038508 2048754 2059960 2072122 2085048 
1616.137 2098265 2111044 2122624 2132383 2140197 2146419 2151832 2157320 
1619.994 2163629 2170967 2179003 2186905 2193725 2198653 2201381 2202130 
1623.852 2201540 2200406 2199387 2198846 2198775 2198983 2199279 2199602 
1627.709 2200104 2201101 2202821 2205372 2208504 2211693 2214287 2215711 
1631.566 2215630 2214070 2211409 2208255 2205300 2203153 2202178 2202442 
1635.424 2203712 2205530 2207316 2208508 2208622 2207363 2204659 2200620 
1639.281 2195548 2189902 2184168 2178807 2174205 2170655 2168309 2167161 
1643.139 2167197 2168237 2170097 2172480 2175101 2177666 2180115 2182547 
1646.996 2185302 2188896 2193810 2200337 2208379 2217383 2226461 2234598 
1650.854 2240973 2245178 2247466 2248641 2249868 2252237 2256394 2262408 
1654.711 2269733 2277583 2285205 2292249 2298833 2305438 2312693 2321086 
1658.568 2330775 2341474 2352675 2363804 2374497 2384657 2394499 2404325 
1662.426 2414373 2424748 2435283 2445734 2455918 2465841 2475673 2485769 
1666.283 2496414 2507809 2519951 2532707 2545941 2559643 2573991 2589295 
1670.141 2605930 2623995 2643344 2663494 2683782 2703586 2722491 2740438 
1673.998 2757627 2774449 2791225 2808136 2825140 2842070 2858852 2875583 
1677.855 2892627 2910523 2929840 2950933 2973928 2998601 3024579 3051468 
1681.713 3079021 3107123 3135849 3165266 3195362 3226019 3257130 3288645 
1685.570 3320774 3353899 3388468 3424740 3462726 3501996 3541912 3581794 
1689.428 3621237 3660217 3699219 3738905 3780057 3823153 3868455 3915975 
1693.285 3965734 4017907 4073003 4131674 4194503 4261739 4333125 4408020 
1697.143 4485593 4565175 4646628 4730314 4817065 4907929 5003980 5106068 
1701.000 5214847 5330859 5454641 5586773 5727721 5877791 6036905 6204549 
1704.857 6379956 6562464 6751816 6948414 7153393 7368336 7595069 7835191 
1708.715 8089969 8360265 8646635 8949456 9269015 9605554 9959207 10329974 
1712.572 10717738 11122373 11543927 11982798 12439783 12916099 13413139 
1715.948 13932101 14473826 15038498 15625584 16233999 16862448 17510014 
1719.323 18176556 18863082 19571758 20305632 21068004 21861690 22688446 
1722.698 23548530 24441082 25364486 26317286 27298788 28309488 29350882 
1726.073 30425202 31534850 32682132 33869048 35097360 36368800 37685008 
1729.448 39047652 40458280 41918624 43430772 44997592 46622740 48310028 
1732.824 50062416 51880576 53761960 55700700 57689136 59719956 61788680 
1736.199 63894872 66041560 68233264 70473112 72760328 75089112 77449216 
1739.574 79827800 82211376 84586816 86940944 89258800 91522112 93708768 
1742.949 95794192 97753920 99565920 101212016 102677416 103949128 105014752 
1746.325 105862824 106484512 106875992 107039872 106984424 106720984 
1749.218 106260944 105613480 104785832 103785072 102620648 101305792 
1752.111 99856864 98290856 96622720 94863064 93018552 91093208 89091232 
1755.486 87019032 84886392 82706024 80492176 78259136 76020032 73786304 
1758.861 71567776 69372912 67209368 65084236 63004256 60976172 59006752 
1762.237 57102668 55269872 53512764 51833288 50230556 48700928 47239016 
1765.612 45839136 44496496 43208252 41973428 40792224 39664776 38590036 
1768.987 37564980 36584944 35644172 34736888 33858120 33004270 32172934 
1772.362 31362454 30571336 29797682 29038722 28291122 27551038 26814560 
1775.738 26078158 25338932 24594836 23844910 23089138 22328528 21564828 
1779.113 20800434 20038098 19280812 18531538 17793044 17067760 16357687 
1782.488 15664425 14989175 14332931 13696650 13081191 12487634 11917014 
1785.863 11370496 10849298 10354562 9887312 9448305 9037813 8655434 8300079 
1789.721 7970044 7663287 7377833 7111906 6864096 6633301 6418470 6218490 
1793.578 6032035 5857735 5694336 5540882 5396896 5262149 5136561 5019898 
1797.436 4911702 4811242 4717664 4630182 4548106 4470716 4397084 4326088 
1801.293 4256351 4186619 4116146 4045115 3974685 3906762 3843496 3786511 
1805.150 3736496 3692831 3653983 3617798 3582307 3545960 3507995 3468344 
1809.008 3427403 3385892 3344576 3304185 3265295 3228024 3191939 3155876 
1812.865 3118155 3076940 3031066 2980736 2927930 2876366 2830814 2795720 
1816.723 2774020 2765877 2768500 2776703 2784324 2785793 2777638 2759032 
1820.580 2731703 2698994 2664833 2632716 2604876 2582172 2564238 2549855 
1824.438 2537414 2525313 2512226 2497186 2479650 2459306 2435996 2409535 
1828.295 2379929 2347322 2312241 2275928 2240094 2206720 2177707 2154103 
1832.152 2135892 2121798 2109607 2096763 2081126 2061305 2037174 2009320 
1836.010 1978793 1946608 1913380 1879412 1844818 1809959 1775614 1742898 
1839.867 1713062 1687033 1665258 1647464 1632977 1620927 1610729 1602115 
1843.725 1595274 1590605 1588434 1588587 1590443 1592593 1593409 1591109 
1847.582 1584313 1572324 1555429 1534675 1511868 1488800 1466856 1446536 
1851.439 1427423 1408385 1388280 1366465 1343421 1320571 1300082 1283859 
1855.297 1273119 1267828 1266852 1268506 1271317 1274417 1277963 1282599 
1859.154 1289165 1297864 1308197 1318931 1328562 1335710 1339480 1339520 
1863.012 1335787 1328319 1317143 1302441 1284758 1265218 1245711 1228213 
1866.869 1214565 1205522 1200664 1198385 1196413 1192586 1185501 1174685 
1870.727 1160745 1144795 1128104 1111754 1096669 1083479 1072912 1065406 
1874.584 1061244 1060126 1061374 1063920 1066940 1070226 1074535 1081179 
1878.441 1091592 1106297 1124287 1142935 1158475 1167148 1166530 1156274 
1882.299 1138387 1116428 1094318 1074948 1059411 1046822 1035121 1022207 
1886.156 1007150 990716 975408 964424 960784 965993 979572 999003 1020502 
1890.496 1039758 1053108 1057973 1053322 1039308 1017422 989930 959932 
1894.353 930914 906740 890985 886469 894322 913770 941580 972906 1001993 
1898.693 1023748 1034840 1034694 1025408 1011387 997725 989184 988810 997297 
1903.032 1013193 1033666 1055304 1075162 1091108 1102209 1108119 1108771 
1906.890 1104057 1093885 1078086 1057479 1033536 1008878 986519 969291 
1910.747 958904 955514 957703 963046 968956 973735 977117 979988 983797 
1915.087 989509 996631 1003095 1005520 1000829 987225 965484 938878 912388 
1919.427 890863 877785 873730 876721 882667 886846 885105 874556 853547 
1923.766 821493 777967 723410 659210 588884 518525 456931 413760 397819 
1928.106 414025 462214 536104 625166 716734 799317 864437 908334 931269 
1932.445 937012 930750 918417 905478 896938 896320 905915 925217 950988 
1936.785 976982 995338 998061 979914 939564 881233 812998 745505 688417 
1941.125 647954 625105 615770 612033 605591 589988 563850 531198 500811 
1945.464 483533 489003 522036 580685 655827 733443 798159 837879 847043 
1949.804 828716 792837 754178 726699 720481 738371 775488 820911 861012 
1954.143 882405 875791 836904 768320 677582 577086 481336 405214 361196 
1958.483 357968 397544 475929 582946 704787 825944 932338 1012760 1060506 
1962.823 1073805 1056911 1019398 975814 942677 935021 961600 1021902 1104532 
1967.162 1191234 1261914 1302251 1309074 1291881 1268238 1257671 1271019 
1971.020 1305538 1343458 1357195 1319390 1213598 1040929 821965 591629 
1974.877 392102 262213 230108 307877 490018 754476 1066641 1384965 1669953 
1979.217 1891814 2035658 2103085 2109636 2077362 2028452 1977200 1927460 
1983.074 1872392 1800052 1699527 1568224 1413562 1252161 1103240 982725 
1986.931 897230 843803 812846 793886 780054 770307 766516 770334 777369 
1991.271 777258 755522 699577 604631 477937 337175 206812 109814 62238 68890 
1996.093 124927 218137 334425 460639 586231 702419 800828 872592 909202 
2000.432 903768 854482 765033 645845 511380 377978 261099 173353 123165 
2004.772 115832 151173 224921 327285 444973 562804 668449 754042 818610 
2009.112 865014 897627 917944 922627 903363 851790 762349 638862 493811 
2013.451 349031 228930 155487 141863 191183 295075 438141 600541 762727 
2017.791 906739 1019113 1090417 1116476 1097368 1037776 944529 826260 691094 
2022.130 546471 398510 254082 121866 13547 -58076 -81514 -51270 28942 144049 
2026.952 271231 383624 458829 483998 461027 405446 342116 299001 299653 
2031.292 356455 469521 625517 802557 974981 1119662 1220699 1272479 1278698 
2035.631 1249965 1198775 1136270 1068705 996504 916064 822175 711423 584853 
2039.971 448594 313613 193092 98791 38475 13494 18236 42390 72561 97663 
2044.793 111354 115085 117955 135140 182895 273430 409679 582628 771365 
2049.132 948095 1085441 1163764 1175369 1125626 1029221 906929 779732 666534 
2053.472 580679 529347 513272 527815 564596 613905 666477 714920 754551 
2057.812 783521 802495 814385 822769 831351 842673 857766 875785 894334 
2062.151 910016 919225 918514 905619 879577 841327 793882 742037 692074 
2066.491 650632 623326 613953 623238 648920 686128 728429 768825 801443 
2070.830 822130 829206 823940 810094 793362 780485 777409 788196 813319 
2075.170 849870 891710 931517 962681 981597 988373 987085 984014 985698 
2079.510 996668 1018021 1047011 1077963 1103453 1116634 1112443 1088992 
2083.367 1047936 994301 935327 879497 834594 806405 797449 806743 830369 
2087.707 862636 897626 930521 957761 976869 985299 980085 957833 915715 
2092.046 853527 775284 689553 609024 547066 514414 515642 547514 599904 
2096.386 659498 713669 754618 780418 794839 804086 813716 826082 839362 
2100.725 848701 848509 834676 806826 768686 727215 690976 667985 663650 
2105.065 679709 713677 759724 809928 856222 892540 915978 927436 930944 
2109.405 931941 935134 942751 953750 964302 969748 966299 953263 932796 
2113.744 909728 888997 874160 865933 862204 858918 852212 839515 820556 
2118.084 797075 771608 746108 721219 695823 668059 636186 599825 560356 
2122.423 520497 483338 451063 424058 400795 378213 353032 322884 287171 
2126.763 247231 205651 165010 126769 90101 52436 10189 -39549 -97309 -160410 
2131.585 -223390 -279651 -323879 -354350 -373934 -389369 -408898 -438269 
2135.442 -478561 -524927 -568406 -598886 -609511 -598403 -569849 -532001 
2139.300 -494684 -466019 -451785 -454965 -477324 -519829 -582946 -665004 
2143.157 -761198 -862269 -956668 -1032864 -1084041 -1110750 -1121735 
2146.532 -1130826 -1151950 -1193509 -1255236 -1328040 -1397922 -1451967 
2149.907 -1483265 -1493295 -1491246 -1490226 -1503884 -1541503 -1608211 
2153.283 -1704672 -1828891 -1977226 -2144764 -2322807 -2499529 -2658488 
2156.658 -2780792 -2849333 -2851738 -2784150 -2650976 -2462807 -2233245 
2160.033 -1974443 -1697260 -1413381 -1135849 -878610 -653581 -466381 -314714 
2163.891 -187080 -69275 49353 169436 279642 359083 386768 350182 253039 
2168.230 116176 -28299 -146085 -212106 -218186 -174642 -106316 -42203 -6735 
2172.570 -12020 -55724 -124365 -200074 -266568 -314868 -342556 -353219 
2176.427 -351343 -340742 -323104 -301053 -279196 -266142 -272120 -305769 
2180.285 -368971 -454143 -543891 -615920 -649187 -632271 -567009 -468188 
2184.142 -358435 -260454 -189130 -148411 -130023 -118859 -98199 -55747 12774 
2188.482 103345 205853 307600 397106 465628 509245 527761 524204 504163 
2192.821 474916 444564 421209 411152 417567 439672 472691 509263 542220 
2197.161 566341 580961 589274 598162 615730 648445 699158 766301 843040 
2201.500 919145 981876 1019175 1021574 984276 909071 804670 685341 569129 
2205.840 473351 411406 389425 405394 449994 510006 572157 626787 669439 
2210.180 700812 724710 745133 763700 779434 788731 787935 774997 751475 
2214.519 721968 692790 670105 657912 656562 664618 679093 697921 721189 
2218.859 750318 787127 831650 880608 926997 961846 977141 969009 939744 
2223.198 897984 856418 827619 820016 834700 865508 900872 927929 936974 
2227.538 924635 894426 855712 819798 797160 794285 812848 849703 898705 
2231.878 951868 1001085 1038996 1060000 1060924 1041772 1005929 959807 
2235.735 911646 869409 838555 821205 815640 817940 823973 831071 838787 
2240.075 848520 861561 877936 895528 910715 919971 922045 918423 913457 
2244.414 912017 917581 930193 946207 959541 964077 955636 933538 900014 
2248.754 858918 814132 768355 723543 681637 645791 621180 613729 628950 
2253.094 669416 733768 816314 908667 1001419 1086590 1158241 1212806 1248268 
2257.433 1263482 1257826 1232147 1189228 1134912 1077317 1025884 988809 
2261.291 971381 974335 994356 1024865 1058626 1089325 1113333 1129864 
2265.148 1141090 1150804 1163599 1183803 1214674 1257148 1310075 1369676 
2269.005 1430313 1485388 1528973 1556997 1568466 1565128 1551313 1532172 
2272.863 1512889 1496989 1486729 1482860 1485424 1494072 1508422 1527964 
2276.720 1551334 1576482 1600243 1618788 1628424 1626443 1611977 1586821 
2280.578 1555459 1524792 1502939 1497561 1513787 1552585 1610014 1677597 
2284.435 1744383 1799686 1835818 1850233 1845830 1829586 1810074 1794724 
2288.292 1787476 1788192 1793249 1797396 1795913 1786044 1767919 1743801 
2292.150 1717299 1691821 1669854 1652278 1638662 1627515 1616944 1605087 
2296.007 1590605 1573105 1553390 1533392 1515933 1503943 1499774 1504017 
2299.865 1515387 1530641 1545632 1556503 1560803 1558123 1550282 1540446 
2303.722 1532034 1527657 1528527 1534198 1543067 1552903 1561611 1567582 
2307.580 1570076 1569014 1565038 1559195 1552790 1547106 1543301 1542169 
2311.437 1544178 1549565 1558431 1570875 1587047 1606975 1630384 1656551 
2315.294 1684179 1711678 1737453 1760333 1779749 1796003 1810076 1823695 
2319.152 1839255 1859716 1888264 1927560 1978753 2039936 2105542 2166169 
2323.009 2210052 2225517 2203988 2142304 2043814 1917901 1778014 1638813 
2326.867 1513416 1410930 1335356 1285743 1257474 1244155 1239536 1238691 
2330.724 1238423 1236975 1233618 1228124 1220751 1212194 1203650 1196691 
2334.582 1192720 1192488 1195828 1201533 1207899 1213234 1216408 1217169 
2338.439 1216055 1213922 1211630 1209730 1208567 1208306 1209160 1211316 
2342.296 1214888 1219506 1224212 1227458 1227601 1223246 1213762 1199596 
2346.154 1182108 1163255 1145145 1129602 1117949 1110957 1108683 1110689 
2350.011 1116041 1123372 1131061 1137674 1142083 1143957 1143553 1141611 
2353.869 1138761 1135264 1130755 1124382 1115419 1103581 1089474 1074423 
2357.726 1059969 1047263 1036591 1027201 1017794 1007024 994206 979616 
2361.583 964334 949798 937139 926830 918746 912280 906941 902715 899926 
2365.923 899177 900744 904353 909000 913278 915767 915502 912291 906599 
2370.263 899558 892523 886999 884405 885957 892432 903988 919770 937958 
2374.602 955927 970807 980365 983584 981033 974728 967491 962128 960622 
2378.942 963895 971793 983317 997332 1012636 1028148 1042863 1055761 1065968 
2383.281 1072854 1076367 1076920 1075413 1072684 1069203 1064882 1059281 
2387.139 1052073 1043599 1035138 1028713 1026554 1030128 1039557 1053368 
2390.996 1068859 1083093 1093634 1099414 1100733 1098936 1095718 1092452 
2394.854 1089873 1087991 1086518 1085028 1083288 1081251 1079052 1076829 
2398.711 1074756 1073246 1072923 1074561 1078755 1085700 1094626 1104159 
2402.569 1112418 1117840 1119714 1118699 1116628 1116007 1119163 1127372 
2406.426 1140526 1157025 1174372 1189720 1200636 1205656 1204282 1197060 
2410.283 1185257 1170647 1155177 1140608 1128394 1119352 1113580 1110707 
2414.141 1109862 1110318 1111583 1113536 1116379 1120478 1125955 1132648 
2417.998 1140106 1147762 1154967 1161309 1166372 1169840 1171192 1170014 
2421.856 1165825 1158794 1149505 1139377 1130163 1123795 1121737 1124965 
2425.713 1133645 1147327 1165024 1185357 1206492 1226141 1241723 1250813 
2429.571 1251510 1243399 1227619 1206939 1185147 1166014 1152222 1144734 
2433.428 1142670 1143794 1145439 1145437 1142744 1137570 1131170 1125094 
2437.285 1120795 1119196 1120553 1124531 1130414 1137051 1143209 1147595 
2441.143 1149301 1147983 1144186 1139331 1135228 1133906 1136699 1143981 
2445.000 1154991 1168325 1182223 1195293 1206564 1215586 1222020 1225370 
2448.858 1224832 1219458 1208746 1192916 1173347 1152386 1132775 1117306 
2452.715 1107730 1104695 1107574 1114816 1124347 1133964 1141884 1146723 
2456.573 1147795 1145140 1139612 1132667 1126188 1121954 1121186 1124083 
2460.430 1129559 1135623 1139777 1139967 1135103 1125595 1113147 1100498 
2464.287 1090411 1085023 1085276 1090605 1099148 1108223 1115154 1117826 
2468.145 1115516 1109155 1101189 1095262 1095038 1103422 1121407 1147511 
2472.002 1177989 1207483 1230433 1242420 1241394 1228276 1206546 1181479 
2475.860 1158705 1142967 1137110 1141786 1155575 1175588 1198070 1219220 
2479.717 1235546 1244539 1244756 1236250 1220564 1200783 1181014 1165749 
2483.574 1158780 1162516 1177113 1200625 1229282 1258466 1283693 1301604 
2487.432 1310106 1308825 1298355 1280022 1255402 1226431 1195145 1164132 
2491.289 1136377 1115074 1102952 1101713 1111415 1130371 1155335 1182320 
2495.147 1207398 1227608 1241396 1248790 1251099 1250403 1248878 1248499 
2499.004 1250474 1255180 1262176 1270273 1278005 1283752 1286424 1285808 
2502.862 1282405 1277458 1272164 1267397 1262813 1257154 1248485 1235194 
2506.719 1216592 1193988 1170197 1149315 1135349 1131334 1138273 1155183 
2510.576 1179333 1207164 1235191 1260482 1280970 1295429 1303093 1303613 
2514.434 1297034 1283877 1265430 1243597 1220733 1199323 1181424 1168791 
2518.291 1162404 1162803 1169800 1182606 1199496 1217923 1234738 1246821 
2522.149 1252080 1250231 1243122 1234396 1228382 1228651 1236568 1251081 
2526.006 1268768 1285160 1296469 1300716 1298421 1292108 1285310 1281086 
2529.864 1281008 1284874 1290744 1296217 1298900 1297382 1291312 1281257 
2533.721 1268481 1254352 1240381 1227859 1217865 1211283 1208454 1209482 
2537.578 1213988 1221403 1231203 1242913 1256212 1270768 1285851 1300389 
2541.436 1313118 1322981 1329473 1333119 1335214 1337488 1341462 1347759 
2545.293 1355894 1364741 1372729 1378901 1382931 1385415 1387088 1388436 
2549.151 1389033 1387739 1383184 1374341 1361243 1345250 1328568 1313670 
2553.008 1302440 1295710 1293241 1294299 1297952 1303825 1311851 1322298 
2556.865 1335021 1349269 1363593 1376404 1386123 1392051 1394383 1394070 
2560.723 1392426 1390583 1389220 1388648 1388789 1389721 1391616 1394794 
2564.580 1399470 1405465 1412169 1418702 1424171 1428117 1430574 1432255 
2568.438 1433999 1436664 1440470 1445277 1450362 1454923 1458148 1459647 
2572.295 1459325 1457362 1454180 1450366 1446482 1443339 1441613 1441736 
2576.153 1443796 1447188 1450772 1453387 1453988 1452417 1449485 1446969 
2580.010 1447005 1451355 1460800 1474670 1490791 1506296 1518122 1524053 
2583.867 1523236 1516473 1505810 1494241 1484770 1479976 1481329 1489049 
2587.725 1501934 1517684 1533190 1545147 1550593 1547680 1536003 1516770 
2591.582 1492669 1467347 1444596 1427905 1419521 1420516 1430573 1448186 
2595.440 1471043 1496276 1520913 1542144 1557803 1566750 1569145 1566458 
2599.297 1561257 1556489 1554848 1557810 1565377 1576095 1587631 1597606 
2603.155 1604481 1608006 1609188 1609845 1611754 1616106 1622922 1631379 
2607.012 1640014 1647523 1653062 1656454 1658033 1658286 1657619 1656240 
2610.869 1654062 1651058 1647332 1643298 1639404 1636245 1634183 1633633 
2614.727 1634883 1638349 1644507 1653693 1665777 1679802 1693958 1705910 
2618.584 1713235 1714255 1708615 1697395 1682832 1667773 1654745 1645451 
2622.442 1640571 1639938 1643008 1649246 1658362 1670157 1684278 1699889 
2626.299 1715606 1729616 1740353 1746799 1749020 1748103 1745920 1744480 
2630.156 1745420 1749607 1756912 1766522 1776996 1786819 1794696 1799767 
2634.014 1801647 1800594 1797287 1792711 1787956 1783918 1781236 1780115 
2637.871 1780414 1781867 1784262 1787536 1791870 1797493 1804345 1811982 
2641.729 1819604 1826145 1830597 1832523 1832030 1829854 1827125 1825027 
2645.586 1824247 1825132 1827415 1830439 1833340 1835206 1835059 1832130 
2649.444 1825694 1815447 1801558 1784946 1767053 1749853 1735254 1724622 
2653.301 1718556 1716574 1717386 1719260 1720528 1720037 1717169 1711941 
2657.158 1704809 1696236 1686767 1676714 1666355 1655858 1645287 1634570 
2661.016 1623528 1611804 1599021 1585046 1569967 1554375 1539012 1524728 
2664.873 1512112 1501176 1491543 1482372 1472859 1462511 1451372 1439908 
2668.731 1428870 1419012 1410637 1403701 1397739 1392232 1386732 1381302 
2672.588 1376336 1372489 1370459 1370734 1373151 1377156 1381674 1385476 
2676.446 1387466 1386927 1383801 1378645 1372536 1366784 1362647 1360969 
2680.303 1361960 1365242 1369830 1374661 1378604 1380912 1381259 1379698 
2684.160 1376662 1372544 1367840 1362936 1358147 1353726 1349790 1346393 
2688.018 1343382 1340389 1336961 1332731 1327479 1321335 1314737 1308362 
2691.875 1302924 1298882 1296246 1294817 1294075 1293584 1293129 1292855 
2695.733 1293141 1294573 1297651 1302527 1309087 1316896 1325233 1333484 
2699.590 1341023 1347488 1352617 1356434 1358903 1360097 1360005 1358616 
2703.448 1355923 1351869 1346617 1340358 1333526 1326600 1320063 1314366 
2707.305 1309793 1306434 1304235 1303133 1303057 1304151 1306435 1310000 
2711.162 1314657 1319969 1325284 1329828 1332973 1334347 1334138 1332820 
2715.020 1331064 1329463 1328352 1327705 1327139 1326155 1324450 1321898 
2718.877 1318935 1316171 1314409 1314360 1316434 1320688 1326603 1333305 
2722.735 1339700 1344582 1346956 1346227 1342448 1336302 1329068 1322288 
2726.592 1317507 1315712 1317151 1321304 1326913 1332588 1337031 1339609 
2730.449 1340467 1340475 1340849 1342679 1346532 1352182 1358705 1364707 
2734.307 1368788 1369992 1368106 1363828 1358373 1353256 1349899 1349183 
2738.164 1351402 1356211 1362783 1370112 1377130 1382829 1386325 1386872 
2742.022 1383982 1377441 1367515 1355031 1341367 1328141 1317100 1309514 
2745.879 1306084 1306570 1310158 1315524 1321342 1326601 1330729 1333588 
2749.737 1335434 1336552 1337248 1337712 1338076 1338440 1338868 1339407 
2753.594 1339955 1340254 1339926 1338665 1336370 1333289 1330022 1327363 
2757.451 1326044 1326331 1327995 1330224 1332000 1332233 1330302 1326178 
2761.309 1320470 1314160 1308459 1304375 1302548 1303266 1306252 1310916 
2765.166 1316322 1321341 1324889 1326084 1324507 1320353 1314547 1308535 
2769.024 1303903 1301959 1303448 1308156 1315159 1322955 1329861 1334624 
2772.881 1336548 1335563 1332338 1327746 1322837 1318623 1315858 1315054 
2776.739 1316473 1320051 1325425 1331956 1338889 1345407 1350855 1354909 
2780.596 1357668 1359451 1360712 1361936 1363384 1365075 1366915 1368785 
2784.453 1370580 1372478 1374779 1377846 1381931 1387083 1393049 1399289 
2788.311 1405167 1409999 1413469 1415546 1416623 1417485 1419022 1421990 
2792.168 1426738 1433135 1440490 1447858 1454235 1458993 1462103 1464193 
2796.026 1466311 1469556 1474715 1481959 1490819 1500284 1509275 1516878 
2799.883 1522710 1527021 1530404 1533685 1537493 1542120 1547521 1553384 
2803.740 1559296 1565004 1570469 1575814 1581254 1586999 1593037 1599360 
2807.598 1605667 1611684 1617213 1622046 1626229 1629896 1633346 1636911 
2811.455 1640949 1645858 1651816 1658977 1667274 1676614 1686771 1697537 
2815.313 1708715 1720134 1731585 1742824 1753557 1763508 1772354 1779944 
2819.170 1786295 1791596 1796122 1800270 1804391 1808769 1813719 1819590 
2823.028 1826679 1835357 1845843 1858280 1872320 1887278 1902186 1915855 
2826.885 1927351 1936044 1941914 1945511 1947823 1950041 1953259 1958241 
2830.742 1965379 1974674 1985841 1998606 2012606 2027711 2043777 2060652 
2834.600 2078194 2096011 2113962 2131930 2150041 2168907 2189447 2212744 
2838.457 2239731 2271053 2306880 2346900 2390420 2436821 2485809 2537669 
2842.315 2593366 2654467 2722917 2800710 2889342 2989644 3101195 3222261 
2846.172 3349551 3478391 3602921 3716883 3814180 3889951 3941089 3966963 
2850.030 3969213 3951475 3918463 3875194 3826099 3774580 3722939 3672451 
2853.887 3623739 3577124 3532787 3490835 3451393 3414402 3379891 3348003 
2857.744 3319186 3294148 3273774 3258795 3249424 3245283 3245198 3247691 
2861.602 3251265 3254889 3258406 3262471 3268328 3277384 3290778 3309160 
2865.459 3332710 3361245 3394549 3432433 3474952 3522063 3573588 3629018 
2869.317 3687564 3748262 3810246 3872860 3935722 3998576 4061010 4122316 
2873.174 4181378 4236723 4286938 4330887 4367961 4398345 4422675 4441942 
2877.031 4457118 4468921 4477764 4483664 4486511 4486007 4481813 4473632 
2880.889 4461263 4444452 4423085 4397384 4367762 4335032 4300303 4265017 
2884.746 4230640 4198624 4170034 4145643 4125616 4109699 4097069 4086799 
2888.604 4077950 4070108 4063429 4058856 4057911 4062100 4072683 4089753 
2892.461 4112267 4138121 4164494 4188748 4209039 4224777 4236781 4246854 
2896.319 4257180 4269445 4284735 4302773 4322568 4342631 4361599 4378757 
2900.176 4394259 4409052 4424768 4443178 4465822 4493767 4527270 4565921 
2904.033 4608587 4653927 4700386 4746807 4792530 4837523 4882365 4928030 
2907.891 4975709 5026591 5081812 5142355 5209216 5283331 5365775 5457420 
2911.748 5558900 5670311 5790958 5919384 6053285 6189845 6325835 6457946 
2915.606 6582891 6697841 6800125 6887859 6959808 7015717 7056229 7083000 
2919.463 7098409 7105218 7106218 7104014 7100651 7097576 7095961 7096455 
2923.321 7099634 7105897 7115502 7128554 7144891 7164344 7186512 7211157 
2927.178 7238130 7267614 7299766 7334821 7372943 7414050 7457889 7504128 
2931.035 7552589 7603271 7656557 7713318 7774595 7841717 7915826 7997981 
2934.893 8088854 8188719 8297494 8414803 8539850 8671775 8809521 8951998 
2938.750 9097961 9246177 9395270 9543743 9689943 9832006 9967918 10095701 
2942.608 10213374 10318980 10410781 10487143 10546524 10587631 10609541 
2945.983 10611936 10595208 10560714 10510624 10447820 10375376 10296281 
2949.358 10213117 10127916 10042185 9957088 9873722 9793004 9715685 9642072 
2953.216 9571746 9503723 9436400 9368145 9297746 9224818 9149972 9074497 
2957.073 8999872 8927286 8857130 8788893 8721478 8653469 8583703 8511439 
2960.930 8436447 8358723 8278312 8195089 8108937 8019931 7928631 7836229 
2964.788 7744387 7654740 7568524 7485892 7406035 7327242 7247548 7165425 
2968.645 7080243 6992452 6903510 6815413 6730053 6648847 6572631 6501643 
2972.503 6435736 6374746 6318617 6267502 6221778 6181763 6147631 6119357 
2976.360 6096611 6078918 6065749 6056826 6052243 6052706 6059468 6074106 
2980.218 6098447 6133920 6181589 6241737 6314151 6398257 6493405 6599074 
2984.075 6714868 6840566 6975662 7119321 7270381 7427457 7589303 7754953 
2987.932 7923800 8095416 8269094 8443543 8616597 8785416 8946715 9097503 
2991.790 9235249 9358472 9466390 9558674 9634870 9694305 9735757 9757850 
2995.647 9759387 9739808 9699468 9639583 9562293 9470195 9366032 9252273 
2999.505 9131023 9003692 8870997 8733148 8589908 8441075 8286790 8127696 
3003.362 7965003 7800138 7634631 7469356 7304512 7139628 6973872 6806595 
3007.219 6637837 6468521 6300263 6134989 5974278 5819178 5669827 5525909 
3011.077 5386999 5252816 5123400 4998767 4878817 4762781 4649304 4536874 
3014.934 4424205 4310865 4197474 4085672 3977526 3874801 3778380 3688214 
3018.792 3603169 3522069 3443837 3368267 3295836 3227537 3164277 3106481 
3022.649 3053726 3004880 2958363 2912575 2866245 2818535 2769312 2718812 
3026.507 2667753 2617107 2567979 2521502 2478574 2439726 2404885 2373475 
3030.364 2344425 2316567 2289013 2261323 2233681 2206660 2180974 2157032 
3034.221 2134722 2113552 2092737 2071633 2050188 2028985 2009280 1992545 
3038.079 1980017 1972248 1968749 1968151 1968320 1967242 1963167 1955470 
3041.936 1944294 1930741 1916286 1902217 1889362 1877813 1867009 1856028 
3045.794 1844083 1830887 1816776 1802642 1789714 1779187 1771821 1767709 
3049.651 1766391 1766896 1768148 1769104 1769179 1768105 1765956 1762985 
3053.509 1759439 1755565 1751371 1746817 1741943 1736812 1731669 1726976 
3057.366 1723185 1720716 1719673 1719863 1720729 1721596 1721764 1720875 
3061.223 1718906 1716310 1713620 1711393 1709729 1708261 1706103 1702278 
3065.081 1695901 1686663 1674954 1661720 1648379 1636394 1626825 1620319 
3068.938 1616951 1616340 1617933 1621039 1625001 1629387 1633733 1637751 
3072.796 1641471 1645006 1648677 1652834 1657765 1663482 1669604 1675614 
3076.653 1680821 1684750 1687327 1688799 1689581 1689928 1689666 1688101 
3080.510 1684127 1676711 1665199 1649931 1632241 1614362 1598816 1587755 
3084.368 1582595 1583390 1588996 1597449 1606339 1613660 1617970 1618885 
3088.225 1616963 1613394 1609544 1606614 1605238 1605220 1605781 1605730 
3092.083 1603887 1599346 1591828 1581488 1568842 1554783 1539953 1525006 
3095.940 1510606 1497500 1486757 1479559 1477132 1480071 1488160 1500156 
3099.798 1513797 1526436 1535693 1540006 1539133 1534143 1527093 1520322 
3103.655 1515858 1514949 1517743 1523597 1531306 1539485 1546887 1552594 
3107.512 1556064 1556993 1555473 1551693 1546337 1540251 1534517 1530262 
3111.370 1528404 1529475 1533404 1539420 1546242 1552346 1556208 1556856 
3115.227 1553954 1548055 1540494 1532920 1526922 1523606 1523225 1525289 
3119.085 1528786 1532639 1536169 1539209 1542208 1545773 1550259 1555386 
3122.942 1560325 1563728 1564492 1562137 1557131 1550637 1544193 1539088 
3126.800 1535721 1533778 1532118 1529702 1525943 1521241 1516609 1513519 
3130.657 1513186 1515968 1521322 1527999 1534396 1539366 1542291 1543285 
3134.514 1542924 1541995 1540835 1539600 1538061 1535880 1532888 1529024 
3138.372 1524506 1519608 1514583 1509640 1504928 1500593 1496625 1493108 
3142.229 1489853 1486629 1483119 1479304 1475403 1472164 1470768 1472352 
3146.087 1477783 1487231 1500045 1514741 1529486 1542495 1552334 1558302 
3149.944 1560240 1558462 1553527 1546257 1537654 1528764 1520885 1515096 
3153.802 1512084 1512072 1514481 1518327 1522555 1526447 1529948 1533672 
3157.659 1538583 1545473 1554473 1564809 1574896 1582762 1586647 1585523 
3161.516 1579322 1569019 1556085 1542396 1529542 1518931 1511435 1507669 
3165.374 1507813 1511712 1518869 1528181 1538251 1547443 1554282 1557640 
3169.231 1557187 1553452 1547771 1542036 1538170 1537787 1541560 1549278 
3173.089 1559529 1570337 1579446 1585166 1586651 1584295 1579427 1573833 
3176.946 1569090 1566112 1564869 1564628 1564258 1563078 1561110 1559034 
3180.803 1558183 1559698 1564157 1571197 1579637 1587728 1593741 1596224 
3184.661 1594395 1588220 1578362 1566055 1553202 1542054 1535079 1534478 
3188.518 1541408 1555648 1575121 1596248 1614701 1626358 1628647 1621061 
3192.376 1605212 1584459 1562655 1543276 1528571 1519298 1515043 1514608 
3196.233 1516678 1520290 1524782 1530057 1536341 1543967 1553396 1564993 
3200.091 1578729 1594230 1610466 1625883 1638633 1647126 1650477 1648910 
3203.948 1643562 1636311 1629123 1623501 1620296 1619540 1620740 1623328 
3207.805 1626830 1631000 1635591 1640290 1644572 1647650 1648920 1648048 
3211.663 1645173 1640800 1635715 1630607 1625994 1622306 1619791 1618913 
3215.520 1620104 1623775 1629733 1637159 1644393 1649419 1650475 1646600 
3219.378 1638083 1626532 1614373 1604166 1597734 1595674 1597327 1600904 
3223.235 1604135 1604991 1601989 1594978 1584798 1573427 1563458 1557357 
3227.093 1556930 1562634 1573240 1586067 1597795 1605241 1606672 1602375 
3230.950 1594581 1586730 1582310 1583499 1590474 1601383 1613207 1622868 
3234.807 1628368 1629500 1627487 1624443 1622320 1622139 1623791 1626301 
3238.665 1628443 1629326 1628787 1627324 1625731 1624810 1625009 1626543 
3242.522 1629220 1632766 1636651 1640059 1641945 1641036 1636352 1627663 
3246.380 1615795 1602803 1591420 1584267 1583076 1587938 1597308 1608512 
3250.237 1618597 1625363 1627783 1626194 1621683 1615579 1608776 1601633 
3254.094 1594041 1586066 1578012 1571091 1566819 1566865 1572367 1583558 
3257.952 1599577 1618704 1638571 1656763 1671368 1681027 1685474 1685275 
3261.809 1681827 1676804 1671812 1667881 1665238 1663241 1660762 1656651 
3265.667 1650262 1641923 1632815 1624570 1619028 1617306 1619670 1625551 
3269.524 1633823 1643149 1652446 1660836 1667650 1672426 1674559 1673533 
3273.382 1669061 1661350 1651213 1639930 1629030 1619785 1613096 1609095 
3277.239 1607388 1607306 1608147 1609317 1610388 1610922 1610510 1608725 
3281.096 1605212 1600038 1593752 1587344 1581990 1578812 1578405 1580783 
3284.954 1585230 1590669 1595890 1600044 1602657 1603872 1604141 1604145 
3288.811 1604611 1605927 1608179 1611127 1614175 1616562 1617703 1617378 
3292.669 1615981 1614453 1614137 1616272 1621598 1629796 1639654 1649107 
3296.526 1655944 1658596 1656451 1650194 1641547 1632644 1625342 1620681 
3300.384 1618717 1618699 1619400 1619637 1618634 1615993 1611779 1606148 
3304.241 1599264 1591238 1582225 1572556 1562885 1554076 1547092 1542709 
3308.098 1541206 1542306 1545224 1548851 1552125 1554314 1555350 1555654 
3311.956 1556236 1558182 1562425 1569256 1578265 1588375 1597790 1604876 
3315.813 1608275 1607554 1603176 1596541 1589615 1584322 1582051 1583203 
3319.671 1587270 1592950 1598688 1603048 1605273 1605305 1603668 1601162 
3323.528 1598500 1596026 1593651 1590908 1587307 1582579 1576915 1570825 
3327.385 1565113 1560491 1557362 1555748 1555271 1555441 1555855 1556571 
3331.243 1558035 1560894 1565639 1572418 1580505 1588640 1595258 1598940 
3335.100 1599071 1595995 1591152 1586465 1583921 1584810 1589400 1596798 
3338.958 1605283 1613055 1618659 1621556 1622149 1621554 1620982 1621216 
3342.815 1622201 1623106 1622500 1619037 1612087 1602077 1590529 1579830 
3346.673 1572369 1569972 1573113 1580920 1591198 1601187 1608385 1611131 
3350.530 1609219 1603815 1596895 1590634 1586652 1585521 1586581 1588258 
3354.387 1588655 1586153 1580031 1570604 1559128 1547392 1537182 1529837 
3358.245 1525829 1524935 1526278 1528826 1531802 1534891 1538442 1543142 
3362.102 1549860 1559146 1570936 1584522 1598676 1611888 1622896 1630830 
3365.960 1635405 1636936 1635919 1632926 1628331 1622290 1615017 1606614 
3369.817 1597486 1588289 1579642 1572270 1566465 1562488 1560159 1559422 
3373.675 1560221 1562489 1566171 1570994 1576385 1581472 1585305 1587183 
3377.532 1586731 1584321 1580633 1576649 1573173 1570567 1568879 1567630 
3381.389 1566235 1564329 1561630 1558171 1554156 1549925 1545738 1542037 
3385.247 1539106 1537375 1537061 1538006 1539722 1541245 1541544 1539676 
3389.104 1535459 1529436 1522912 1517442 1514434 1514457 1517147 1521235 
3392.962 1525200 1527757 1528440 1527702 1526737 1527102 1529865 1535335 
3396.819 1542854 1551138 1558560 1563821 1566342 1566211 1564385 1561976 
3400.677 1560217 1559845 1561058 1563363 1565932 1567681 1567686 1565378 
3404.534 1560812 1554637 1547857 1541907 1538145 1537656 1541113 1548713 
3408.391 1559819 1573394 1587648 1600560 1609878 1613670 1610676 1600551 
3412.249 1584082 1563176 1540244 1517905 1498418 1483259 1473195 1468363 
3416.106 1468639 1473785 1483632 1497806 1515589 1535669 1556065 1574488 
3419.964 1588786 1597348 1599498 1595530 1586576 1574068 1559688 1544905 
3423.821 1531025 1519343 1511017 1507045 1508209 1514614 1525849 1540749 
3427.678 1557880 1575707 1592932 1608510 1621647 1631538 1637410 1638571 
3431.536 1634709 1626236 1614474 1601444 1589699 1581345 1577587 1578510 
3435.393 1582804 1588699 1594261 1598340 1600625 1601736 1602617 1604016 
3439.251 1606164 1608705 1610889 1611956 1611618 1610137 1608334 1607049 
3443.108 1606905 1608030 1609869 1611572 1612293 1611550 1609536 1607037 
3446.966 1605161 1605178 1607851 1613446 1621445 1630868 1640537 1649492 
3450.823 1657098 1663445 1668928 1674285 1680013 1686276 1692761 1698703 
3454.680 1703282 1705858 1706166 1704493 1701418 1697612 1693806 1690265 
3458.538 1687116 1684512 1682464 1681319 1681541 1683422 1687055 1692046 
3462.395 1697502 1702333 1705460 1706348 1704972 1701969 1698340 1695104 
3466.253 1692959 1692207 1692698 1694246 1696771 1700598 1706403 1715023 
3470.110 1727041 1742344 1759817 1777716 1793677 1805849 1813099 1815762 
3473.968 1815454 1814938 1816844 1823564 1836080 1853917 1875563 1898910 
3477.825 1921859 1943031 1961607 1977505 1990711 2001175 2008604 2012856 
3481.682 2014222 2013729 2013307 2015351 2022040 2034803 2053691 2077374 
3485.540 2103502 2129514 2153017 2172593 2187605 2198143 2204720 2208016 
3489.397 2208955 2208638 2208462 2210058 2214695 2223030 2234656 2248201 
3493.255 2261632 2273236 2282199 2289308 2296525 2306413 2320974 2340858 
3497.112 2364786 2390066 2413356 2432061 2444907 2452538 2456848 2460368 
3500.969 2464928 2471304 2478885 2486268 2491860 2494740 2494812 2492806 
3504.827 2489738 2486551 2483386 2479902 2475378 2469152 2460905 2451061 
3508.684 2440423 2430197 2421351 2414677 2410424 2408321 2407871 2408119 
3512.542 2407918 2406214 2401874 2394114 2382697 2367908 2350655 2332276 
3516.399 2314214 2297627 2283332 2271626 2262330 2255198 2249792 2245721 
3520.257 2242384 2238903 2234072 2226457 2214886 2198707 2178476 2156004 
3524.114 2133920 2115362 2102744 2097229 2098120 2103264 2109427 2113579 
3527.971 2113607 2109143 2101347 2092565 2085441 2081967 2082643 2086651 
3531.829 2091907 2095787 2095859 2090532 2079294 2062866 2042829 2021114 
3535.686 1999766 1980455 1964191 1951498 1942113 1935469 1930794 1927364 
3539.544 1924611 1922248 1920170 1918210 1916309 1914194 1911495 1907905 
3543.401 1903327 1897987 1892253 1886685 1881602 1877078 1872873 1868762 
3547.259 1864650 1860966 1858541 1858485 1861749 1868560 1878374 1889859 
3551.116 1901265 1911113 1918367 1922917 1925193 1925931 1925703 1924737 
3554.973 1922767 1919427 1914366 1907420 1898719 1888250 1875822 1861268 
3558.831 1844491 1826101 1807840 1792439 1783325 1783495 1794469 1815632 
3562.688 1843922 1874699 1902884 1924291 1936820 1940695 1937907 1931553 
3566.546 1924468 1918578 1914601 1912287 1910953 1909966 1908859 1907333 
3570.403 1904968 1901141 1895121 1886417 1875110 1862221 1849520 1839082 
3574.260 1832512 1830506 1832335 1836358 1840370 1842585 1842078 1839292 
3578.118 1835509 1832337 1831120 1832159 1834626 1836890 1836873 1832966 
3581.975 1824567 1812287 1797916 1784118 1773381 1767541 1767082 1771033 
3585.833 1776846 1781352 1781435 1774882 1761103 1741153 1717438 1692903 
3589.690 1670168 1650964 1635593 1623465 1613499 1604793 1597228 1591357 
3593.548 1588226 1588740 1592852 1599696 1607336 1613655 1616820 1616231 
3597.405 1612521 1607571 1603462 1601846 1603108 1606083 1608359 1607103 
3601.262 1600122 1586738 1568228 1547569 1528752 1515635 1511147 1516390 
3605.120 1530813 1552564 1579007 1607404 1635295 1660613 1681447 1696162 
3608.977 1703290 1702200 1693215 1677988 1659592 1641627 1627638 1619971 
3612.835 1619280 1624335 1632754 1641877 1649588 1655461 1659967 1664693 
3616.692 1670873 1678994 1688207 1696817 1702824 1704942 1703023 1698340 
3620.550 1693000 1689515 1689498 1693725 1701703 1712220 1723686 1734804 
3624.407 1744846 1753809 1762205 1770931 1780790 1792402 1805939 1820721 
3628.264 1835544 1848731 1858430 1863386 1863329 1859572 1854597 1851556 
3632.122 1853397 1861960 1877141 1896871 1917791 1936294 1949657 1957136 
3635.979 1959847 1960619 1962709 1968643 1979571 1994555 2011217 2026579 
3639.837 2037829 2043144 2042169 2035791 2025917 2014867 2004964 1998005 
3643.694 1995127 1996651 2001868 2009593 2018080 2025749 2031585 2035783 
3647.552 2039528 2045160 2055092 2071164 2093858 2121916 2152438 2181944 
3651.409 2206863 2224921 2235216 2238285 2235696 2229238 2220361 2210278 
3655.266 2199542 2188866 2179096 2171523 2167338 2167538 2172173 2180434 
3659.124 2190530 2200383 2207854 2211613 2211080 2206525 2198499 2187888 
3662.981 2175159 2160828 2145461 2129685 2114645 2101670 2091892 2085939 
3666.839 2083530 2083508 2084078 2083182 2079318 2071611 2060071 2045524 
3670.696 2028953 2011457 1993514 1975335 1956673 1937293 1917258 1896776 
3674.553 1876612 1857641 1840588 1826021 1813866 1803705 1794626 1785742 
3678.411 1776117 1765234 1752844 1739318 1725321 1711864 1700007 1690910 
3682.268 1685275 1683707 1686074 1692116 1700948 1711536 1722558 1732782 
3686.126 1740960 1746139 1747330 1743656 1734632 1719763 1699172 1673527 
3689.983 1644445 1614410 1586509 1564151 1550065 1545672 1550445 1561916 
3693.841 1575949 1587824 1593347 1589907 1577056 1556388 1530881 1504111 
3697.698 1479020 1457698 1440947 1428844 1421103 1417504 1417948 1422289 
3701.555 1430134 1440381 1451387 1461319 1468654 1472635 1473644 1472845 
3705.413 1471996 1472733 1476134 1482722 1492349 1504471 1518458 1533987 
3709.270 1550515 1567521 1584209 1599364 1611457 1619169 1621417 1617875 
3713.128 1608903 1595517 1578984 1560996 1543042 1526614 1513215 1504214 
3716.985 1500730 1503461 1512272 1526173 1543052 1560086 1574064 1582047 
3720.843 1581941 1573008 1556117 1533595 1508756 1485283 1466413 1454514 
3724.700 1450481 1454180 1464370 1479422 1497595 1517482 1537875 1557840 
3728.557 1576352 1592438 1605023 1613231 1616711 1615659 1610636 1602577 
3732.415 1592306 1580260 1566712 1551839 1536363 1521847 1510713 1505724 
3736.272 1508979 1521208 1540866 1564357 1586445 1601948 1606984 1600146 
3740.130 1583021 1559725 1535700 1516164 1504771 1502625 1508113 1517609 
3743.987 1526557 1531061 1528841 1519969 1506498 1491709 1478972 1470806 
3747.844 1468402 1471385 1478255 1487094 1496050 1503791 1509804 1513912 
3751.702 1516051 1515958 1512965 1506595 1496584 1483472 1468611 1454063 
3755.559 1442047 1434486 1432461 1436035 1444546 1456477 1470258 1484334 
3759.417 1497169 1507482 1513900 1515414 1511458 1502230 1488937 1473717 
3763.274 1459199 1447824 1441379 1440506 1444529 1452090 1461555 1471349 
3767.132 1480580 1488693 1495410 1500351 1503077 1503092 1500373 1495623 
3770.989 1490417 1486964 1487318 1492755 1503063 1516567 1530188 1540608 
3774.846 1545022 1542088 1532145 1517300 1500786 1486038 1475909 1472282 
3778.704 1475578 1485166 1499383 1516132 1533052 1548106 1559649 1566539 
3782.561 1568321 1565243 1558090 1548012 1536223 1523838 1511601 1499907 
3786.419 1488933 1478804 1469876 1462745 1458081 1456443 1457819 1461539 
3790.276 1466273 1470527 1472894 1472866 1470810 1468157 1466568 1467503 
3794.134 1471469 1477910 1485139 1491126 1494108 1493333 1489232 1483289 
3797.991 1477548 1473660 1472539 1474275 1478133 1483123 1488293 1493031 
3801.848 1497033 1500097 1501685 1501202 1498022 1491827 1482998 1472704 
3805.706 1462574 1454439 1449444 1447910 1449341 1452592 1456544 1460548 
3809.563 1464438 1468444 1472642 1476625 1479538 1480197 1477772 1472312 
3813.421 1465118 1458496 1455136 1457194 1465489 1479220 1495903 1512465 
3817.278 1525955 1534599 1538036 1537081 1533495 1528937 1524659 1521236 
3821.135 1518566 1516394 1514566 1513313 1513300 1515446 1520394 1528463 
3824.993 1539272 1551683 1563944 1573996 1579813 1579641 1572440 1558041 
3828.850 1537252 1511876 1484551 1458505 1437090 1423161 1418565 1423737 
3832.708 1437621 1457531 1479985 1501191 1518034 1528547 1532395 1530766 
3836.565 1525737 1519835 1514945 1512030 1510873 1510421 1509429 1506961 
3840.423 1503004 1498197 1493762 1490842 1489911 1490689 1492058 1492644 
3844.280 1491418 1488109 1483630 1479715 1478460 1481590 1489852 1502593 
3848.137 1517885 1532963 1544752 1550776 1549709 1541469 1527343 1509520 
3851.995 1490715 1473401 1459536 1450034 1444857 1443016 1442913 1442862 
3855.852 1441547 1438390 1433698 1428670 1425162 1425250 1430508 1441700 
3859.710 1458300 1478610 1499920 1519224 1533926 1542305 1544048 1539900 
3863.567 1531631 1521215 1510630 1501244 1494014 1489406 1487576 1488602 
3867.425 1492355 1498463 1506318 1514719 1522372 1527815 1529959 1528260 
3871.282 1522678 1513742 1502267 1489185 1475388 1461810 1449485 1439475 
3875.139 1432765 1430095 1431671 1437121 1445566 1455762 1466428 1476488 
3878.997 1485320 1492584 1498087 1501659 1503221 1502616 1500000 1495826 
3882.854 1490872 1486112 1482532 1480586 1480485 1482071 1485073 1489219 
3886.712 1494626 1501218 1508890 1516967 1524344 1529591 1531471 1529606 
3890.569 1524592 1518329 1513080 1511029 1513259 1519485 1527887 1535835 
3894.427 1540609 1540279 1534244 1523180 1508924 1493740 1479843 1468966 
3898.284 1462022 1459349 1460677 1465393 1472534 1480968 1489431 1496671 
3902.141 1501616 1503498 1501935 1497084 1489492 1480149 1470204 1460832 
3905.999 1453181 1447956 1445654 1446120 1448701 1452497 1456464 1459819 
3909.856 1462324 1464256 1466462 1469911 1475504 1483440 1493274 1503817 
3913.714 1513422 1520504 1523779 1522514 1516903 1507717 1496173 1483645 
3917.571 1471376 1460218 1450604 1442585 1436044 1430942 1427503 1426172 
3921.428 1427697 1432603 1441009 1452158 1464476 1475881 1484076 1487419 
3925.286 1485398 1478811 1469624 1460291 1453252 1449979 1450800 1454929 
3929.143 1460596 1465949 1469334 1470053 1468420 1465618 1463590 1464505 
3933.001 1470271 1481979 1499569 1521663 1545514 1567875 1585189 1594703 
3936.858 1595030 1586456 1570678 1550329 1528200 1506726 1487382 1471223 
3940.716 1458643 1450248 1446725 1448799 1456841 1470511 1488364 1508122 
3944.573 1527069 1542818 1553704 1559263 1560074 1557203 1551877 1544952 
3948.430 1536970 1528115 1518453 1508262 1497817 1487516 1477596 1468188 
3952.288 1459519 1452024 1446574 1444518 1447164 1455428 1469138 1487004 
3956.145 1506424 1524302 1537861 1545153 1545659 1540065 1529863 1516761 
3960.003 1502267 1487308 1472611 1458746 1446586 1437190 1431606 1430575 
3963.860 1434139 1441585 1451524 1462458 1473145 1482946 1491836 1500172 
3967.718 1508469 1516730 1524781 1532051 1537996 1542310 1545139 1546999 
3971.575 1548661 1550827 1553951 1558071 1563069 1568666 1574411 1579918 
3975.432 1584802 1588478 1590319 1589674 1586063 1579472 1570432 1559967 
3979.290 1549394 1540017 1532739 1527922 1525459 1524831 1525588 1527517 
3983.147 1530631 1535277 1541576 1549262 1557456 1564879 1570132 1572095 
3987.005 1570326 1565156 1557653 1549041 1540561 1532853 1526170 1520539 
3990.862 1515935 1512756 1511752 1513589 1518696 1526687 1536456 1546322 
3994.719 1554574 1560050 1562790 1563794 1564677 1567285 1572686 1580816 
3998.577 1590632 1600291 1607880 1612020 1612268 
##END=
