##TITLE=Flashforge_PLA_White_Filament_r1_ATR-Corrected
##JCAMP-DX=5.01  $$ Nicolet v. 1
##DATATYPE=INFRARED SPECTRUM
##ORIGIN=Curtin University
##OWNER=Nicolet
##LONGDATE=2024/07/10
##TIME=10:38:29
##SPECTROMETER/DATA SYSTEM=Nicolet iS50
##DATA PROCESSING=
Ratio against background
%Transmittance->Absorbance
ATR Correction
Truncated
ElementMultiply or ElementDivide
##COMMENTS=
Number of sample scans: 32
Collection length: 47.27 sec
Sample gain: 1.0
Background collected on: Wed Jul 10 10:36:38 2024 (GMT+08:00);
Number of background scans: 32
Background gain: 1.0
Sample spacing:  1.000
Number of scan points: 16672
Resolution points: 8192
Number of FFT points: 65536
Apodization: N-B strong;
Phase correction: Mertz;
Laser frequency: 15798.3 cm-1
Number of rejected sample scans: 0
Number of rejected background scans: 0
Bench serial number: AUP1200105;
##RESOLUTION=4.000
##XUNITS=1/CM
##YUNITS=ABSORBANCE
##FIRSTX=400.163452
##LASTX=4000.187744
##FIRSTY=0.062474
##MAXX=4000.187744
##MINX=400.163452
##MAXY=0.928976
##MINY=-0.041471
##XFACTOR=1.000000
##YFACTOR=1.000000E-009
##NPOINTS=7468
##DELTAX=0.482125
##ZPD=8192
##XYDATA=(X++(Y..Y))
400.163 62473656 62094016 61354508 60302024 59073116 57857524 56820776 
403.538 56052124 55541928 55196656 54879668 54458480 53840672 52988972 
406.913 51915572 50664780 49297800 47883112 46496312 45218464 44129672 
410.288 43292204 42730528 42416444 42267068 42163888 41983528 41631880 
413.663 41069320 40316244 39438780 38522488 37644940 36858080 36184716 
417.038 35627316 35179852 34835672 34587908 34423820 34319208 34237784 
420.412 34139316 33991600 33781876 33521004 33237912 32965836 32728270 
423.787 32528684 32350808 32167182 31952708 31695242 31399138 31080474 
427.162 30757892 30443988 30141900 29847878 29558346 29275826 29011602 
430.537 28782124 28602554 28480262 28411256 28381872 28378416 28389912 
433.912 28414136 28456554 28525996 28627662 28758596 28905000 29044914 
437.286 29152812 29206112 29190570 29103220 28952724 28757774 28543056 
440.661 28333464 28149176 28000388 27886626 27798354 27724044 27656684 
444.036 27599844 27568334 27582526 27657702 27793582 27968040 28138724 
447.411 28253154 28265534 28152442 27922350 27615214 27290688 27010530 
450.786 26820878 26740470 26758714 26841516 26943664 27021724 27044680 
454.161 26999708 26891528 26739670 26571224 26414232 26291254 26214002 
457.535 26181338 26180386 26191382 26194936 26179226 26143998 26100484 
460.910 26065010 26051136 26062030 26086566 26102402 26080358 26003730 
464.285 25866934 25680962 25469630 25261282 25079088 24935966 24832652 
467.660 24762314 24715822 24686224 24670532 24666806 24669988 24669332 
471.035 24647562 24585078 24465388 24280942 24036926 23750560 23447464 
474.409 23156150 22902122 22703318 22567532 22490660 22457586 22444096 
477.784 22420992 22360534 22243260 22065186 21840292 21599072 21380958 
481.159 21223562 21151526 21170456 21265858 21409762 21570822 21724022 
484.534 21856864 21969012 22066588 22154452 22229528 22279200 22285936 
487.909 22234460 22120622 21955954 21766136 21584108 21439922 21351342 
491.284 21319098 21327776 21352998 21370364 21363848 21330500 21277172 
494.658 21221226 21178066 21157422 21161410 21186188 21226344 21279280 
498.033 21347378 21436732 21553168 21697038 21859920 22024418 22167704 
501.408 22268654 22313806 22302200 22245094 22161930 22073428 21994598 
504.783 21930968 21877814 21824128 21758808 21676696 21582392 21490564 
508.158 21422122 21397832 21431332 21523414 21660360 21815376 21955420 
511.532 22049084 22075030 22028032 21920214 21777088 21629838 21506270 
514.907 21423170 21383372 21378008 21392888 21416294 21444042 21479504 
518.282 21529030 21593416 21661624 21708680 21700508 21604910 21403904 
521.657 21102766 20731972 20339118 19976288 19684396 19482902 19367648 
525.032 19314698 19296448 19288516 19278066 19264836 19255878 19258240 
528.406 19273126 19294600 19312362 19317178 19305384 19280664 19251346 
531.781 19225514 19206630 19190424 19167348 19126060 19058918 18965406 
535.156 18852572 18732576 18618972 18522860 18450946 18405588 18385680 
538.531 18388142 18408508 18440658 18476924 18508516 18527192 18527324 
541.906 18508484 18475050 18435120 18396852 18365660 18341538 18319864 
545.281 18293954 18258852 18214392 18166288 18123816 18096094 18087820 
548.655 18096530 18113044 18124164 18117826 18087736 18036054 17973024 
552.030 17913984 17874500 17865496 17889942 17942288 18010226 18078266 
555.405 18132060 18160946 18163198 18142680 18108966 18074044 18049808 
558.780 18045310 18065232 18109832 18175854 18258330 18352030 18452810 
562.155 18557568 18663750 18767870 18864444 18945762 19002824 19027710 
565.529 19016570 18971770 18902764 18824618 18754608 18707662 18692012 
568.904 18707026 18744392 18791228 18835674 18871596 18901654 18935780 
572.279 18987616 19068764 19183726 19327606 19487790 19648468 19796136 
575.654 19924600 20035702 20137308 20238624 20344992 20455092 20561986 
579.029 20656610 20733730 20795558 20852828 20921444 21016370 21144268 
582.404 21299716 21464570 21612954 21718452 21762820 21741186 21664248 
585.778 21554742 21441304 21350844 21302554 21304180 21352700 21436926 
589.153 21542894 21657478 21772260 21884208 21994480 22106316 22221990 
592.528 22340176 22455178 22557280 22635394 22679824 22686188 22657386 
595.903 22603904 22542658 22492778 22471728 22491348 22555452 22659684 
599.278 22793470 22943204 23095346 23239540 23369646 23483446 23581472 
602.652 23665568 23738146 23801134 23856992 23908834 23960930 24018780 
606.027 24087648 24171918 24274074 24393836 24529024 24676314 24832264 
609.402 24994428 25161462 25332802 25508190 25687196 25868870 26052798 
612.777 26239550 26430834 26629266 26836602 27051848 27269298 27478452 
616.152 27665842 27818226 27927898 27996236 28036142 28069866 28125630 
619.527 28230034 28401592 28645042 28950422 29294200 29645044 29971178 
622.901 30247152 30458948 30606084 30700666 30763698 30820236 30893974 
626.276 31003396 31158472 31360608 31602912 31873230 32156926 32439884 
629.651 32710620 32961830 33189706 33393874 33576276 33740060 33889340 
633.026 34029088 34165072 34303120 34449032 34606916 34778464 34962384 
636.401 35154052 35347076 35534164 35709488 35869496 36014356 36147436 
639.775 36274972 36404556 36543848 36698768 36872452 37064580 37271468 
643.150 37486268 37700816 37906820 38097904 38270624 38425060 38564332 
646.525 38693952 38820264 38949268 39085404 39231024 39386136 39548952 
649.900 39716180 39884168 40049648 40210756 40367152 40520476 40673712 
653.275 40830428 40994072 41167096 41350476 41543896 41745960 41954140 
656.650 42164964 42373764 42574656 42761064 42926852 43067736 43183460 
660.024 43277972 43359328 43438524 43526540 43632552 43762140 43917620 
663.399 44098712 44304056 44531708 44778852 45040432 45307732 45568616 
666.774 45807996 46012220 46171848 46285660 46360848 46411568 46454512 
670.149 46504408 46570992 46657224 46761816 46880720 47010484 47148748 
673.524 47293424 47440964 47584528 47714504 47820788 47896924 47943564 
676.898 47970708 47995944 48040016 48121028 48248468 48421184 48626428 
680.273 48844760 49055760 49243088 49397968 49520228 49616160 49695404 
683.648 49767944 49841324 49920344 50007248 50103368 50210348 50330848 
687.023 50468568 50626924 50807664 51009096 51225864 51448804 51667212 
690.398 51870996 52054224 52216100 52361864 52500544 52641996 52792608 
693.773 52953548 53119324 53280496 53427128 53552996 53658432 53750824 
697.147 53842252 53945656 54071012 54222252 54396952 54587720 54784744 
700.522 54978696 55162108 55329488 55477016 55601192 55699112 55768540 
703.897 55808780 55820980 55807928 55772776 55717580 55642576 55546356 
707.272 55427268 55284980 55121744 54941588 54748284 54542572 54319772 
710.647 54068752 53775048 53425088 53010912 52534280 52006740 51447048 
714.021 50875352 50307276 49748872 49195084 48631700 48039480 47399356 
717.396 46697296 45926668 45088916 44192732 43252640 42287236 41318140 
720.771 40367584 39456352 38601188 37811868 37090656 36432536 35828756 
724.146 35271072 34755772 34286016 33870900 33522882 33253382 33070266 
727.521 32976904 32974732 33066984 33262252 33575144 34024336 34627628 
730.896 35396304 36331308 37422636 38651728 39996216 41434016 42945364 
734.270 44511972 46114408 47729196 49328592 50882868 52365156 53756832 
737.645 55051428 56254648 57381236 58449404 59475196 60469080 61435324 
741.020 62373124 63280360 64154932 64996004 65803492 66577524 67318168 
744.395 68026704 68707600 69369408 70024904 70689040 71375128 72091416 
747.770 72838816 73611528 74399200 75190664 75976960 76752752 77515504 
751.144 78262832 78989456 79685216 80334480 80916888 81409552 81788776 
754.519 82032504 82122720 82046528 81798480 81381744 80807864 80095072 
757.894 79265264 78339328 77333568 76257544 75114656 73904704 72627824 
761.269 71288392 69896392 68467208 67019476 65571740 64140552 62738224 
764.644 61373272 60050636 58772384 57538468 56346828 55193916 54075528 
768.018 52988116 51929688 50900356 49901664 48935120 48000468 47094668 
771.393 46211640 45343860 44484908 43631200 42783036 41944104 41120408 
774.768 40317360 39538652 38785060 38055104 37345816 36654256 35978656 
778.143 35318284 34673928 34046200 33434964 32837562 32248550 31658906 
781.518 31057804 30434244 29780692 29095900 28386692 27667404 26956764 
784.893 26272852 25627658 25024126 24455826 23910764 23376856 22848036 
788.267 22326376 21822648 21349932 20918720 20531096 20179624 19849588 
791.642 19525080 19195720 18860488 18528316 18214698 17934854 17698436 
795.017 17505154 17345832 17205848 17069738 16926804 16773347 16612396 
798.392 16452154 16301889 16169569 16059589 15971994 15903333 15847491 
801.767 15797755 15748041 15694732 15638463 15583270 15536087 15504595 
805.141 15494810 15508526 15542741 15589870 15640091 15684325 15716538 
808.516 15734993 15741965 15741838 15739117 15736379 15733492 15728114 
811.891 15716814 15696457 15665451 15624601 15576846 15527202 15481534 
815.266 15445461 15422776 15413978 15416106 15422658 15425959 15419963 
818.641 15402932 15378817 15357184 15350104 15368043 15416441 15493122 
822.016 15589837 15695136 15799686 15899440 15997613 16102454 16223446 
825.390 16366160 16529137 16703827 16877440 17037324 17176324 17294874 
828.765 17400990 17506688 17624250 17761330 17920092 18097328 18287884 
832.140 18488138 18698902 18926044 19178694 19467012 19797772 20172084 
835.515 20585278 21028370 21491646 21968116 22456660 22962230 23494568 
838.890 24064956 24681434 25346442 26055074 26796612 27557902 28327626 
842.264 29099080 29871114 30646182 31425826 32206494 32975812 33712772 
845.639 34390480 34982448 35468656 35840532 36103128 36273716 36378044 
849.014 36446164 36508096 36592660 36727004 36937504 37250168 37690020 
852.389 38279628 39036008 39969464 41082896 42373488 43835428 45462748 
855.764 47250100 49192816 51282812 53505616 55836828 58241664 60677468 
859.139 63098720 65463388 67738176 69901344 71942128 73856936 75645088 
862.513 77304416 78829200 80211600 81443832 82522440 83449584 84232504 
865.888 84881024 85402280 85797520 86061264 86182720 86150992 85959344 
869.263 85609112 85108408 84469680 83703464 82814608 81800416 80652904 
872.638 79363224 77927504 76349928 74643400 72827392 70923200 68950320 
876.013 66925012 64860152 62767356 60658436 58545832 56442108 54357908 
879.387 52301660 50280704 48304008 46385832 44548448 42821556 41239448 
882.762 39834572 38631564 37641456 36859888 36268628 35840104 35543584 
886.137 35350500 35238596 35192792 35204764 35270672 35388488 35556204 
889.512 35770464 36025540 36313600 36624380 36945604 37263056 37561416 
892.887 37825500 38041488 38199116 38292772 38322844 38296248 38224848 
896.262 38124308 38010644 37897708 37794860 37705916 37629904 37562964 
899.636 37501188 37442804 37389104 37343488 37309640 37288472 37277112 
903.011 37268104 37251660 37218356 37162592 37084460 36989800 36888740 
906.386 36792352 36709796 36646156 36602052 36574760 36560252 36555084 
909.761 36557836 36568672 36589004 36619040 36657528 36700456 36741820 
913.136 36774772 36793592 36794868 36778604 36747928 36707600 36662756 
916.510 36616660 36570100 36521592 36468720 36410676 36350172 36294772 
919.885 36255528 36244948 36272556 36341252 36444996 36569072 36692620 
923.260 36794340 36857264 36873252 36844628 36783192 36705776 36630032 
926.635 36569940 36533324 36521464 36531548 36559288 36602608 36662076 
930.010 36741024 36843692 36972240 37125024 37296176 37476968 37658388 
933.385 37834992 38006064 38176912 38356316 38553056 38772528 39013344 
936.759 39268108 39524136 39769204 39994092 40197320 40385012 40569300 
940.134 40764392 40983016 41232160 41512888 41820352 42146724 42484076 
943.509 42826500 43170984 43517568 43868536 44227524 44598532 44986600 
946.884 45397080 45836068 46309616 46822660 47378788 47978872 48621020 
950.259 49301124 50012444 50746176 51491128 52233124 52955920 53640740 
953.633 54267604 54816724 55269364 55609120 55821988 55896364 55823312 
957.008 55597596 55217952 54688940 54021248 53231552 52340536 51370568 
960.383 50342984 49276404 48186556 47087172 45992100 44916464 43878032 
963.758 42895848 41988588 41171316 40453844 39838360 39319764 38886988 
967.133 38525084 38218308 37953128 37720260 37515860 37341548 37202832 
970.508 37106760 37058972 37061452 37111028 37200172 37318636 37456404 
973.882 37607164 37769000 37945476 38143096 38369080 38628744 38923976 
977.257 39253860 39615688 40007008 40426824 40875820 41354036 41859684 
980.632 42387064 42927024 43468336 44000908 44519244 45024092 45522424 
984.007 46024948 46542272 47080972 47641392 48217604 48799320 49375632 
987.382 49939636 50490708 51033964 51579880 52140892 52727228 53344752 
990.756 53993032 54666564 55355932 56051732 56746484 57436596 58123676 
994.131 58812948 59512832 60232656 60980932 61764676 62588208 63453436 
997.506 64359264 65302364 66276744 67275088 68289432 69313312 70343776 
1000.881 71383368 72440792 73530312 74669376 75875096 77161024 78534008 
1004.256 79994456 81537760 83157832 84851112 86618688 88467720 90409208 
1007.630 92454816 94614256 96892288 99289456 101804024 104434728 107184056 
1011.005 110058608 113068728 116225784 119539448 123014400 126650928 
1013.898 130444168 134386944 138470256 142685280 147021984 151468720 
1016.791 156011440 160633424 165316032 170040608 174790256 179548800 
1019.683 184301056 189031488 193721920 198352096 202900448 207348640 
1022.576 211684432 215905584 220020544 224046688 228006832 231925264 
1025.469 235823936 239722848 243640352 247596224 251614992 255726032 
1028.362 259963744 264365200 268967040 273802688 278900896 284283360 
1031.255 289963872 295946976 302225632 308781280 315583040 322590240 
1034.148 329755392 337027360 344353504 351680096 358949792 366099808 
1037.041 373059552 379753568 386104992 392044256 397515232 402479680 
1039.934 406916832 410818976 414185536 417017504 419314176 421074144 
1042.827 422298496 422992512 423169088 422847808 422055488 420824576 
1045.720 419194912 417212640 414930112 412402880 409685312 406826592 
1048.614 403868224 400845312 397791680 394742400 391737280 388819200 
1051.507 386027136 383387968 380911104 378587552 376395776 374312576 
1054.400 372323840 370431424 368654720 367024736 365577728 364347744 
1057.293 363366592 362668160 362296448 362311200 362791200 363829920 
1060.186 365525568 367970720 371243552 375402432 380487040 386520672 
1063.079 393514272 401467136 410365696 420181440 430868992 442366528 
1065.972 454600480 467491392 480959520 494926720 509316320 524048992 
1068.865 539039232 554195584 569425152 584640576 599766464 614743104 
1071.758 629524736 644072384 658347840 672308224 685906496 699092800 
1074.651 711817792 724031872 735679360 746693888 756995968 766495808 
1077.544 775104768 782750976 789391488 795013568 799628160 803254592 
1080.437 805904960 807571200 808227072 807835904 806363584 803791936 
1083.330 800126912 795401664 789674176 783025664 775555456 767373888 
1086.223 758596800 749335616 739691136 729746880 719569600 709213376 
1089.116 698727104 688160448 677566976 667002112 656516608 646151744 
1092.010 635932160 625865728 615946304 606159232 596487104 586915264 
1094.903 577434560 568042816 558744192 549546816 540460736 531493664 
1097.796 522647904 513918688 505293504 496754304 488282816 479866112 
1100.689 471500576 463193568 454961952 446828160 438815616 430944608 
1103.582 423232448 415693664 408343360 401198400 394278656 387605600 
1106.475 381200960 375085472 369279072 363801472 358674560 353922144 
1109.368 349569216 345638976 342149248 339109824 336520192 334370912 
1112.261 332644096 331316352 330360320 329746784 329445664 329428672 
1115.154 329670816 330153792 330868288 331814560 333000512 334438656 
1118.047 336141056 338115488 340363456 342879712 345653664 348671264 
1120.940 351915232 355362528 358981152 362725984 366536352 370335808 
1123.833 374035008 377537312 380744416 383562816 385908352 387710400 
1126.726 388914880 389487040 389412928 388699200 387369856 385461856 
1129.619 383017376 380077280 376676288 372841056 368590752 363939936 
1132.512 358902144 353492160 347726912 341625472 335207648 328492128 
1135.406 321495616 314233248 306718528 298965600 290991744 282819584 
1138.299 274479968 266012400 257464912 248891024 240347184 231888608 
1141.192 223566688 215427344 207511792 199857760 192500848 185474352 
1144.085 178809136 172532624 166666160 161224352 156214048 151635136 
1146.978 147481664 143743696 140408560 137462064 134889488 132675560 
1149.871 130804312 129259128 128023056 127078192 126406688 125990672 
1152.764 125813408 125860616 126120288 126584528 127248152 128108248 
1155.657 129162120 130405576 131832136 133433160 135199824 137125504 
1158.550 139208288 141452592 143868608 146470352 149273280 152292064 
1161.443 155539952 159030144 162777776 166803488 171134176 175804608 
1164.336 180855312 186332112 192284288 198764528 205829536 213540720 
1167.229 221964544 231170528 241229008 252207904 264169728 277170176 
1170.122 291256416 306466848 322827552 340347200 359009216 378761664 
1173.015 399508672 421104960 443352576 466002240 488756736 511274688 
1175.908 533173984 554039552 573435776 590929216 606119424 618674944 
1178.802 628365056 635077952 638822656 639714624 637951168 633785600 
1181.695 627504512 619412032 609817088 599023552 587321280 574977216 
1184.588 562229632 549284096 536313664 523458912 510832800 498522752 
1187.481 486594208 475093728 464052224 453488864 443413952 433831904 
1190.374 424742784 416143296 408026624 400382464 393197088 386453984 
1193.267 380135136 374221760 368694848 363535648 358725728 354247616 
1196.160 350085376 346225824 342658976 339378144 336377728 333651456 
1199.053 331189088 328974944 326987424 325201472 323590592 322130560 
1201.946 320801536 319587360 318474368 317448416 316492576 315587616 
1204.839 314712480 313845920 312969888 312069280 311131808 310145664 
1207.732 309095680 307962080 306719616 305341088 303799712 302074400 
1210.625 300153280 298034592 295726176 293241696 290597152 287805984 
1213.518 284876704 281812736 278613696 275278880 271811200 268219888 
1216.411 264521712 260739856 256900880 253031520 249154624 245287696 
1219.304 241442656 237626304 233842224 230092736 226379440 222704448 
1222.198 219069712 215478608 211935360 208445344 205015440 201653360 
1225.091 198367376 195164608 192051776 189033712 186113888 183294704 
1227.984 180577360 177961648 175446320 173028960 170706608 168477632 
1230.877 166340656 164296160 162344512 160485600 158716128 157029264 
1233.770 155415600 153864288 152366816 150918864 149522320 148183968 
1236.663 146913328 145719824 144609712 143584208 142640240 141770880 
1239.556 140967600 140221392 139523024 138863312 138232224 137619712 
1242.449 137016416 136415728 135815792 135220864 134640384 134088304 
1245.342 133578880 133124816 132733744 132408352 132145416 131938384 
1248.235 131779312 131660728 131578760 131532968 131526992 131566984 
1251.128 131659952 131811096 132022544 132291672 132612360 132976888 
1254.021 133377728 133810312 134273808 134771008 135306336 135883632 
1256.914 136504624 137168064 137870192 138606064 139370128 140157136 
1259.807 140960608 141771712 142577664 143362144 144106448 144792784 
1262.700 145406688 145939632 146388864 146756112 147044000 147254304 
1265.594 147385696 147434176 147393600 147257600 147020352 146677296 
1268.487 146224624 145658912 144977216 144177184 143258400 142222304 
1271.380 141072000 139811296 138442704 136966400 135379792 133678824 
1274.273 131859528 129920576 127864792 125700384 123439312 121096512 
1277.166 118687816 116228112 113730064 111204544 108659560 106103336 
1280.059 103544048 100992072 98460544 95965504 93524272 91153664 88867296 
1283.434 86673688 84576488 82575504 80670192 78863376 77163720 75586728 
1286.809 74153368 72885752 71803408 70918248 70234064 69745168 69439368 
1290.185 69301448 69315432 69466968 69743544 70132960 70622112 71195184 
1293.560 71834024 72518336 73228520 73946912 74659640 75357432 76034360 
1296.935 76686512 77309856 77899040 78446336 78943640 79383056 79760384 
1300.310 80076304 80337096 80553344 80736960 80898264 81042920 81170888 
1303.686 81277160 81354216 81395320 81397640 81362992 81297728 81210240 
1307.061 81108792 81000048 80887336 80772136 80654624 80535248 80414200 
1310.436 80291392 80165784 80034984 79896000 79746192 79585080 79415072 
1313.811 79241816 79072488 78914200 78772784 78651040 78549208 78465576 
1317.187 78397944 78343720 78300384 78265360 78235808 78209264 78184448 
1320.562 78162408 78146752 78143400 78159320 78200080 78268912 78365384 
1323.937 78487152 78630320 78792288 78972168 79171288 79391872 79636384 
1327.312 79905792 80200504 80521096 80869288 81248808 81665376 82124808 
1330.688 82632184 83188760 83792792 84438600 85119584 85827992 86558112 
1334.063 87306592 88071912 88855504 89660128 90490680 91353160 92253928 
1337.438 93199200 94192416 95234248 96321712 97449192 98610744 99802056 
1340.813 101022104 102273648 103562120 104893680 106273264 107703312 
1343.706 109184232 110715240 112295824 113926960 115610864 117350464 
1346.599 119147800 121003488 122916272 124882728 126898256 128956560 
1349.492 131049904 133167488 135295872 137419184 139520432 141582672 
1352.385 143591600 145534992 147403024 149186688 150876480 152461136 
1355.279 153928432 155266208 156464208 157514592 158413632 159162352 
1358.172 159765488 160233088 160579584 160823520 160987040 161091648 
1361.065 161156368 161194928 161213808 161212864 161187136 161128672 
1363.958 161028448 160876432 160660080 160362048 159959920 159425744 
1366.851 158728864 157840016 156735328 155400992 153834688 152048560 
1369.744 150069360 147939344 145717184 143477968 141311072 139317520 
1372.637 137603776 136274224 135423776 135128912 135440272 136377520 
1375.530 137925568 140034720 142622112 145576672 148767264 152051792 
1378.423 155288480 158345344 161109552 163489904 165416736 166839168 
1381.316 167720752 168037296 167777056 166942336 165550528 163633856 
1384.209 161235408 158405264 155195072 151656352 147839120 143793456 
1387.102 139569360 135214944 130774112 126281576 121761512 117226672 
1389.995 112682000 108128976 103572576 99024456 94505200 90043544 85674176 
1393.371 81433088 77355160 73470672 69803640 66370940 63181884 60239572 
1396.746 57540556 55077540 52839392 50811916 48979016 47323060 45825304 
1400.121 44466752 43229824 42098476 41059292 40101688 39217320 38399300 
1403.496 37641248 36936568 36278560 35660224 35076176 34522860 33999192 
1406.872 33506800 33048384 32626710 32243318 31897526 31586804 31307198 
1410.247 31055108 30827770 30624008 30444110 30288576 30157454 30049670 
1413.622 29962494 29892920 29838110 29796012 29765892 29748604 29745730 
1416.997 29758810 29789882 29840254 29911080 30002784 30115346 30248248 
1420.373 30400640 30572704 30765652 30982712 31229222 31510462 31831074 
1423.748 32192696 32592214 33023760 33479154 33951980 34439856 34946316 
1427.123 35479796 36052072 36674576 37356604 38103800 38918872 39803460 
1430.498 40759756 41792060 42905632 44106744 45401588 46797076 48301964 
1433.874 49930020 51700488 53638616 55773828 58135828 60751808 63645588 
1437.249 66837476 70346456 74193240 78398992 82982432 87954160 93310784 
1440.624 99030464 105071848 111377376 117877992 124498536 131161928 
1443.517 137791392 144312608 150656288 156759248 162568720 168041584 
1446.410 173144752 177852512 182143536 186001328 189414976 192380288 
1449.303 194901792 196990512 198660992 199927232 200799168 201283488 
1452.196 201384816 201107776 200458272 199441216 198057520 196301264 
1455.089 194160096 191620560 188675344 185329264 181603424 177531808 
1457.982 173154960 168511424 163634160 158549664 153282992 147862384 
1460.875 142322592 136704368 131050216 125401136 119792152 114252784 
1463.769 108808248 103482168 98298248 93279520 88446960 83818648 79407064 
1467.144 75221024 71266328 67546280 64062500 60813592 57795068 54999104 
1470.519 52413860 50026944 47825308 45796944 43930880 42215636 40639412 
1473.894 39189236 37851708 36614860 35469268 34408632 33429626 32530616 
1477.270 31709648 30962522 30282290 29658892 29080470 28535106 28013116 
1480.645 27507802 27017668 26544938 26095830 25677010 25294480 24950972 
1484.020 24645278 24372738 24127206 23902910 23696472 23507484 23337586 
1487.395 23187898 23057664 22942136 22833094 22720420 22594856 22450428 
1490.771 22285482 22102936 21908358 21708552 21509392 21316090 21132038 
1494.146 20960896 20805694 20668380 20549930 20448200 20358850 20275646 
1497.521 20191884 20102396 20004360 19897874 19784884 19668046 19549770 
1500.896 19432362 19317768 19208294 19107428 19019016 18946456 18891806 
1504.271 18854308 18831202 18817014 18806302 18794502 18778836 18758998 
1507.647 18735390 18708834 18679070 18644964 18604760 18556812 18500908 
1511.022 18438892 18373904 18310216 18251856 18201236 18159352 18124918 
1514.397 18095824 18069856 18046034 18024574 18007486 17996838 17993620 
1517.772 17996082 17999216 17995256 17975990 17934816 17869810 17784996 
1521.148 17689524 17595710 17514850 17453526 17411952 17384348 17360820 
1524.523 17331882 17290838 17236490 17172560 17106260 17045474 16996338 
1527.898 16961608 16940984 16931622 16929426 16930186 16930270 16926446 
1531.273 16916060 16897282 16868962 16831090 16784912 16732505 16676260 
1534.649 16617952 16559189 16501173 16445164 16393293 16347758 16310649 
1538.024 16282244 16260445 16240725 16217122 16183937 16138442 16081307 
1541.399 16016977 15951194 15889300 15834179 15785094 15738443 15690245 
1544.774 15637724 15580975 15523829 15471263 15428997 15400026 15383576 
1548.150 15375772 15369800 15358937 15337348 15302452 15254919 15197424 
1551.525 15135060 15072241 15012910 14959437 14912407 14871188 14834421 
1554.900 14800525 14768927 14739996 14714735 14695096 14683140 14679670 
1558.275 14684476 14696146 14711779 14728528 14743383 14754386 14760900 
1561.651 14762762 14761236 14757483 14752774 14748115 14743975 14740364 
1565.026 14736321 14729995 14720001 14705335 14685726 14662755 14639715 
1568.401 14620485 14609313 14609071 14620150 14640856 14667098 14693304 
1571.776 14714789 14728030 14731853 14727635 14718510 14708257 14700715 
1575.152 14698231 14701824 14711124 14724963 14741854 14761047 14782549 
1578.527 14806999 14835311 14867489 14903056 14940355 14977464 15012022 
1581.902 15042903 15069352 15091848 15111621 15129688 15146905 15163534 
1585.277 15179696 15195163 15210151 15225363 15241441 15260215 15283193 
1588.653 15312644 15350995 15400457 15462506 15536722 15620584 15708817 
1592.028 15794953 15871920 15935270 15983963 16021607 16055595 16093982 
1595.403 16143430 16206656 16281348 16361127 16438464 16507126 16565092 
1598.778 16614303 16660672 16710650 16769022 16837156 16912726 16990954 
1602.154 17067062 17138266 17204232 17267792 17332430 17401246 17475668 
1605.529 17554342 17634812 17713482 17787884 17857096 17921374 17982298 
1608.904 18041734 18100766 18159782 18218882 18278522 18339782 18404972 
1612.279 18477444 18560662 18657384 18768392 18891792 19023250 19155854 
1615.655 19282282 19395702 19491306 19567906 19627144 19673298 19711532 
1619.030 19746478 19781666 19818580 19856840 19894792 19929998 19959642 
1622.405 19981724 19994686 19998526 19994500 19985764 19975524 19967770 
1625.780 19965272 19969196 19978610 19991074 20004100 20015520 20024498 
1629.156 20031982 20039244 20047452 20055714 20062200 20063850 20058264 
1632.531 20044268 20023808 20000712 19980444 19966622 19961092 19961684 
1635.906 19964278 19962636 19952228 19930600 19898576 19860002 19820006 
1639.281 19783616 19755362 19736810 19727632 19725996 19728212 19731042 
1642.656 19731460 19727848 19720540 19711596 19704998 19705004 19715934 
1646.032 19740436 19778578 19827622 19882816 19937196 19984536 20019878 
1649.407 20041464 20050584 20052000 20053078 20062366 20087418 20133256 
1652.782 20200464 20284786 20379030 20474464 20564260 20645766 20720204 
1656.157 20793338 20871430 20959692 21059662 21168406 21279382 21384652 
1659.533 21477704 21556650 21624078 21687690 21757354 21842330 21948878 
1662.908 22078278 22226752 22386598 22549008 22705454 22850284 22981380 
1666.283 23100084 23210602 23317544 23425126 23535122 23646966 23757798 
1669.658 23863962 23963332 24056244 24146698 24240760 24345536 24466834 
1673.034 24607368 24766072 24939420 25122146 25310128 25501366 25696726 
1676.409 25898230 26108706 26328864 26557678 26791938 27027846 27262218 
1679.784 27494252 27725380 27959486 28201432 28455584 28725372 29011538 
1683.159 29312306 29623806 29940680 30256972 30567814 30870330 31163922 
1686.535 31451080 31735760 32022864 32316424 32619208 32932404 33255678 
1689.910 33588944 33931964 34286376 34654300 35038424 35440248 35860000 
1693.285 36296588 36749188 37217304 37703400 38212552 38752588 39330772 
1696.660 39954220 40625884 41346048 42112508 42921268 43768556 44651964 
1700.036 45570912 46526780 47521956 48560176 49644900 50780184 51970040 
1703.411 53219492 54534432 55922008 57390484 58948592 60604012 62363816 
1706.786 64232788 66212892 68304904 70508208 72822488 75248312 77788840 
1710.161 80449952 83239632 86168488 89247456 92486968 95895848 99479880 
1713.537 103241144 107178704 111290472 115574344 120031048 124665400 
1716.430 129486192 134504832 139732336 145176240 150838640 156717632 
1719.323 162809280 169112432 175630560 182372384 189348944 196570464 
1722.216 204041664 211762144 219727632 227935936 236391120 245106560 
1725.109 254101280 263395760 273004224 282929600 293163424 303690752 
1728.002 314496640 325573056 336921536 348552928 360483456 372732832 
1730.895 385325056 398290016 411668512 425509184 439862496 454767392 
1733.788 470238048 486257120 502780448 519752096 537125056 554877312 
1736.681 573013632 591555776 610520512 629899008 649642880 669664640 
1739.574 689850048 710076032 730220992 750167296 769792704 788957824 
1742.467 807500672 825243008 842004160 857619392 871947200 884870848 
1745.360 896287360 906100992 914223872 920586496 925154240 927934656 
1748.253 928975552 928348096 926126336 922374528 917146880 910500480 
1751.146 902509312 893274752 882913024 871540288 859247296 846088896 
1754.040 832086592 817248192 801590464 785161344 768044992 750357760 
1756.933 732228736 713784576 695134080 676368704 657564672 638791872 
1759.826 620120704 601625728 583384448 565477312 547984896 530985184 
1762.719 514549152 498735424 483583136 469105824 455290688 442101760 
1765.612 429490528 417408352 405817696 394699584 384050048 373873696 
1768.505 364168864 354917184 346079456 337597440 329404480 321437344 
1771.398 313646944 306003616 298494016 291113888 283857440 276709440 
1774.291 269643040 262623312 255613744 248584832 241517968 234406832 
1777.184 227253808 220065184 212846960 205604912 198345632 191081280 
1780.077 183832400 176628544 169505616 162499584 155641728 148955872 
1782.970 142457504 136157264 130063208 124184704 118531200 113112592 
1785.863 107936864 103009376 98332264 93907056 89733408 85809928 82132320 
1789.239 78692432 75478376 72475936 69672888 67060360 64632900 62387344 
1792.614 60318920 58415868 56660020 55028120 53497000 52049564 50677708 
1795.989 49381996 48167348 47037324 45990016 45016980 44106060 43247252 
1799.364 42435092 41672484 40965476 40319732 39734984 39202768 38707460 
1802.740 38232096 37762100 37289264 36811888 36331488 35849696 35366504 
1806.115 34879484 34387824 33894084 33406082 32935258 32492318 32083176 
1809.490 31705740 31350200 31001928 30646392 30271932 29871704 29442294 
1812.865 28982482 28492112 27975080 27441370 26911170 26416188 25994064 
1816.240 25681544 25502452 25459284 25528426 25663944 25807892 25903794 
1819.616 25909912 25806176 25595848 25302974 24962656 24614462 24293512 
1822.991 24023506 23813292 23654324 23523318 23386974 23211906 22974006 
1826.366 22666372 22301924 21909692 21525410 21179938 20889362 20649998 
1829.741 20442298 20238342 20013490 19753878 19462062 19152852 18847764 
1833.117 18567062 18325298 18127116 17969722 17844920 17743206 17653700 
1836.492 17566330 17470278 17355956 17215144 17043790 16843198 16619839 
1839.867 16384972 16151613 15931016 15731145 15555112 15402236 15267850 
1843.242 15145802 15028503 14909166 14780941 14641340 14489172 14327115 
1846.618 14159585 13990012 13820199 13649399 13473935 13291446 13103292 
1849.993 12916768 12743832 12599061 12494426 12434926 12415351 12422945 
1853.368 12441084 12455174 12456729 12444303 12422503 12397071 12369190 
1856.743 12336046 12291201 12229213 12152068 12071703 12009121 11988847 
1860.119 12029300 12135981 12294564 12474746 12636692 12741642 12763440 
1863.494 12696307 12552491 12359325 12146282 11937199 11743369 11565102 
1866.869 11396066 11232688 11078415 10946305 10853364 10811914 10820730 
1870.244 10860948 10898862 10897023 10825606 10676535 10466449 10234249 
1873.620 10029584 9898338 9868446 9943930 10103514 10309979 10518993 
1876.995 10691493 10799121 10828945 10781523 10671445 10521016 10359121 
1880.370 10214587 10111831 10063432 10065823 10099593 10134391 10136037 
1883.745 10079930 9959714 9789086 9598941 9426627 9302172 9239433 9230855 
1887.603 9252124 9270241 9256661 9195221 9088302 8953675 8818682 8710999 
1891.460 8652926 8655068 8717029 8827266 8968585 9119641 9260454 9371833 
1895.318 9439452 9451448 9402182 9289846 9118478 8897863 8645417 8380846 
1899.175 8126965 7901182 7713413 7562449 7438513 7328770 7228140 7143367 
1903.032 7099768 7131593 7270471 7527873 7884563 8286348 8656367 8914163 
1906.890 9003789 8908835 8659824 8322240 7974340 7680173 7473109 7347977 
1910.747 7273190 7210572 7133552 7040333 6953915 6910988 6946232 7074234 
1914.605 7287361 7553985 7829988 8067627 8225608 8273801 8196191 7988679 
1918.462 7660823 7234995 6746466 6239842 5761462 5349858 5028869 4799417 
1922.320 4644013 4530385 4425108 4303005 4154203 3984657 3814867 3668866 
1926.177 3571077 3538828 3581265 3697238 3878488 4108281 4367294 4634099 
1930.034 4893724 5140945 5381986 5631848 5903631 6197180 6490589 6732585 
1933.892 6856543 6793832 6501135 5979233 5283628 4515752 3801182 3253477 
1937.749 2947362 2898024 3066218 3378822 3759605 4154250 4551989 4966480 
1941.607 5423139 5921546 6417446 6821847 7024676 6936080 6535809 5886303 
1945.464 5138268 4484376 4100596 4083851 4412663 4951162 5493710 5832568 
1949.322 5836612 5491027 4903084 4255624 3739760 3482150 3500936 3699708 
1953.179 3909872 3952521 3705440 3142472 2342280 1447164 619091 -27161 
1957.036 -452343 -703930 -891930 -1140703 -1540431 -2109274 -2777701 
1960.412 -3419732 -3883116 -4047396 -3863284 -3364620 -2662781 -1917896 
1963.787 -1292189 -920920 -870944 -1143269 -1669836 -2337326 -3008974 
1967.162 -3555552 -3872536 -3908083 -3662541 -3200914 -2629587 -2079281 
1970.537 -1661747 -1441497 -1402331 -1461053 -1483852 -1339205 -946050 
1973.913 -304843 509615 1388423 2246382 3058510 3887919 4843409 6022530 
1977.770 7438924 8995703 10513517 11801161 12713626 13206734 13310446 
1981.145 13098190 12627466 11919418 10959229 9738255 8296632 6760585 5323119 
1985.003 4201352 3560596 3452118 3789170 4380495 4992245 5439009 5630487 
1988.860 5591195 5420547 5232341 5099671 5041458 5032393 5056910 5141198 
1992.718 5356332 5786866 6470344 7348909 8263814 8988343 9317273 9136841 
1996.575 8475859 7492776 6411585 5433603 4667329 4094187 3607823 3074814 
2000.432 2411000 1622363 799084 59099 -500547 -864030 -1078058 -1227235 
2004.290 -1362998 -1465186 -1435889 -1144664 -489952 511300 1721128 2904921 
2008.147 3820934 4307266 4335929 4006876 3496029 2960773 2492741 2062880 
2012.005 1554954 809919 -293206 -1777161 -3526249 -5305521 -6793666 -7671247 
2015.862 -7690826 -6758636 -4963105 -2580032 -2273 2335811 4087030 5066124 
2019.719 5300242 5002704 4487673 4056522 3892100 3986776 4163245 4146997 
2023.577 3682696 2641780 1082163 -762325 -2557593 -3988424 -4849895 -5114891 
2027.434 -4918804 -4502880 -4116595 -3935832 -4007183 -4257752 -4525901 
2030.810 -4650474 -4524502 -4149710 -3630417 -3143590 -2859878 -2898300 
2034.185 -3257571 -3830741 -4436956 -4885771 -5042427 -4869161 -4426454 
2037.560 -3860789 -3340171 -3015637 -2974808 -3230449 -3728133 -4361808 
2040.935 -4997349 -5507115 -5781612 -5753328 -5406547 -4783357 -3982152 
2044.311 -3132734 -2360144 -1741947 -1260370 -800251 -167956 835024 2328763 
2048.168 4275643 6460414 8524015 10078387 10821975 10639065 9620179 8026968 
2052.025 6202230 4488969 3137173 2268154 1856835 1764578 1796782 1772161 
2055.883 1577740 1200342 712023 247470 -48133 -54691 284489 952630 1860082 
2060.222 2867964 3816220 4566842 5027553 5176533 5056913 4760557 4394625 
2064.080 4055052 3793137 3617800 3498337 3392782 3268431 3122253 2981942 
2067.937 2905373 2949710 3161280 3554568 4111267 4779245 5485719 6147331 
2071.795 6683589 7025046 7126909 6973695 6588618 6030961 5395314 4791067 
2075.652 4327623 4084951 4104285 4373583 4838846 5413651 6005100 6527617 
2079.510 6924096 7163793 7247999 7197346 7048388 6843781 6630092 6451939 
2083.367 6351589 6354659 6471929 6688355 6965851 7248224 7473665 7588819 
2087.224 7565468 7403735 7134421 6804891 6465777 6152495 5878068 5630987 
2091.082 5388043 5125329 4839922 4553638 4316502 4192476 4239793 4490186 
2094.939 4936916 5523756 6166684 6764034 7226955 7494683 7547075 7401610 
2098.797 7106465 6721095 6306361 5912005 5573731 5310491 5130253 5035266 
2102.654 5027876 5107997 5275293 5522858 5833408 6175451 6506394 6776660 
2106.511 6943249 6976703 6877199 6670012 6407977 6156659 5981126 5929933 
2110.369 6029044 6272697 6630875 7052883 7477462 7842132 8090484 8179449 
2114.226 8088026 7815797 7387872 6847799 6249985 5648193 5084046 4579993 
2118.084 4141895 3758852 3419624 3111231 2831969 2578592 2344825 2111434 
2121.941 1847140 1513842 1083752 550533 -55097 -674109 -1228659 -1652184 
2125.799 -1908862 -2016360 -2042340 -2095193 -2291957 -2733952 -3476010 
2129.174 -4518037 -5797380 -7211752 -8630694 -9924543 -10982216 -11730011 
2132.549 -12137919 -12223456 -12039727 -11668989 -11193130 -10686320 
2135.442 -10198456 -9762982 -9402712 -9148915 -9045160 -9145820 -9489608 
2138.817 -10082168 -10867292 -11735210 -12532474 -13115233 -13380672 
2141.710 -13315275 -12988879 -12545819 -12149444 -11943807 -12008002 
2144.604 -12354629 -12930375 -13663517 -14477626 -15324838 -16176770 
2147.497 -17020272 -17839802 -18618234 -19338280 -20008820 -20662806 
2150.390 -21371234 -22217376 -23274244 -24575294 -26109132 -27819264 
2153.283 -29640750 -31507350 -33393956 -35282852 -37150500 -38915676 
2156.176 -40412016 -41367808 -41470528 -40426320 -38085408 -34544892 
2159.069 -30174634 -25543980 -21270568 -17838360 -15510434 -14275081 
2161.962 -13912112 -14056460 -14284068 -14192718 -13471187 -11952275 
2164.855 -9667069 -6839180 -3859495 -1198444 691883 1486345 1061990 -469777 
2168.712 -2806541 -5520397 -8172220 -10402365 -12003149 -12935416 -13309104 
2172.088 -13305815 -13123580 -12902236 -12706391 -12524202 -12305417 
2174.981 -11990575 -11554373 -11007686 -10403240 -9811125 -9296313 -8910452 
2178.356 -8677456 -8597684 -8648098 -8776028 -8918311 -8987347 -8905002 
2181.731 -8606591 -8072704 -7324523 -6433678 -5489306 -4587502 -3795252 
2185.106 -3151076 -2659493 -2310149 -2086091 -1985539 -2005504 -2153654 
2188.482 -2421117 -2788565 -3220162 -3673147 -4106822 -4491871 -4792343 
2191.857 -4979077 -5004669 -4816469 -4362999 -3619518 -2606761 -1403640 
2195.232 -129455 1072777 2086632 2845533 3352281 3663245 3862561 4017673 
2199.090 4160803 4272173 4311258 4241090 4065726 3837220 3649533 3594663 
2202.947 3731656 4048258 4465969 4860187 5107841 5135329 4944623 4614151 
2206.804 4269842 4032871 3982921 4124053 4389207 4667716 4844875 4838793 
2210.662 4633751 4268304 3830810 3419953 3125435 2999523 3058813 3282187 
2214.519 3628550 4039080 4458223 4828216 5103122 5247351 5243690 5095372 
2218.377 4831991 4496552 4148604 3846337 3637366 3551155 3598389 3769125 
2222.234 4042583 4378375 4734712 5062522 5316336 5460688 5477885 5376146 
2226.092 5194729 4992431 4841699 4807738 4935499 5237027 5694026 6260720 
2229.949 6879850 7489516 8040198 8488726 8806831 8976310 8990420 8853011 
2233.806 8583687 8211889 7781852 7339286 6931795 6601131 6383294 6301929 
2237.664 6374255 6597268 6948981 7380507 7817342 8171630 8360709 8331726 
2241.521 8084793 7673533 7200521 6781263 6513598 6444421 6557647 6782824 
2245.379 7026583 7204610 7274465 7243777 7161170 7089188 7075851 7130580 
2249.236 7227450 7311978 7330673 7251554 7078044 6847768 6621654 6461759 
2253.094 6423992 6536682 6805992 7212962 7718918 8269286 8799305 9242739 
2256.951 9547159 9680924 9649221 9490717 9271123 9065160 8936294 8919685 
2260.808 9015775 9193365 9409565 9623939 9816186 9987794 10160642 10360654 
2264.666 10609561 10912132 11257366 11622239 11979571 12306454 12587922 
2268.041 12819265 13002929 13145181 13254207 13336989 13399068 13441805 
2271.416 13463197 13459492 13427852 13369252 13295133 13225108 13186522 
2274.792 13207039 13307099 13492129 13751674 14059597 14385657 14699933 
2278.167 14984477 15233646 15451607 15646148 15823308 15980758 16111029 
2281.542 16205098 16258558 16277218 16281037 16299244 16364459 16502196 
2284.917 16723616 17018968 17357304 17693196 17973246 18151296 18197042 
2288.292 18103278 17887794 17587418 17249876 16921958 16638923 16420135 
2291.668 16266210 16163187 16090544 16024515 15947577 15849445 15729584 
2295.043 15594776 15459233 15338948 15250535 15205055 15205927 15246767 
2298.418 15312755 15385657 15449308 15494725 15523595 15545744 15572465 
2301.793 15611903 15661662 15710047 15740702 15740354 15706966 15651690 
2305.169 15597168 15568388 15582197 15641266 15732508 15832260 15916992 
2308.544 15971217 15992898 15992351 15985034 15984870 15999332 16026791 
2311.919 16063217 16104400 16151132 16209960 16289067 16394949 16530041 
2315.294 16691487 16874642 17075304 17291942 17523714 17769306 18024680 
2318.670 18287026 18558546 18853818 19200848 19635552 20185470 20849692 
2322.045 21582290 22287314 22832978 23080750 22921374 22306376 21261868 
2325.420 19884872 18322250 16738601 15285057 14071931 13152969 12526919 
2328.795 12146954 11942898 11841337 11782236 11727487 11660999 11583937 
2332.171 11507002 11445128 11410673 11412404 11450975 11519993 11606494 
2335.546 11692724 11762316 11803042 11811510 11792400 11758314 11722255 
2338.921 11695120 11681455 11679628 11683605 11686717 11685045 11677012 
2342.296 11664266 11648059 11628387 11603682 11570955 11530433 11484712 
2345.672 11441016 11406971 11388873 11387673 11398824 11412570 11418849 
2349.047 11410175 11385200 11348250 11307503 11271468 11244477 11225272 
2352.422 11206692 11178645 11131825 11060076 10964330 10851366 10733162 
2355.797 10622571 10531512 10466214 10425908 10403340 10383523 10349966 
2359.173 10286151 10180705 10029344 9835852 9611288 9370016 9125861 8889799 
2363.030 8667904 8462155 8272864 8099875 7945798 7815843 7715154 7647450 
2366.887 7613693 7610188 7630547 7667043 7712490 7761830 7812698 7864219 
2370.745 7916636 7970736 8027553 8088439 8154974 8228990 8310812 8399094 
2374.602 8489484 8576662 8656503 8726851 8791118 8855971 8929672 9018745 
2378.460 9122889 9237104 9349708 9447804 9521351 9564921 9579758 9571344 
2382.317 9545717 9506615 9455226 9390349 9312696 9225052 9136024 9055818 
2386.175 8995682 8963043 8960545 8987809 9042460 9124201 9235528 9379108 
2390.032 9553210 9749079 9946661 10118915 10238042 10283814 10253378 
2393.407 10162630 10042700 9933150 9867460 9865121 9926088 10032131 10153224 
2397.265 10258496 10325626 10345358 10324080 10280075 10237417 10218997 
2400.640 10241773 10311318 10422442 10559591 10701556 10826462 10918275 
2404.015 10969081 10982552 10970582 10949264 10931562 10924487 10927241 
2407.390 10933460 10936617 10935661 10936078 10949721 10987976 11056755 
2410.766 11152367 11262236 11368847 11456200 11515386 11546547 11555888 
2414.141 11550029 11532680 11502056 11453861 11386390 11305866 11226446 
2417.516 11166431 11141291 11154769 11197574 11248419 11283888 11287110 
2420.891 11256279 11203707 11150305 11114970 11105988 11116717 11128830 
2424.267 11122440 11083975 11013344 10922710 10829530 10748586 10682236 
2427.642 10621797 10551015 10454449 10325912 10171330 10008337 9859205 
2431.017 9744826 9679114 9668672 9713452 9811868 9960950 10156521 10392196 
2434.875 10656049 10932378 11201629 11448126 11658692 11827653 11953004 
2438.250 12033150 12063399 12036194 11944477 11786018 11569883 11317655 
2441.625 11062120 10840629 10685886 10620379 10650360 10767961 10952553 
2445.000 11179493 11420900 11653524 11858338 12022519 12139218 12207076 
2448.375 12228433 12207618 12149522 12058408 11937952 11795047 11641515 
2451.751 11494431 11374901 11301984 11286215 11322696 11388942 11451023 
2455.126 11473582 11430767 11317536 11151304 10967758 10808110 10706577 
2458.501 10679553 10722299 10812557 10920975 11019476 11090674 11126962 
2461.876 11128150 11096863 11033488 10934804 10797168 10619582 10407572 
2465.252 10174903 9940547 9726186 9551197 9429527 9368106 9367296 9420532 
2469.109 9516953 9640336 9771129 9889594 9977465 10022058 10018642 9970902 
2472.967 9891223 9797134 9707561 9640462 9608832 9619557 9672667 9759080 
2476.824 9864002 9967398 10050707 10098332 10105851 10079126 10034232 
2480.199 9991561 9968867 9975201 10009006 10060922 10118420 10172790 
2483.574 10224605 10281428 10355230 10453671 10575778 10712085 10846295 
2486.950 10962681 11051977 11115664 11161882 11200123 11235628 11264226 
2490.325 11274411 11253498 11195124 11103370 10995235 10895579 10829268 
2493.700 10813168 10851820 10938824 11061030 11202679 11352922 11504916 
2497.075 11654645 11797842 11925969 12027120 12087798 12097078 12051838 
2500.451 11957581 11827943 11682102 11538655 11412347 11310555 11231693 
2503.826 11167977 11106922 11037210 10952387 10855710 10759256 10684163 
2507.201 10654004 10687267 10787344 10940946 11116549 11272334 11367104 
2510.576 11374498 11291440 11141605 10970630 10833078 10777137 10831012 
2513.952 10995208 11241718 11522904 11783460 11974476 12064440 12044912 
2517.327 11929420 11749388 11541656 11342994 11181308 11071785 11018235 
2520.702 11016463 11058229 11134360 11237119 11359098 11490510 11619706 
2524.077 11732569 11815552 11859840 11864047 11835180 11785403 11726975 
2527.453 11666244 11601850 11525245 11424658 11293049 11132873 10957584 
2530.828 10789623 10651773 10563261 10534101 10563217 10644211 10765505 
2534.203 10916028 11086392 11265590 11441146 11601087 11733755 11835732 
2537.578 11913025 11981593 12061673 12171300 12315265 12483306 12651009 
2540.954 12788906 12872002 12888334 12841862 12747047 12622457 12481209 
2544.329 12327565 12161441 11983937 11805372 11648254 11542766 11517407 
2547.704 11586033 11742314 11959452 12197377 12418272 12597160 12726647 
2551.079 12815153 12878640 12929237 12968898 12989833 12981331 12939434 
2554.455 12872266 12803273 12762267 12776840 12861246 13010744 13201305 
2557.830 13400285 13573118 13694716 13753181 13749333 13692322 13593896 
2561.205 13463574 13308909 13136770 12955830 12780867 12631375 12530562 
2564.580 12498891 12549199 12681459 12880518 13119266 13362888 13577978 
2567.956 13740642 13842045 13890661 13907406 13916913 13937803 13974832 
2571.331 14017481 14042631 14024206 13945180 13804844 13623038 13433426 
2574.706 13276143 13183228 13171536 13239122 13368161 13533042 13708293 
2578.081 13876286 14028187 14163028 14284174 14393858 14492941 14580113 
2581.457 14653109 14710972 14753249 14779677 14789287 14779034 14744834 
2584.832 14684155 14598380 14494175 14382912 14279348 14198057 14149652 
2588.207 14139870 14168299 14229233 14315302 14418270 14530854 14646963 
2591.582 14761564 14869428 14964717 15040115 15088282 15103022 15081348 
2594.958 15026641 14949003 14865410 14798095 14767366 14786759 14858489 
2598.333 14970636 15099417 15216298 15295251 15321758 15296471 15233701 
2601.708 15156150 15085298 15035049 15007506 14994811 14984214 14966001 
2605.083 14939911 14915470 14909217 14939105 15015826 15139862 15299772 
2608.458 15477371 15651124 15804796 15929695 16025616 16099114 16160626 
2611.834 16220048 16284591 16358381 16440811 16528636 16616058 16695427 
2615.209 16758654 16798948 16812954 16801710 16772330 16736168 16707208 
2618.584 16698137 16716709 16764706 16836244 16919618 17000472 17065052 
2621.959 17102492 17107492 17080994 17031106 16970000 16914076 16880996 
2625.335 16884890 16935142 17031518 17164866 17316216 17462246 17580224 
2628.710 17654302 17680362 17666706 17631800 17598654 17587362 17608026 
2632.085 17659164 17727864 17795078 17842564 17859214 17843332 17803152 
2635.460 17752218 17704470 17669118 17648748 17638932 17633458 17626030 
2638.836 17615398 17604408 17599632 17608444 17634850 17678680 17734974 
2642.211 17796268 17855538 17907452 17951734 17990244 18027260 18066868 
2645.586 18109964 18155660 18199500 18235252 18257642 18261236 18243790 
2648.961 18205290 18147430 18073936 17988828 17895400 17797124 17696682 
2652.337 17596118 17497848 17404462 17318720 17243308 17179216 17125544 
2655.712 17079898 17037446 16992924 16941154 16878376 16802800 16714148 
2659.087 16611978 16496463 16366431 16220728 16057909 15879409 15688628 
2662.462 15491458 15295683 15109077 14938080 14786896 14655348 14542367 
2665.838 14445097 14358978 14281425 14208497 14137872 14067318 13995667 
2669.213 13923190 13852298 13786309 13730868 13691256 13670443 13669772 
2672.588 13685231 13711089 13738570 13759517 13768811 13764119 13747764 
2675.963 13725300 13703367 13686900 13677606 13673338 13668347 13655719 
2679.339 13630693 13591733 13543148 13491848 13446014 13410953 13387654 
2682.714 13371630 13354789 13330115 13293741 13247997 13200260 13159975 
2686.089 13134525 13125632 13127987 13132502 13128914 13111992 13082631 
2689.464 13048662 13021619 13009984 13016731 13036739 13058463 13068921 
2692.840 13058540 13024514 12972428 12913642 12860435 12823374 12806885 
2696.215 12809990 12826824 12849805 12870898 12883955 12884268 12868940 
2699.590 12837417 12791053 12735176 12677107 12626081 12591052 12577462 
2702.965 12586312 12614360 12654915 12701374 12748845 12795246 12840395 
2706.341 12884204 12923311 12953275 12967011 12958976 12927348 12875741 
2709.716 12813590 12752420 12703484 12673238 12662415 12667027 12679000 
2713.091 12691794 12701686 12708849 12717378 12733097 12759822 12798658 
2716.466 12845966 12895295 12937545 12965514 12975191 12966653 12945905 
2719.842 12920505 12899287 12887628 12886906 12892471 12896397 12890563 
2723.217 12869585 12833734 12790201 12750398 12726735 12728346 12758994 
2726.592 12815766 12890556 12973599 13056309 13132017 13198061 13253159 
2729.967 13296202 13324806 13336860 13330245 13305777 13266930 13220927 
2733.343 13175551 13139499 13118549 13116192 13133531 13168934 13219562 
2736.718 13280664 13345919 13407527 13457691 13489519 13499510 13489495 
2740.093 13465332 13436572 13412392 13400327 13404155 13422317 13451239 
2743.468 13484769 13516192 13539447 13548631 13538865 13506924 13452883 
2746.844 13382168 13304435 13233399 13181861 13158205 13161988 13184193 
2750.219 13209812 13222728 13210481 13169658 13104665 13025638 12943455 
2753.594 12865673 12795614 12732364 12674073 12621302 12578385 12551144 
2756.969 12543741 12555443 12578139 12600563 12610340 12600534 12573073 
2760.344 12537287 12508512 12500341 12521479 12572033 12644068 12726400 
2763.720 12808579 12883853 12950079 13008828 13061582 13108146 13144813 
2767.095 13167402 13171827 13157248 13126896 13088189 13050301 13021679 
2770.470 13008450 13013497 13034977 13069088 13108782 13146636 13175489 
2773.845 13190605 13189271 13173902 13149885 13124555 13105912 13098703 
2777.221 13104234 13119720 13139770 13160199 13178122 13194467 13213985 
2780.596 13240678 13278561 13327919 13385588 13445427 13500809 13546139 
2783.971 13578618 13598134 13607487 13611243 13615187 13624640 13644644 
2787.346 13678481 13727276 13790384 13863798 13943036 14023053 14099736 
2790.722 14171863 14239157 14302541 14362114 14416277 14460907 14492631 
2794.097 14508060 14506814 14490200 14461861 14425169 14381341 14330369 
2797.472 14271320 14205309 14138247 14081862 14050977 14060718 14121896 
2800.847 14235674 14392143 14572730 14752845 14909822 15026629 15096272 
2804.223 15121915 15115201 15091920 15068350 15057669 15068447 15103238 
2807.598 15159800 15232490 15312936 15392847 15464683 15525703 15575806 
2810.973 15620267 15666723 15723955 15797636 15889091 15992958 16098756 
2814.348 16193824 16266251 16308833 16322501 16315270 16300093 16290683 
2817.724 16298579 16329283 16381197 16447425 16519075 16589047 16653836 
2821.099 16715998 16781498 16857830 16949834 17057620 17176554 17298950 
2824.474 17416276 17521404 17612992 17692462 17766164 17840562 17922402 
2827.849 18016156 18122790 18241928 18369866 18502244 18632104 18751550 
2831.225 18852088 18924848 18963710 18965412 18932514 18871858 18794786 
2834.600 18713882 18641722 18588240 18560206 18561356 18593998 18658624 
2837.975 18755830 18885922 19048358 19240396 19456706 19689766 19928496 
2841.350 20161514 20377806 20569020 20730730 20864828 20977130 21077116 
2844.726 21176182 21283438 21405132 21541650 21690228 21843576 21995262 
2848.101 22139910 22275780 22403924 22528274 22652774 22780694 22912326 
2851.476 23045742 23177586 23303608 23420726 23526618 23622530 23711252 
2854.851 23797690 23888700 23991416 24112794 24257680 24427920 24621328 
2858.227 24832986 25056248 25284556 25514430 25745392 25981500 26229832 
2861.602 26497378 26790546 27112374 27462718 27837324 28229646 28631438 
2864.977 29035338 29435228 29828076 30216218 30607038 31012032 31446532 
2868.352 31924800 32456480 33042740 33675664 34338448 35009624 35668952 
2871.728 36302776 36904676 37480204 38037816 38587908 39134792 39673036 
2875.103 40187200 40654876 41052080 41359788 41567536 41675832 41696124 
2878.478 41644732 41538116 41389644 41204764 40984636 40725720 40426544 
2881.853 40089284 39722832 39341372 38961580 38599128 38263944 37958688 
2885.229 37678436 37413808 37155660 36897072 36637572 36381680 36139644 
2888.604 35922688 35742040 35605472 35515672 35472044 35468312 35495508 
2891.979 35542624 35598540 35653768 35701536 35739248 35768584 35794476 
2895.354 35822544 35856348 35898160 35946404 35998916 36054304 36113068 
2898.729 36180156 36261108 36361280 36482452 36620292 36767404 36912196 
2902.105 37045768 37163040 37264712 37356916 37446964 37541420 37642640 
2905.480 37748764 37854536 37954192 38045548 38130492 38216156 38312776 
2908.855 38430696 38577780 38757836 38969188 39207012 39464452 39735068 
2912.230 40014796 40301640 40596716 40902220 41219364 41546372 41877456 
2915.606 42204244 42516516 42807376 43074508 43322960 43566740 43823760 
2918.981 44112948 44448884 44837920 45276136 45752264 46249992 46754320 
2922.356 47255164 47749640 48241644 48740432 49255592 49795700 50363740 
2925.731 50959864 51579564 52217756 52870308 53535344 54215208 54915400 
2929.107 55643768 56409112 57218304 58074716 58976712 59918728 60892716 
2932.482 61890896 62907940 63943884 65004424 66099668 67242920 68447384 
2935.857 69725056 71082896 72524792 74051360 75657296 77334608 79071000 
2939.232 80849608 82648704 84444840 86210304 87918072 89540016 91050920 
2942.608 92426016 93642912 94683712 95534472 96187344 96643512 96910280 
2945.983 97001536 96935184 96729864 96401976 95966472 95435400 94821168 
2949.358 94136896 93399048 92625048 91833832 91041592 90259800 89493536 
2952.733 88742600 88001712 87263640 86523368 85778360 85031472 84290432 
2956.109 83567144 82876120 82230160 81639992 81109608 80635216 80204688 
2959.484 79797016 79386728 78947040 78453552 77889744 77249400 76537088 
2962.859 75765816 74953232 74118344 73275528 72434960 71600936 70774432 
2966.234 69957248 69152672 68366048 67603200 66867904 66159300 65471776 
2969.610 64796596 64126140 63458272 62798716 62159856 61557964 61005948 
2972.985 60510240 60066888 59663808 59287020 58926424 58580676 58259448 
2976.360 57978316 57755844 57603268 57524712 57515036 57565312 57668232 
2979.735 57824576 58043856 58343404 58741928 59255156 59891880 60652972 
2983.111 61532772 62522784 63615100 64802416 66078416 67436480 68869000 
2986.486 70367680 71925128 73536152 75198448 76909600 78664560 80449704 
2989.861 82241784 84007144 85706008 87297056 88745000 90024360 91119944 
2993.236 92024952 92739344 93264256 93600816 93750688 93718096 93512368 
2996.612 93149600 92652592 92046872 91355576 90594584 89770024 88875104 
2999.987 87894272 86809840 85606760 84281344 82843896 81318440 79738032 
3003.362 78137096 76542888 74969136 73414080 71863640 70298296 68700432 
3006.737 67061560 65385804 63686976 61984836 60299928 58647852 57037468 
3010.113 55471844 53953048 52481120 51059572 49692000 48382180 47131536 
3013.488 45936704 44790640 43684368 42608808 41556692 40525304 39517156 
3016.863 38538296 37599884 36712744 35887496 35128656 34433804 33790936 
3020.238 33180404 32578080 31963632 31324472 30662354 29990116 29330408 
3023.614 28705532 28130202 27607640 27126252 26666888 26209172 25739404 
3026.989 25255554 24766710 24289656 23841534 23434798 23072392 22749288 
3030.364 22454150 22176034 21905242 21638100 21374802 21119546 20877528 
3033.739 20653856 20451694 20273798 20120072 19988572 19876344 19778492 
3037.115 19690112 19606410 19525036 19444966 19367230 19293556 19224972 
3040.490 19161790 19101858 19043548 18983582 18919204 18846218 18762164 
3043.865 18663056 18546124 18410342 18257550 18093676 17927318 17768600 
3047.240 17626320 17505298 17406346 17327122 17263130 17210378 17167850 
3050.615 17136468 17116952 17108702 17108536 17108780 17099184 17071450 
3053.991 17018798 16940406 16841390 16731784 16625131 16536497 16480241 
3057.366 16466331 16500315 16580580 16698338 16838516 16981832 17108984 
3060.741 17205672 17263046 17281692 17269098 17236664 17195888 17154074 
3064.116 17114198 17074002 17029578 16975780 16910444 16833050 16745450 
3067.492 16651962 16555669 16462548 16379591 16315656 16280126 16280418 
3070.867 16321082 16397920 16500644 16611760 16711785 16785756 16824794 
3074.242 16831560 16817592 16799180 16791082 16799390 16819674 16836044 
3077.617 16827218 16772743 16662277 16498180 16298627 16090365 15902931 
3080.993 15759572 15670514 15630089 15622616 15627127 15626367 15611134 
3084.368 15583591 15553251 15531688 15527807 15544301 15577872 15623977 
3087.743 15679101 15744906 15826367 15927954 16049780 16183466 16312232 
3091.118 16415235 16474616 16479364 16432041 16345078 16236620 16123675 
3094.494 16018797 15926138 15845390 15775103 15717875 15680047 15670856 
3097.869 15697077 15757579 15839605 15921349 15975475 15979934 15922438 
3101.244 15807742 15656110 15498628 15369293 15295665 15292529 15359188 
3104.619 15478939 15626105 15771145 15888860 15963083 15989520 15975436 
3107.995 15937069 15893480 15862698 15857026 15881587 15933581 16004782 
3111.370 16084351 16161133 16226567 16273648 16301228 16309597 16303457 
3114.745 16288955 16274029 16266312 16271440 16290577 16321110 16354892 
3118.120 16382521 16394777 16386122 16358422 16318992 16280077 16255593 
3121.496 16256535 16286369 16340293 16404919 16459405 16482584 16458096 
3124.871 16379105 16253253 16101172 15953461 15841359 15791073 15811857 
3128.246 15896294 16019991 16150346 16256824 16319891 16336998 16319983 
3131.621 16289631 16265567 16258724 16267845 16282851 16292399 16290909 
3134.997 16283218 16284358 16311465 16375711 16476791 16599797 16719801 
3138.372 16812264 16860546 16862924 16832022 16788996 16754387 16739892 
3141.747 16745094 16757675 16759090 16732456 16666701 16562229 16427783 
3145.122 16280659 16140461 16027128 15956596 15939102 15977418 16064815 
3148.498 16185071 16317518 16438292 16530279 16585737 16608668 16613433 
3151.873 16617769 16635431 16671387 16718036 16761001 16784510 16779562 
3155.248 16749427 16708380 16678438 16680773 16727580 16819204 16943696 
3158.623 17082440 17216464 17331354 17422432 17490844 17543476 17585404 
3161.999 17619496 17643516 17651938 17637962 17596798 17527054 17432768 
3165.374 17323052 17211724 17114706 17048472 17026634 17055258 17132146 
3168.749 17245098 17373722 17495276 17589316 17643704 17658200 17642788 
3172.124 17614496 17590236 17581622 17590046 17607948 17621278 17616708 
3175.500 17586456 17531042 17461226 17392460 17342008 17323100 17342260 
3178.875 17398324 17483850 17587972 17699284 17806264 17900572 17975798 
3182.250 18027980 18055922 18059942 18044188 18013574 17975574 17936174 
3185.625 17903394 17883538 17883462 17910772 17972216 18072422 18211838 
3189.000 18382466 18569122 18748464 18895952 18990336 19021078 18992218 
3192.376 18920564 18833234 18758114 18717078 18718404 18756632 18815584 
3195.751 18873808 18913366 18924488 18909088 18877142 18843792 18822462 
3199.126 18821542 18840494 18872242 18905186 18927276 18930340 18912544 
3202.501 18879470 18843050 18818236 18820100 18858446 18937058 19049506 
3205.877 19182778 19320194 19443980 19542918 19612252 19655734 19682840 
3209.252 19705102 19733948 19774564 19828892 19893166 19961134 20026314 
3212.627 20081582 20121642 20143456 20145184 20126920 20091572 20044008 
3216.002 19989184 19931538 19873116 19813058 19749308 19680242 19608238 
3219.378 19539134 19484076 19454970 19461128 19507550 19590572 19701446 
3222.753 19826984 19953760 20070180 20167246 20237898 20277028 20280600 
3226.128 20249144 20188940 20113756 20043320 19998904 19998310 20047308 
3229.503 20138114 20251316 20361844 20448734 20504910 20537850 20569280 
3232.879 20625934 20727722 20879898 21069010 21264510 21429730 21531768 
3236.254 21551636 21491036 21370194 21221454 21080850 20977794 20927758 
3239.629 20930764 20971580 21028102 21075922 21097044 21083060 21037126 
3243.004 20970674 20898862 20834992 20787794 20758916 20747596 20752094 
3246.380 20774720 20821690 20901656 21020312 21176480 21358614 21547380 
3249.755 21720482 21859750 21956626 22016448 22052214 22081642 22116988 
3253.130 22162308 22211036 22250034 22265928 22250272 22201960 22128106 
3256.505 22038226 21942846 21847998 21756850 21672698 21598502 21538866 
3259.881 21500056 21485578 21496434 21529342 21579926 21644358 21723514 
3263.256 21820708 21940116 22081756 22238068 22392678 22525474 22617310 
3266.631 22658698 22651598 22610058 22553432 22500212 22460724 22435976 
3270.006 22419800 22404612 22387220 22371470 22366068 22379278 22413636 
3273.382 22461012 22505202 22526374 22510730 22455834 22373032 22285576 
3276.757 22220702 22201036 22237058 22324622 22446088 22575768 22687392 
3280.132 22761288 22787386 22767980 22716308 22652584 22599116 22574698 
3283.507 22591276 22650086 22739986 22843738 22939898 23011634 23048316 
3286.883 23052806 23035598 23012850 22999620 23005094 23030066 23067890 
3290.258 23109712 23147120 23176220 23198240 23216714 23236190 23257338 
3293.633 23277600 23293100 23299394 23295144 23282464 23265002 23247650 
3297.008 23231174 23214584 23192440 23161174 23116464 23058966 22989672 
3300.384 22911480 22826370 22735020 22636538 22532250 22425834 22325722 
3303.759 22241712 22183920 22157912 22163594 22195966 22246928 22308478 
3307.134 22377500 22453006 22538552 22633260 22734016 22829904 22906660 
3310.509 22951008 22954460 22918120 22853000 22776156 22706658 22657656 
3313.885 22636976 22642052 22667660 22706218 22752264 22803016 22856460 
3317.260 22907800 22949216 22968634 22954544 22897988 22799292 22669400 
3320.635 22526402 22392430 22288832 22227794 22214030 22240956 22297746 
3324.010 22370440 22447628 22520036 22584514 22641738 22698204 22763750 
3327.385 22853622 22983292 23165784 23404400 23690322 23995792 24282332 
3330.761 24503014 24615902 24593752 24431686 24149902 23789504 23400248 
3334.136 23033764 22729216 22510836 22385800 22346946 22379474 22464902 
3337.511 22585736 22726946 22876414 23024586 23165286 23294006 23408600 
3340.886 23509400 23595604 23666644 23719248 23748110 23747932 23714874 
3344.262 23649254 23556702 23447344 23333682 23228446 23141662 23078856 
3347.637 23040036 23020476 23013762 23010874 23004380 22988296 22960026 
3351.012 22921374 22877746 22839072 22816516 22820136 22856486 22924566 
3354.387 23015134 23112512 23197042 23249180 23256250 23214050 23129684 
3357.763 23019646 22905966 22810796 22751894 22737750 22767248 22830570 
3361.138 22912462 22995966 23067728 23119138 23147134 23153280 23141994 
3364.513 23115752 23076252 23022124 22951674 22863982 22760412 22645146 
3367.888 22524754 22405474 22292514 22187466 22090438 22000076 21916724 
3371.264 21843218 21785680 21751258 21745180 21768482 21815272 21874104 
3374.639 21931366 21974454 21997120 22001398 21996474 21996324 22013890 
3378.014 22055434 22117900 22187540 22244820 22268344 22243548 22165978 
3381.389 22045286 21902962 21768684 21671122 21632574 21662620 21754584 
3384.765 21887664 22031840 22152836 22223414 22226694 22161500 22041830 
3388.140 21893198 21745672 21627292 21556978 21540438 21569952 21627970 
3391.515 21692398 21743952 21771908 21776374 21765090 21751864 21746966 
3394.890 21753818 21764902 21764110 21731914 21653682 21524832 21355758 
3398.266 21169404 20997068 20867428 20801388 20803310 20862936 20958472 
3401.641 21064558 21158672 21227202 21267154 21282406 21280504 21267382 
3405.016 21244186 21210566 21162970 21103002 21035344 20970878 20920820 
3408.391 20894690 20892720 20907246 20921658 20916942 20877034 20795052 
3411.767 20674876 20531636 20386652 20260896 20170776 20123976 20117412 
3415.142 20143194 20189398 20246862 20310082 20379516 20459422 20554510 
3418.517 20669152 20803480 20952790 21109286 21262504 21403016 21522192 
3421.892 21616558 21685532 21732774 21761728 21777114 21779372 21767242 
3425.268 21735412 21680654 21600434 21499690 21388326 21281082 21194324 
3428.643 21140962 21126304 21146908 21190572 21241166 21282896 21304914 
3432.018 21303640 21283794 21254708 21227118 21210132 21208492 21222786 
3435.393 21250700 21287864 21331156 21376888 21423324 21468388 21510694 
3438.769 21547808 21577878 21598018 21605092 21596090 21568696 21521280 
3442.144 21457196 21382212 21306984 21243078 21200334 21181198 21180454 
3445.519 21183766 21172140 21127618 21041858 20918078 20773194 20632226 
3448.894 20522506 20464204 20465440 20520336 20612338 20718400 20817656 
3452.270 20893054 20937268 20947502 20926986 20881050 20816650 20741672 
3455.645 20666096 20598976 20552390 20532380 20543140 20581666 20641806 
3459.020 20715560 20796312 20881854 20974632 21078718 21199356 21335512 
3462.395 21481024 21621002 21737866 21810636 21822408 21763482 21633958 
3465.771 21444776 21217472 20979430 20762204 20592236 20490612 20465502 
3469.146 20514022 20621402 20767870 20930600 21091056 21236408 21363144 
3472.521 21472306 21570532 21664466 21759954 21860144 21964454 22069502 
3475.896 22169442 22256324 22322306 22360012 22366624 22343174 22298428 
3479.271 22243962 22195448 22165762 22165672 22199524 22268856 22372518 
3482.647 22511228 22687358 22904802 23163128 23456742 23768200 24071714 
3486.022 24336402 24533584 24644416 24667084 24614702 24514972 24399592 
3489.397 24297936 24230326 24203478 24212932 24247660 24294032 24343242 
3492.772 24391290 24441936 24503894 24589048 24709178 24874672 25090740 
3496.148 25355774 25659338 25982724 26298724 26577602 26792070 26924850 
3499.523 26972934 26950448 26885694 26813600 26766288 26764068 26810508 
3502.898 26891570 26981636 27052824 27082310 27060268 26989988 26884576 
3506.273 26759756 26629470 26497976 26364334 26223208 26071658 25912508 
3509.649 25756286 25616362 25504560 25426562 25377884 25345046 25310074 
3513.024 25257572 25178906 25074538 24953102 24826320 24707916 24605708 
3516.399 24523838 24462788 24421264 24396542 24386618 24384752 24381692 
3519.774 24362284 24310162 24211450 24058086 23853966 23613436 23357708 
3523.150 23110838 22891442 22710284 22566554 22452896 22356044 22263208 
3526.525 22163588 22051384 21922324 21774978 21608636 21426022 21231284 
3529.900 21035696 20852874 20701692 20597910 20553756 20571630 20644902 
3533.275 20755574 20881834 20997686 21084138 21128216 21129082 21095020 
3536.651 21043132 20992660 20960944 20957742 20983060 21025026 21065344 
3540.026 21081764 21054550 20972500 20835954 20656928 20454678 20253468 
3543.401 20074952 19933156 19832614 19767860 19726048 19689822 19643350 
3546.776 19574972 19480982 19364712 19236046 19107948 18992088 18893824 
3550.152 18813516 18742720 18670118 18584398 18479844 18360376 18239104 
3553.527 18137340 18077250 18077560 18145914 18276750 18452220 18644332 
3556.902 18824238 18964832 19049032 19070232 19034376 18954940 18854590 
3560.277 18755418 18682488 18654684 18686234 18781106 18934436 19128222 
3563.653 19336310 19526064 19666134 19730162 19705312 19593344 19410162 
3567.028 19183748 18944386 18720314 18531508 18386950 18285800 18218496 
3570.403 18174760 18140822 18108198 18067420 18012740 17939372 17844902 
3573.778 17730774 17602730 17471428 17349806 17250794 17184714 17153722 
3577.154 17156274 17182438 17222390 17265954 17306050 17337882 17358210 
3580.529 17362226 17345608 17302468 17232194 17139948 17037958 16944708 
3583.904 16880126 16857548 16879866 16935214 17000786 17047280 17048130 
3587.279 16986738 16863928 16696271 16514651 16354389 16248062 16216351 
3590.655 16263006 16374482 16523151 16672118 16786486 16840118 16822282 
3594.030 16738720 16612170 16470550 16340818 16239354 16170377 16125344 
3597.405 16089816 16051142 16003307 15949799 15898444 15856842 15825827 
3600.780 15796131 15753169 15681390 15573432 15434349 15282463 15141765 
3604.156 15036123 14977844 14966464 14988365 15024507 15056315 15073167 
3607.531 15072648 15060663 15045173 15034387 15033738 15047340 15077489 
3610.906 15128183 15200032 15291480 15392505 15488002 15558744 15591533 
3614.281 15583698 15547313 15507410 15493990 15531269 15631730 15789239 
3617.656 15984342 16190778 16387003 16559916 16710225 16843860 16968080 
3621.032 17083372 17183534 17254006 17283120 17263818 17199362 17100782 
3624.407 16983248 16857674 16732080 16606100 16479244 16353333 16240638 
3627.782 16159855 16134558 16184678 16320100 16532861 16803202 17100048 
3631.157 17393254 17657022 17878918 18056342 18197546 18313952 18417606 
3634.533 18515570 18611736 18705128 18790870 18864320 18921822 18960678 
3637.908 18981364 18983882 18972610 18951450 18926256 18903372 18891960 
3641.283 18899590 18934452 19000832 19100700 19230170 19381560 19544370 
3644.658 19706260 19857322 19990460 20104314 20201804 20289290 20376800 
3648.034 20472056 20582278 20708826 20850000 20997592 21140334 21264610 
3651.409 21356680 21403896 21396664 21327974 21195726 21001748 20754876 
3654.784 20469090 20168074 19880646 19640046 19476688 19410686 19446490 
3658.159 19571754 19755966 19962470 20155546 20311966 20422132 20494364 
3661.535 20542168 20578546 20604240 20606340 20560236 20443176 20242228 
3664.910 19966368 19646840 19330610 19068080 18899572 18843654 18894338 
3668.285 19023500 19191214 19354068 19475254 19529268 19505608 19404622 
3671.660 19238974 19027126 18794818 18565062 18360026 18191164 18057486 
3675.036 17946690 17835750 17701754 17529686 17316700 17077336 16834124 
3678.411 16615760 16444415 16333876 16286137 16294675 16346950 16428450 
3681.786 16524885 16621595 16702930 16756412 16769461 16737733 16663317 
3685.161 16556196 16429434 16294753 16158691 16023958 15889823 15759859 
3688.537 15645422 15565885 15543232 15593532 15716694 15893871 16087044 
3691.912 16251871 16346931 16348816 16253790 16081110 15860934 15627259 
3695.287 15407647 15219651 15072301 14966337 14899054 14863159 14845680 
3698.662 14827830 14787705 14706010 14574070 14401774 14217827 14062180 
3702.038 13972950 13973160 14059012 14200968 14352010 14467065 14517503 
3705.413 14501304 14442115 14375599 14337445 14344639 14392736 14458576 
3708.788 14511415 14530538 14509731 14464358 14419721 14400752 14421730 
3712.163 14480317 14559274 14636147 14692181 14722651 14733876 14743117 
3715.539 14766523 14815282 14888162 14972255 15049529 15101341 15113995 
3718.914 15083368 15012562 14913252 14800240 14690566 14601146 14548169 
3722.289 14542958 14592136 14693610 14837074 15001885 15163016 15294550 
3725.664 15376406 15399209 15368045 15299726 15219920 15156060 15128342 
3729.040 15144264 15199482 15276046 15351263 15404286 15423749 15410763 
3732.415 15378549 15345952 15332448 15348541 15394364 15459063 15526405 
3735.790 15582143 15617150 15634291 15642183 15653454 15677484 15716026 
3739.165 15762711 15803903 15827211 15820367 15779102 15704656 15602781 
3742.541 15481981 15351270 15219910 15097417 14991177 14909209 14853772 
3745.916 14822995 14809370 14801880 14790254 14768099 14737292 14706098 
3749.291 14688061 14694337 14730454 14793417 14872076 14952138 15022312 
3752.666 15077199 15119423 15157514 15200265 15253822 15317444 15387235 
3756.042 15455667 15517209 15569466 15611556 15643857 15663590 15663842 
3759.417 15636422 15571266 15464971 15320417 15147539 14960672 14774405 
3762.792 14599435 14440161 14297342 14168084 14051383 13949886 13869255 
3766.167 13819688 13809375 13847770 13940562 14087654 14284671 14520569 
3769.542 14777853 15035246 15268658 15459659 15596611 15678469 15714420 
3772.918 15721098 15712881 15698858 15678138 15640998 15575185 15472479 
3776.293 15336289 15181257 15031253 14910903 14835498 14807073 14812121 
3779.668 14829805 14837639 14823098 14785929 14738131 14697401 14678539 
3783.043 14689767 14729205 14787123 14851000 14911484 14962740 15002876 
3786.419 15031752 15046961 15043812 15016850 14964044 14888424 14799486 
3789.794 14711672 14637269 14581222 14540118 14500270 14445710 14361983 
3793.169 14246166 14106243 13961477 13837733 13758470 13739041 13785176 
3796.544 13889036 14036955 14208910 14386128 14551478 14689580 14789497 
3799.920 14844728 14853090 14821303 14762820 14700130 14656747 14653647 
3803.295 14702674 14803463 14940785 15089605 15220405 15306581 15330920 
3806.670 15293018 15207498 15102606 15012084 14966361 14983282 15064657 
3810.045 15193445 15338588 15463385 15534683 15532954 15457906 15328654 
3813.421 15175156 15032085 14922022 14851723 14808958 14767206 14696740 
3816.796 14578931 14413255 14220762 14036667 13898854 13837194 13863314 
3820.171 13968446 14127617 14310589 14489032 14646840 14778378 14885552 
3823.546 14970385 15030444 15057529 15040883 14974101 14859980 14713605 
3826.922 14558383 14419380 14317195 14259508 14242622 14252095 14270270 
3830.297 14281796 14276680 14252487 14212157 14162850 14112894 14072146 
3833.672 14051883 14061212 14108079 14192508 14308237 14439000 14562756 
3837.047 14657564 14707633 14708713 14669760 14607577 14543836 14495612 
3840.423 14471250 14470755 14487979 14514192 14542595 14568181 14590818 
3843.798 14607552 14617478 14617511 14604438 14577476 14539583 14494997 
3847.173 14449241 14405021 14362074 14316158 14265090 14206804 14146063 
3850.548 14089682 14044482 14014843 13998194 13985146 13965269 13929295 
3853.924 13877350 13818952 13770848 13751319 13773003 13837978 13937888 
3857.299 14055742 14171959 14270935 14345056 14394950 14429640 14460210 
3860.674 14496077 14541632 14595845 14650848 14698248 14730684 14746083 
3864.049 14748697 14749891 14765813 14809645 14889804 15003975 15137576 
3867.425 15266821 15364682 15409022 15388176 15307035 15185384 15051935 
3870.800 14934121 14850964 14806096 14788267 14776645 14747027 14679857 
3874.175 14567225 14412883 14230934 14043263 13874084 13744760 13672525 
3877.550 13665935 13726055 13843715 14002880 14181799 14359099 14517136 
3880.926 14646693 14748658 14831062 14906354 14984001 15067256 15151571 
3884.301 15225002 15274298 15287365 15260292 15196703 15107635 15007506 
3887.676 14911514 14829020 14767042 14725070 14701157 14690498 14689066 
3891.051 14695959 14709486 14729650 14754501 14780658 14800708 14805404 
3894.427 14788754 14747238 14686312 14619385 14566896 14549818 14585219 
3897.802 14678597 14820862 14990148 15157538 15295258 15383079 15415760 
3901.177 15402405 15361129 15314889 15281553 15272351 15285983 15314105 
3904.552 15340799 15348829 15324350 15258729 15152742 15016701 14869665 
3907.927 14735274 14636648 14589337 14594926 14638798 14693134 14724617 
3911.303 14705386 14621705 14482837 14315837 14161366 14058120 14032785 
3914.678 14091925 14219358 14385821 14554040 14693914 14785788 14828326 
3918.053 14830414 14810892 14787829 14775763 14780986 14801411 14828915 
3921.428 14850265 14853141 14827699 14772099 14693541 14606181 14531656 
3924.804 14491080 14502961 14573744 14699914 14864841 15045835 15217310 
3928.179 15357455 15450490 15488645 15470312 15398894 15280419 15123158 
3931.554 14937756 14737739 14538486 14357342 14210207 14109178 14060831 
3934.929 14063867 14110947 14191041 14291938 14402729 14516843 14632046 
3938.305 14748335 14866767 14984840 15094784 15182769 15231652 15226797 
3941.680 15158170 15028784 14853920 14659790 14476044 14329434 14235116 
3945.055 14195605 14199317 14229394 14267919 14305659 14344072 14392649 
3948.430 14465115 14571913 14712260 14874172 15034948 15165535 15239237 
3951.806 15238453 15158935 15013870 14829409 14644399 14497015 14420427 
3955.181 14432361 14530205 14692459 14881343 15054553 15175440 15224520 
3958.556 15202955 15132025 15044007 14971592 14938470 14952733 15007247 
3961.931 15085610 15170487 15248233 15312489 15361787 15396387 15416420 
3965.307 15418957 15403464 15372323 15335737 15309488 15309757 15347697 
3968.682 15421999 15517816 15610345 15672768 15685955 15644312 15558575 
3972.057 15453040 15356114 15292238 15273111 15299405 15357725 15430409 
3975.432 15497667 15545669 15567494 15563133 15540820 15512250 15491789 
3978.808 15492601 15524543 15591087 15689451 15809007 15934989 16051291 
3982.183 16144322 16206346 16234685 16229190 16191982 16122516 16018255 
3985.558 15877064 15702663 15507582 15315541 15157724 15067190 15066347 
3988.933 15161890 15338403 15560725 15782729 15959442 16058799 16069550 
3992.309 16003005 15886649 15755855 15642526 15565766 15530519 15529990 
3995.684 15550298 15579560 15611636 15647195 15693987 15760174 15850576 
3999.059 15966011 16098866 16240461 16378082 
##END=
