##TITLE=Flashforge_PLA_White_Filament_r6_ATR-Corrected
##JCAMP-DX=5.01  $$ Nicolet v. 1
##DATATYPE=INFRARED SPECTRUM
##ORIGIN=Curtin University
##OWNER=Nicolet
##LONGDATE=2024/07/10
##TIME=11:19:40
##SPECTROMETER/DATA SYSTEM=Nicolet iS50
##DATA PROCESSING=
Ratio against background
%Transmittance->Absorbance
ATR Correction
Truncated
ElementMultiply or ElementDivide
##COMMENTS=
Number of sample scans: 32
Collection length: 47.28 sec
Sample gain: 1.0
Background collected on: Wed Jul 10 11:11:50 2024 (GMT+08:00);
Number of background scans: 32
Background gain: 1.0
Sample spacing:  1.000
Number of scan points: 16672
Resolution points: 8192
Number of FFT points: 65536
Apodization: N-B strong;
Phase correction: Mertz;
Laser frequency: 15798.3 cm-1
Number of rejected sample scans: 0
Number of rejected background scans: 0
Bench serial number: AUP1200105;
##RESOLUTION=4.000
##XUNITS=1/CM
##YUNITS=ABSORBANCE
##FIRSTX=400.163452
##LASTX=4000.187744
##FIRSTY=0.063382
##MAXX=4000.187744
##MINX=400.163452
##MAXY=1.177482
##MINY=-0.040338
##XFACTOR=1.000000
##YFACTOR=1.000000E-008
##NPOINTS=7468
##DELTAX=0.482125
##ZPD=8192
##XYDATA=(X++(Y..Y))
400.163 6338194 6193558 6042270 5894667 5759099 5643087 5551328 5484069 
404.020 5436476 5399513 5362063 5313922 5248332 5162943 5059736 4943540 
407.877 4820516 4696895 4578601 4471024 4378952 4305742 4252553 4217579 
411.734 4195868 4180389 4163836 4140680 4108677 4068800 4023969 3976794 
415.591 3927720 3874191 3811488 3734642 3640784 3530792 3409815 3286330 
419.448 3170176 3070481 2994167 2945051 2923959 2928741 2954611 2994437 
423.305 3039434 3080218 3108436 3118386 3108168 3079764 3038166 2989839 
427.162 2941013 2896565 2859599 2831706 2813550 2805192 2806179 2815074 
431.019 2829101 2844127 2855158 2857289 2847528 2825264 2792839 2755097 
434.876 2718274 2688519 2670574 2666786 2676840 2697941 2725682 2755102 
438.733 2781737 2802625 2816752 2825022 2829554 2832587 2835390 2837529 
442.590 2836844 2830209 2814847 2789524 2755282 2715323 2674145 2636242 
446.447 2604930 2581692 2566225 2557090 2552463 2550770 2550829 2551693 
450.304 2552403 2551870 2549214 2544180 2537547 2531164 2527497 2528810 
454.161 2536299 2549539 2566438 2583794 2598142 2606579 2607391 2600343 
458.017 2586511 2567883 2546924 2525909 2506384 2488655 2471591 2452799 
461.874 2429386 2399009 2361114 2317259 2272214 2231777 2201522 2185022 
465.731 2182725 2191952 2207984 2225818 2241898 2255004 2266049 2276932 
469.588 2289004 2301898 2313348 2319910 2318438 2307426 2287775 2262634 
473.445 2236330 2212994 2195369 2184153 2178158 2174850 2171281 2164765 
477.302 2153516 2136826 2115151 2090003 2063722 2038928 2017953 2002198 
481.159 1991730 1985262 1980717 1975938 1969616 1961662 1953133 1945625 
485.016 1940441 1937909 1937320 1937388 1937144 1936595 1937004 1940414 
488.873 1948601 1962016 1979084 1996345 2009329 2014003 2008076 1991828 
492.730 1968031 1941137 1916008 1896468 1885118 1882391 1887014 1896616 
496.587 1908392 1919733 1928588 1933705 1934692 1931887 1926169 1918700 
500.444 1910657 1903056 1896631 1891948 1889528 1889908 1893628 1901004 
504.301 1911909 1925536 1940402 1954682 1966668 1975253 1980273 1982496 
508.158 1983220 1983722 1984765 1986326 1987755 1988144 1986884 1983990 
512.015 1980180 1976528 1974017 1973066 1973311 1973707 1972940 1969928 
515.871 1964220 1956083 1946274 1935656 1924719 1913268 1900420 1884975 
519.728 1865880 1842755 1816246 1788071 1760677 1736779 1718676 1707780 
523.585 1704338 1707431 1715247 1725320 1735474 1743636 1748266 1748495 
527.442 1744169 1735880 1724916 1713109 1702545 1695092 1691946 1693090 
531.299 1697184 1701677 1703397 1699401 1687897 1668863 1644222 1617481 
535.156 1592809 1573955 1563300 1561258 1566309 1575578 1585701 1593832 
539.013 1598333 1599003 1596864 1593523 1590517 1588702 1588100 1588007 
542.870 1587474 1585797 1582933 1579573 1576968 1576417 1578824 1584290 
546.727 1592011 1600445 1607683 1611913 1611832 1606845 1597194 1583849 
550.584 1568343 1552520 1538268 1527297 1520904 1519831 1524222 1533677 
554.441 1547384 1564214 1582809 1601452 1618329 1631232 1637863 1636319 
558.298 1625596 1606260 1580656 1552749 1527398 1509302 1501859 1506382 
562.155 1521935 1545719 1574037 1603223 1630493 1654168 1673649 1689048 
566.012 1700844 1709704 1716474 1722210 1728069 1735116 1743808 1753702 
569.869 1763340 1770627 1773471 1770634 1762308 1750175 1737042 1725959 
573.725 1719388 1718627 1723682 1733560 1746815 1762028 1778025 1793917 
577.582 1808956 1822430 1833763 1842701 1849542 1855131 1860613 1867031 
581.439 1874863 1883818 1893002 1901374 1908322 1914048 1919483 1925890 
585.296 1934132 1944100 1954533 1963365 1968497 1968655 1964019 1956303 
589.153 1948300 1943011 1942692 1948180 1958699 1972174 1985890 1997327 
593.010 2004869 2008182 2008252 2007063 2007008 2010248 2018115 2030767 
596.867 2047144 2065285 2082913 2098048 2109583 2117456 2122499 2126009 
600.724 2129138 2132521 2136170 2139668 2142675 2145311 2148343 2153038 
604.581 2160646 2171890 2186573 2203559 2221145 2237733 2252413 2265390 
608.438 2277917 2291836 2308913 2330139 2355381 2383321 2411879 2438823 
612.295 2462463 2482124 2498350 2512700 2527323 2544332 2565249 2590685 
616.152 2620207 2652568 2686116 2719210 2750582 2779519 2805788 2829513 
620.009 2850950 2870443 2888356 2905255 2921946 2939465 2958864 2980918 
623.866 3005809 3032936 3061030 3088464 3113736 3135875 3154706 3170791 
627.723 3185152 3198919 3212976 3227849 3243761 3260767 3278942 3298410 
631.579 3319288 3341526 3364835 3388693 3412505 3435780 3458335 3480228 
635.436 3501684 3522853 3543590 3563516 3582141 3599193 3614853 3629857 
639.293 3645333 3662437 3681895 3703751 3727281 3751224 3774213 3795233 
643.150 3813834 3830240 3845054 3859012 3872659 3886249 3899783 3913241 
647.007 3926729 3940594 3955334 3971442 3989181 4008456 4028836 4049687 
650.864 4070439 4090754 4110589 4130138 4149645 4169160 4188470 4207059 
654.721 4224312 4239775 4253362 4265561 4277327 4289915 4304525 4322047 
658.578 4342749 4366281 4391741 4417950 4443739 4468167 4490699 4511126 
662.435 4529545 4546103 4560891 4573894 4585024 4594256 4601834 4608385 
666.292 4614959 4622926 4633668 4648222 4666966 4689352 4713960 4738771 
670.149 4761645 4780883 4795668 4806304 4814048 4820709 4828029 4837180 
674.006 4848442 4861271 4874693 4887848 4900460 4913087 4926910 4943283 
677.863 4963123 4986453 5012238 5038698 5063765 5085844 5104275 5119419 
681.720 5132460 5144796 5157513 5171036 5185096 5199092 5212586 5225773 
685.577 5239606 5255575 5275127 5299055 5326950 5357117 5386924 5413525 
689.433 5434660 5449370 5458263 5463325 5467357 5473172 5482908 5497563 
693.290 5516921 5539813 5564508 5589226 5612465 5633222 5651024 5665796 
697.147 5677847 5687669 5695895 5703209 5710252 5717518 5725263 5733471 
701.004 5741896 5750140 5757778 5764469 5770033 5774396 5777607 5779701 
704.861 5780698 5780565 5779169 5776313 5771648 5764693 5754817 5741356 
708.718 5723734 5701693 5675351 5645325 5612483 5577723 5541718 5504629 
712.575 5466030 5425044 5380580 5331552 5277110 5216676 5149911 5076620 
716.432 4996758 4910455 4818187 4720862 4619864 4516841 4413471 4311135 
720.289 4210716 4112547 4016642 3922966 3831737 3743558 3659424 3580480 
724.146 3507856 3442445 3384933 3335858 3295807 3265524 3245933 3238060 
728.003 3242819 3260943 3292818 3338585 3398211 3471582 3558596 3659064 
731.860 3772678 3898779 4036295 4183692 4339048 4500172 4664835 4830925 
735.717 4996581 5160239 5320579 5476461 5626844 5770715 5907152 6035419 
739.574 6155074 6266142 6369150 6465103 6555371 6641402 6724524 6805774 
743.431 6885839 6965176 7044112 7123115 7202876 7284289 7368359 7455978 
747.287 7547719 7643632 7743200 7845384 7948746 8051606 8152288 8249343 
751.144 8341639 8428485 8509493 8584423 8652814 8713762 8765645 8806285 
755.001 8833135 8843800 8836482 8810300 8765346 8702380 8622497 8526743 
758.858 8415978 8290991 8152841 8003227 7844604 7680025 7512710 7345489 
762.715 7180318 7018147 6859061 6702722 6548820 6397323 6248510 6102835 
766.572 5960627 5821978 5686813 5555058 5426903 5302928 5183920 5070665 
770.429 4963558 4862442 4766610 4674995 4586656 4500891 4417367 4335985 
774.286 4256653 4179020 4102461 4026138 3949265 3871314 3792152 3712013 
778.143 3631422 3551030 3471562 3393801 3318571 3246593 3178325 3113709 
782.000 3051990 2991815 2931479 2869496 2805084 2738451 2670712 2603515 
785.857 2538383 2476185 2416846 2359530 2303033 2246384 2189284 2132263 
789.714 2076481 2023404 1974316 1930099 1891086 1857121 1827685 1802008 
793.571 1779101 1757876 1737195 1716094 1694042 1671087 1647903 1625611 
797.428 1605416 1588203 1574224 1563092 1553918 1545691 1537644 1529491 
801.285 1521507 1514287 1508496 1504556 1502553 1502143 1502618 1503132 
805.141 1502874 1501275 1498108 1493613 1488383 1483293 1479271 1477008 
808.998 1476773 1478280 1480764 1483203 1484626 1484331 1482132 1478238 
812.855 1473223 1467787 1462661 1458545 1456083 1455892 1458443 1463992 
816.712 1472382 1483057 1495067 1507422 1519304 1530355 1540675 1550688 
820.569 1560805 1571117 1581292 1590697 1598691 1605021 1609980 1614370 
824.426 1619238 1625362 1632897 1641330 1649634 1656713 1661851 1665092 
828.283 1667228 1669577 1673610 1680551 1691150 1705617 1723748 1745059 
832.140 1769080 1795357 1823618 1853753 1885894 1920324 1957433 1997552 
835.997 2040860 2087257 2136404 2187879 2241448 2297297 2356104 2418929 
839.854 2486916 2560878 2641018 2726830 2817265 2910938 3006434 3102383 
843.711 3197288 3289327 3376172 3455088 3523304 3578678 3620252 3648712 
847.568 3666276 3676219 3682189 3687542 3694997 3706659 3724383 3750210 
851.425 3786625 3836514 3902872 3988248 4094432 4222157 4371258 4540956 
855.282 4730113 4937461 5161578 5400701 5652582 5914294 6182370 6452958 
859.139 6722133 6986157 7241682 7485854 7716384 7931620 8130563 8312977 
862.995 8479224 8630117 8766524 8889134 8998059 9092829 9172554 9236087 
866.852 9282446 9311002 9321591 9314433 9290054 9249043 9191958 9119225 
870.709 9031050 8927450 8808175 8672848 8521094 8352814 8168493 7969449 
874.566 7757895 7536787 7309331 7078492 6846440 6614316 6382315 6150115 
878.423 5917580 5685286 5454970 5229433 5012190 4806741 4615993 4441825 
882.280 4285000 4145460 4022719 3916284 3825895 3751416 3692611 3648835 
886.137 3618826 3600794 3592650 3592433 3598646 3610407 3627355 3649319 
889.994 3675964 3706426 3739217 3772349 3803649 3831157 3853415 3869691 
893.851 3879971 3884821 3885169 3882148 3876916 3870542 3863963 3857972 
897.708 3853140 3849845 3848198 3848079 3849119 3850682 3851944 3851970 
901.565 3849806 3844703 3836288 3824757 3810955 3796250 3782351 3770906 
905.422 3763195 3759797 3760546 3764583 3770643 3777355 3783550 3788443 
909.279 3791713 3793461 3794067 3794137 3794334 3795290 3797494 3801172 
913.136 3806188 3812003 3817752 3822378 3824907 3824658 3821462 3815689 
916.993 3808184 3800015 3792249 3785660 3780644 3777132 3774764 3772973 
920.849 3771264 3769330 3767117 3764858 3762943 3761727 3761423 3761956 
924.706 3762950 3763837 3763996 3763029 3760912 3758046 3755172 3753194 
928.563 3753003 3755226 3760190 3767928 3778279 3790991 3805743 3822201 
932.420 3839931 3858395 3876970 3895073 3912286 3928463 3943823 3958849 
936.277 3974166 3990395 4008023 4027406 4048786 4072305 4098059 4125965 
940.134 4155681 4186499 4217396 4247228 4275024 4300354 4323550 4345733 
943.991 4368626 4394081 4423688 4458341 4498105 4542317 4589833 4639493 
947.848 4690492 4742571 4796156 4852149 4911613 4975426 5043908 5116580 
951.705 5192085 5268349 5342857 5413033 5476580 5531673 5576902 5611129 
955.562 5633170 5641644 5634992 5611703 5570714 5511756 5435570 5343885 
959.419 5239013 5123589 5000107 4870920 4738347 4604886 4473478 4347438 
963.276 4230187 4124717 4033050 3955860 3892411 3840834 3798639 3763327 
967.133 3732777 3705526 3680692 3657840 3636819 3617660 3600589 3586108 
970.990 3574987 3568165 3566563 3570798 3580995 3596671 3616863 3640337 
974.847 3665871 3692535 3719768 3747458 3775908 3805592 3837160 3871208 
978.703 3908186 3948291 3991349 4036807 4083877 4131647 4179379 4226719 
982.560 4273796 4321268 4370045 4421038 4474844 4531497 4590459 4650721 
986.417 4711038 4770280 4827663 4882950 4936428 4988889 5041446 5095303 
990.274 5151501 5210747 5273267 5338799 5406703 5476133 5546301 5616719 
994.131 5687278 5758362 5830614 5904873 5981863 6062075 6145736 6232800 
997.988 6323080 6416385 6512644 6611933 6714493 6820699 6930943 7045623 
1001.845 7165029 7289389 7418859 7553598 7693904 7840212 7993245 8153947 
1005.702 8323428 8502851 8693297 8895678 9110723 9338952 9580808 9836705 
1009.559 10107102 10392458 10693197 11009670 11342103 11690617 12055293 
1012.934 12436237 12833637 13247681 13678470 14125866 14589396 15068166 
1016.309 15560938 16066214 16582356 17107644 17640256 18178288 18719518 
1019.683 19261512 19801634 20337178 20865640 21384970 21893830 22391808 
1023.058 22879362 23357802 23828856 24294532 24756664 25216916 25676906 
1026.433 26138532 26604462 27078542 27565738 28071860 28602716 29163376 
1029.809 29757380 30386428 31050614 31749014 32480360 33243564 34037744 
1033.184 34861744 35713460 36589196 37483316 38388420 39295928 40196788 
1036.559 41082068 41943092 42771424 43558780 44297024 44978624 45597200 
1039.934 46148148 46628804 47038256 47376584 47644152 47841112 47967480 
1043.310 48023500 48010412 47931100 47790140 47593568 47348460 47062112 
1046.685 46741636 46393716 46024428 45639372 45243712 44842108 44438920 
1050.060 44038204 43643768 43259272 42888120 42533160 42196508 41879128 
1053.435 41580968 41301112 41038452 40792240 40562796 40351824 40162508 
1056.811 39999200 39867204 39772464 39721544 39721508 39780164 39905800 
1060.186 40106952 40391804 40767596 41239992 41812780 42487760 43265072 
1063.561 44143452 45120828 46194392 47361016 48616984 49957948 51378732 
1066.936 52873264 54434580 56055016 57726556 59441368 61192328 62973492 
1070.312 64780180 66608984 68456856 70320392 72194952 74074424 75951416 
1073.687 77818336 79668352 81496464 83299168 85073632 86815672 88518072 
1077.062 90169152 91752752 93249472 94638624 95900160 97016336 97972264 
1080.437 98756280 99359224 99774728 99998920 100031016 99873088 99530400 
1083.813 99011000 98325512 97487136 96511256 95414888 94215960 92932024 
1087.188 91579464 90172608 88724032 87244976 85746272 84238616 82732848 
1090.563 81238704 79764048 78313824 76889840 75491128 74115112 72758952 
1093.938 71420704 70099760 68796856 67513464 66251052 65010488 63791752 
1097.313 62593864 61415260 60254008 59108232 57976180 56856608 55748864 
1100.689 54653120 53570332 52502304 51451368 50420136 49411000 48426032 
1104.064 47466804 46534560 45630500 44756272 43914100 43107036 42338696 
1107.439 41613124 40934184 40305140 39728440 39205448 38736588 38321552 
1110.814 37959500 37649372 37389996 37180020 37017844 36901568 36828800 
1114.190 36796828 36802728 36843700 36917268 37021616 37155652 37319048 
1117.565 37512048 37735312 37989460 38274972 38591832 38939436 39316504 
1120.940 39721040 40150116 40599804 41064840 41538444 42012136 42475848 
1124.315 42918200 43327152 43690808 43998240 44240224 44409804 44502504 
1127.691 44516312 44451432 44309944 44095376 43812332 43466052 43061920 
1131.066 42604972 42099468 41548436 40953572 40315340 39633380 38907044 
1134.441 38136180 37321460 36464640 35568608 34637060 33674300 32685090 
1137.816 31674508 30648178 29612136 28572852 27537006 26511252 25501934 
1141.192 24514894 23555480 22628508 21738484 20889346 20084464 19326402 
1144.567 18616794 17956362 17345058 16782352 16267514 15799788 15378436 
1147.942 15002522 14670789 14381514 14132448 13921049 13744749 13601202 
1151.317 13488404 13404797 13349077 13319999 13316315 13336730 13380082 
1154.693 13445446 13532314 13640593 13770388 13921873 14094965 14289194 
1158.068 14503756 14737661 14990005 15260255 15548454 15855360 16182411 
1161.443 16531788 16906328 17309508 17745378 18218564 18734090 19297244 
1164.818 19913504 20588430 21327686 22137152 23023012 23991876 25050806 
1168.194 26207280 27469004 28843782 30339238 31962616 33720344 35617672 
1171.569 37657888 39841640 42166008 44623692 47202484 49884696 52646764 
1174.944 55459072 58285684 61084140 63805712 66396332 68798544 70954816 
1178.319 72811400 74322912 75456056 76192448 76529840 76481944 76076472 
1181.695 75352368 74356016 73137208 71745192 70225800 68619448 66960616 
1185.070 65277936 63594948 61930764 60300680 58716500 57186808 55717380 
1188.445 54311688 52971608 51698048 50491364 49351612 48278548 47271452 
1191.820 46329032 45449404 44630124 43868440 43161364 42505868 41898860 
1195.196 41337332 40818416 40339576 39898704 39494176 39124764 38789328 
1198.571 38486588 38214768 37971588 37754396 37560408 37387116 37232280 
1201.946 37094072 36970752 36860400 36760740 36669064 36582544 36498432 
1205.321 36414168 36327492 36236248 36138092 36030276 35909676 35772948 
1208.697 35616952 35439144 35237824 35012184 34762116 34488040 34190672 
1212.072 33870904 33529792 33168566 32788592 32391324 31978170 31550476 
1215.447 31109590 30657000 30194398 29723760 29247260 28767052 28285030 
1218.822 27802732 27321392 26842036 26365780 25893924 25427986 24969486 
1222.198 24519748 24079590 23649396 23229024 22818128 22416416 22023824 
1225.573 21640540 21267032 20903822 20551414 20210206 19880492 19562486 
1228.948 19256412 18962520 18681040 18412178 18155972 17912366 17681092 
1232.323 17461764 17253870 17056878 16870248 16693482 16526154 16367893 
1235.698 16218324 16076973 15943165 15816081 15694790 15578385 15466280 
1239.074 15358292 15254708 15156187 15063474 14977041 14896840 14822233 
1242.449 14752159 14685418 14621089 14558846 14498986 14442332 14389905 
1245.824 14342573 14300837 14264768 14234172 14208810 14188567 14173561 
1249.199 14164037 14160192 14162090 14169537 14182220 14199834 14222245 
1252.575 14249597 14282198 14320409 14364456 14414266 14469512 14529707 
1255.950 14594319 14662942 14735225 14810798 14889191 14969613 15051045 
1259.325 15132315 15212356 15290320 15365745 15438445 15508366 15575340 
1262.700 15638931 15698318 15752424 15800002 15839902 15871139 15892932 
1266.076 15904768 15906172 15896663 15875632 15842374 15796106 15736073 
1269.451 15661676 15572551 15468593 15349966 15217099 15070505 14910799 
1272.826 14738591 14554437 14358878 14152430 13935511 13708611 13472216 
1276.201 13226834 12973000 12711389 12442748 12168045 11888379 11605069 
1279.577 11319653 11033824 10749361 10468099 10191786 9921959 9659974 
1282.952 9406840 9163447 8930578 8709086 8500037 8304724 8124633 7961295 
1286.809 7816181 7690473 7584975 7500015 7435437 7390640 7364637 7356133 
1290.667 7363685 7385812 7421037 7467981 7525233 7591258 7664273 7742178 
1294.524 7822541 7902892 7980937 8054872 8123708 8187245 8245949 8300601 
1298.382 8351891 8400086 8444874 8485427 8520738 8549971 8572807 8589558 
1302.239 8601173 8608941 8614218 8617979 8620790 8622678 8623301 8622126 
1306.096 8618668 8612593 8603781 8592261 8578199 8561785 8543231 8522749 
1309.954 8500671 8477394 8453462 8429540 8406316 8384415 8364302 8346123 
1313.811 8329756 8314820 8300845 8287432 8274472 8262279 8251469 8242921 
1317.669 8237466 8235570 8237200 8241711 8248019 8254871 8261141 8266174 
1321.526 8269902 8272789 8275705 8279618 8285396 8293613 8304596 8318475 
1325.384 8335282 8355117 8378163 8404637 8434831 8468968 8507254 8549904 
1329.241 8597112 8649124 8706158 8768296 8835452 8907245 8983125 9062457 
1333.098 9144775 9229948 9318243 9410246 9506701 9608152 9714822 9826402 
1336.956 9942220 10061377 10183103 10306949 10433002 10561816 10694245 
1340.331 10831224 10973564 11121809 11276222 11436918 11603964 11777552 
1343.706 11957983 12145699 12341131 12544586 12756099 12975338 13201715 
1347.082 13434336 13672177 13914096 14158979 14405660 14652953 14899652 
1350.457 15144515 15386355 15624009 15856367 16082305 16300575 16509658 
1353.832 16707785 16892980 17063226 17216862 17352774 17470544 17570460 
1357.207 17653322 17720132 17771944 17809700 17834348 17846900 17848610 
1360.583 17840942 17825604 17804236 17778284 17748808 17716380 17681078 
1363.958 17642526 17599954 17552120 17497296 17433224 17357040 17265460 
1367.333 17155020 17022454 16865236 16682100 16473578 16242412 15993728 
1370.708 15735093 15476248 15228687 15004987 14818163 14680788 14604105 
1374.083 14597137 14665781 14812016 15033457 15323265 15670462 16060756 
1377.459 16477557 16903364 17320932 17714568 18070810 18378820 18630268 
1380.834 18819000 18940598 18992076 18971846 18879818 18717586 18488430 
1384.209 18197298 17850448 17455174 17019342 16551004 16057840 15546796 
1387.584 15023501 14492244 13955911 13416518 12875690 12335117 11796910 
1390.960 11263513 10737544 10221544 9717804 9228446 8755650 8301753 7869312 
1394.817 7460866 7078592 6723916 6397371 6098660 5826897 5580869 5359282 
1398.675 5160707 4983442 4825394 4684027 4556615 4440524 4333622 4234488 
1402.532 4142365 4056889 3977726 3904248 3835448 3770128 3707209 3646153 
1406.389 3587100 3530787 3478273 3430393 3387494 3349207 3314650 3282662 
1410.247 3252305 3223115 3195250 3169363 3146287 3126784 3111274 3099768 
1414.104 3091842 3086902 3084208 3083178 3083271 3084242 3086027 3088825 
1417.962 3093062 3099313 3108223 3120285 3135728 3154398 3175817 3199329 
1421.819 3224388 3250735 3278555 3308490 3341360 3378046 3419191 3465064 
1425.677 3515629 3570701 3630137 3694033 3762690 3836630 3916416 4002480 
1429.534 4095112 4194519 4300893 4414591 4536219 4666640 4807014 4958665 
1433.391 5123107 5302120 5497728 5712265 5948361 6208892 6496846 6815272 
1437.249 7167189 7555540 7983111 8452344 8965095 9522212 10123329 10766498 
1441.106 11448282 12163692 12906346 13668622 14441776 15216184 15981847 
1444.481 16729054 17449172 18135158 18781766 19385170 19942490 20451138 
1447.857 20908720 21313190 21663400 21959398 22202568 22395142 22539640 
1451.232 22638260 22692520 22703356 22671298 22596646 22479384 22319002 
1454.607 22114294 21863598 21565162 21218084 20822962 20382198 19899806 
1457.982 19380600 18829358 18250434 17647652 17024736 16385624 15734816 
1461.358 15077062 14417103 13759339 13107626 12465484 11836302 11223572 
1464.733 10630804 10061178 9517236 9000561 8511809 8050983 7617748 7211724 
1468.590 6832529 6479697 6152442 5849651 5569891 5311640 5073479 4854225 
1472.448 4652880 4468458 4299791 4145416 4003682 3872930 3751775 3639193 
1476.305 3534631 3437825 3348658 3266936 3192324 3124279 3062185 3005238 
1480.163 2952716 2903884 2858105 2814925 2774120 2735739 2699970 2667032 
1484.020 2636967 2609571 2584314 2560511 2537633 2515348 2493732 2473102 
1487.877 2453818 2435976 2419269 2403098 2386670 2369416 2351182 2332291 
1491.735 2313403 2295216 2278164 2262273 2247201 2232497 2217791 2203007 
1495.592 2188407 2174488 2161684 2150316 2140393 2131711 2123969 2116869 
1499.450 2110216 2103836 2097545 2091163 2084500 2077417 2069996 2062452 
1503.307 2055151 2048366 2042229 2036634 2031226 2025644 2019601 2013117 
1507.165 2006465 2000030 1994158 1988911 1984078 1979258 1974037 1968143 
1511.022 1961596 1954668 1947751 1941218 1935326 1930170 1925702 1921846 
1514.879 1918597 1915977 1914002 1912531 1911328 1909969 1908029 1905120 
1518.737 1901120 1896072 1890274 1884110 1877958 1872051 1866488 1861238 
1522.594 1856188 1851191 1846166 1841091 1835939 1830790 1825711 1820794 
1526.452 1816135 1811800 1807853 1804267 1800949 1797734 1794282 1790291 
1530.309 1785360 1779165 1771560 1762601 1752616 1742266 1732375 1723867 
1534.167 1717445 1713492 1711876 1711959 1712773 1713175 1712208 1709222 
1538.024 1704117 1697226 1689312 1681283 1673930 1667814 1663096 1659648 
1541.881 1657109 1655118 1653366 1651703 1650158 1648823 1647811 1647134 
1545.739 1646693 1646235 1645436 1644020 1641790 1638685 1634784 1630255 
1549.596 1625276 1619995 1614468 1608717 1602768 1596705 1590643 1584811 
1553.454 1579401 1574578 1570349 1566655 1563327 1560145 1556951 1553686 
1557.311 1550355 1547090 1544093 1541607 1539854 1538939 1538886 1539505 
1561.168 1540430 1541181 1541265 1540257 1538057 1534886 1531326 1528193 
1565.026 1526335 1526418 1528698 1532948 1538598 1544723 1550438 1555014 
1568.883 1557987 1559263 1559040 1557741 1555903 1554031 1552484 1551489 
1572.741 1550984 1550788 1550532 1549876 1548611 1546779 1544732 1543047 
1576.598 1542434 1543451 1546387 1551096 1557075 1563566 1569773 1575008 
1580.456 1578865 1581281 1582520 1583029 1583308 1583843 1584938 1586747 
1584.313 1589304 1592501 1596259 1600520 1605261 1610420 1615922 1621513 
1588.170 1626837 1631427 1634915 1637099 1638130 1638562 1639247 1641175 
1592.028 1645140 1651561 1660289 1670699 1681783 1692457 1701764 1709088 
1595.885 1714250 1717403 1719033 1719813 1720462 1721714 1724166 1728233 
1599.743 1734010 1741295 1749596 1758263 1766717 1774567 1781813 1788768 
1603.600 1795985 1804024 1813264 1823814 1835486 1847958 1860905 1874014 
1607.458 1887112 1900049 1912624 1924539 1935476 1945143 1953401 1960370 
1611.315 1966397 1971984 1977591 1983607 1990216 1997451 2005301 2013674 
1615.172 2022619 2032122 2042127 2052514 2063063 2073564 2083807 2093593 
1619.030 2102844 2111416 2119108 2125709 2131096 2135241 2138457 2141227 
1622.887 2144091 2147390 2151112 2154796 2157679 2159074 2158643 2156638 
1626.745 2153849 2151325 2149899 2149825 2150584 2151042 2149842 2145924 
1630.602 2138935 2129308 2118078 2106560 2095949 2087111 2080532 2076452 
1634.459 2075018 2076311 2080277 2086516 2094133 2101788 2107906 2111143 
1638.317 2110752 2106776 2100028 2091771 2083320 2075627 2069110 2063710 
1642.174 2059135 2055163 2051810 2049319 2048081 2048362 2050242 2053502 
1646.032 2057864 2063032 2068821 2075225 2082201 2089598 2097061 2104106 
1649.889 2110277 2115298 2119212 2122485 2125772 2129776 2135068 2141876 
1653.747 2150021 2159034 2168246 2176967 2184556 2190572 2194899 2197825 
1657.604 2200135 2202955 2207597 2215119 2226100 2240335 2256844 2274167 
1661.461 2290776 2305505 2317861 2328080 2336918 2345255 2353801 2362912 
1665.319 2372541 2382463 2392436 2402405 2412500 2423013 2434179 2446227 
1669.176 2459228 2473188 2488150 2504113 2521074 2538948 2557503 2576439 
1673.034 2595443 2614380 2633310 2652497 2672234 2692776 2714119 2736103 
1676.891 2758521 2781303 2804654 2828990 2854787 2882257 2911236 2941040 
1680.749 2970676 2999260 3026192 3051510 3075844 3100175 3125576 3152834 
1684.606 3182355 3214137 3247965 3283550 3320732 3359428 3399600 3441098 
1688.463 3483786 3527408 3571750 3616606 3661867 3707374 3752904 3798221 
1692.321 3843206 3887999 3933169 3979699 4028786 4081510 4138506 4199758 
1696.178 4264666 4332371 4402240 4474220 4549007 4627852 4712181 4803195 
1700.036 4901562 5007316 5120073 5239306 5364639 5495998 5633551 5777571 
1703.893 5928370 6086255 6251712 6425581 6609080 6803706 7010910 7231781 
1707.750 7466802 7715752 7977963 8252759 8539823 8839463 9152769 9481288 
1711.608 9826712 10190506 10573603 10976371 11398617 11839903 12299828 
1714.983 12778303 13275796 13793406 14332682 14895311 15482672 16095421 
1718.358 16733283 17395180 18079754 18785880 19513266 20262642 21035586 
1721.734 21833994 22659654 23513702 24396772 25309200 26251716 27225790 
1725.109 28233614 29277838 30361054 31485290 32651872 33861612 35115252 
1728.484 36413660 37758232 39150376 40591580 42083408 43627860 45228060 
1731.859 46888464 48614536 50411548 52282780 54227932 56242724 58320116 
1735.235 60453088 62637548 64874472 67169640 69531288 71966472 74477480 
1738.610 77059632 79701752 82388440 85103496 87832320 90562448 93281648 
1741.985 95975208 98623608 101201936 103681480 106032360 108226112 110237168 
1745.360 112042736 113622760 114960024 116041408 116859472 117413136 
1748.253 117706896 117748192 117545000 117104248 116432440 115537656 
1751.146 114431592 113130368 111652576 110016368 108236728 106323992 
1754.040 104285112 102126208 99855432 97484640 95029216 92506584 89934376 
1757.415 87329016 84705504 82078120 79461208 76869264 74316696 71816608 
1760.790 69380000 67015384 64729136 62526204 60410576 58385320 56452040 
1764.165 54610180 52856664 51186276 49592920 48071064 46617100 45229792 
1767.541 43909636 42657424 41472428 40351312 39287776 38273376 37298964 
1770.916 36356244 35438912 34542800 33665456 32805120 31959766 31126488 
1774.291 30301582 29481104 28661600 27840758 27017826 26193330 25368736 
1777.666 24545840 23726108 22910530 22099590 21293452 20492382 19697060 
1781.042 18908746 18129188 17360732 16606012 15867995 15149666 14454012 
1784.417 13783737 13141085 12527610 11944263 11391456 10869350 10378020 
1787.792 9917543 9487820 9088341 8717804 8374099 8054404 7755787 7475578 
1791.649 7211958 6964025 6731691 6515286 6315007 6130689 5961591 5806505 
1795.507 5663981 5532647 5411213 5298459 5193300 5094507 5000952 4911377 
1799.364 4824834 4740534 4658118 4577493 4498959 4422945 4350052 4280830 
1803.222 4215744 4155002 4098533 4045860 3996248 3948742 3902505 3856837 
1807.079 3811504 3766507 3722104 3678556 3635939 3594001 3552214 3509825 
1810.937 3466139 3420561 3372937 3323463 3272780 3221921 3172208 3125158 
1814.794 3082283 3044922 3014103 2990199 2972802 2960794 2952313 2945198 
1818.651 2937417 2927368 2914181 2897767 2878570 2857253 2834410 2810180 
1822.509 2784325 2756306 2725726 2692615 2657649 2622038 2587437 2555150 
1826.366 2525977 2499873 2476106 2453608 2431522 2409469 2387648 2366427 
1830.224 2345850 2325155 2302656 2276048 2243353 2203688 2158131 2109620 
1834.081 2062484 2021231 1989229 1967632 1955062 1948043 1942105 1932990 
1837.938 1917890 1895847 1867855 1836166 1803514 1772372 1744512 1720611 
1841.796 1700557 1683726 1669241 1656247 1644183 1632788 1622013 1611788 
1845.653 1601871 1591583 1579997 1565968 1548894 1528907 1507298 1486339 
1849.511 1468800 1457073 1452483 1454598 1461379 1469627 1475854 1477039 
1853.368 1471507 1458785 1439760 1415932 1389216 1361500 1334674 1310294 
1857.226 1289704 1273748 1262583 1255567 1251376 1248372 1245071 1240536 
1861.083 1234596 1227627 1220372 1213371 1206874 1200876 1195445 1190727 
1864.940 1187210 1185321 1185157 1185934 1186140 1183778 1177176 1165667 
1868.798 1150191 1133001 1117326 1106055 1101100 1102634 1109180 1117974 
1872.655 1125823 1129631 1127102 1116846 1098573 1072992 1042042 1008339 
1876.513 975268 946106 923583 909015 902218 901600 904973 910345 916841 
1880.852 924853 935808 951224 971869 997057 1024546 1051028 1073173 1088501 
1885.192 1096116 1096726 1092345 1085567 1078812 1073714 1070895 1069901 
1889.049 1069458 1067682 1062626 1052612 1036826 1015477 990100 963164 
1892.907 937682 916128 899985 888914 881113 873644 863729 849601 831500 
1897.246 811591 793633 781573 778425 784829 798849 816288 831753 840459 
1901.586 839851 830375 815624 801039 792168 792623 802999 820316 839495 
1905.926 854776 861949 859486 848689 832703 814930 797504 780832 763772 
1910.265 745360 725767 707382 694095 689958 697091 714502 737624 759869 
1914.605 774600 777793 768969 751243 729450 708031 688931 671210 651722 
1918.944 627379 597273 564031 533481 512916 508644 523649 556019 599530 
1923.284 645101 683266 706343 710353 695041 663581 621012 573321 525923 
1927.624 483422 449098 424981 411560 408316 413250 423645 436342 448462 
1931.963 457771 463550 466300 467795 470147 475505 484811 497967 512996 
1936.303 526622 534780 533531 519663 491780 450490 398619 340360 280976 
1940.642 225358 177559 139982 113834 98911 95056 102210 121210 153254 199167 
1945.464 258368 328177 403249 476692 540910 590461 623019 640718 648862 
1949.804 654497 663268 677556 694800 708586 710417 693169 652878 590696 
1954.143 511318 421528 326763 229763 129458 23366 -90457 -209341 -325255 
1958.483 -424322 -490830 -511145 -479759 -401237 -291194 -171193 -63924 
1962.340 13739 53799 59247 40083 10328 -18915 -41766 -59500 -77637 -103217 
1967.162 -139599 -184928 -231464 -269663 -291260 -292970 -276492 -247451 
1971.020 -209645 -162585 -99469 -10677 111984 267808 445730 624306 780611 
1975.359 897758 973452 1021413 1066957 1134351 1235788 1363034 1490750 
1979.217 1585966 1622760 1590756 1497978 1365740 1220449 1084177 970101 
1983.074 881215 814177 764082 729427 712374 717224 745375 792611 847647 
1987.414 896183 924850 927644 906804 872887 839514 819231 819090 840351 
1991.753 879325 931052 990380 1053856 1116739 1173375 1215014 1232545 
1995.611 1218310 1170172 1091887 993849 887569 783453 686700 597710 513480 
1999.950 431975 354254 285916 234015 204062 195354 200549 206571 200213 
2004.290 171771 120162 52495 -17422 -74176 -104341 -100109 -58596 17873 
2008.629 124585 252399 388648 514991 610152 652372 626956 530394 374862 
2012.969 185266 -5596 -166710 -276437 -328062 -329431 -298298 -254569 
2016.826 -215390 -189281 -177665 -175872 -178664 -181658 -184707 -189853 
2020.684 -201542 -222320 -253983 -293629 -336448 -373720 -396539 -395191 
2024.541 -363834 -300676 -211082 -106350 -3585 78508 122374 116274 55099 
2028.881 -56616 -206721 -375630 -539904 -674609 -757975 -774005 -717984 
2032.738 -597204 -432824 -254536 -95807 16254 65903 54607 -2401 -78926 
2037.078 -147073 -183017 -173403 -115946 -19866 98129 216644 315051 376419 
2041.417 392139 362528 298319 217087 140109 85255 63583 75911 115403 170442 
2046.239 232541 298803 374742 469078 588783 731115 881538 1015414 1106595 
2050.579 1135367 1095852 996262 857195 704329 563126 452308 381745 351591 
2054.918 355829 384914 430920 487657 551724 619602 687494 749265 798870 
2059.258 830427 840816 829934 801341 760607 714640 669818 631673 603092 
2063.598 584512 572892 563127 548856 525631 492256 453455 418202 398049 
2067.937 402573 436074 494799 568361 642107 702777 741825 758551 758181 
2072.277 749619 740328 734350 730739 726405 717926 704961 689850 677160 
2076.616 670143 669050 670038 667391 655523 633100 603417 574389 554691 
2080.956 551087 564940 592743 626715 658922 683337 698084 704273 705076 
2085.296 702607 697533 688409 673675 652730 627705 602125 580302 564541 
2089.635 554493 546010 533635 511822 478370 434877 387675 345668 318869 
2093.975 314953 338293 387773 457605 537545 615502 678714 717440 725809 
2098.314 704345 659024 600751 542048 494626 465940 458190 467911 488288 
2102.654 511116 530036 541368 544914 542766 538134 533317 529776 527314 
2106.994 525251 522513 518699 513731 508319 503403 500390 500547 505464 
2111.333 516061 532885 555028 580864 607522 632310 652418 666088 671866 
2115.673 668919 655929 632011 596275 549773 495427 439021 387652 348518 
2120.012 325840 319611 324387 330965 328493 308640 267604 208268 138582 
2124.352 69643 11116 -31316 -58539 -76771 -96267 -127010 -176347 -246014 
2128.692 -332760 -428985 -525828 -615449 -693414 -758584 -813348 -860876 
2132.549 -904196 -944277 -980421 -1010608 -1033737 -1050232 -1063005 
2135.924 -1075802 -1092150 -1112378 -1133856 -1150141 -1154662 -1142345 
2139.300 -1113696 -1074416 -1035978 -1010999 -1010833 -1040194 -1096889 
2142.675 -1171272 -1250198 -1320172 -1372038 -1401868 -1412432 -1409396 
2146.050 -1400068 -1389172 -1379224 -1370531 -1364408 -1364335 -1379038 
2149.425 -1419778 -1499326 -1626248 -1802405 -2019224 -2260460 -2504481 
2152.801 -2732035 -2930588 -3099353 -3247750 -3391718 -3543741 -3706621 
2156.176 -3865131 -3988462 -4033815 -3962304 -3751663 -3410225 -2975698 
2159.551 -2506133 -2056564 -1664164 -1337454 -1064644 -823341 -596017 
2162.926 -376034 -171785 -372 118318 170878 153302 74055 -50530 -198943 
2167.266 -350501 -487487 -598269 -677029 -725133 -749424 -762486 -778513 
2171.123 -811455 -869711 -954528 -1057729 -1164618 -1256086 -1315234 
2174.499 -1330126 -1297929 -1223994 -1121509 -1006818 -897502 -808090 
2177.874 -749170 -723877 -729223 -753571 -780144 -789107 -764873 -699712 
2181.731 -599875 -482532 -372952 -293617 -257316 -260599 -286003 -307653 
2185.589 -301982 -254826 -168611 -59204 48187 128828 164629 149621 88171 
2189.928 -6827 -119786 -235659 -342869 -432961 -501341 -546090 -569126 
2193.786 -575002 -571747 -566957 -566525 -570482 -573493 -565299 -535618 
2197.643 -477888 -394034 -293905 -194034 -110854 -56701 -34603 -39429 -58881 
2201.983 -79832 -91011 -87079 -67016 -33744 10013 62078 122584 191379 268053 
2206.804 348916 428289 498534 552478 584519 592784 578498 546907 505261 
2211.144 462960 428807 410512 412324 434708 473002 519573 564667 600495 
2215.484 622278 630468 629356 625560 624461 628909 637169 644871 646314 
2219.823 637992 619753 596178 574242 562268 565885 586833 621680 662992 
2224.163 700807 726116 732528 719343 691192 658076 632294 626013 647519 
2228.502 699333 776312 867761 959097 1036298 1088460 1111367 1106939 1083181 
2232.842 1050557 1020120 999849 994074 1002196 1020432 1042379 1061403 
2236.699 1071477 1069205 1053605 1026826 993000 957598 925466 900328 882998 
2241.039 872639 866675 862912 859829 858267 860049 867892 883055 905134 
2245.379 931147 957268 979152 994665 1003695 1008884 1013496 1020572 1030815 
2249.718 1042561 1051881 1054601 1047589 1030668 1006844 982013 963065 
2253.576 956462 966086 992919 1034418 1085857 1140733 1192628 1235538 
2257.433 1264747 1276779 1270199 1245196 1204660 1153713 1099659 1050895 
2261.291 1015686 1000185 1007448 1036040 1081140 1134724 1188224 1233766 
2265.148 1266348 1284009 1288336 1283079 1273422 1264202 1259410 1260850 
2269.005 1268763 1281456 1296580 1311422 1324519 1335647 1346574 1360172 
2272.863 1379581 1406687 1441066 1479525 1516928 1547377 1566395 1572236 
2276.720 1566813 1554605 1541596 1532877 1531714 1538710 1552883 1572697 
2280.578 1597653 1628449 1666939 1714252 1769983 1830861 1891386 1944927 
2284.435 1985652 2009909 2017295 2009984 1991858 1966995 1938604 1908664 
2288.292 1878202 1847753 1817996 1789834 1764379 1742203 1723327 1706904 
2292.150 1691936 1677312 1662599 1647990 1634188 1621975 1611913 1603919 
2296.007 1597670 1592655 1588543 1585358 1583486 1583315 1585064 1588539 
2299.865 1593107 1597925 1602025 1604630 1605269 1603791 1600537 1596275 
2303.722 1592087 1589132 1588471 1590394 1594678 1600127 1605385 1609045 
2307.580 1610694 1610821 1610948 1612839 1617943 1626627 1638186 1650989 
2311.437 1663455 1674613 1684794 1695136 1707268 1722300 1740337 1760421 
2315.294 1781055 1800898 1819478 1837296 1855609 1875763 1898739 1925003 
2319.152 1955029 1989740 2030955 2080861 2140890 2209910 2282916 2350609 
2323.009 2400899 2421321 2402566 2340753 2239109 2106871 1957749 1806856 
2326.867 1667866 1550674 1460202 1396278 1354871 1329844 1314830 1304598 
2330.724 1295771 1286620 1276747 1266401 1256262 1247037 1239545 1234557 
2334.582 1232698 1234119 1238424 1244548 1251231 1257086 1261220 1263362 
2338.439 1264015 1263922 1263916 1264451 1265395 1266268 1266466 1265478 
2342.296 1263334 1260309 1257039 1253846 1250865 1247653 1243498 1237656 
2346.154 1229783 1219948 1208827 1197356 1186621 1177301 1169701 1163650 
2350.011 1158762 1154463 1150501 1146837 1143588 1140986 1139083 1137566 
2353.869 1135970 1133489 1129382 1123151 1114677 1104338 1092891 1081227 
2357.726 1070270 1060573 1052325 1045291 1038910 1032400 1025137 1016640 
2361.583 1006733 995408 982950 969556 955525 941104 926654 912557 899444 
2365.923 887838 878292 871028 866199 863606 863014 864179 866991 871404 
2370.263 877300 884386 892277 900361 908156 915304 921924 928356 935005 
2374.602 942071 949418 956402 962254 966296 968321 968700 968228 967772 
2378.942 967960 968865 970136 971168 971612 971394 970890 970537 970693 
2383.281 971225 971804 972080 972277 973199 976364 983146 994361 1009368 
2387.621 1026268 1042139 1054237 1060911 1062253 1060099 1057337 1056606 
2391.479 1059532 1065919 1074151 1081753 1086506 1087038 1083169 1075546 
2395.336 1065114 1052618 1038459 1022804 1006070 989221 973803 961509 953792 
2399.676 951023 952674 957144 962531 967077 969681 970029 968504 965820 
2404.015 963088 961247 961568 965059 972791 985163 1001929 1021885 1043207 
2408.355 1063825 1082116 1097254 1109432 1119194 1127201 1133418 1137014 
2412.212 1136506 1130559 1118412 1100782 1079504 1057324 1036918 1020354 
2416.070 1008385 1000640 995730 992185 988703 984800 980603 976931 974892 
2420.409 975669 980081 988496 1000601 1015425 1031531 1047386 1061708 
2424.267 1073969 1084515 1094424 1104793 1116346 1128627 1140020 1147857 
2428.124 1149475 1142830 1127503 1104842 1077858 1050219 1025830 1007496 
2431.981 996918 994211 998509 1007872 1020244 1033314 1045324 1055090 
2435.839 1062350 1067526 1071725 1075967 1080896 1086186 1090565 1092119 
2439.696 1089117 1080650 1067410 1051437 1035951 1024096 1018334 1019499 
2443.554 1026885 1038478 1052089 1065666 1078251 1089590 1100328 1111080 
2447.411 1122550 1134829 1147868 1161267 1174714 1187765 1200141 1211168 
2451.269 1220164 1226172 1228361 1225939 1218838 1207295 1192352 1175374 
2455.126 1158204 1142616 1130256 1122113 1118434 1118316 1120025 1121068 
2458.983 1118908 1111568 1098265 1079489 1057292 1034325 1013610 997667 
2462.841 988062 985076 988309 996413 1008116 1021918 1036709 1051508 1065465 
2467.180 1077810 1087824 1094868 1098520 1098569 1095246 1089085 1081004 
2471.038 1072061 1063462 1056134 1050772 1047692 1046920 1048010 1050532 
2474.895 1053784 1056971 1058950 1058394 1053769 1043912 1028233 1007645 
2478.753 984491 962567 946135 939016 943228 958497 982072 1009653 1036529 
2483.092 1059127 1075621 1086354 1092893 1097239 1100655 1103523 1105043 
2486.950 1104542 1101634 1097176 1092858 1090679 1091906 1096601 1103265 
2490.807 1109423 1112473 1110762 1103694 1092411 1078529 1064194 1050998 
2494.665 1040026 1031948 1027339 1026719 1030901 1040229 1054559 1072766 
2498.522 1093015 1113283 1131739 1147526 1160759 1172181 1182812 1192946 
2502.379 1202246 1209505 1213403 1212923 1208106 1199721 1189554 1179317 
2506.237 1170487 1163652 1158721 1154980 1151591 1147705 1142725 1135971 
2510.094 1127072 1115564 1101465 1085228 1068298 1052608 1040562 1034145 
2513.952 1034520 1041463 1053845 1069632 1086960 1104432 1121559 1138274 
2517.809 1154754 1170499 1184254 1194109 1197983 1194532 1183658 1166821 
2521.667 1146881 1127350 1111573 1102041 1100055 1105545 1117485 1133825 
2525.524 1152296 1170202 1184928 1194033 1195996 1190339 1178339 1162516 
2529.381 1146392 1133263 1125263 1122453 1122964 1123169 1119459 1109253 
2533.239 1092340 1070870 1049075 1031802 1023342 1026004 1039855 1062869 
2537.096 1091550 1122041 1150674 1174446 1191284 1199667 1199103 1189810 
2540.954 1173230 1151745 1128639 1107129 1089887 1078026 1071167 1067574 
2544.811 1065094 1062069 1058217 1054542 1053148 1056040 1064379 1077691 
2548.668 1094268 1111314 1126296 1137648 1145231 1150119 1154172 1159132 
2552.526 1166120 1175282 1186064 1197390 1208268 1217841 1225527 1230947 
2556.383 1233826 1234238 1232621 1229897 1227729 1227849 1232118 1241398 
2560.241 1255675 1273700 1293400 1312270 1328177 1339452 1345420 1345853 
2564.098 1341214 1332213 1320044 1306273 1293160 1283158 1278814 1281825 
2567.956 1292815 1310536 1332486 1355052 1374915 1389330 1397293 1399091 
2571.813 1396359 1391115 1385377 1380544 1377591 1376865 1378660 1383082 
2575.670 1390175 1399519 1410336 1421124 1430342 1436389 1438466 1436562 
2579.528 1431672 1425429 1419651 1415846 1415028 1417493 1422965 1431014 
2583.385 1441017 1452334 1464385 1476355 1487532 1497038 1504255 1508697 
2587.243 1510194 1508885 1505151 1499356 1492142 1484064 1475984 1468893 
2591.100 1463791 1461498 1462509 1466601 1473246 1481407 1490278 1499231 
2594.958 1508258 1517515 1527351 1537602 1547709 1556416 1562317 1564247 
2598.815 1561683 1555066 1545722 1535607 1526869 1521361 1520621 1525202 
2602.672 1535195 1549889 1568105 1588029 1607823 1625632 1640094 1650490 
2606.530 1657061 1660453 1661742 1661567 1660155 1656927 1651321 1642870 
2610.387 1632117 1620642 1610840 1605134 1605281 1611566 1622657 1635976 
2614.245 1648642 1658386 1664258 1666922 1668241 1670422 1675358 1683738 
2618.102 1695212 1708356 1721549 1733216 1742482 1749106 1753352 1755791 
2621.959 1757032 1757549 1757793 1758125 1758925 1760537 1763298 1767394 
2625.817 1772914 1779718 1787559 1795846 1803852 1810500 1814664 1815439 
2629.674 1812461 1806206 1798152 1790326 1785119 1784250 1788467 1797009 
2633.532 1808125 1819433 1828874 1835171 1838434 1839641 1840368 1841885 
2637.389 1844859 1848971 1853396 1856960 1858952 1859203 1858182 1856708 
2641.247 1855553 1855242 1855892 1857459 1859827 1862935 1866871 1871611 
2645.104 1877030 1882531 1887357 1890553 1891468 1889833 1885950 1880442 
2648.961 1874067 1867333 1860508 1853439 1845859 1837617 1828792 1819732 
2652.819 1811036 1803168 1796431 1790826 1786158 1781979 1777853 1773252 
2656.676 1767710 1760584 1751239 1739129 1723975 1705993 1685942 1665064 
2660.534 1644754 1626157 1609774 1595337 1581853 1568000 1552604 1535032 
2664.391 1515488 1494867 1474564 1455939 1440110 1427668 1418640 1412642 
2668.249 1409112 1407308 1406533 1405990 1404999 1402942 1399496 1394732 
2672.106 1389159 1383764 1379596 1377558 1378103 1381006 1385542 1390591 
2675.963 1395158 1398559 1400525 1401289 1401353 1401076 1400753 1400358 
2679.821 1399703 1398534 1396835 1394659 1392392 1390394 1388971 1388321 
2683.678 1388453 1389108 1390032 1390822 1391108 1390520 1388761 1385686 
2687.536 1381366 1376063 1370388 1365090 1361071 1358961 1359106 1361352 
2691.393 1365051 1369122 1372291 1373304 1371212 1365615 1356837 1345898 
2695.250 1334406 1324165 1316949 1313931 1315449 1320855 1328640 1336926 
2699.108 1343723 1347582 1347886 1344778 1339153 1332167 1324917 1318263 
2702.965 1312557 1307909 1304319 1301752 1300208 1299760 1300382 1301810 
2706.823 1303711 1305576 1307015 1307810 1308034 1307967 1308000 1308396 
2710.680 1309310 1310597 1311938 1312971 1313322 1312702 1311008 1308231 
2714.538 1304598 1300410 1296047 1292074 1288891 1286854 1286135 1286719 
2718.395 1288449 1291109 1294545 1298519 1302914 1307291 1311088 1313490 
2722.252 1313696 1311137 1305877 1298764 1291255 1285160 1282046 1282830 
2726.110 1287449 1294827 1303351 1311403 1317831 1322279 1325228 1327593 
2729.967 1330324 1333962 1338471 1343202 1347320 1349948 1350570 1349215 
2733.825 1346247 1342352 1338309 1334787 1332346 1331380 1332055 1334289 
2737.682 1337743 1341832 1345740 1348666 1350005 1349499 1347358 1344132 
2741.540 1340593 1337457 1335192 1333966 1333695 1334095 1334918 1335971 
2745.397 1337097 1338280 1339454 1340499 1341351 1342001 1342476 1342840 
2749.254 1342928 1342463 1340892 1337533 1331850 1323861 1314108 1303863 
2753.112 1294769 1288374 1285657 1286593 1290306 1295137 1299416 1301813 
2756.969 1301837 1299876 1296917 1294058 1292196 1291608 1291991 1292864 
2760.827 1293607 1294055 1294300 1294748 1295853 1297810 1300609 1303855 
2764.684 1307091 1309866 1311883 1312917 1312933 1311790 1309507 1306184 
2768.542 1302294 1298468 1295782 1295089 1297003 1301461 1307693 1314401 
2772.399 1320164 1323868 1325055 1324105 1321984 1319862 1318586 1318461 
2776.256 1319090 1319710 1319455 1317796 1314833 1311189 1307898 1306049 
2780.114 1306406 1309259 1314190 1320418 1326694 1331837 1334780 1334881 
2783.971 1332091 1326967 1320564 1314328 1309797 1308185 1310212 1316003 
2787.829 1324887 1335876 1347748 1359345 1369872 1378870 1386253 1392133 
2791.686 1396809 1400531 1403553 1406033 1408120 1409890 1411379 1412578 
2795.543 1413497 1414106 1414556 1415044 1415944 1417660 1420569 1424961 
2799.401 1431072 1438912 1448473 1459513 1471685 1484408 1497042 1508788 
2803.258 1518865 1526727 1532145 1535213 1536352 1536183 1535261 1534027 
2807.116 1532718 1531389 1530032 1528674 1527390 1526437 1526124 1526800 
2810.973 1528949 1532974 1539379 1548561 1560634 1575263 1591692 1608507 
2814.831 1624243 1637472 1647387 1653930 1657884 1660618 1663675 1668389 
2818.688 1675444 1684897 1696173 1708382 1720463 1731393 1740298 1746628 
2822.545 1750066 1750887 1749810 1748192 1747550 1749415 1754594 1762967 
2826.403 1773424 1784208 1793390 1799590 1802427 1802505 1801195 1799923 
2830.260 1799678 1800755 1802737 1804920 1806856 1808725 1811215 1815401 
2834.118 1822161 1831698 1843537 1856496 1869166 1880390 1889567 1896819 
2837.975 1902832 1908456 1914569 1921822 1930712 1941459 1954172 1968784 
2841.833 1985000 2002104 2019293 2035571 2050342 2063615 2075965 2088645 
2845.690 2102933 2120018 2140279 2163294 2187915 2212521 2235534 2255609 
2849.547 2271865 2284070 2292230 2296823 2298568 2298534 2298017 2298348 
2853.405 2300778 2306050 2314351 2325072 2337129 2349365 2361075 2372317 
2857.262 2384008 2397692 2415157 2437614 2465427 2497905 2533428 2569941 
2861.120 2605576 2638997 2669908 2698675 2726315 2753863 2782173 2811761 
2864.977 2842782 2875338 2909672 2946273 2985951 3029734 3078494 3132726 
2868.834 3192490 3257337 3326398 3398609 3472792 3547759 3622284 3695192 
2872.692 3765381 3831922 3894196 3952061 4005741 4055516 4101615 4143658 
2876.549 4180593 4210729 4232203 4243329 4243408 4232880 4213330 4187285 
2880.407 4157368 4125831 4094183 4062828 4031413 3999165 3965229 3929301 
2884.264 3891428 3852233 3812625 3773636 3736193 3700956 3668474 3638966 
2888.122 3612428 3588782 3567940 3549723 3534262 3521711 3512360 3506325 
2891.979 3503717 3504292 3507606 3513160 3520489 3529271 3539566 3551394 
2895.836 3564797 3579340 3594215 3608258 3620230 3629105 3634503 3636818 
2899.694 3637126 3636831 3637435 3640019 3645255 3653344 3664177 3677560 
2903.551 3693198 3710764 3729746 3749311 3768350 3785622 3800113 3811364 
2907.409 3819701 3826372 3833105 3841887 3854369 3871459 3893239 3919010 
2911.266 3947619 3977867 4008979 4040605 4072988 4106634 4142157 4180036 
2915.124 4220304 4262837 4307266 4353194 4400175 4447878 4495825 4543484 
2918.981 4590203 4635169 4677795 4717888 4755767 4792451 4829410 4868352 
2922.838 4910700 4957467 5008911 5064616 5123844 5185712 5249722 5315673 
2926.696 5383997 5455324 5530361 5609480 5692844 5780076 5870689 5964090 
2930.553 6059688 6157220 6256561 6357860 6461467 6568026 6678496 6794192 
2934.411 6916865 7048408 7190674 7344919 7511853 7690932 7880752 8079023 
2938.268 8283073 8490230 8698037 8904448 9107628 9305733 9496615 9677834 
2942.125 9846485 9999552 10134366 10248639 10341007 10410700 10457832 
2945.501 10482930 10487009 10471499 10438194 10389330 10327511 10255350 
2948.876 10175295 10089262 9998608 9904033 9806065 9705392 9603144 9501133 
2952.733 9401596 9306838 9218672 9138034 9064659 8997563 8935111 8875723 
2956.591 8818097 8761591 8705931 8650980 8596455 8541641 8485495 8426830 
2960.448 8364595 8298153 8227343 8152596 8074546 7993785 7910875 7826043 
2964.306 7739456 7651358 7562199 7472772 7384097 7297256 7213169 7132333 
2968.163 7054753 6979968 6907288 6835925 6765532 6696212 6628721 6564095 
2972.021 6503622 6448262 6398581 6354438 6315151 6279639 6246949 6216409 
2975.878 6188121 6162799 6141951 6127358 6120882 6124014 6137661 6161894 
2979.735 6196236 6239621 6290871 6349119 6414000 6485966 6566135 6656323 
2983.593 6758442 6874330 7005322 7151997 7314306 7491436 7682132 7884640 
2987.450 8096902 8316425 8540215 8764935 8986863 9202179 9407327 9599245 
2991.308 9775424 9934096 10074007 10194328 10294679 10374715 10434482 
2994.683 10474151 10494263 10495382 10478135 10443088 10390573 10321021 
2998.058 10234925 10133010 10016398 9886573 9745277 9594076 9434358 9267163 
3001.916 9093223 8913155 8727706 8537856 8344955 8150565 7956162 7763109 
3005.773 7572278 7384281 7199286 7017389 6838576 6662922 6490414 6321052 
3009.630 6154766 5991341 5830680 5672582 5517144 5364559 5215208 5069646 
3013.488 4928316 4791672 4659932 4533205 4411355 4294176 4181274 4072384 
3017.345 3967167 3865574 3767807 3674329 3585742 3502715 3425805 3354922 
3021.203 3289506 3228288 3169500 3111253 3051835 2990170 2926190 2860745 
3025.060 2795517 2732584 2673876 2620700 2573471 2531663 2494037 2459047 
3028.917 2425312 2392108 2359299 2327450 2297355 2269863 2245342 2223658 
3032.775 2204147 2185705 2167250 2147841 2126937 2104488 2080879 2056757 
3036.632 2032918 2010148 1989010 1969963 1953181 1938695 1926392 1915997 
3040.490 1907225 1899524 1892261 1884791 1876501 1866859 1855732 1843273 
3044.347 1829983 1816546 1803547 1791332 1779913 1768982 1758048 1746989 
3048.205 1735907 1725538 1716856 1710699 1707510 1707012 1708141 1709292 
3052.062 1708948 1705950 1700061 1691814 1682479 1673480 1666139 1661174 
3055.919 1658914 1659176 1661499 1665464 1670733 1676814 1683257 1689353 
3059.777 1694445 1697752 1698770 1697342 1693675 1688331 1681979 1675347 
3063.634 1668971 1663261 1658382 1654345 1650934 1647717 1644129 1639470 
3067.492 1633329 1625590 1616676 1607719 1600180 1595573 1595000 1598751 
3071.349 1606047 1615323 1624510 1631546 1635048 1634419 1630066 1623155 
3075.207 1615252 1607821 1601864 1597936 1595928 1595342 1595509 1595728 
3079.064 1595513 1594700 1593369 1591894 1590635 1589902 1589727 1589707 
3082.921 1589222 1587351 1583350 1576887 1568167 1558256 1548685 1541251 
3086.779 1537437 1537873 1542243 1549108 1556379 1561820 1563752 1561427 
3090.636 1555362 1546974 1538326 1531405 1527602 1527343 1530235 1535222 
3094.494 1541010 1546498 1550899 1553808 1555160 1554914 1553039 1549459 
3098.351 1544135 1537189 1529077 1520372 1511944 1504575 1498751 1494797 
3102.208 1492795 1492403 1493311 1495081 1497269 1499415 1501177 1502191 
3106.066 1502341 1501575 1500069 1498054 1495871 1493739 1491908 1490692 
3109.923 1490402 1491466 1494251 1499058 1505859 1514173 1523294 1532178 
3113.781 1540033 1546220 1550583 1553297 1554623 1554707 1553287 1549839 
3117.638 1543789 1534739 1522834 1508648 1493424 1478511 1465142 1454278 
3121.496 1446402 1441576 1439571 1440034 1442484 1446420 1451331 1456724 
3125.353 1462382 1468281 1474675 1481993 1490413 1499570 1508667 1516247 
3129.210 1520895 1521748 1518773 1513186 1506946 1502237 1500622 1502458 
3133.068 1506846 1511917 1515562 1516321 1513917 1509255 1504151 1500411 
3136.925 1499317 1501050 1504592 1508314 1510407 1509450 1504917 1497101 
3140.783 1487063 1476402 1466801 1459797 1456569 1457782 1463469 1473002 
3144.640 1485129 1498241 1510515 1520517 1527233 1530324 1530000 1526880 
3148.498 1521745 1515311 1508231 1501139 1494784 1489841 1486903 1486286 
3152.355 1487812 1490637 1493368 1494537 1492906 1487967 1480152 1470856 
3156.212 1461991 1455608 1453272 1455672 1462493 1472501 1483961 1494940 
3160.070 1503922 1509826 1512470 1512299 1510305 1507675 1505722 1505390 
3163.927 1507326 1511626 1517974 1525532 1533264 1539862 1544181 1545298 
3167.785 1542805 1536936 1528486 1518653 1508925 1500404 1493847 1489337 
3171.642 1486398 1484308 1482483 1480583 1478820 1477769 1478249 1480919 
3175.500 1486206 1494059 1504201 1516125 1529255 1543019 1556715 1569541 
3179.357 1580519 1588752 1593459 1594297 1591628 1586292 1579547 1572598 
3183.214 1566425 1561350 1557308 1553766 1550373 1546840 1543349 1540273 
3187.072 1538199 1537492 1538206 1540030 1542421 1544577 1545858 1545793 
3190.929 1544273 1541566 1538270 1535262 1533408 1533533 1536000 1540791 
3194.787 1547328 1554648 1561661 1567316 1570916 1572149 1571132 1568272 
3198.644 1564232 1559709 1555473 1552191 1550430 1550439 1552110 1554907 
3202.501 1558028 1560688 1562404 1563294 1564120 1566095 1570369 1577437 
3206.359 1587033 1597900 1608299 1616561 1621740 1623802 1623615 1622461 
3210.216 1621435 1621108 1621405 1621681 1621493 1620725 1619859 1619843 
3214.074 1621616 1625663 1631856 1639376 1647050 1653724 1658373 1660466 
3217.931 1659593 1655514 1648101 1637447 1624255 1609862 1596405 1586259 
3221.789 1581563 1583419 1591572 1604286 1618777 1631912 1641074 1644660 
3225.646 1642333 1634846 1623853 1611214 1598842 1588307 1580744 1576826 
3229.503 1576726 1580110 1586354 1594559 1603883 1613524 1622897 1631385 
3233.361 1638500 1643449 1645711 1644904 1641332 1636153 1631136 1628309 
3237.218 1629354 1634730 1643733 1654194 1663529 1669349 1670314 1666499 
3241.076 1659228 1650543 1642365 1635925 1631527 1628585 1626054 1622936 
3244.933 1618653 1613194 1607026 1601108 1596667 1594989 1597098 1603550 
3248.791 1613957 1626894 1640010 1650396 1655567 1653970 1645953 1633498 
3252.648 1619830 1608361 1601622 1600529 1604322 1610886 1617681 1622722 
3256.505 1625069 1624905 1623236 1621259 1619850 1619282 1619226 1618822 
3260.363 1617171 1613345 1606720 1597099 1584896 1571269 1558121 1547889 
3264.220 1542979 1544978 1554339 1569818 1588980 1608709 1626399 1640383 
3268.078 1650658 1658385 1665248 1672608 1681033 1689866 1697858 1703417 
3271.935 1705435 1703426 1697630 1688793 1677879 1665865 1653936 1643267 
3275.792 1635121 1630608 1630298 1633899 1640269 1647521 1653653 1657216 
3279.650 1657768 1655922 1653153 1651042 1650867 1653046 1657194 1662390 
3283.507 1667510 1671651 1674287 1675226 1674426 1672039 1668064 1662624 
3287.365 1655706 1647232 1637004 1624679 1610082 1593288 1575180 1557487 
3291.222 1542602 1533161 1531257 1537590 1551382 1570209 1591008 1610779 
3295.080 1627488 1640450 1650046 1657237 1662939 1667459 1670699 1672215 
3298.937 1671840 1669905 1667097 1663977 1660713 1656607 1650353 1640512 
3302.794 1626385 1608525 1589025 1571071 1558294 1553617 1558782 1573627 
3306.652 1596266 1623490 1651383 1675961 1693985 1703196 1702911 1693815 
3310.509 1677882 1657806 1636407 1615936 1597871 1582755 1570688 1561781 
3314.367 1556491 1555697 1560198 1570242 1584834 1601698 1617668 1629576 
3318.224 1635272 1634265 1627751 1617999 1607455 1597776 1589474 1582072 
3322.082 1574902 1567686 1561057 1556453 1555454 1558819 1566162 1575633 
3325.939 1584785 1591355 1594339 1594146 1592649 1592211 1594973 1601773 
3329.796 1612123 1624374 1636406 1646377 1653359 1657372 1659299 1660365 
3333.654 1661701 1663963 1667109 1670548 1673226 1673994 1671954 1666604 
3337.511 1658176 1647464 1635721 1624367 1614610 1607089 1601816 1598253 
3341.369 1595607 1593050 1590055 1586411 1582193 1577785 1573622 1570398 
3345.226 1568933 1570313 1575560 1585394 1599738 1617396 1636104 1652845 
3349.083 1664576 1669115 1665763 1655538 1640842 1624694 1609959 1598522 
3352.941 1591058 1587154 1585742 1585790 1586636 1588100 1590397 1593818 
3356.798 1598455 1604094 1610139 1615872 1620683 1624135 1626146 1626875 
3360.656 1626872 1626678 1627147 1629037 1633022 1639476 1648231 1658669 
3364.513 1669505 1679240 1686180 1688971 1686731 1679017 1666043 1648394 
3368.371 1627108 1603314 1578525 1554352 1532603 1515060 1503134 1497763 
3372.228 1499038 1505890 1516607 1528750 1540108 1548791 1553996 1556072 
3376.085 1556294 1556460 1558378 1563159 1570961 1580927 1591473 1600643 
3379.943 1606747 1608640 1605993 1599132 1588928 1576706 1563914 1552310 
3383.800 1543818 1540344 1543567 1554475 1572916 1597284 1624658 1651069 
3387.658 1672509 1685600 1688679 1681900 1667418 1648708 1629678 1613643 
3391.515 1602706 1597173 1595809 1596275 1595945 1592637 1585189 1573829 
3395.373 1559932 1545622 1533289 1524819 1521396 1523113 1529290 1538655 
3399.230 1549560 1560503 1570071 1577150 1581041 1581367 1578139 1572051 
3403.087 1564183 1556062 1549388 1545606 1545779 1550217 1558556 1569795 
3406.945 1582589 1595491 1607211 1616582 1622931 1625845 1625412 1622112 
3410.802 1616777 1610311 1603568 1597086 1591106 1585569 1580444 1576002 
3414.660 1572932 1572228 1574886 1581285 1590993 1602433 1613430 1621637 
3418.517 1625416 1624259 1619173 1612014 1605356 1601240 1600950 1604613 
3422.375 1611270 1619155 1626389 1631172 1632307 1629405 1622911 1614155 
3426.232 1605042 1597659 1593718 1594080 1598368 1605080 1612082 1617259 
3430.089 1619428 1618427 1615425 1612158 1610350 1610864 1613734 1618113 
3433.947 1622871 1627171 1630782 1633957 1637018 1639918 1642197 1642957 
3437.804 1641576 1638143 1633800 1630354 1629776 1633243 1640629 1650300 
3441.662 1659812 1666561 1668904 1666381 1660016 1651491 1642861 1635670 
3445.519 1631029 1629572 1631601 1637302 1646573 1658827 1672830 1686838 
3449.376 1699049 1708246 1714370 1718564 1722934 1729422 1739082 1751384 
3453.234 1764305 1774752 1780037 1778375 1769924 1756246 1739902 1723427 
3457.091 1708734 1696551 1686893 1679399 1673885 1670537 1669877 1672429 
3460.949 1678367 1687298 1698391 1710531 1722803 1734511 1745446 1755675 
3464.806 1765339 1774460 1783049 1791107 1798691 1805998 1813353 1821037 
3468.664 1829072 1837366 1845534 1853251 1860435 1867261 1874333 1882246 
3472.521 1891489 1902110 1913668 1925054 1935069 1942498 1946617 1947645 
3476.378 1946678 1945490 1946331 1951200 1961534 1977535 1998226 2021729 
3480.236 2045406 2066767 2083880 2095654 2102039 2103781 2102188 2098746 
3484.093 2094951 2091858 2090263 2090493 2092680 2096752 2102782 2111017 
3487.951 2122148 2137046 2156663 2181332 2210621 2242811 2275169 2304302 
3491.808 2327150 2341689 2347807 2347190 2343200 2339761 2340543 2347804 
3495.666 2362279 2382877 2407450 2433317 2458099 2480148 2498576 2513452 
3499.523 2525269 2534708 2542451 2548816 2553945 2557719 2559983 2560796 
3503.380 2560629 2560285 2560731 2562666 2566137 2570187 2572904 2571946 
3507.238 2565209 2551758 2532193 2508892 2485269 2464869 2450470 2443159 
3511.095 2442218 2445521 2450244 2453785 2454406 2451300 2444716 2435479 
3514.953 2424525 2412824 2401060 2389721 2379112 2369496 2361026 2353738 
3518.810 2347738 2342992 2339358 2336398 2333307 2328664 2320808 2307999 
3522.667 2289180 2264590 2235767 2205580 2177475 2154248 2137343 2126310 
3526.525 2119220 2113373 2106398 2097182 2086009 2074146 2063074 2053495 
3530.382 2045216 2037233 2028417 2018343 2007793 1998141 1990859 1986482 
3534.240 1984012 1980961 1974433 1962125 1943621 1920676 1896851 1876321 
3538.097 1862457 1856861 1859012 1866744 1877505 1889054 1900321 1911379 
3541.955 1922702 1934563 1946309 1956430 1962857 1963718 1958216 1946777 
3545.812 1931207 1913933 1897502 1883673 1873375 1866383 1861793 1858535 
3549.669 1855585 1852480 1849303 1846506 1844768 1844804 1847163 1852239 
3553.527 1860259 1871214 1885058 1901434 1919701 1938619 1956589 1971762 
3557.384 1982308 1986995 1985592 1978862 1968620 1956905 1945631 1935812 
3561.242 1927579 1920182 1912651 1904222 1894919 1885302 1876330 1868766 
3565.099 1862671 1857447 1852162 1845979 1839124 1832830 1829262 1830753 
3568.957 1838934 1853867 1873965 1896142 1916903 1933060 1942811 1945878 
3572.814 1943420 1937185 1929126 1920310 1910988 1900442 1887650 1871667 
3576.671 1852143 1829510 1805207 1781142 1759664 1742932 1732648 1729572 
3580.529 1733427 1742887 1755914 1769905 1782534 1791815 1796656 1796754 
3584.386 1792539 1784646 1773748 1760312 1744567 1726620 1706808 1685731 
3588.244 1664327 1643762 1625236 1609628 1597490 1589111 1584481 1583515 
3592.101 1586084 1591853 1600124 1609481 1618023 1623234 1622814 1615255 
3595.958 1600329 1579442 1555519 1531966 1512250 1498526 1491504 1490259 
3599.816 1492915 1497161 1501348 1504706 1507522 1510592 1514723 1520302 
3603.673 1527173 1534527 1541583 1547712 1552769 1556826 1560160 1562734 
3607.531 1564513 1565253 1565088 1564633 1565289 1568747 1576424 1589022 
3611.388 1605818 1624893 1643408 1658325 1667511 1669985 1666456 1658859 
3615.246 1649868 1642147 1637584 1636991 1640079 1645506 1651431 1656097 
3619.103 1658318 1657787 1655378 1652846 1652436 1656027 1664531 1677537 
3622.960 1693278 1709231 1722799 1732352 1737634 1740003 1741728 1745057 
3626.818 1751571 1761149 1772505 1783208 1791240 1795236 1795620 1794180 
3630.675 1793555 1796311 1804229 1817810 1836266 1857945 1880704 1902436 
3634.533 1921520 1936624 1947087 1952785 1954227 1952595 1949987 1948939 
3638.390 1952224 1962273 1980419 2006449 2038587 2073747 2108031 2137781 
3642.248 2160266 2174463 2181078 2182297 2181386 2181663 2185784 2195074 
3646.105 2209206 2226345 2243417 2256952 2263932 2262539 2252770 2236352 
3649.962 2216829 2198296 2184802 2179215 2182643 2193973 2210560 2228564 
3653.820 2244303 2255001 2259670 2259121 2255782 2252578 2252138 2255716 
3657.677 2263082 2272318 2281053 2287024 2288960 2287035 2282575 2277683 
3661.535 2274218 2273262 2274779 2277800 2280698 2281872 2280276 2275476 
3665.392 2267596 2257213 2244870 2230861 2215420 2198474 2180119 2160605 
3669.250 2140471 2120446 2101502 2084502 2070605 2060574 2055200 2054756 
3673.107 2058957 2066835 2076590 2085829 2092000 2092866 2087156 2074793 
3676.964 2056949 2035400 2012181 1988887 1966318 1944622 1923392 1902246 
3680.822 1881035 1859908 1839297 1819534 1800571 1781752 1762068 1740814 
3684.679 1717631 1693410 1669939 1649537 1634389 1625767 1623536 1626130 
3688.537 1631220 1636545 1640809 1643963 1647143 1651682 1658447 1667167 
3692.394 1676150 1683045 1685713 1683237 1676307 1667113 1658584 1653159 
3696.251 1652002 1654420 1658324 1660942 1659920 1654206 1644119 1631307 
3700.109 1617712 1605328 1595245 1587811 1582840 1579801 1578185 1577374 
3703.966 1576576 1574736 1570578 1562848 1551014 1535569 1518213 1501709 
3707.824 1489021 1482618 1483605 1491500 1504447 1519669 1534612 1547299 
3711.681 1557173 1564528 1570482 1576140 1582196 1588416 1593992 1597717 
3715.539 1598359 1595222 1588515 1579332 1569562 1561369 1556758 1556922 
3719.396 1562027 1571077 1582184 1593108 1601782 1606959 1608251 1606229 
3723.253 1602127 1597250 1592847 1589588 1587962 1588055 1589994 1593803 
3727.111 1599484 1606787 1615179 1623636 1630797 1635202 1635538 1631067 
3730.968 1621702 1608250 1592300 1576072 1562090 1552825 1549953 1554075 
3734.826 1564421 1578868 1594408 1607616 1616038 1618360 1615067 1608095 
3738.683 1600034 1593309 1589498 1588852 1590734 1593881 1597216 1600301 
3742.541 1603363 1607051 1611843 1617663 1623898 1629333 1633078 1634592 
3746.398 1634100 1632091 1629128 1625362 1620253 1613097 1603407 1591682 
3750.255 1579565 1569705 1565176 1567976 1578746 1595873 1616032 1635219 
3754.113 1649690 1657253 1657755 1652713 1644943 1637234 1631724 1629141 
3757.970 1628948 1629686 1629593 1627311 1622311 1614881 1605864 1596329 
3761.828 1586982 1578349 1570332 1562728 1555551 1549266 1544869 1543833 
3765.685 1547683 1557392 1573303 1594475 1619046 1644358 1667360 1685362 
3769.542 1696367 1699550 1695033 1684066 1668552 1650800 1633047 1617273 
3773.400 1605094 1597370 1594530 1596288 1601885 1610200 1619920 1629592 
3777.257 1637890 1643800 1646602 1646054 1642621 1637114 1630707 1624741 
3781.115 1620191 1617488 1616568 1616787 1617461 1617996 1618342 1618865 
3784.972 1620160 1622710 1626400 1630446 1633657 1634765 1632932 1628310 
3788.830 1621811 1614867 1608732 1604080 1600632 1597347 1593085 1586996 
3792.687 1579129 1570435 1562463 1556659 1554001 1554542 1557671 1562453 
3796.544 1567883 1573569 1579409 1585542 1592033 1598488 1604284 1608606 
3800.402 1610921 1611100 1609460 1606713 1603534 1600226 1596904 1593175 
3804.259 1588820 1583702 1578022 1572316 1567168 1563190 1560727 1559957 
3808.117 1560944 1563511 1567493 1572418 1577677 1582427 1585865 1587455 
3811.974 1587210 1585689 1583989 1583246 1584402 1587576 1592370 1597945 
3815.832 1603304 1607809 1611383 1614256 1616938 1619748 1622482 1624668 
3819.689 1625320 1623480 1618355 1609610 1597451 1582719 1566950 1552137 
3823.546 1540582 1534459 1535330 1543467 1557606 1575026 1592029 1604993 
3827.404 1611405 1610648 1604114 1594646 1585484 1579253 1576979 1578061 
3831.261 1580887 1583496 1584605 1584035 1582696 1581830 1582427 1584537 
3835.119 1587430 1589811 1590793 1590198 1589268 1589866 1593840 1602181 
3838.976 1614325 1628105 1640373 1647827 1648355 1641596 1629102 1613919 
3842.833 1599660 1589242 1584209 1584214 1587268 1590451 1590882 1586617 
3846.691 1577102 1563443 1547684 1532539 1520494 1513285 1511698 1515505 
3850.548 1523586 1534322 1545861 1556346 1564310 1568655 1569186 1566173 
3854.406 1560594 1553596 1546004 1538061 1529525 1519748 1508189 1494850 
3858.263 1480605 1466925 1455797 1448497 1445750 1446975 1450821 1455893 
3862.121 1461264 1466881 1473481 1482085 1493210 1506147 1519140 1529849 
3865.978 1536296 1537755 1534960 1530160 1526096 1524902 1527421 1533019 
3869.835 1539809 1545967 1550301 1552824 1554623 1557186 1561356 1566951 
3873.693 1572562 1576216 1576141 1571581 1563235 1552944 1543091 1535700 
3877.550 1531897 1531465 1533355 1536061 1538405 1539842 1540630 1541523 
3881.408 1543388 1546721 1551470 1556946 1562256 1566515 1569398 1571152 
3885.265 1572803 1575753 1581316 1590312 1602497 1616622 1630363 1641024 
3889.123 1646094 1643982 1634568 1619101 1600234 1581183 1564941 1553785 
3892.980 1548666 1549170 1553854 1560792 1568006 1573931 1577709 1579233 
3896.837 1578999 1577734 1576209 1574761 1573339 1571552 1568851 1564624 
3900.695 1558778 1551653 1543887 1536211 1529355 1523620 1518967 1515148 
3904.552 1511798 1508747 1506127 1504145 1503025 1503067 1504284 1506913 
3908.410 1511188 1517476 1526132 1537183 1550211 1564132 1577444 1588836 
3912.267 1597615 1604145 1609814 1616518 1625961 1638850 1654494 1671008 
3916.125 1685746 1696373 1701326 1700120 1693289 1681827 1666758 1648788 
3919.982 1628666 1607269 1585961 1566552 1551009 1540564 1535626 1535145 
3923.839 1537328 1540088 1542023 1542698 1542887 1543956 1547073 1552765 
3927.697 1560441 1568881 1576548 1582339 1585792 1587209 1587259 1586468 
3931.554 1585203 1583254 1580424 1576357 1571249 1565536 1559729 1554552 
3935.412 1550427 1547617 1546425 1546864 1549094 1552970 1558124 1564070 
3939.269 1570136 1575913 1581416 1587012 1593335 1600727 1608781 1616467 
3943.126 1621888 1623167 1619065 1609501 1595726 1580088 1565081 1552909 
3946.984 1544720 1540567 1539805 1541405 1544418 1548198 1552455 1556923 
3950.841 1561155 1564583 1566650 1566867 1565195 1561751 1556866 1550921 
3954.699 1544156 1537125 1530423 1525254 1523205 1525824 1534239 1548544 
3958.556 1567618 1589135 1610091 1627531 1639241 1643905 1641508 1632882 
3962.414 1619497 1603180 1586053 1570249 1557901 1550655 1549517 1554200 
3966.271 1563327 1574472 1585090 1592805 1596568 1596523 1593916 1590513 
3970.128 1587931 1587155 1588317 1590967 1594706 1599204 1604726 1611644 
3973.986 1620385 1630751 1642063 1652980 1662172 1668532 1671608 1671850 
3977.843 1670296 1668210 1666828 1666857 1668364 1670843 1673269 1674337 
3981.701 1672915 1668122 1659518 1647341 1632538 1616493 1600952 1587487 
3985.558 1577272 1570572 1567111 1565741 1565290 1564893 1564175 1563751 
3989.416 1564727 1568357 1575524 1586323 1599753 1614217 1627963 1639684 
3993.273 1649165 1657232 1665476 1675218 1687088 1700246 1712564 1721210 
3997.130 1723731 1719003 1707919 1692981 1677961 1666229 1660074 1660073 
##END=
