##TITLE=Tecor_PETG_White_Filament_r5_ATR-Corrected
##JCAMP-DX=5.01  $$ Nicolet v. 1
##DATATYPE=INFRARED SPECTRUM
##ORIGIN=Curtin University
##OWNER=Nicolet
##LONGDATE=2024/07/19
##TIME=09:29:07
##SPECTROMETER/DATA SYSTEM=Nicolet iS50
##DATA PROCESSING=
Ratio against background
%Transmittance->Absorbance
ATR Correction
Truncated
ElementMultiply or ElementDivide
##COMMENTS=
Number of sample scans: 32
Collection length: 47.28 sec
Sample gain: 1.0
Background collected on: Fri Jul 19 09:27:40 2024 (GMT+08:00);
Number of background scans: 32
Background gain: 1.0
Sample spacing:  1.000
Number of scan points: 16672
Resolution points: 8192
Number of FFT points: 65536
Apodization: N-B strong;
Phase correction: Mertz;
Laser frequency: 15798.3 cm-1
Number of rejected sample scans: 0
Number of rejected background scans: 0
Bench serial number: AUP1200105;
##RESOLUTION=4.000
##XUNITS=1/CM
##YUNITS=ABSORBANCE
##FIRSTX=400.163452
##LASTX=4000.187744
##FIRSTY=0.045954
##MAXX=4000.187744
##MINX=400.163452
##MAXY=1.679595
##MINY=-0.030019
##XFACTOR=1.000000
##YFACTOR=1.000000E-008
##NPOINTS=7468
##DELTAX=0.482125
##ZPD=8192
##XYDATA=(X++(Y..Y))
400.163 4595438 4560974 4537472 4527724 4530742 4541245 4551022 4551016 
404.020 4533850 4496255 4440209 4372840 4304360 4244940 4201298 4174420 
407.877 4159342 4147229 4129057 4099666 4060075 4017464 3982326 3964135 
411.734 3967328 3989349 4021624 4053190 4075285 4085213 4087569 4092424 
415.591 4111195 4152055 4216340 4297799 4384463 4462618 4521189 4554967 
419.448 4565443 4559325 4545423 4531688 4523101 4521202 4524958 4532372 
423.305 4542142 4554566 4571555 4595824 4629644 4673583 4725882 4782556 
427.162 4838153 4887197 4925510 4951329 4965508 4970891 4971068 4968949 
431.019 4965624 4960270 4950741 4934793 4911799 4883099 4851917 4822339 
434.876 4797858 4780246 4769186 4762971 4759628 4758182 4759107 4763819 
438.733 4773442 4787408 4802766 4814638 4817693 4808244 4785810 4753724 
442.590 4718185 4686298 4663586 4652216 4650332 4652843 4653237 4645693 
446.447 4626652 4595627 4554800 4508060 4459772 4413697 4372379 4337023 
450.304 4307684 4283691 4264045 4247947 4234991 4225471 4220270 4220522 
454.161 4227215 4240548 4259557 4282047 4304866 4324591 4338222 4343862 
458.017 4340993 4330512 4314397 4295431 4276807 4261912 4253945 4255561 
461.874 4268283 4292078 4324917 4363079 4401676 4435600 4460663 4474438 
465.731 4476595 4468781 4453869 4435231 4415965 4398448 4384149 4373641 
469.588 4366755 4362687 4360269 4358291 4355880 4352926 4350269 4349556 
473.445 4352664 4360961 4374508 4391755 4409777 4425122 4434997 4438284 
477.302 4436040 4431299 4428127 4430439 4440937 4460484 4488166 4521802 
481.159 4558652 4596158 4632323 4665998 4696811 4725205 4752287 4779718 
485.016 4809415 4843157 4882144 4926642 4975953 5028668 5083285 5138795 
488.873 5195144 5253213 5314442 5380245 5451394 5527881 5609063 5694298 
492.730 5783484 5877476 5977983 6086986 6206051 6335555 6474337 6619779 
496.587 6768294 6915971 7059148 7194696 7319984 7432645 7530211 7609826 
500.444 7668235 7701902 7707404 7681986 7624176 7534389 7415284 7271889 
504.301 7111158 6941182 6770023 6604602 6449762 6307929 6179308 6062523 
508.158 5955460 5855968 5762318 5673250 5587898 5505592 5425919 5348848 
512.015 5275021 5205905 5143658 5090719 5049112 5019793 5002172 4994034 
515.871 4991947 4991871 4989927 4983036 4969324 4948288 4920710 4888436 
519.728 4853974 4820076 4789122 4762643 4740819 4722355 4704678 4684537 
523.585 4658840 4625568 4584338 4536667 4485469 4434369 4386789 4345092 
527.442 4310130 4281148 4256155 4232425 4207160 4178046 4143682 4103765 
531.299 4059078 4011235 3962250 3914046 3867946 3824438 3783153 3743192 
535.156 3703634 3663993 3624558 3586359 3550791 3519140 3492037 3469283 
539.013 3449894 3432563 3416082 3399750 3383452 3367465 3352046 3337162 
542.870 3322339 3306780 3289752 3270904 3250461 3229169 3207973 3187681 
546.727 3168662 3150835 3133811 3117232 3100983 3085323 3070687 3057468 
550.584 3045684 3034860 3024092 3012284 2998468 2982106 2963201 2942317 
554.441 2920454 2898896 2879059 2862321 2849760 2841976 2838867 2839344 
558.298 2841460 2842665 2840426 2832917 2819678 2801834 2781891 2763023 
562.155 2748154 2739050 2735875 2737202 2740667 2743838 2745100 2744163 
566.012 2741975 2740227 2740487 2743521 2748911 2755159 2760241 2762355 
569.869 2760505 2754799 2746326 2736628 2727142 2718707 2711442 2704926 
573.725 2698577 2692154 2685961 2680843 2677893 2678003 2681479 2687846 
577.582 2695979 2704385 2711681 2716942 2719853 2720679 2720091 2718930 
581.439 2718018 2718128 2719972 2724292 2731773 2742966 2758025 2776545 
585.296 2797427 2819008 2839344 2856607 2869443 2877245 2880157 2878853 
589.153 2874200 2867056 2858025 2847567 2836128 2824368 2813222 2803831 
593.010 2797310 2794390 2795146 2798918 2804367 2809871 2813859 2815248 
596.867 2813608 2809197 2802772 2795388 2788131 2781927 2777530 2775411 
600.724 2775788 2778563 2783253 2789011 2794712 2799192 2801531 2801370 
604.581 2799016 2795441 2791986 2789942 2790200 2792958 2797743 2803599 
608.438 2809516 2814713 2818925 2822371 2825608 2829222 2833669 2839125 
612.295 2845561 2852912 2861196 2870635 2881541 2894175 2908565 2924391 
616.152 2940990 2957509 2973193 2987586 3000719 3013087 3025488 3038775 
620.009 3053561 3070047 3088001 3106862 3125999 3145032 3163997 3183439 
623.866 3204283 3227597 3254424 3285804 3322987 3367933 3423757 3494862 
627.723 3586437 3703200 3847530 4017397 4204789 4395284 4569375 4705541 
631.579 4784612 4794227 4732009 4606378 4434623 4238980 4041933 3862092 
635.436 3711728 3596143 3514674 3462688 3433779 3421556 3420615 3426792 
639.293 3436941 3448575 3459721 3469054 3476144 3481666 3487335 3495543 
643.150 3508787 3529006 3557105 3592789 3634610 3680244 3726980 3772085 
647.007 3813206 3848686 3877831 3900962 3919397 3935168 3950648 3968009 
650.864 3988818 4013750 4042554 4074275 4107570 4141083 4173660 4204463 
654.721 4233015 4259091 4282727 4304226 4324151 4343280 4362490 4382513 
658.578 4403755 4426177 4449405 4472942 4496528 4520413 4545438 4572890 
662.435 4604133 4640196 4681451 4727512 4777345 4829593 4882932 4936355 
666.292 4989322 5041661 5093534 5145253 5197268 5250137 5304578 5361455 
670.149 5421718 5486293 5555881 5630922 5711535 5797565 5888723 5984630 
674.006 6084904 6189084 6296575 6406598 6518163 6630072 6740980 6849400 
677.863 6953675 7051920 7141991 7221592 7288468 7340805 7377667 7399337 
681.720 7407537 7405250 7396397 7385184 7375524 7370475 7372010 7380978 
685.577 7397449 7421047 7451338 7488164 7531678 7582305 7640633 7707212 
689.433 7782524 7866957 7960976 8065136 8180251 8307383 8447816 8603012 
693.290 8774457 8963634 9171897 9400304 9649488 9919415 10209223 10517119 
697.147 10840501 11176177 11520821 11871371 12225404 12581296 12938115 
700.522 13295332 13652511 14009042 14364126 14716920 15066923 15414184 
703.897 15759507 16104269 16450106 16798476 17150386 17506390 17866826 
707.272 18232404 18604766 18987004 19383850 19801724 20248412 20732734 
710.647 21264328 21853382 22510676 23247630 24076582 25010902 26065170 
714.021 27255064 28597068 30107820 31803096 33696492 35797972 38112208 
717.396 40637368 43364124 46275344 49345936 52543216 55826132 59143496 
720.771 62429748 65598916 68537768 71102152 73122584 74424312 74862656 
724.146 74364064 72953160 70750512 67941576 64734084 61321360 57861228 
727.521 54468912 51219528 48154844 45291244 42627452 40151076 37843796 
730.896 35685240 33655400 31736026 29911086 28166810 26491552 24875644 
734.270 23311370 21793156 20317662 18883928 17493292 16149271 14857113 
737.645 13623264 12454763 11358413 10340225 9404742 8554678 7790600 7110828 
741.502 6511601 5987273 5530752 5134147 4789418 4489082 4226708 3997204 
745.359 3796772 3622612 3472511 3344354 3235945 3144833 3068562 3004830 
749.216 2951792 2908202 2873371 2847010 2829020 2819246 2817387 2822901 
753.073 2835108 2853235 2876510 2904247 2935827 2970757 3008662 3049197 
756.930 3092016 3136656 3182364 3228071 3272363 3313675 3350566 3382092 
760.787 3408112 3429447 3447751 3465221 3484125 3506281 3532774 3563836 
764.644 3598991 3637383 3678073 3720344 3763748 3807977 3852680 3897241 
768.501 3940682 3981753 4019141 4051818 4079250 4101598 4119617 4134489 
772.358 4147503 4159781 4172111 4184884 4198250 4212314 4227316 4243726 
776.214 4262234 4283647 4308740 4338099 4372176 4411236 4455494 4505171 
780.071 4560504 4621697 4688923 4762307 4842018 4928473 5022438 5125156 
783.928 5238198 5363244 5501776 5654805 5822858 6006133 6204844 6419528 
787.785 6651095 6900472 7167867 7451698 7747666 8048053 8341628 8614179 
791.642 8849642 9031610 9144996 9177712 9122194 8976600 8745719 8441076 
795.499 8080474 7686415 7283844 6897286 6548045 6251946 6018006 5848331 
799.356 5739047 5682014 5666856 5682780 5720028 5770573 5828425 5889456 
803.213 5951336 6013074 6074828 6137393 6201749 6268474 6337321 6407019 
807.070 6475545 6540581 6600170 6653199 6699574 6740041 6775652 6807294 
810.927 6835367 6859781 6880232 6896631 6909365 6919380 6927882 6936034 
814.784 6944526 6953434 6962272 6970352 6977080 6982268 6986246 6989775 
818.641 6993871 6999612 7008049 7020053 7036336 7057354 7083216 7113553 
822.498 7147467 7183666 7220714 7257408 7293217 7328453 7364331 7402675 
826.355 7445529 7494645 7551171 7615464 7687171 7765389 7848959 7936678 
830.212 8027424 8120237 8214400 8309457 8405311 8502268 8601008 8702374 
834.068 8807202 8915861 9028004 9142487 9257430 9370641 9480111 9584431 
837.925 9683088 9776408 9865259 9950510 10032614 10111281 10185502 10253839 
841.782 10314874 10367582 10411626 10447346 10475612 10497435 10513829 
845.157 10525543 10533123 10536936 10537239 10534281 10528308 10519619 
848.532 10508674 10496177 10483251 10471428 10462503 10458289 10460229 
851.907 10469112 10484944 10507058 10534456 10566130 10601380 10639902 
855.282 10681729 10727049 10776059 10829006 10886350 10949004 11018541 
858.656 11097114 11187228 11291260 11411127 11548068 11702818 11876021 
862.031 12068829 12283350 12522906 12791926 13095589 13439362 13828564 
865.406 14268087 14762154 15313941 15925115 16594899 17319060 18088750 
868.781 18889788 19702444 20502128 21260840 21949362 22539790 23007938 
872.156 23335492 23511350 23532210 23402272 23132140 22737326 22236408 
875.531 21649368 20996096 20295360 19563954 18816392 18064710 17318604 
878.905 16585936 15873137 15185861 14529301 13908362 13327363 12789614 
882.280 12296967 11849505 11445627 11082463 10756636 10464844 10204443 
885.655 9973539 9770779 9594903 9444340 9317027 9210487 9122220 9050066 
889.512 8992521 8948736 8918224 8900549 8894946 8900166 8914600 8936528 
893.369 8964399 8996914 9032976 9071494 9111056 9149969 9186190 9217675 
897.226 9242642 9259783 9268330 9267920 9258419 9239803 9212153 9175799 
901.083 9131383 9079973 9022857 8961318 8896285 8828068 8756446 8680827 
904.940 8600625 8515639 8426270 8333553 8238953 8144098 8050538 7959632 
908.797 7872502 7790050 7713048 7642094 7577561 7519533 7467823 7422072 
912.654 7381893 7347058 7317549 7293526 7275078 7262113 7254112 7250219 
916.510 7249342 7250552 7253304 7257736 7264595 7275193 7291035 7313540 
920.367 7343783 7382327 7429277 7484299 7546831 7616176 7691619 7772475 
924.224 7858018 7947478 8039953 8134307 8229249 8323312 8415065 8503261 
928.081 8586945 8665693 8739609 8809289 8875757 8940344 9004460 9069540 
931.938 9136768 9206941 9280343 9356581 9434595 9512799 9589278 9662206 
935.795 9730071 9791992 9847755 9897712 9942570 9983182 10020293 10054561 
939.652 10086448 10116367 10144739 10172025 10198703 10225382 10252783 
943.027 10281882 10313978 10350784 10394284 10446489 10509173 10583454 
946.402 10669604 10766991 10874222 10989562 11111210 11237692 11367989 
949.776 11501560 11638222 11778036 11921190 12068000 12218923 12374608 
953.151 12535861 12703526 12878361 13060883 13251415 13450152 13657381 
956.526 13873717 14100224 14338203 14589007 14853513 15131666 15422140 
959.901 15722325 16028592 16336805 16643034 16944050 17237652 17522672 
963.276 17798728 18065752 18323604 18571786 18809358 19035026 19247294 
966.651 19444632 19625580 19788806 19933128 20057634 20161768 20245488 
970.025 20309350 20354436 20382172 20393968 20390890 20373360 20340978 
973.400 20292652 20226770 20141560 20035494 19907630 19757858 19587026 
976.775 19396870 19189766 18968344 18735046 18491716 18239394 17978402 
980.150 17708624 17430038 17143192 16849490 16551208 16251285 15952709 
983.525 15658177 15369731 15088762 14816150 14552617 14298983 14056334 
986.899 13826014 13609467 13408081 13223019 13055305 12905760 12775095 
990.274 12663877 12572367 12500392 12447339 12412212 12393893 12391468 
993.649 12404454 12432961 12477502 12538654 12616701 12711319 12821572 
997.024 12946099 13083558 13232981 13394096 13567317 13753627 13954304 
1000.399 14170659 14403972 14655477 14926557 15218954 15534921 15877342 
1003.774 16249800 16656594 17102776 17594112 18136912 18737888 19403828 
1007.148 20141322 20956664 21855998 22845870 23933930 25129644 26444602 
1010.523 27892172 29486082 31237808 33153052 35227148 37440048 39751396 
1013.898 42096384 44383992 46498944 48309500 49681548 50498080 50679720 
1017.273 50200124 49090664 47433004 45342728 42949992 40382704 37755140 
1020.648 35161936 32676604 30352584 28225664 26316622 24633970 23176300 
1024.022 21934548 20894006 20036276 19340884 18786878 18353820 18022672 
1027.398 17776258 17599486 17479458 17405452 17368842 17362920 17382664 
1030.773 17424378 17485362 17563594 17657394 17765252 17885790 18017812 
1034.148 18160314 18312504 18473854 18643914 18822076 19007412 19198496 
1037.523 19393314 19589378 19783934 19974244 20157788 20332482 20496548 
1040.899 20648436 20786626 20909476 21015262 21102350 21169522 21216200 
1044.274 21242740 21250384 21241056 21217112 21180952 21134820 21080686 
1047.649 21020262 20955160 20887010 20817522 20748558 20681970 20619530 
1051.024 20562888 20513426 20472330 20440612 20419170 20408918 20410792 
1054.400 20425850 20455260 20500228 20562024 20641862 20740902 20860224 
1057.775 21000828 21163798 21350314 21561758 21799672 22065692 22361330 
1061.150 22687898 23046240 23436680 23859082 24312886 24797242 25311220 
1064.525 25853858 26424390 27022352 27647742 28301186 28983950 29697940 
1067.901 30445442 31228802 32050002 32910410 33810536 34750204 35728808 
1071.276 36745640 37800292 38892792 40023676 41193804 42404068 43655108 
1074.651 44946976 46278932 47649236 49055160 50493008 51958268 53445716 
1078.026 54949736 56464420 57983600 59500980 61010100 62504508 63977956 
1081.402 65424872 66840596 68221720 69566080 70872808 72142264 73375936 
1084.777 74576744 75748984 76898256 78030776 79152480 80267744 81378488 
1088.152 82483680 83579648 84660784 85720624 86752152 87747736 88698344 
1091.527 89592608 90416416 91153512 91787096 92302016 92686584 92933272 
1094.903 93038384 93000248 92817304 92486968 92005224 91367664 90571248 
1098.278 89616008 88506272 87250896 85862688 84357344 82751864 81063344 
1101.653 79307848 77500160 75653680 73781184 71895864 70012368 68147616 
1105.028 66321288 64555448 62873704 61299944 59857132 58565944 57443772 
1108.404 56503816 55754376 55198224 54831952 54645564 54622136 54738040 
1111.779 54963596 55264448 55603344 55942528 56246144 56482488 56625800 
1115.154 56657224 56565076 56344332 55995608 55523712 54936560 54243792 
1118.529 53456108 52584656 51640572 50634772 49577676 48478952 47347444 
1121.905 46191116 45017208 43832452 42643152 41455268 40274432 39105760 
1125.280 37953872 36822856 35716472 34638284 33591796 32580390 31606994 
1128.655 30673772 29781718 28930550 28118750 27343998 26603678 25895408 
1132.030 25217280 24568026 23946788 23352778 22785016 22242154 21722436 
1135.406 21223852 20744344 20281906 19834722 19401176 18979782 18569192 
1138.781 18168240 17775958 17391588 17014626 16644642 16281237 15923931 
1142.156 15572147 15225376 14883351 14546296 14215001 13890797 13575283 
1145.531 13270025 12976065 12693785 12422748 12161871 11909698 11664757 
1148.906 11425783 11191924 10962749 10738199 10518526 10304290 10096338 
1152.282 9895778 9703935 9522171 9351648 9193087 9046613 8911702 8787423 
1156.139 8672625 8566339 8467943 8377245 8294430 8219789 8153613 8096064 
1159.997 8047235 8007356 7977015 7957401 7950315 7958194 7983829 8030166 
1163.854 8100064 8196047 8320203 8474047 8658461 8873517 9118306 9390727 
1167.711 9687292 10003031 10331525 10665061 10995113 11312808 11609547 
1171.087 11877620 12110543 12303484 12453149 12557812 12617038 12631556 
1174.462 12603104 12534334 12428769 12290687 12124980 11936969 11732100 
1177.837 11515721 11292946 11068447 10846600 10631356 10426454 10235304 
1181.212 10061023 9906287 9773255 9663383 9577413 9515326 9476443 9459521 
1185.070 9463040 9485386 9525222 9581546 9653921 9742310 9846934 9967965 
1188.927 10105263 10258232 10425798 10606553 10799056 11002043 11214642 
1192.302 11436410 11667190 11906983 12155762 12413354 12679499 12953842 
1195.678 13236099 13526042 13823526 14128409 14440556 14759682 15085492 
1199.053 15417635 15755889 16100037 16449991 16805676 17166976 17533826 
1202.428 17906204 18284356 18668840 19060672 19461266 19872248 20295196 
1205.803 20731352 21181536 21646066 22125034 22618620 23127350 23652388 
1209.179 24195526 24758888 25344590 25954336 26589132 27249246 27934474 
1212.554 28644354 29378656 30137556 30921588 31731484 32567828 33430796 
1215.929 34320088 35234956 36174448 37137572 38123468 39131304 40160228 
1219.304 41209216 42277184 43363084 44466236 45586472 46724300 47880668 
1222.680 49056796 50254024 51473540 52716716 53985292 55281548 56608384 
1226.055 57969040 59366732 60804140 62283380 63805924 65373128 66986608 
1229.430 68648472 70361184 72127144 73947920 75823856 77753488 79733624 
1232.805 81759264 83823816 85918872 88034024 90156440 92270776 94359288 
1236.181 96402112 98377816 100264112 102038280 103678192 105163392 106476632 
1239.556 107604936 108540872 109281704 109828624 110184576 110352968 
1242.449 110337320 110142352 109775664 109249512 108581272 107792544 
1245.342 106907080 105948200 104937080 103892232 102829448 101762904 
1248.235 100705504 99669280 98664776 97700848 96784248 95920304 95113432 
1251.610 94368104 93688896 93080352 92545704 92085872 91698096 91375664 
1254.986 91107960 90881256 90679384 90484568 90277856 90039560 89749792 
1258.361 89389632 88942160 88394128 87736864 86966896 86085504 85098056 
1261.736 84012744 82839864 81590888 80278080 78913984 77511144 76081592 
1265.111 74636584 73186280 71739784 70305136 68889264 67498152 66136788 
1268.487 64809288 63519012 62268840 61061396 59899108 58784192 57718192 
1271.862 56701696 55733724 54811692 53931396 53087644 52274764 51487284 
1275.237 50720584 49971064 49236128 48514108 47803908 47104860 46416436 
1278.612 45738168 45069452 44409480 43757136 43111076 42469724 41831484 
1281.988 41194896 40558824 39922404 39285088 38646508 38006400 37364580 
1285.363 36720900 36075276 35427796 34778580 34127860 33475804 32822592 
1288.738 32168374 31513246 30857276 30200532 29543042 28884866 28226172 
1292.113 27567458 26909688 26254436 25603828 24960356 24326452 23704194 
1295.489 23095008 22499682 21918610 21352338 20802018 20269756 19758602 
1298.864 19272322 18814800 18389372 17998152 17641692 17318742 17026432 
1302.239 16760524 16515955 16287151 16068581 15855022 15641923 15425618 
1305.614 15203504 14974076 14736946 14492647 14242440 13988005 13731353 
1308.990 13474497 13219392 12967885 12721629 12481996 12249985 12026165 
1312.365 11810696 11603339 11403629 11211033 11025058 10845240 10671113 
1315.740 10502013 10336973 10174678 10013679 9852575 9690430 9526968 9362656 
1319.597 9198546 9035923 8876009 8719680 8567514 8419926 8277502 8141278 
1323.455 8012887 7894435 7788308 7696911 7622452 7566973 7532543 7521485 
1327.312 7536607 7581417 7660021 7777022 7937301 8145794 8407151 8725418 
1331.170 9103385 9542038 10039610 10591077 11187641 11816814 12462821 
1334.545 13107483 13731316 14314845 14839725 15289955 15652682 15918720 
1337.920 16082907 16144180 16105236 15972269 15754157 15461782 15106958 
1341.295 14701654 14257258 13784209 13291937 12788974 12283101 11781399 
1344.671 11290208 10814852 10359524 9927124 9519368 9136985 8780050 8448222 
1348.528 8141070 7858114 7598877 7362859 7149395 6957724 6786839 6635591 
1352.385 6502728 6387058 6287496 6203344 6134218 6080238 6041829 6019692 
1356.243 6014581 6027235 6058379 6108751 6179201 6271048 6386056 6526486 
1360.100 6695068 6894682 7128054 7397451 7704290 8048936 8430585 8847193 
1363.958 9295579 9771439 10269456 10783353 11306083 11829893 12346671 
1367.333 12848122 13326195 13773306 14182401 14547320 14862786 15124609 
1370.708 15330052 15478073 15569475 15606940 15594809 15538540 15444140 
1374.083 15317547 15164092 14988185 14793132 14581336 14354344 14113303 
1377.459 13859168 13592997 13316025 13029759 12735818 12435922 12131812 
1380.834 11825362 11518694 11214309 10915133 10624339 10345098 10080217 
1384.209 9831811 9601178 9388922 9195250 9020263 8864264 8727860 8611843 
1388.067 8516909 8443473 8391531 8360733 8350648 8361137 8392578 8446170 
1391.924 8523718 8627461 8759719 8922622 9117961 9347400 9612586 9915507 
1395.781 10258494 10644142 11074714 11551602 12074762 12642317 13250721 
1399.157 13895443 14571783 15276071 16006434 16763201 17548770 18366718 
1402.532 19220478 20111596 21037782 21991050 22956042 23909182 24818584 
1405.907 25645382 26346182 26876852 27196864 27273932 27087912 26633442 
1409.282 25920854 24975204 23833454 22540704 21145674 19696604 18237850 
1412.658 16807548 15436406 14147265 12955430 11869393 10891739 10020245 
1416.033 9249063 8569948 7973394 7449712 6989848 6585984 6231717 5921929 
1419.890 5652535 5420002 5220939 5051900 4909363 4789942 4690557 4608786 
1423.748 4542882 4491863 4455188 4432707 4424373 4430159 4449978 4483747 
1427.605 4531390 4592798 4667837 4756251 4857578 4971178 5096122 5231338 
1431.463 5375565 5527482 5685707 5848755 6015113 6183056 6350685 6515833 
1435.320 6676107 6829077 6972534 7104864 7225289 7333988 7431984 7520822 
1439.177 7602177 7677527 7748017 7814374 7877141 7936904 7994423 8050804 
1443.035 8107332 8165436 8226538 8291924 8362692 8439829 8524106 8616179 
1446.892 8716390 8824685 8940550 9062884 9190117 9320298 9451198 9580509 
1450.750 9705845 9824923 9935654 10036331 10125705 10203125 10268398 
1454.125 10321728 10363363 10393515 10412178 10419217 10414490 10397964 
1457.500 10369813 10330383 10280088 10219392 10148800 10068987 9980845 
1460.875 9885740 9785286 9681433 9576198 9471633 9369799 9272959 9183648 
1464.733 9104829 9039754 8991777 8963915 8958645 8977550 9021460 9090339 
1468.590 9183497 9299630 9436644 9591465 9759752 9935719 10112207 10280955 
1472.448 10433303 10560695 10655421 10710850 10721595 10683568 10593998 
1475.823 10451628 10257049 10012848 9723679 9395897 9036969 8654860 8257399 
1479.680 7851974 7445390 7043874 6652972 6277533 5921428 5587429 5277106 
1483.538 4990968 4728694 4489454 4272189 4075724 3898844 3740090 3597879 
1487.395 3470337 3355636 3252061 3158356 3073757 2998170 2931924 2875695 
1491.253 2830298 2796571 2775260 2767031 2772447 2791956 2825947 2874765 
1495.110 2938834 3018804 3115775 3231561 3368972 3532060 3726282 3958507 
1498.968 4236562 4568279 4959829 5413614 5925840 6484539 7068525 7647968 
1502.825 8186646 8645941 8989749 9189668 9229363 9107012 8835585 8440385 
1506.682 7954837 7415193 6855732 6305270 5785374 5310148 4887127 4518543 
1510.540 4202820 3935802 3712029 3525566 3370810 3242891 3137841 3052370 
1514.397 2983620 2928831 2885341 2850643 2822617 2799829 2781555 2767679 
1518.255 2758439 2753994 2754213 2758520 2766034 2775728 2786617 2797935 
1522.112 2809113 2819779 2829693 2838651 2846476 2853077 2858305 2861963 
1525.969 2863681 2862875 2858724 2850375 2837029 2818208 2793891 2764565 
1529.827 2731103 2694728 2656698 2618276 2580533 2544312 2510118 2478184 
1533.684 2448300 2420019 2392734 2365849 2339105 2312572 2286760 2262454 
1537.542 2240469 2221392 2205395 2192174 2181114 2171513 2162845 2154948 
1541.399 2147965 2142328 2138434 2136553 2136640 2138427 2141424 2145180 
1545.257 2149353 2153832 2158704 2164188 2170490 2177687 2185651 2194113 
1549.114 2202661 2211034 2219143 2227208 2235710 2245291 2256537 2269850 
1552.971 2285186 2302217 2320226 2338432 2356051 2372462 2387337 2400616 
1556.829 2412424 2423166 2433397 2443881 2455502 2469211 2485831 2505967 
1560.686 2529920 2557607 2588627 2622424 2658361 2695902 2734721 2774879 
1564.544 2816819 2861486 2910182 2964388 3025461 3094428 3171752 3257420 
1568.401 3351210 3453108 3563680 3684401 3817427 3965218 4129901 4312549 
1572.259 4512853 4729043 4958087 5196081 5438312 5679363 5912821 6131014 
1576.116 6325167 6485762 6603653 6671092 6682935 6637305 6535722 6382975 
1579.973 6186321 5954879 5698634 5427744 5151912 4879849 4618967 4375163 
1583.831 4152580 3953680 3779187 3628324 3499177 3389107 3295245 3214876 
1587.688 3145604 3085478 3032926 2986668 2945585 2908761 2875324 2844591 
1591.546 2816028 2789432 2764874 2742818 2724051 2709496 2700032 2696217 
1595.403 2698087 2705187 2716674 2731720 2749767 2770842 2795491 2824648 
1599.260 2859228 2899791 2946286 2998132 3054475 3114447 3177639 3244063 
1603.118 3314124 3388400 3467295 3550782 3638422 3729365 3822608 3917098 
1606.975 4011876 4106153 4199280 4290708 4379933 4466463 4549693 4628746 
1610.833 4702379 4768836 4825791 4870573 4900345 4912594 4905414 4877838 
1614.690 4830016 4763273 4680015 4583502 4477605 4366431 4254077 4144263 
1618.548 4040248 3944691 3859571 3786189 3725097 3676103 3638320 3610327 
1622.405 3590338 3576520 3567211 3561179 3557578 3555956 3556117 3557959 
1626.262 3561344 3566130 3572103 3579106 3586971 3595590 3604838 3614525 
1630.120 3624371 3634036 3643218 3651716 3659571 3667093 3674747 3683162 
1633.977 3692883 3704311 3717550 3732403 3748380 3764867 3781246 3797043 
1637.835 3812067 3826505 3840834 3855781 3872001 3890012 3909903 3931396 
1641.692 3953799 3976347 3998337 4019396 4039567 4059357 4079520 4100975 
1645.550 4124620 4151157 4181072 4214523 4251345 4291069 4332925 4376059 
1649.407 4419654 4463160 4506465 4549860 4594051 4639869 4688049 4739065 
1653.264 4793108 4850280 4910780 4975163 5044404 5119733 5202359 5293288 
1657.122 5392914 5501232 5617799 5742004 5873262 6011165 6155460 6306090 
1660.979 6463090 6626658 6797102 6974742 7159780 7352109 7551071 7755456 
1664.837 7963683 8174194 8385867 8598332 8811997 9027823 9246763 9469303 
1668.694 9695132 9923217 10152194 10380872 10608745 10836302 11064833 
1672.069 11296307 11532842 11776463 12028766 12290888 12563346 12846023 
1675.445 13138202 13438734 13746206 14059453 14377743 14700879 15029064 
1678.820 15362534 15701045 16043784 16389370 16736408 17083992 17432196 
1682.195 17782090 18135420 18493720 18857906 19227750 19602290 19980432 
1685.570 20361866 20747716 21140736 21544804 21964482 22404140 22867720 
1688.946 23358526 23879440 24432994 25021660 25647860 26314204 27023828 
1692.321 27780974 28591458 29462910 30404178 31424264 32530546 33727620 
1695.696 35016932 36398076 37871316 39440500 41114840 42909012 44841020 
1699.071 46928932 49187344 51625592 54248160 57057728 60059096 63262504 
1702.447 66684144 70343832 74260576 78447840 82910192 87642728 92632576 
1705.822 97861472 103306976 108941408 114728104 120617368 126543496 
1708.715 132425880 138172464 143685056 148862480 153602368 157801840 
1711.608 161361904 164196960 166248432 167495856 167959504 167690976 
1714.501 166757952 165229136 163167696 160632816 157686480 154398048 
1717.394 150844080 147101392 143239136 139312272 135360832 131412696 
1720.287 127489272 123609376 119791152 116050920 112401328 108849528 
1723.180 105397464 102043256 98783768 95616120 92538496 89549168 86645392 
1726.555 83822760 81075248 78396752 75782536 73230584 70741656 68318120 
1729.931 65962048 63673456 61449384 59283988 57169788 55099220 53066476 
1733.306 51068140 49103568 47174028 45281812 43429032 41616772 39844872 
1736.681 38111944 36415748 34753944 33124584 31526926 29961744 28431752 
1740.056 26941394 25496396 24102826 22766242 21490774 20278586 19129792 
1743.432 18042920 17015586 16045497 15131015 14271373 13466553 12716649 
1746.807 12021212 11378921 10787405 10243514 9743782 9284809 8863379 8476658 
1750.664 8121816 7796070 7496483 7220063 6964057 6725947 6503658 6295506 
1754.522 6100309 5917357 5746395 5587542 5441116 5307314 5185748 5075367 
1758.379 4974352 4880605 4792045 4707280 4625775 4547645 4473278 4402753 
1762.237 4335556 4270594 4206602 4142766 4079085 4016557 3956677 3900881 
1766.094 3849913 3803589 3760829 3720283 3680837 3642103 3604313 3568193 
1769.951 3534286 3502833 3473486 3445609 3418642 3392258 3366513 3341481 
1773.809 3317026 3292560 3267205 3240090 3210873 3180044 3149014 3119728 
1777.666 3093951 3072870 3056381 3043474 3032279 3020772 3007402 2991353 
1781.524 2972673 2952208 2931094 2910570 2891591 2874551 2859242 2844957 
1785.381 2830576 2815104 2797773 2778571 2758185 2737763 2718636 2701817 
1789.239 2687638 2675718 2665076 2654570 2643244 2630581 2616463 2601155 
1793.096 2584903 2567883 2550090 2531628 2512620 2493483 2474752 2457036 
1796.953 2440751 2426218 2413579 2402869 2394147 2387320 2382045 2377629 
1800.811 2373031 2367189 2359289 2349311 2338116 2327268 2318478 2313008 
1804.668 2311138 2312058 2314154 2315721 2315421 2312820 2308145 2302073 
1808.526 2295166 2287644 2279181 2269430 2258070 2245131 2230779 2215070 
1812.383 2197725 2178176 2155832 2130906 2104796 2080329 2061339 2051593 
1816.240 2053657 2067993 2092608 2123670 2156710 2187941 2215133 2237778 
1820.098 2256469 2271871 2283899 2291480 2292671 2285639 2269310 2244113 
1823.955 2212012 2176272 2140710 2109046 2084079 2067267 2058439 2055956 
1827.813 2056847 2057663 2055084 2046832 2032069 2011674 1987578 1962327 
1831.670 1937960 1915751 1895887 1878002 1861622 1846636 1833319 1822068 
1835.528 1812753 1804449 1795295 1783112 1766138 1743855 1717235 1688582 
1839.385 1660801 1636406 1616785 1602155 1591545 1583609 1577019 1570844 
1843.242 1564379 1557040 1547971 1536245 1521068 1502366 1481022 1458901 
1847.100 1438325 1421458 1409402 1401760 1396752 1391511 1382968 1368840 
1850.957 1347984 1320911 1289488 1256514 1224983 1197436 1175500 1159505 
1854.815 1148729 1141757 1137096 1133936 1132265 1132896 1136917 1144961 
1858.672 1156371 1169101 1179675 1184322 1179843 1164727 1139653 1107374 
1862.530 1072115 1038472 1010422 990731 980501 979422 985863 997445 1011289 
1866.869 1024510 1034506 1039392 1038212 1031093 1018909 1003082 984961 
1870.727 965649 945774 925780 906076 887433 870898 857652 848504 843658 
1875.066 842563 844073 846846 849841 852353 854357 855960 857475 859035 
1879.406 860873 863284 866887 872438 880751 892026 905856 920912 935209 
1883.745 946591 953213 953905 948222 936374 918967 896770 870934 842616 
1888.085 813352 784672 758109 734756 715321 700201 689822 684778 686065 
1892.425 694541 710558 733110 759676 786410 809045 824047 829669 826440 
1896.764 816945 804951 794274 787764 786852 791728 801659 815601 832663 
1901.104 851914 872382 892649 911171 926105 936053 940106 938365 931498 
1905.443 920938 908203 895119 883333 874353 869208 868309 871015 875774 
1909.783 880260 882389 881006 876358 870434 866364 867255 875288 890850 
1914.123 912378 937048 961653 983452 1000724 1012468 1018136 1016804 1007462 
1918.462 988841 960612 923703 881160 837487 798299 768631 752239 750635 
1922.802 762993 786435 817219 851231 885049 916046 942707 964193 980018 
1927.141 989806 993266 990256 981478 968461 954262 942853 938787 945763 
1931.481 965916 998378 1039398 1082606 1120618 1146675 1156499 1148988 
1935.338 1127000 1095863 1062332 1032799 1012272 1003486 1007173 1022162 
1939.196 1046333 1076420 1108858 1139375 1163873 1179002 1183047 1176912 
1943.053 1164475 1152190 1147996 1158992 1189639 1240050 1305489 1377159 
1946.911 1444056 1495262 1522556 1521743 1493481 1442001 1373821 1295513 
1950.768 1212694 1128455 1044350 960622 877934 797900 724091 661291 615453 
1955.108 591635 593295 620491 669719 733818 803045 867020 916840 946903 
1959.447 956065 946654 923028 888952 845920 793251 730350 658900 586040 
1963.787 523562 486643 488294 534581 620985 732910 848767 946904 1011221 
1968.126 1035180 1021109 976936 910957 829414 734810 629923 520144 416546 
1972.466 334709 289529 290492 337463 420315 525051 639406 759901 892599 
1976.806 1048251 1232655 1438425 1642103 1809870 1909373 1922649 1851057 
1980.663 1714997 1544516 1370936 1216096 1089217 986512 897319 810174 719183 
1985.003 626017 539335 470758 430686 424916 454259 514179 596754 691849 
1989.342 788564 876129 945663 990716 1009798 1005656 984199 952015 914328 
1993.682 872763 826341 772581 710676 642651 573334 508226 451787 404507 
1998.021 363785 325155 285236 242750 198685 152841 101962 37493 -52250 
2002.361 -177061 -338448 -524550 -709745 -860037 -942509 -936636 -841652 
2006.219 -679157 -485931 -302342 -159771 -72885 -39236 -45712 -76902 -121564 
2010.558 -173651 -230603 -288270 -338489 -369178 -369632 -334472 -269253 
2014.416 -189543 -117449 -74882 -76868 -126426 -215363 -325625 -436033 
2018.273 -526277 -582033 -596374 -570332 -511316 -431615 -344546 -263586 
2022.130 -198464 -154927 -134459 -136633 -160386 -206504 -276407 -371005 
2025.988 -486476 -612326 -731124 -821705 -865111 -851081 -782377 -675149 
2029.845 -554547 -447677 -375849 -349389 -366488 -416765 -485283 -557926 
2033.703 -622962 -672165 -699944 -702498 -677415 -626400 -554983 -474142 
2037.560 -397484 -338288 -305548 -301311 -319153 -346136 -366748 -366726 
2041.417 -336416 -273680 -182909 -74571 38333 142495 228370 291064 332941 
2045.757 362437 392159 435534 503266 599060 718327 847917 969726 1065206 
2050.097 1119876 1127144 1088925 1014720 919698 821713 739097 687052 674918 
2054.436 703674 765896 847143 930546 1000767 1048539 1071478 1074165 1064672 
2058.776 1051772 1041408 1035963 1034182 1033657 1032441 1030285 1028239 
2062.633 1027663 1028374 1028621 1025271 1016267 1002050 986541 976142 
2066.491 977574 994980 1028118 1072142 1119746 1163765 1200064 1228767 
2070.348 1253855 1280631 1313061 1351461 1392153 1427936 1450953 1454747 
2074.206 1436900 1399407 1348832 1294726 1247866 1217682 1210675 1228686 
2078.063 1268798 1323487 1382698 1435694 1473867 1492315 1490607 1472102 
2081.920 1442349 1407084 1370836 1335972 1303271 1272414 1242654 1213548 
2085.778 1184935 1156577 1128390 1100297 1072955 1047548 1025859 1009485 
2089.635 998783 991956 985484 974716 955680 926786 889773 849343 811998 
2093.975 783699 768419 766972 777553 796910 821649 849239 878070 906720 
2098.314 933728 957227 975830 989099 998577 1006927 1017246 1031457 1049285 
2102.654 1068329 1085433 1098209 1106391 1112164 1119112 1129736 1144274 
2106.511 1159272 1169040 1167787 1152181 1123417 1087075 1051467 1024975 
2110.369 1013260 1017855 1036444 1064156 1095756 1127139 1155740 1180333 
2114.226 1199598 1211948 1214958 1206342 1184818 1151237 1108537 1061287 
2118.084 1014310 971592 935087 904623 878069 852532 824813 792446 753952 
2122.423 709149 659120 606071 552724 502342 457596 420520 391497 369819 
2126.763 353300 339125 323878 304296 277112 239618 189451 125329 47443 
2131.103 -42221 -139441 -237808 -329476 -406018 -460018 -485559 -480202 
2134.960 -444802 -384038 -305603 -219743 -136981 -67838 -20050 970 -6065 
2139.300 -39563 -94541 -164334 -239802 -310859 -366274 -395225 -389397 
2143.157 -345831 -269088 -173019 -78646 -10596 9689 -30278 -129816 -275030 
2147.497 -442032 -604639 -741227 -840549 -902818 -938547 -962779 -991225 
2151.354 -1035946 -1105836 -1206488 -1341973 -1515158 -1726542 -1970971 
2154.729 -2236087 -2500319 -2735942 -2912098 -3001901 -2987870 -2866993 
2158.104 -2653186 -2374828 -2069256 -1775071 -1522696 -1331884 -1208278 
2161.480 -1148470 -1141212 -1171197 -1220301 -1269429 -1301148 -1302088 
2164.855 -1265169 -1192848 -1095901 -992554 -902643 -843026 -821209 -833917 
2168.712 -865983 -895468 -900181 -865235 -788020 -680532 -564676 -466344 
2172.570 -405287 -389525 -412903 -458960 -507860 -544821 -565493 -576553 
2176.427 -589997 -616551 -658406 -707653 -748476 -764168 -743872 -687776 
2180.285 -607100 -519895 -444174 -392139 -365999 -359704 -362947 -365960 
2184.142 -362696 -351585 -333311 -308623 -275779 -232251 -175534 -107169 
2188.000 -33304 35688 88086 114982 113481 88246 50637 14870 -6390 -5563 
2192.821 17227 54604 94653 124720 135502 124017 94897 58280 26605 10410 
2197.643 14461 35627 64329 87699 95406 83505 57469 30618 20126 40214 96985 
2202.947 184759 287543 383211 450847 476822 459157 407309 339017 273868 
2207.287 228400 211866 225464 263980 319454 383680 450949 517698 582356 
2211.626 643175 697289 740863 769802 781370 775728 756046 728122 698360 
2215.966 672277 652170 637663 625615 612831 597261 579795 564150 555019 
2220.305 556626 570417 593982 622201 648291 667139 676414 677422 674133 
2224.645 671243 672242 677645 685502 692516 695445 692831 684973 674154 
2228.985 662633 652632 645327 641547 642020 648105 660969 681101 707051 
2233.324 735360 760937 779181 787896 788536 786526 789481 804535 835521 
2237.664 880998 934437 985627 1023813 1040367 1031312 997755 945338 882359 
2242.003 817918 760157 715033 685772 673394 676624 693068 719654 753667 
2246.343 792891 835954 881436 927410 970603 1006404 1029474 1035239 1021884 
2250.683 991778 951786 912396 885217 880097 901966 949450 1014746 1085634 
2255.022 1148575 1192459 1211343 1205865 1182748 1152740 1127389 1115959 
2258.880 1123094 1148014 1185007 1225927 1262412 1288966 1303949 1309848 
2262.737 1311699 1315543 1325903 1344877 1371790 1403914 1437539 1468743 
2266.594 1494076 1510197 1513906 1502484 1474517 1431122 1376891 1319970 
2270.452 1270753 1239794 1234768 1258525 1307981 1375258 1449466 1519865 
2274.309 1578254 1620358 1645886 1657597 1659843 1657203 1653825 1652802 
2278.167 1656244 1665516 1680952 1702006 1727262 1754720 1782334 1808182 
2282.024 1830889 1849512 1863266 1871408 1873137 1868049 1856363 1839529 
2285.882 1819890 1800278 1783206 1769818 1759636 1750724 1740419 1726453 
2289.739 1707744 1684971 1660133 1635947 1614767 1598243 1586654 1579500 
2293.596 1575725 1574334 1574479 1575521 1576872 1577767 1577271 1574348 
2297.454 1568283 1558806 1546216 1531240 1514953 1498307 1482143 1467074 
2301.311 1453462 1441688 1432054 1425025 1421019 1420365 1423210 1429332 
2305.169 1437983 1447979 1457562 1464869 1468200 1466552 1459805 1449152 
2309.026 1436486 1424289 1414736 1409371 1408788 1412693 1420275 1430596 
2312.884 1442850 1456596 1471547 1487448 1504128 1521348 1539076 1557485 
2316.741 1576863 1597408 1618971 1641134 1663412 1685915 1709752 1737328 
2320.598 1771621 1815068 1867734 1926197 1983054 2028147 2050720 2042400 
2324.456 1999233 1923093 1821089 1704144 1584523 1473591 1379798 1307647 
2328.313 1257542 1226706 1210510 1203808 1202276 1202736 1203305 1203101 
2332.171 1201793 1199469 1196267 1192587 1188561 1184424 1180176 1175707 
2336.028 1170860 1165667 1160448 1155964 1153186 1153111 1156492 1163425 
2339.885 1173256 1184614 1195694 1204701 1210107 1211205 1208147 1202063 
2343.743 1194815 1188546 1185309 1186441 1192291 1201998 1213740 1225204 
2347.600 1234037 1238645 1238419 1233891 1226596 1218637 1212251 1209260 
2351.458 1210888 1217571 1228698 1243121 1258950 1274029 1286327 1294342 
2355.315 1297420 1296026 1291611 1286118 1281375 1278632 1278110 1279107 
2359.173 1280160 1279804 1276891 1271046 1262380 1251532 1239050 1225273 
2363.030 1210311 1194260 1177579 1161203 1146583 1135294 1128598 1127108 
2366.887 1130501 1137694 1147247 1157789 1168177 1177839 1186585 1194437 
2370.745 1201411 1207641 1213277 1218773 1224692 1231673 1240073 1249855 
2374.602 1260367 1270612 1279405 1286017 1290129 1292177 1293029 1293666 
2378.460 1294926 1297288 1300784 1305096 1309665 1313790 1316677 1317559 
2382.317 1315811 1311232 1304132 1295630 1287198 1280547 1276909 1276783 
2386.175 1279586 1284184 1289040 1293009 1295473 1296528 1296325 1294943 
2390.032 1291877 1286252 1277232 1264615 1249349 1233420 1219309 1209197 
2393.889 1204024 1203135 1204533 1205659 1204352 1199815 1192586 1184342 
2397.747 1176987 1171864 1169134 1167890 1166621 1163896 1158958 1152024 
2401.604 1144089 1136659 1131141 1128672 1129784 1134560 1142423 1152199 
2405.462 1162285 1170829 1176151 1177323 1174429 1168799 1162521 1157799 
2409.319 1155948 1156979 1159504 1161230 1159790 1153817 1143284 1129533 
2413.177 1114549 1100467 1088628 1079590 1073176 1069097 1067127 1067381 
2417.034 1070037 1075162 1082337 1090755 1099443 1107674 1115009 1121221 
2420.891 1125790 1127692 1125249 1116607 1100442 1077103 1048730 1019470 
2424.749 994245 977564 972097 978001 992698 1011909 1030692 1044684 1050784 
2429.088 1047806 1035933 1016741 992667 966849 942596 923184 910920 907028 
2433.428 910924 920629 933147 945484 955588 962683 967419 971187 975128 
2437.768 979658 983839 985999 984122 976762 963509 945242 923781 901386 
2442.107 880309 862474 849164 841269 839329 843732 854579 871844 895061 
2446.447 923319 954982 987634 1017941 1042247 1056850 1059123 1048191 
2450.304 1025599 995224 962568 933400 912358 901768 901281 908165 918480 
2454.644 928258 934693 936346 933304 926508 917115 906135 894577 883245 
2458.983 873084 865089 860083 858476 860198 864584 870921 878502 886959 
2463.323 895997 905161 913416 919246 920801 916878 907423 893845 878846 
2467.663 865673 856807 853289 854107 856897 858475 856308 849072 837196 
2472.002 822445 807228 793947 784410 779410 778968 782275 788177 795066 
2476.342 801469 806065 808339 808480 807661 807437 809423 814424 822299 
2480.681 831785 840993 848151 852054 852534 850171 846015 841128 836181 
2485.021 831771 828547 827471 829740 836535 848342 864559 883344 902065 
2489.361 917927 929004 934585 935532 933631 931064 929628 930358 933438 
2493.700 938377 944085 949387 952806 953049 948978 940325 927864 913664 
2498.040 900870 892798 892127 899922 915155 935093 955977 974356 987701 
2502.379 995271 997539 995889 991811 986459 980770 975566 971892 971333 
2506.719 975467 985495 1001640 1022785 1046367 1069032 1087065 1097531 
2510.576 1098489 1089608 1072219 1048994 1023740 1000742 984034 976626 
2514.434 979847 992874 1013066 1036576 1059451 1078652 1092774 1102286 
2518.291 1108582 1113448 1117920 1122022 1124573 1124198 1119923 1111942 
2522.149 1101788 1091978 1085162 1083309 1086996 1095348 1106145 1116863 
2526.006 1125126 1129628 1130478 1129256 1128625 1131633 1140781 1157241 
2529.864 1180250 1207222 1233906 1255754 1268797 1270983 1262515 1245955 
2533.721 1225359 1205107 1188653 1177800 1172369 1170596 1170020 1168365 
2537.578 1164381 1158313 1151675 1146844 1146237 1151633 1163505 1180905 
2541.436 1201659 1223098 1242657 1258938 1271818 1282358 1292264 1302883 
2545.293 1314317 1325313 1333359 1335670 1330431 1317476 1298657 1277383 
2549.151 1257428 1241827 1232039 1227726 1227172 1228456 1230013 1231451 
2553.008 1233257 1236622 1242631 1252024 1264657 1279943 1296608 1313221 
2556.865 1327880 1338601 1343450 1341053 1331224 1315368 1296522 1278909 
2560.723 1266595 1262464 1267106 1278739 1293650 1307589 1316928 1319883 
2564.580 1316667 1309115 1299840 1291294 1285085 1281782 1281136 1282530 
2568.438 1285112 1288229 1291158 1293485 1295020 1296288 1298367 1302990 
2572.295 1311874 1326240 1345859 1369123 1392944 1413824 1428805 1436308 
2576.153 1436628 1431649 1424073 1416468 1410713 1407360 1406014 1405913 
2580.010 1406150 1406395 1406676 1407449 1409185 1412221 1416479 1421641 
2583.867 1426849 1431061 1433054 1431708 1426378 1417376 1405984 1394538 
2587.725 1385605 1381392 1382683 1388577 1396402 1402753 1404535 1400415 
2591.582 1391200 1379852 1370483 1366868 1371027 1382645 1398862 1415628 
2595.440 1428789 1435509 1435070 1428923 1420011 1411724 1406861 1407078 
2599.297 1412380 1421747 1433345 1445087 1455211 1462370 1465689 1465061 
2603.155 1460763 1453684 1445084 1436453 1429290 1424842 1423829 1426489 
2607.012 1432464 1441120 1451600 1463196 1475227 1487176 1498429 1508434 
2610.869 1516532 1522197 1524986 1524890 1522136 1517318 1511069 1504203 
2614.727 1497326 1491202 1486454 1483901 1484306 1488409 1496461 1508216 
2618.584 1522658 1538294 1553375 1566414 1576438 1583376 1587727 1590362 
2622.442 1592153 1593723 1595285 1596928 1598782 1601192 1604715 1609933 
2626.299 1616954 1625398 1634112 1641645 1646672 1648539 1647524 1644927 
2630.156 1642356 1641454 1642940 1646700 1651451 1655736 1657933 1657299 
2634.014 1653662 1647624 1640017 1631619 1622776 1613619 1604230 1594768 
2637.871 1585931 1578608 1573702 1571773 1572779 1575895 1579758 1582992 
2641.729 1584390 1583605 1580929 1577462 1574553 1573410 1574816 1578764 
2645.586 1584553 1590957 1596430 1599585 1599494 1595897 1589230 1580630 
2649.444 1571574 1563520 1557583 1554314 1553475 1554319 1555697 1556416 
2653.301 1555621 1552954 1548521 1542901 1536788 1530826 1525352 1520464 
2657.158 1515861 1511069 1505445 1498454 1489515 1478370 1464802 1448982 
2661.016 1431283 1412313 1392875 1373942 1356274 1340565 1327093 1315976 
2664.873 1306989 1299804 1294073 1289519 1285892 1282988 1280575 1278223 
2668.731 1275566 1272274 1268193 1263602 1259026 1255326 1253361 1253855 
2672.588 1257080 1262983 1270885 1279911 1289039 1297211 1303559 1307407 
2676.446 1308306 1306093 1301018 1293698 1285137 1276646 1269508 1264844 
2680.303 1263249 1264769 1268787 1274449 1280564 1286150 1290399 1292959 
2684.160 1293713 1292857 1290877 1288446 1286382 1285515 1286412 1289317 
2688.018 1293844 1299119 1303893 1306974 1307641 1305847 1302178 1297740 
2691.875 1293626 1290638 1288956 1288330 1288191 1288123 1287966 1287935 
2695.733 1288246 1288983 1289854 1290338 1289828 1288232 1286076 1284615 
2699.590 1285369 1289560 1297444 1308073 1319385 1328910 1334291 1334511 
2703.448 1329893 1322166 1313875 1307549 1305008 1306863 1312564 1320715 
2707.305 1329532 1337427 1343292 1346708 1347747 1346952 1345093 1342998 
2711.162 1341483 1341213 1342560 1345608 1350048 1355344 1360816 1365916 
2715.020 1370299 1374029 1377459 1381191 1385708 1391292 1397836 1404782 
2718.877 1411285 1416405 1419228 1419397 1417058 1413066 1408771 1405890 
2722.735 1405847 1409739 1417688 1429001 1442211 1455528 1467305 1476518 
2726.592 1482880 1486939 1489746 1492545 1496242 1501332 1507752 1514981 
2730.449 1522258 1528841 1534117 1537752 1539675 1540075 1539301 1537902 
2734.307 1536338 1535049 1534089 1533313 1532261 1530409 1527344 1523074 
2738.164 1518096 1513327 1509852 1508693 1510320 1514696 1521144 1528652 
2742.022 1536053 1542370 1546913 1549156 1548811 1545666 1539672 1531143 
2745.879 1520751 1509803 1499976 1493077 1490694 1493445 1501020 1511947 
2749.737 1524078 1535097 1543130 1547131 1547171 1544265 1539861 1535575 
2753.594 1532527 1531344 1531963 1533997 1536809 1539797 1542601 1544962 
2757.451 1546769 1547891 1548097 1547210 1545119 1541869 1537840 1533708 
2761.309 1530250 1528238 1528152 1530097 1533665 1538134 1542568 1546298 
2765.166 1548887 1550466 1551554 1552929 1555299 1559109 1564323 1570534 
2769.024 1576961 1582842 1587414 1590397 1591743 1591713 1590724 1589232 
2772.881 1587526 1585838 1584214 1582654 1581215 1579972 1579072 1578796 
2776.739 1579416 1581209 1584468 1589275 1595671 1603394 1612053 1621070 
2780.596 1629886 1637967 1644884 1650448 1654464 1656891 1657711 1656922 
2784.453 1654628 1651285 1647511 1644390 1643047 1644482 1649326 1657551 
2788.311 1668543 1681170 1694093 1706318 1717190 1726668 1735071 1742896 
2792.168 1750424 1757635 1764145 1769437 1773133 1775111 1775690 1775545 
2796.026 1775344 1775669 1776746 1778529 1780698 1782952 1785132 1787360 
2799.883 1789984 1793324 1797663 1803050 1809145 1815516 1821541 1826870 
2803.740 1831305 1834902 1837982 1840977 1844181 1847821 1851773 1855868 
2807.598 1859663 1862883 1865310 1866972 1868058 1868823 1869493 1870088 
2811.455 1870428 1870238 1869206 1867321 1864726 1861950 1859618 1858299 
2815.313 1858172 1859172 1860845 1862680 1864269 1865697 1867248 1869645 
2819.170 1873512 1879258 1886762 1895531 1904788 1913755 1921936 1929199 
2823.028 1935771 1942213 1949057 1956825 1965927 1976651 1989130 2003479 
2826.885 2019540 2036999 2055065 2072712 2088756 2102175 2112281 2119099 
2830.742 2123258 2125891 2128191 2131255 2135590 2141188 2147552 2154062 
2834.600 2160201 2166008 2171989 2179024 2188272 2200442 2215824 2234017 
2838.457 2253963 2274292 2293673 2311155 2326372 2339687 2351828 2363830 
2842.315 2376682 2391076 2407436 2425984 2446704 2469530 2494195 2520356 
2846.172 2547300 2574212 2600039 2623933 2645363 2664402 2681617 2698078 
2850.030 2714912 2733233 2753715 2776738 2802287 2830237 2860321 2892097 
2853.887 2924916 2957823 2989577 3018839 3044530 3066188 3084151 3099715 
2857.744 3114704 3130961 3149956 3172419 3198199 3226589 3256737 3288157 
2861.602 3320813 3355309 3392544 3433334 3478121 3526726 3578530 3632611 
2865.459 3687975 3744194 3801102 3859024 3918600 3980451 4045013 4112429 
2869.317 4182518 4254961 4329381 4405582 4483601 4563617 4645883 4730377 
2873.174 4816675 4903842 4990327 5074408 5154305 5228734 5296828 5358466 
2877.031 5413851 5463373 5507379 5545991 5579361 5607690 5631685 5652565 
2880.889 5671916 5691577 5713035 5737184 5764084 5793099 5823172 5853151 
2884.746 5882143 5909660 5935656 5960353 5984018 6006942 6029185 6050645 
2888.604 6071091 6090019 6106623 6119998 6128933 6132400 6129549 6120188 
2892.461 6104488 6083249 6057482 6028239 5996258 5962173 5926417 5889664 
2896.319 5852910 5817440 5784724 5756246 5732900 5715150 5702862 5695509 
2900.176 5692364 5692837 5696308 5702153 5709459 5717159 5723956 5728834 
2904.033 5731185 5731271 5729995 5728710 5728553 5729906 5732136 5733420 
2907.891 5731265 5723111 5707008 5682251 5649375 5610287 5567500 5523897 
2911.748 5481967 5443604 5409802 5380693 5355577 5333117 5311651 5289566 
2915.606 5265587 5239175 5210546 5180797 5151527 5124490 5101206 5082567 
2919.463 5068839 5059738 5054753 5053342 5055304 5060642 5069539 5082257 
2923.321 5098925 5119462 5143630 5171423 5202765 5237903 5277022 5320402 
2927.178 5367978 5419403 5473974 5530926 5589391 5648724 5708478 5768595 
2931.035 5829123 5890371 5952808 6017045 6083742 6153522 6226761 6303631 
2934.893 6383688 6466073 6549599 6633063 6715520 6796660 6876921 6957442 
2938.750 7039788 7125476 7215587 7310606 7410155 7513346 7619095 7726452 
2942.608 7835021 7944973 8057015 8172028 8290636 8412848 8537949 8664630 
2946.465 8791255 8916473 9039588 9160971 9281842 9404147 9529828 9660507 
2950.323 9796888 9938767 10084813 10233392 10382438 10530227 10675392 
2953.698 10817111 10955161 11089812 11221793 11352085 11481756 11611715 
2957.073 11742605 11874506 12006935 12139055 12269743 12397987 12523024 
2960.448 12644325 12761386 12873632 12980004 13079160 13169485 13249655 
2963.823 13319065 13377990 13427703 13469912 13506363 13537998 13564584 
2967.199 13584745 13596097 13596012 13582231 13553528 13509944 13452829 
2970.574 13384342 13307084 13223386 13134840 13042004 12944514 12841170 
2973.949 12730463 12611102 12482544 12345203 12200436 12049986 11895675 
2977.324 11738339 11577705 11412230 11239749 11058201 10866629 10665773 
2980.700 10458239 10247985 10039340 9835925 9639860 9451281 9268729 9089653 
2984.557 8911565 8732612 8552032 8370256 8188426 8008142 7831041 7658484 
2988.415 7491664 7331324 7178009 7031607 6891486 6756370 6624657 6494716 
2992.272 6365406 6236590 6109130 5984748 5865653 5753612 5649653 5553586 
2996.129 5464269 5379961 5298775 5219226 5140579 5062597 4985554 4909793 
2999.987 4835589 4763084 4692195 4622867 4555234 4489406 4425535 4363715 
3003.844 4303672 4244872 4186686 4128241 4068951 4008530 3947110 3885456 
3007.702 3824702 3766339 3711797 3662131 3617686 3577814 3540893 3504493 
3011.559 3466135 3423730 3376479 3325023 3271575 3219114 3170833 3129040 
3015.417 3094622 3066739 3043333 3021550 2998925 2973667 2945267 2914154 
3019.274 2881485 2848352 2815545 2783145 2750773 2717663 2683252 2647236 
3023.131 2609982 2572185 2535082 2499805 2467509 2438867 2414132 2393030 
3026.989 2374834 2358607 2343581 2329206 2315501 2302990 2292528 2284996 
3030.846 2280853 2279897 2281170 2282953 2283572 2281277 2275012 2264512 
3034.704 2250379 2233859 2216467 2199808 2185222 2173763 2166148 2162727 
3038.561 2163817 2169585 2180106 2195321 2214978 2238496 2264969 2293136 
3042.418 2321760 2349721 2376546 2402605 2429057 2457722 2490546 2529157 
3046.276 2574296 2625570 2681690 2740677 2800626 2860033 2917956 2973999 
3050.133 3027830 3078958 3126374 3168624 3204301 3232256 3252275 3264920 
3053.991 3271419 3273139 3271156 3266058 3257878 3246603 3232534 3216594 
3057.848 3200474 3186157 3175459 3169399 3167998 3170128 3174179 3178461 
3061.706 3181891 3184283 3186333 3189215 3194011 3201221 3210451 3220424 
3065.563 3229265 3235123 3236662 3233340 3225674 3214831 3202454 3190209 
3069.420 3179336 3170524 3164032 3159684 3157357 3156883 3158254 3161669 
3073.278 3167159 3174487 3183142 3192238 3200794 3207778 3212353 3214005 
3077.135 3212671 3208589 3202438 3194978 3187267 3180191 3174408 3170035 
3080.993 3166653 3163093 3157837 3149119 3135641 3116724 3092511 3063873 
3084.850 3032179 2998706 2964510 2930123 2895808 2861690 2828071 2795568 
3088.708 2765142 2737962 2714905 2696493 2682706 2672854 2665852 2660239 
3092.565 2654633 2647720 2638705 2627397 2614446 2601209 2589642 2581775 
3096.422 2579280 2583029 2592783 2607219 2624372 2642140 2658742 2673151 
3100.280 2684809 2693601 2699450 2702187 2701600 2697720 2691049 2682645 
3104.137 2673871 2665998 2659728 2654674 2649576 2642461 2631503 2615556 
3107.995 2594587 2569522 2542092 2514030 2486919 2461758 2438976 2418930 
3111.852 2401693 2387297 2375512 2365582 2356216 2345715 2332397 2315086 
3115.709 2293615 2268927 2242840 2217621 2195528 2178114 2166365 2160358 
3119.567 2159726 2163662 2171130 2180817 2191318 2201223 2209596 2216016 
3123.424 2220923 2225348 2230648 2237644 2246380 2255519 2262817 2265547 
3127.282 2261314 2248808 2228271 2201304 2170574 2139145 2109758 2084539 
3131.139 2064709 2050754 2042442 2038963 2039066 2041151 2043267 2043508 
3134.997 2040205 2032337 2019551 2002355 1982003 1960055 1938368 1918554 
3138.854 1902154 1890022 1882549 1879452 1879656 1881570 1883283 1882918 
3142.711 1879237 1871692 1860660 1847101 1832305 1817379 1803157 1790031 
3146.569 1778328 1768396 1760893 1756651 1756339 1760106 1767362 1776471 
3150.426 1785425 1792161 1795175 1793905 1788825 1781055 1771940 1762462 
3154.284 1753130 1743892 1734376 1724359 1713970 1703674 1694318 1686654 
3158.141 1681170 1677804 1676216 1675656 1675626 1675818 1676476 1678121 
3161.999 1681590 1687447 1695990 1706712 1718616 1730131 1739517 1745337 
3165.856 1746825 1744052 1738005 1730141 1722103 1715095 1709680 1705741 
3169.713 1702640 1699752 1696894 1694376 1692953 1693551 1696564 1701739 
3173.571 1708119 1714160 1718382 1719825 1718286 1714232 1708514 1701890 
3177.428 1694794 1687174 1678860 1669914 1660977 1653318 1648578 1648167 
3181.286 1652779 1662002 1674388 1687685 1699717 1708710 1713946 1715562 
3185.143 1714390 1711529 1707791 1703678 1699328 1694764 1689995 1685310 
3189.000 1681158 1678000 1676232 1675929 1677135 1679668 1683615 1689201 
3192.858 1696791 1706580 1718354 1731119 1743320 1752910 1757861 1756968 
3196.715 1750197 1738897 1725782 1714016 1706646 1705520 1710874 1721104 
3200.573 1733163 1743497 1748883 1747310 1738430 1723562 1705179 1686147 
3204.430 1669004 1655361 1645637 1639156 1634802 1631243 1627553 1623540 
3208.288 1619751 1617413 1618043 1622999 1633003 1647800 1665941 1684973 
3212.145 1701859 1713740 1718599 1715882 1706653 1693326 1679035 1666608 
3216.002 1658026 1653713 1652948 1653993 1655191 1655406 1654543 1653420 
3219.860 1653452 1655934 1661560 1670125 1680530 1691143 1700226 1706502 
3223.717 1709449 1709251 1706986 1704073 1702045 1702277 1705291 1710968 
3227.575 1718336 1725815 1731693 1734573 1733770 1729598 1723224 1716264 
3231.432 1710289 1706122 1703785 1702240 1700043 1695633 1688218 1677851 
3235.290 1665757 1653834 1644175 1638626 1638111 1642522 1650843 1661240 
3239.147 1671663 1680135 1685198 1686079 1682819 1676168 1667298 1657632 
3243.004 1648409 1640685 1634905 1631167 1629246 1628835 1629643 1631647 
3246.862 1635013 1639991 1646690 1654949 1664267 1673501 1681333 1686246 
3250.719 1687019 1682942 1674230 1661951 1647881 1634146 1622513 1614204 
3254.577 1609404 1607406 1607055 1607293 1607651 1608620 1611249 1616892 
3258.434 1626261 1638975 1653311 1666472 1675583 1678291 1673816 1663008 
3262.292 1648327 1632965 1619995 1611561 1608550 1610615 1616531 1624781 
3266.149 1634074 1643468 1652417 1660404 1667025 1671556 1673271 1671479 
3270.006 1665893 1656809 1645114 1632462 1620860 1612359 1608692 1610827 
3273.864 1618502 1630394 1644002 1656331 1664679 1667296 1664082 1656593 
3277.721 1647740 1640830 1638642 1642400 1651501 1663751 1676114 1685589 
3281.579 1690260 1689562 1684231 1675750 1665870 1655734 1645959 1636777 
3285.436 1628275 1620828 1615185 1612184 1612332 1615576 1620959 1626927 
3289.293 1631807 1634273 1633917 1631168 1627105 1622932 1619529 1617228 
3293.151 1615865 1614976 1614175 1613429 1612814 1612620 1612723 1612683 
3297.008 1611693 1609044 1604352 1598121 1591624 1586584 1584760 1587247 
3300.866 1594224 1604843 1617612 1630773 1643120 1653855 1662944 1670673 
3304.723 1677464 1683526 1688813 1693050 1695968 1697435 1697583 1696621 
3308.581 1694894 1692668 1690273 1688056 1686294 1685385 1685575 1686786 
3312.438 1688686 1690531 1691455 1690824 1688525 1684937 1680981 1677558 
3316.295 1675290 1673954 1672819 1670716 1666699 1660657 1653545 1647199 
3320.153 1644000 1645897 1653871 1667548 1685217 1704218 1721801 1735602 
3324.010 1744348 1747722 1746382 1741483 1734430 1726573 1719014 1712704 
3327.868 1708210 1705914 1705692 1707145 1709692 1712552 1715033 1716901 
3331.725 1718166 1719264 1720607 1722410 1724458 1726071 1726388 1724525 
3335.583 1720211 1713917 1706838 1700753 1697441 1698178 1703348 1712179 
3339.440 1723017 1733535 1741503 1745093 1743417 1736531 1725295 1711187 
3343.297 1695979 1681384 1668949 1659830 1654722 1653716 1656253 1660911 
3347.155 1665704 1668143 1666004 1657749 1643174 1623658 1601827 1581161 
3351.012 1564924 1555430 1553274 1557415 1565364 1574305 1581720 1586307 
3354.870 1587996 1587875 1587407 1587680 1589066 1591116 1592896 1593418 
3358.727 1592386 1590173 1587937 1586837 1587763 1590749 1594951 1598998 
3362.584 1601412 1601135 1597973 1592298 1585078 1577190 1569324 1561692 
3366.442 1554340 1547268 1540770 1535499 1532380 1532137 1535245 1541444 
3370.299 1549869 1559109 1567652 1574121 1577666 1578095 1575847 1571937 
3374.157 1567585 1564069 1562212 1562289 1563823 1565822 1567120 1566812 
3378.014 1564784 1561761 1559279 1559049 1562373 1569592 1579768 1591193 
3381.872 1601830 1610272 1616167 1620319 1624279 1629409 1636252 1644095 
3385.729 1651249 1655546 1655351 1650071 1640397 1627997 1614800 1602497 
3389.586 1592224 1584582 1580107 1579275 1582952 1591584 1605024 1621789 
3393.444 1639288 1654201 1663637 1666034 1661982 1654105 1646272 1642409 
3397.301 1645271 1655591 1672177 1692335 1713048 1731718 1747079 1759024 
3401.159 1768648 1777476 1787197 1799079 1814000 1832272 1853635 1877315 
3405.016 1902102 1926283 1948222 1966361 1979841 1988554 1993344 1995709 
3408.874 1997651 2001082 2007663 2018175 2032666 2050199 2069298 2088359 
3412.731 2106338 2123223 2140447 2160581 2186728 2221238 2264750 2315414 
3416.588 2369227 2420806 2464935 2498252 2520260 2533290 2541645 2550049 
3420.446 2562122 2579458 2601531 2626417 2652180 2677596 2702619 2728266 
3424.303 2755680 2785362 2816711 2848087 2877419 2902781 2923002 2937810 
3428.161 2947642 2953120 2954844 2953069 2948071 2940081 2929712 2917857 
3432.018 2905500 2893513 2882311 2872011 2862406 2853365 2844777 2836777 
3435.875 2829634 2823580 2818858 2815529 2813683 2813103 2813288 2813404 
3439.733 2811964 2807166 2797350 2781410 2759392 2732819 2704198 2676411 
3443.590 2651885 2631710 2615424 2601074 2586164 2568267 2546092 2519489 
3447.448 2489574 2458147 2427077 2397933 2371794 2349018 2329468 2312527 
3451.305 2297255 2282352 2266599 2248764 2228256 2205132 2180135 2154439 
3455.163 2129344 2105791 2084324 2064898 2047455 2031890 2018436 2007708 
3459.020 2000206 1996338 1995954 1998185 2001844 2005343 2007214 2006052 
3462.877 2001018 1991587 1977910 1960649 1941129 1921048 1902278 1886470 
3466.735 1874684 1867093 1863247 1862214 1862973 1864815 1867262 1869990 
3470.592 1872578 1874363 1874484 1872229 1867375 1860365 1852165 1843904 
3474.450 1836237 1828975 1821222 1811823 1799952 1786004 1771540 1758845 
3478.307 1750310 1747229 1749395 1755108 1761907 1767483 1770529 1771054 
3482.165 1770190 1769455 1769828 1771510 1773799 1775586 1776007 1774851 
3486.022 1772806 1771052 1770841 1773015 1777856 1785071 1794020 1803897 
3489.879 1813928 1823179 1830653 1835180 1835831 1832196 1824707 1814710 
3493.737 1804336 1795869 1791137 1791045 1795440 1803154 1812548 1821873 
3497.594 1829865 1835865 1839884 1842426 1844253 1846326 1849457 1854279 
3501.452 1861064 1869554 1879186 1889080 1898366 1906338 1912573 1916952 
3505.309 1919545 1920408 1919602 1917336 1914035 1910673 1908523 1909209 
3509.167 1913992 1923510 1937496 1954773 1973660 1992495 2009946 2025246 
3513.024 2038051 2047969 2054575 2056969 2054548 2047110 2035444 2021496 
3516.881 2008066 1998092 1993985 1996833 2006462 2021316 2039000 2057081 
3520.739 2073490 2086877 2096862 2103728 2108370 2112126 2116215 2121749 
3524.596 2129227 2138436 2148513 2158072 2165737 2170526 2172292 2171510 
3528.454 2169353 2167005 2165521 2165426 2166932 2170076 2174917 2181658 
3532.311 2190456 2201287 2213558 2226368 2238707 2249922 2260118 2270128 
3536.168 2281234 2294615 2310572 2328247 2345870 2361059 2371907 2377506 
3540.026 2378294 2375711 2371770 2368375 2366815 2367578 2370701 2375828 
3543.883 2382746 2391323 2401299 2412173 2423134 2433144 2441199 2446725 
3547.741 2449744 2450950 2451258 2451556 2452474 2454014 2455782 2457072 
3551.598 2457250 2455754 2452200 2446207 2437675 2426510 2413011 2397774 
3555.456 2382021 2367185 2354824 2346181 2342155 2342736 2347470 2355342 
3559.313 2365001 2374891 2383358 2388629 2388988 2383032 2370111 2350501 
3563.170 2325818 2298628 2272262 2249884 2233842 2225144 2223227 2226165 
3567.028 2231382 2236456 2239721 2240755 2240194 2239261 2239119 2240322 
3570.885 2242413 2244144 2243979 2240763 2234245 2225154 2215233 2206355 
3574.743 2199973 2196269 2194258 2191622 2185788 2174424 2156352 2131834 
3578.600 2102758 2072106 2043471 2020336 2005562 2000485 2005153 2017854 
3582.458 2035538 2054286 2070167 2079856 2081543 2075251 2062686 2046640 
3586.315 2030278 2016164 2005924 1999849 1997456 1997809 2000282 2004622 
3590.172 2010964 2019561 2030524 2043323 2056994 2070285 2081926 2090990 
3594.030 2096991 2099964 2100379 2098849 2096245 2093290 2090514 2088210 
3597.887 2086267 2084444 2082500 2080555 2079480 2080460 2085006 2094161 
3601.745 2108072 2125242 2143302 2159165 2170507 2176343 2177797 2177325 
3605.602 2178343 2183395 2193624 2207842 2223521 2237459 2247182 2251667 
3609.459 2251725 2249623 2247934 2248853 2253717 2262443 2273977 2286742 
3613.317 2298927 2308687 2314633 2315562 2311300 2302406 2290665 2278630 
3617.174 2269304 2265277 2267914 2277193 2291719 2309316 2327882 2346053 
3621.032 2363439 2380320 2397061 2413503 2428915 2441869 2451206 2456374 
3624.889 2458043 2457760 2457599 2459304 2463842 2470945 2479320 2487294 
3628.747 2493414 2496677 2496789 2493980 2488727 2481480 2472630 2462544 
3632.604 2451942 2441595 2432493 2425308 2420397 2417403 2415486 2413507 
3636.461 2410658 2406427 2401313 2396283 2392868 2392549 2396355 2404410 
3640.319 2416130 2429593 2442472 2451913 2455498 2451385 2439206 2419866 
3644.176 2395938 2370929 2348883 2333429 2327216 2331141 2344203 2363635 
3648.034 2385700 2406290 2421939 2430387 2431040 2424361 2411589 2393938 
3651.891 2372133 2346273 2316161 2281946 2244745 2206856 2171617 2142613 
3655.749 2122714 2113197 2113341 2120619 2131559 2142589 2151017 2155368 
3659.606 2155197 2150822 2142587 2130760 2115365 2096599 2074807 2050946 
3663.463 2026271 2002024 1979163 1958217 1939518 1923397 1910483 1901550 
3667.321 1897632 1899001 1905178 1914385 1924012 1931390 1934303 1931922 
3671.178 1924937 1915229 1905150 1896793 1891365 1888953 1888610 1888783 
3675.036 1887935 1884473 1877573 1866801 1852379 1835194 1816429 1797549 
3678.893 1780073 1765169 1753480 1745093 1739687 1736845 1736394 1738410 
3682.750 1743276 1751387 1762574 1775899 1789686 1801601 1809259 1810645 
3686.608 1804705 1791191 1770967 1745391 1716280 1685462 1654641 1625388 
3690.465 1599231 1577518 1561631 1552634 1551255 1557413 1570133 1587382 
3694.323 1606256 1623332 1635330 1639922 1636178 1624822 1608071 1588940 
3698.180 1570376 1554396 1542174 1533676 1528863 1527626 1530636 1538858 
3702.038 1553115 1572987 1596758 1621208 1642630 1657798 1665232 1665511 
3705.895 1661100 1655349 1651221 1650046 1651526 1653765 1654389 1651264 
3709.752 1643644 1631849 1617196 1601162 1584939 1569384 1554919 1542117 
3713.610 1531808 1525249 1523584 1527534 1537016 1550988 1567538 1584393 
3717.467 1599326 1610257 1615605 1614085 1604910 1587692 1562892 1531917 
3721.325 1497392 1462780 1432172 1409263 1396853 1396225 1407010 1427086 
3725.182 1453421 1482196 1509787 1532940 1549445 1558274 1559623 1554935 
3729.040 1546629 1537785 1531522 1530559 1536634 1550050 1569576 1592531 
3732.897 1615282 1634044 1645677 1648327 1642064 1628813 1611921 1595189 
3736.754 1582193 1575020 1574360 1579078 1587250 1596487 1604726 1610527 
3740.612 1613100 1611868 1606605 1597271 1584054 1568130 1551402 1536399 
3744.469 1525776 1521189 1522900 1529335 1537751 1545105 1549077 1548913 
3748.327 1545539 1540985 1537672 1537306 1540551 1546834 1554925 1563834 
3752.184 1573097 1583067 1594408 1607598 1622427 1637625 1651332 1661600 
3756.042 1667131 1667660 1664064 1658001 1651410 1645785 1641921 1639753 
3759.899 1638692 1638047 1637414 1636919 1637255 1639529 1644701 1653186 
3763.756 1664647 1677687 1690164 1699443 1703266 1700030 1689428 1672218 
3767.614 1650238 1625671 1600647 1576655 1554690 1535118 1518291 1504463 
3771.471 1494416 1488781 1488164 1492580 1501413 1513378 1526900 1540666 
3775.329 1553768 1566027 1578025 1590280 1603247 1616938 1630532 1642892 
3779.186 1652714 1659085 1661840 1661672 1659771 1657691 1656460 1656329 
3783.043 1656743 1656245 1653214 1646446 1635687 1621848 1606829 1592859 
3786.901 1582014 1575248 1572585 1573013 1575317 1578496 1582310 1587102 
3790.758 1593720 1602497 1613166 1624296 1633983 1640245 1641698 1638046 
3794.616 1630141 1619758 1608928 1599620 1593359 1591033 1592950 1598908 
3798.473 1608197 1619548 1631246 1641498 1648739 1652306 1652567 1650881 
3802.331 1649118 1648627 1649918 1651985 1653060 1651067 1644808 1634549 
3806.188 1622148 1610496 1602485 1599847 1602776 1609834 1618385 1625906 
3810.045 1630421 1630997 1627709 1621296 1612829 1603518 1594728 1587914 
3813.903 1584785 1586785 1594642 1607939 1624687 1641837 1655711 1663329 
3817.760 1663143 1655342 1641954 1626035 1610777 1598661 1591143 1588327 
3821.618 1589320 1592653 1596805 1600460 1602951 1604061 1604225 1604300 
3825.475 1605334 1608211 1613444 1620818 1629345 1637466 1643436 1645757 
3829.333 1643876 1638111 1629680 1620401 1612183 1606567 1604692 1606676 
3833.190 1612354 1620790 1630962 1641546 1651518 1659928 1666401 1670898 
3837.047 1673805 1675698 1676923 1677416 1676689 1674073 1668963 1661346 
3840.905 1652159 1642971 1635786 1632289 1633381 1638845 1647359 1657059 
3844.762 1665963 1672632 1676394 1677260 1675643 1672106 1666985 1660472 
3848.620 1652825 1644403 1635902 1628121 1621858 1617565 1615100 1613949 
3852.477 1613404 1612974 1612802 1613468 1616146 1621764 1630776 1642526 
3856.334 1655583 1667754 1676791 1680951 1679677 1673494 1664186 1654049 
3860.192 1645563 1640666 1640458 1644926 1653247 1663754 1674536 1683628 
3864.049 1689489 1691019 1687983 1680820 1670784 1659503 1648855 1640287 
3867.907 1634668 1632180 1632280 1633947 1636287 1638704 1641214 1644423 
3871.764 1649110 1655819 1664604 1674700 1684721 1692918 1697861 1698488 
3875.622 1694885 1687767 1678598 1669038 1660591 1654323 1650649 1649232 
3879.479 1649475 1650342 1651093 1651337 1651334 1651760 1653680 1657913 
3883.336 1664797 1673737 1683433 1691846 1697087 1697662 1693074 1683724 
3887.194 1670938 1656355 1641601 1627898 1616261 1607341 1601750 1599815 
3891.051 1601575 1606433 1613167 1619838 1624362 1625176 1621717 1614805 
3894.909 1606550 1599778 1597201 1600591 1610578 1626317 1645959 1667266 
3898.766 1688058 1706614 1721704 1732530 1738724 1740088 1736934 1729913 
3902.624 1720317 1709857 1700362 1693477 1690381 1691399 1696183 1703647 
3906.481 1712486 1721079 1728105 1732334 1733110 1730419 1725085 1718624 
3910.338 1713208 1710894 1713356 1720872 1732424 1745591 1757110 1763956 
3914.196 1764292 1757904 1746718 1733879 1723397 1718537 1721043 1730682 
3918.053 1745373 1761814 1776581 1787035 1791966 1791819 1788127 1782951 
3921.911 1778115 1774617 1772642 1771494 1770569 1769315 1767772 1766360 
3925.768 1765736 1766215 1767642 1769226 1769930 1768714 1765051 1759007 
3929.625 1751264 1742745 1734499 1727146 1721161 1716701 1714016 1713357 
3933.483 1715120 1719597 1726865 1736256 1746914 1757299 1765987 1771475 
3937.340 1772812 1769483 1761447 1749085 1733200 1715032 1695978 1677845 
3941.198 1662399 1651209 1645463 1645520 1651169 1661383 1674861 1689940 
3945.055 1705288 1719571 1732050 1742247 1750175 1756070 1760395 1763610 
3948.913 1766178 1768232 1770061 1771612 1773124 1774849 1777208 1780402 
3952.770 1784537 1789227 1793814 1797329 1799190 1799118 1797615 1795384 
3956.627 1793417 1792179 1791735 1791290 1789945 1786743 1781380 1773988 
3960.485 1765295 1755978 1746790 1738092 1730321 1724219 1720874 1721813 
3964.342 1728456 1741299 1759693 1781346 1803206 1822152 1836043 1844185 
3968.200 1847665 1848289 1847902 1847116 1845226 1840344 1830462 1814420 
3972.057 1792885 1768062 1743569 1722837 1708471 1701497 1701331 1706233 
3975.915 1714316 1723931 1734055 1744036 1753433 1761635 1767575 1770347 
3979.772 1769416 1765154 1758826 1752549 1748723 1749522 1756278 1769197 
3983.629 1787506 1809263 1832202 1853641 1871244 1882938 1887639 1885077 
3987.487 1876076 1862439 1846543 1830858 1817682 1808364 1803385 1802107 
3991.344 1803434 1806084 1809229 1812629 1816779 1822614 1830979 1842168 
3995.202 1855635 1869909 1882930 1892554 1897415 1897041 1892208 1884641 
3999.059 1876377 1869223 1864251 1861501 
##END=
