##TITLE=Tecor_PLA-Bicolour_Black_Filament_r7_ATR-Corrected
##JCAMP-DX=5.01  $$ Nicolet v. 1
##DATATYPE=INFRARED SPECTRUM
##ORIGIN=Curtin University
##OWNER=Nicolet
##LONGDATE=2024/07/19
##TIME=15:53:46
##SPECTROMETER/DATA SYSTEM=Nicolet iS50
##DATA PROCESSING=
Ratio against background
%Transmittance->Absorbance
ATR Correction
Truncated
ElementMultiply or ElementDivide
##COMMENTS=
Number of sample scans: 32
Collection length: 47.29 sec
Sample gain: 1.0
Background collected on: Fri Jul 19 15:49:32 2024 (GMT+08:00);
Number of background scans: 32
Background gain: 1.0
Sample spacing:  1.000
Number of scan points: 16672
Resolution points: 8192
Number of FFT points: 65536
Apodization: N-B strong;
Phase correction: Mertz;
Laser frequency: 15798.3 cm-1
Number of rejected sample scans: 0
Number of rejected background scans: 0
Bench serial number: AUP1200105;
##RESOLUTION=4.000
##XUNITS=1/CM
##YUNITS=ABSORBANCE
##FIRSTX=400.163452
##LASTX=4000.187744
##FIRSTY=0.069212
##MAXX=4000.187744
##MINX=400.163452
##MAXY=1.289751
##MINY=-0.040190
##XFACTOR=1.000000
##YFACTOR=1.000000E-008
##NPOINTS=7468
##DELTAX=0.482125
##ZPD=8192
##XYDATA=(X++(Y..Y))
400.163 6921232 6825733 6722164 6616013 6508147 6397250 6280472 6155449 
404.020 6021776 5881840 5740167 5602817 5476183 5366178 5277671 5213785 
407.877 5175155 5159221 5159389 5165457 5164638 5144126 5093833 5009039 
411.734 4891520 4749110 4593407 4437226 4291761 4164933 4060415 3977839 
415.591 3913455 3861375 3814678 3767228 3714924 3657112 3597038 3541195 
419.448 3497514 3472831 3470210 3487696 3518169 3551329 3576456 3585561 
423.305 3575518 3548693 3511496 3471856 3436279 3407974 3386203 3367480 
427.162 3347386 3322607 3292042 3256966 3220068 3184239 3151423 3122088 
431.019 3095457 3070164 3044999 3019419 2994208 2970976 2951882 2939261 
434.876 2935025 2940254 2954677 2976549 3002560 3028495 3050056 3064061 
438.733 3069305 3067046 3060476 3053710 3050242 3051716 3057123 3063108 
442.590 3064882 3057848 3038984 3007896 2966982 2920939 2875629 2836857 
446.447 2809224 2795469 2796049 2809368 2832070 2859916 2888504 2914196 
450.304 2934716 2949536 2959534 2966403 2971596 2975468 2976792 2972941 
454.161 2960748 2937824 2903680 2860442 2812659 2766375 2727499 2700301 
458.017 2686179 2683456 2687867 2694006 2696782 2692811 2681139 2663214 
461.874 2642210 2622043 2606177 2596459 2593750 2596846 2603330 2610128 
465.731 2614217 2613132 2605197 2589622 2566277 2535611 2498512 2456375 
469.588 2411179 2365628 2322962 2286678 2259870 2244532 2240906 2247286 
473.445 2260229 2275316 2288122 2295232 2294882 2287136 2273484 2256146 
477.302 2237174 2217930 2198745 2179240 2158746 2136901 2113978 2090962 
481.159 2069205 2050036 2034223 2021764 2011886 2003379 1995059 1986216 
485.016 1976890 1967875 1960400 1955732 1954685 1957371 1963090 1970556 
488.873 1978199 1984607 1988757 1990229 1989087 1985752 1980788 1974743 
492.730 1968119 1961415 1955138 1949644 1945604 1943196 1942076 1941294 
496.587 1939310 1934403 1925122 1910873 1892272 1871226 1850634 1833765 
500.444 1823446 1821410 1827827 1841325 1859434 1879265 1898219 1914603 
504.301 1927773 1938039 1946231 1953284 1959850 1966151 1972059 1977251 
508.158 1981393 1984275 1985752 1985678 1983828 1979935 1973777 1965343 
512.015 1954889 1942956 1930062 1916512 1902171 1886485 1868730 1848509 
515.871 1826128 1802876 1780778 1762096 1748518 1740573 1737283 1736472 
519.728 1735422 1731843 1724546 1713775 1700933 1687878 1676117 1666261 
523.585 1657861 1649873 1641173 1631059 1619925 1608637 1598190 1589161 
527.442 1581443 1574383 1567188 1559578 1552113 1546111 1543156 1544241 
531.299 1549111 1555989 1561912 1563685 1558978 1547334 1530492 1512122 
535.156 1496716 1488417 1489704 1500780 1519481 1541950 1563694 1580691 
539.013 1590271 1591588 1585412 1573731 1559000 1543510 1528868 1515823 
542.870 1504288 1493661 1483071 1471767 1459254 1445496 1430927 1416454 
546.727 1403422 1393527 1388554 1390059 1398888 1414827 1436277 1460392 
550.584 1483462 1501774 1512387 1513947 1506995 1493800 1477741 1462360 
554.441 1450509 1443763 1442214 1444796 1450020 1456436 1463071 1469672 
558.298 1476431 1483771 1491947 1500866 1510043 1518810 1526503 1532711 
562.155 1537389 1540879 1543798 1546834 1550569 1555290 1560902 1566923 
566.012 1572634 1577348 1580613 1582517 1583679 1585186 1588285 1593937 
569.869 1602483 1613521 1625934 1638322 1649433 1658653 1666188 1673030 
573.725 1680540 1689989 1702090 1716740 1733049 1749682 1765313 1779062 
577.582 1790747 1800859 1810313 1820077 1830723 1842269 1854176 1865518 
581.439 1875353 1883118 1888781 1892898 1896357 1900099 1904726 1910307 
585.296 1916307 1921944 1926423 1929406 1931212 1932852 1935733 1941263 
589.153 1950337 1963125 1978898 1996306 2013702 2029631 2043174 2054123 
593.010 2062965 2070675 2078397 2087145 2097489 2109504 2122631 2135872 
596.867 2148006 2157892 2164744 2168348 2169075 2167813 2165641 2163609 
600.724 2162464 2162691 2164527 2168264 2174359 2183459 2196148 2212619 
604.581 2232277 2253722 2274898 2293740 2308889 2320275 2329430 2339093 
608.438 2352430 2372023 2398966 2432424 2469821 2507614 2542322 2571549 
612.295 2594579 2612437 2627317 2641810 2657998 2676840 2698122 2720677 
616.152 2743018 2764049 2783510 2802152 2821489 2843270 2868788 2898366 
620.009 2931029 2964744 2996866 3024943 3047408 3064060 3076093 3085755 
623.866 3095612 3107841 3123657 3143155 3165529 3189558 3214160 3238748 
627.723 3263268 3287988 3313103 3338441 3363385 3387063 3408781 3428370 
631.579 3446387 3464021 3482682 3503547 3527130 3553181 3580784 3608750 
635.436 3636002 3661879 3686176 3709002 3730459 3750501 3768827 3785037 
639.293 3798874 3810491 3820466 3829763 3839355 3849975 3861824 3874566 
643.150 3887479 3899883 3911465 3922583 3934273 3947991 3965238 3987033 
647.007 4013539 4043947 4076516 4108968 4138917 4164429 4184406 4198755 
650.864 4208417 4215060 4220772 4227544 4236913 4249680 4265804 4284522 
654.721 4304559 4324523 4343198 4359791 4374090 4386403 4397414 4408033 
658.578 4419164 4431700 4446397 4463970 4484983 4509820 4538484 4570471 
662.435 4604591 4639073 4671747 4700519 4723770 4740817 4752052 4758866 
666.292 4763296 4767552 4773464 4782221 4794180 4809058 4826137 4844564 
670.149 4863506 4882301 4900362 4917221 4932488 4945974 4957815 4968571 
674.006 4979200 4990929 5004878 5021788 5041686 5063824 5086795 5108936 
677.863 5128731 5145282 5158536 5169260 5178708 5188290 5199074 5211545 
681.720 5225523 5240380 5255408 5270144 5284609 5299297 5314955 5332239 
685.577 5351389 5372146 5393780 5415373 5436156 5455785 5474371 5492346 
689.433 5510204 5528233 5546351 5564184 5581237 5597182 5611961 5625877 
693.290 5639329 5652715 5666161 5679536 5692522 5704869 5716519 5727708 
697.147 5738897 5750556 5763020 5776373 5790504 5805180 5820163 5835237 
701.004 5850105 5864299 5877086 5887588 5895019 5899023 5899917 5898740 
704.861 5896932 5895877 5896294 5897911 5899360 5898576 5893375 5882106 
708.718 5864059 5839637 5810031 5776841 5741480 5704898 5667387 5628654 
712.575 5587972 5544341 5496613 5443627 5384332 5317968 5244280 5163656 
716.432 5077174 4986395 4893005 4798390 4703254 4607523 4510485 4411182 
720.289 4308974 4203937 4097094 3990342 3886076 3786750 3694369 3610225 
724.146 3534795 3467963 3409252 3358218 3314669 3278828 3251272 3232813 
728.003 3224249 3226269 3239357 3263906 3300333 3349241 3411539 3488328 
731.860 3580723 3689477 3814631 3955252 4109428 4274420 4447030 4624079 
735.717 4802777 4980922 5156976 5329926 5499121 5664098 5824516 5980071 
739.574 6130453 6275347 6414333 6546823 6672228 6790019 6900053 7002800 
743.431 7099435 7191819 7282077 7372233 7463723 7557197 7652533 7749103 
747.287 7846167 7943229 8040135 8137049 8234147 8331334 8428086 8523506 
751.144 8616500 8706091 8791570 8872514 8948490 9018648 9081423 9134297 
755.001 9174047 9197262 9200970 9183373 9144183 9084716 9007428 8915278 
758.858 8810982 8696436 8572508 8439212 8296158 8143195 7980934 7810935 
762.715 7635703 7458215 7281442 7107866 6939144 6776196 6619306 6468534 
766.572 6323950 6185816 6054487 5930219 5812899 5701850 5595822 5493140 
770.429 5392046 5291037 5189172 5086126 4982311 4878505 4775669 4674651 
774.286 4576061 4480193 4387115 4296772 4209085 4124008 4041490 3961422 
778.143 3883481 3807154 3731687 3656261 3580113 3502739 3424024 3344248 
782.000 3263956 3183877 3104643 3026710 2950322 2875534 2802336 2730741 
785.857 2660861 2592895 2527013 2463345 2401840 2342346 2284641 2228536 
789.714 2173938 2120992 2069941 2021219 1975278 1932579 1893550 1858483 
793.571 1827494 1800472 1776985 1756330 1737590 1719839 1702371 1684889 
797.428 1667560 1650973 1635865 1622829 1612034 1603066 1595031 1586792 
801.285 1577283 1565925 1552781 1538503 1524352 1511666 1501597 1494811 
805.141 1491333 1490563 1491432 1492648 1493029 1491732 1488499 1483678 
808.998 1478168 1473206 1470084 1469822 1472966 1479463 1488647 1499461 
812.855 1510582 1520745 1528918 1534467 1537217 1537438 1535798 1533235 
816.712 1530759 1529350 1529740 1532312 1537086 1543742 1551711 1560291 
820.569 1568725 1576329 1582521 1586904 1589393 1590241 1590132 1590116 
824.426 1591388 1595060 1601794 1611582 1623679 1636805 1649502 1660547 
828.283 1669281 1675759 1680694 1685140 1690268 1697048 1706243 1718381 
832.140 1733844 1752902 1775655 1801843 1830949 1862057 1894160 1926466 
835.997 1958732 1991483 2025998 2063986 2107229 2157146 2214572 2279677 
839.854 2352088 2431153 2516046 2605892 2699720 2796437 2894796 2993492 
843.711 3091297 3187107 3280000 3369085 3453340 3531451 3601861 3663021 
847.568 3713778 3753914 3784429 3807750 3827487 3848113 3874408 3911072 
851.425 3962270 4031543 4121639 4234521 4371376 4532602 4717850 4926065 
855.282 5155609 5404341 5669710 5948792 6238296 6534600 6833744 7131684 
859.139 7424433 7708366 7980394 8238093 8479686 8703925 8909994 9097338 
862.995 9265690 9415045 9545699 9658235 9753379 9831946 9894566 9941621 
866.852 9973107 9988765 9988182 9970918 9936678 9885363 9817119 9732225 
870.709 9631104 9514239 9382129 9235366 9074610 8900639 8714435 8517136 
874.566 8310144 8095065 7873679 7647858 7419443 7190065 6961032 6733239 
878.423 6507246 6283418 6062220 5844404 5631203 5424366 5225989 5038300 
882.280 4863343 4702782 4557827 4429303 4317803 4223853 4148011 4090711 
886.137 4052060 4031460 4027376 4037235 4057645 4084809 4115218 4146087 
889.994 4175765 4203661 4229934 4254895 4278564 4300319 4318968 4333082 
893.851 4341475 4343684 4340071 4331790 4320343 4307113 4293117 4278776 
897.708 4264165 4249278 4234313 4219819 4206588 4195329 4186403 4179566 
901.565 4173992 4168594 4162310 4154570 4145408 4135467 4125727 4117098 
905.422 4110168 4105018 4101313 4098536 4096242 4094304 4092971 4092730 
909.279 4094071 4097255 4102103 4108056 4114217 4119664 4123675 4125841 
913.136 4126137 4124775 4122053 4118176 4113196 4107068 4099771 4091454 
916.993 4082540 4073620 4065322 4058008 4051662 4045837 4039831 4032971 
920.849 4024960 4016049 4007042 3998979 3992790 3988827 3986664 3985105 
924.706 3982521 3977343 3968551 3955924 3940226 3922844 3905472 3889660 
928.563 3876564 3866782 3860447 3857384 3857237 3859520 3863692 3869015 
932.420 3874644 3879664 3883296 3885121 3885263 3884442 3883861 3884833 
936.277 3888473 3895346 3905242 3917361 3930514 3943620 3956078 3968093 
940.134 3980612 3995189 4013511 4037029 4066562 4102192 4143339 4188997 
943.991 4238003 4289287 4341969 4395363 4448898 4502075 4554503 4606018 
947.848 4656798 4707544 4759402 4813795 4872169 4935545 5004253 5077735 
951.705 5154549 5232485 5308922 5381072 5446296 5502242 5546956 5578864 
955.562 5596661 5599241 5585598 5554808 5506102 5439042 5353775 5251204 
959.419 5133207 5002649 4863266 4719347 4575350 4435481 4303295 4181467 
963.276 4071651 3974506 3889896 3817046 3754888 3702268 3658208 3622056 
967.133 3593523 3572634 3559571 3554428 3557050 3566878 3582937 3603920 
970.990 3628384 3654911 3682369 3709894 3737072 3763860 3790561 3817778 
974.847 3846266 3876847 3910217 3946766 3986499 4028974 4073459 4119058 
978.703 4164998 4210751 4256101 4301085 4345892 4390689 4435608 4480751 
982.560 4526358 4572776 4620587 4670376 4722595 4777351 4834366 4893028 
986.417 4952622 5012670 5073082 5134272 5196855 5261508 5328649 5398174 
990.274 5469535 5541879 5614344 5686325 5757645 5828541 5899608 5971617 
994.131 6045356 6121561 6200856 6283718 6370526 6461422 6556448 6655492 
997.988 6758398 6865157 6975945 7091190 7211514 7337471 7469427 7607347 
1001.845 7750790 7899059 8051511 8207781 8368119 8533355 8704878 8884338 
1005.702 9073471 9273788 9486543 9712651 9952771 10207392 10476845 10761279 
1009.559 11060743 11375123 11704309 12048273 12407266 12781876 13173047 
1012.934 13581841 14009315 14456031 14921930 15406148 15907143 16422869 
1016.309 16951138 17489890 18037402 18592290 19153402 19719692 20289870 
1019.683 20862446 21435738 22007864 22576960 23141218 23699116 24249384 
1023.058 24791176 25324174 25848696 26365786 26877356 27386084 27895430 
1026.433 28409308 28932032 29468018 30021542 30596598 31196692 31824770 
1029.809 32483056 33173036 33895340 34649692 35434912 36248700 37087700 
1033.184 37947340 38822016 39705148 40589592 41467832 42332492 43176364 
1036.559 43992720 44775172 45517648 46214356 46859824 47448996 47977256 
1039.934 48440596 48835572 49159556 49410764 49588480 49693324 49727360 
1043.310 49693888 49597256 49442332 49234152 48977788 48678364 48341316 
1046.685 47972556 47578572 47166116 46741740 46311308 45879628 45450420 
1050.060 45026400 44609676 44202112 43805400 43421048 43050292 42693836 
1053.435 42351856 42024180 41710484 41410668 41125140 40855020 40602356 
1056.811 40370108 40162288 39984080 39841800 39742708 39694808 39706284 
1060.186 39784996 39937964 40171124 40489172 40895636 41393112 41983436 
1063.561 42667588 43445664 44316508 45277496 46324412 47451620 48652436 
1066.936 49919708 51246448 52626276 54053684 55523992 57033140 58577304 
1070.312 60152584 61754572 63378292 65018160 66668232 68322608 69975968 
1073.687 71623768 73262312 74888248 76497640 78085088 79643128 81162248 
1077.062 82631552 84039664 85375944 86630600 87794512 88858344 89811728 
1080.437 90643456 91341904 91896688 92300024 92547376 92637272 92570456 
1083.813 92349080 91976320 91457360 90800344 90017248 89123752 88138024 
1087.188 87078536 85962024 84802224 83609544 82392024 81156328 79908928 
1090.563 78656432 77405296 76161192 74928320 73709008 72503880 71312240 
1093.938 70132824 68964192 67805240 66655280 65514092 64381904 63259328 
1097.313 62147276 61046900 59959424 58886056 57827848 56785636 55760156 
1100.689 54751952 53761496 52789176 51835288 50900096 49983868 49087064 
1104.064 48210528 47355552 46524064 45718544 44941928 44197440 43488360 
1107.439 42817968 42189276 41604872 41066872 40576724 40135120 39742012 
1110.814 39396532 39096944 38840836 38625132 38446236 38300376 38183880 
1114.190 38093728 38027816 37985216 37966056 37971276 38002148 38059712 
1117.565 38144504 38256464 38395020 38559508 38749324 38964076 39203452 
1120.940 39466828 39752756 40058708 40380804 40713892 41051748 41387252 
1124.315 41712696 42019840 42300164 42545128 42746596 42897380 42991760 
1127.691 43025932 42997916 42907320 42754828 42541636 42269124 41938580 
1131.066 41551436 41109308 40614068 40067668 39472020 38828708 38138924 
1134.441 37403664 36623952 35801260 34937848 34036832 33102194 32138636 
1137.816 31151370 30145972 29128212 28103882 27078724 26058200 25047534 
1141.192 24051634 23075172 22122572 21198208 20306152 19450072 18633086 
1144.567 17857676 17125676 16438437 15796907 15201780 14653373 14151476 
1147.942 13695018 13282055 12909739 12574686 12273505 12003269 11761997 
1151.317 11548707 11363200 11205647 11076121 10974143 10898626 10847941 
1154.693 10820244 10813810 10827327 10859960 10911392 10981626 11070852 
1158.068 11179419 11307809 11456785 11627428 11821286 12040298 12286740 
1161.443 12563145 12872247 13216981 13600631 14026879 14500080 15025277 
1164.818 15608239 16255397 16973578 17769898 18651410 19624964 20697022 
1168.194 21873576 23160166 24561826 26083234 27728578 29501524 31404846 
1171.569 33440012 35606552 37901192 40317144 42843500 45464648 48159992 
1174.944 50903768 53665132 56408132 59092240 61673008 64103508 66336440 
1178.319 68326928 70035504 71431160 72493536 73214480 73598192 73660128 
1181.695 73425088 72924424 72193128 71267296 70182320 68971656 67666504 
1185.070 66295548 64884700 63456648 62030356 60620744 59238748 57891928 
1188.445 56585472 55323128 54108112 52943276 51831108 50773448 49771248 
1191.820 48824624 47933016 47095564 46311244 45578868 44896736 44262404 
1195.196 43672648 43123724 42611976 42134444 41689312 41275904 40894132 
1198.571 40543856 40224148 39933044 39667752 39425232 39202788 38998492 
1201.946 38811120 38639696 38482840 38338236 38202512 38071692 37941600 
1205.321 37808544 37669564 37522556 37365944 37198344 37018328 36824368 
1208.697 36614876 36388424 36143740 35879664 35595200 35289432 34961860 
1212.072 34612584 34242560 33853636 33448094 33028254 32595844 32151770 
1215.447 31696252 31229352 30751588 30264506 29770770 29273794 28777060 
1218.822 28283412 27794510 27310824 26831984 26357322 25886446 25419628 
1222.198 24957800 24502424 24055160 23617520 23190660 22775340 22371792 
1225.573 21979856 21599032 21228608 20867852 20516164 20173244 19839174 
1228.948 19514308 19199246 18894534 18600620 18317776 18046100 17785692 
1232.323 17536590 17298830 17072354 16856864 16651848 16456518 16270112 
1235.698 16091917 15921481 15758508 15602866 15454365 15312731 15177546 
1239.074 15048438 14925198 14807895 14696737 14591977 14493583 14401062 
1242.449 14313516 14229815 14149025 14070717 13995214 13923571 13857239 
1245.824 13797635 13745807 13702141 13666418 13637915 13615754 13599147 
1249.199 13587512 13580582 13578342 13581078 13589180 13603221 13623780 
1252.575 13651302 13685960 13727556 13775472 13828871 13886830 13948661 
1255.950 14014010 14082849 14155304 14231414 14310865 14393021 14476931 
1259.325 14561632 14646317 14730509 14813991 14896585 14977960 15057428 
1262.700 15133846 15205851 15271980 15330951 15381755 15423739 15456459 
1266.076 15479717 15493298 15497003 15490535 15473475 15445273 15405244 
1269.451 15352525 15286320 15205964 15111139 15001963 14878969 14742954 
1272.826 14594759 14435044 14264145 14082149 13888885 13684256 13468297 
1276.201 13241266 13003743 12756534 12500638 12237278 11967837 11693969 
1279.577 11417427 11140085 10863695 10589832 10319787 10054589 9795192 
1282.952 9542556 9297875 9062590 8838376 8626962 8429971 8248785 8084488 
1286.809 7937832 7809408 7699640 7608859 7537269 7484869 7451320 7435958 
1290.667 7437710 7455244 7486944 7531101 7585903 7649481 7719960 7795502 
1294.524 7874281 7954593 8034856 8113616 8189552 8261534 8328621 8390216 
1298.382 8446169 8496856 8543144 8586254 8627439 8667719 8707538 8746660 
1302.239 8784244 8819107 8850047 8876221 8897319 8913619 8925771 8934629 
1306.096 8940911 8945099 8947446 8948018 8946884 8944295 8940600 8936328 
1309.954 8931933 8927841 8924286 8921308 8918849 8916773 8914905 8913056 
1313.811 8910959 8908354 8904988 8900783 8895902 8890807 8886246 8883066 
1317.669 8881967 8883397 8887321 8893321 8900785 8909059 8917674 8926442 
1321.526 8935347 8944459 8953794 8963272 8972788 8982425 8992534 9003944 
1325.384 9017736 9035166 9057263 9084684 9117589 9155769 9198830 9246450 
1329.241 9298623 9355564 9417726 9485492 9559055 9638366 9723079 9812786 
1333.098 9907084 10005702 10108474 10215340 10326130 10440640 10558613 
1336.474 10679802 10804074 10931525 11062437 11197226 11336399 11480418 
1339.849 11629653 11784402 11944827 12110977 12282726 12459811 12641869 
1343.224 12828504 13019387 13214435 13413760 13617615 13826318 14040014 
1346.599 14258657 14481950 14709429 14940532 15174723 15411274 15649261 
1349.975 15887338 16123728 16356342 16583019 16801880 17011526 17211024 
1353.350 17399822 17577278 17742432 17893874 18029930 18148958 18249810 
1356.725 18332096 18396346 18443826 18476260 18495664 18504034 18503376 
1360.100 18495634 18482612 18465920 18446720 18425632 18402656 18377214 
1363.476 18348370 18314994 18275882 18229696 18174786 18109000 18029686 
1366.851 17933830 17818432 17681052 17520390 17336632 17131762 16909642 
1370.226 16675937 16438113 16205311 15988056 15797973 15647146 15547326 
1373.601 15508802 15539512 15643923 15822519 16071494 16382928 16745278 
1376.977 17144236 17563646 17986562 18396378 18777778 19117636 19405282 
1380.352 19632768 19794426 19886706 19907684 19856968 19735660 19546338 
1383.727 19292902 18980454 18614842 18202476 17749960 17264084 16751617 
1387.102 16219114 15672630 15117277 14557010 13994449 13431096 12867811 
1390.478 12305382 11745051 11188845 10639517 10100405 9575037 9066767 
1393.853 8578611 8113146 7672557 7258780 6873557 6518300 6194026 5901054 
1397.710 5638917 5406147 5200416 5018792 4857976 4714729 4586128 4469739 
1401.568 4363668 4266473 4177203 4095215 4020093 3951594 3889526 3833558 
1405.425 3783217 3737752 3696286 3657844 3621598 3586980 3553819 3522201 
1409.282 3492510 3465183 3440626 3419131 3400809 3385567 3373152 3363148 
1413.140 3354998 3348125 3342068 3336570 3331664 3327684 3325148 3324635 
1416.997 3326580 3331231 3338599 3348531 3360785 3375154 3391409 3409344 
1420.855 3428670 3449107 3470372 3492380 3515266 3539404 3565315 3593488 
1424.712 3624184 3657474 3693268 3731515 3772465 3816727 3865337 3919393 
1428.570 3979974 4047838 4123456 4207183 4299384 4400741 4512224 4635069 
1432.427 4770533 4919880 5084393 5265499 5465153 5685885 5930873 6203678 
1436.284 6507969 6847138 7224225 7641826 8102279 8607570 9159157 9757416 
1440.142 10401181 11087276 11810508 12563986 13339692 14129174 14923877 
1443.517 15715492 16495912 17257216 17991830 18692636 19353312 19968360 
1446.892 20533356 21044864 21500426 21898782 22239772 22524374 22754526 
1450.268 22932732 23061600 23143500 23180266 23173154 23122830 23029456 
1453.643 22892704 22711930 22486212 22214696 21897006 21533530 21125590 
1457.018 20675390 20185684 19659392 19099550 18509410 17892764 17254364 
1460.393 16599828 15935378 15267096 14600289 13939011 13286129 12643673 
1463.769 12013484 11397596 10798445 10218668 9660867 9127156 8619220 8138249 
1467.626 7685140 7260491 6864578 6497086 6157097 5843001 5552839 5284613 
1471.483 5036673 4807891 4597585 4405359 4230638 4072593 3929938 3801175 
1475.341 3684746 3579257 3483528 3396692 3317961 3246712 3182302 3124186 
1479.198 3071798 3024619 2982084 2943534 2908105 2874829 2842765 2811102 
1483.056 2779409 2747690 2716392 2686269 2658217 2633016 2611227 2593009 
1486.913 2578134 2566040 2555942 2546962 2538259 2529207 2519381 2508708 
1490.771 2497295 2485384 2473292 2461303 2449626 2438462 2427997 2418446 
1494.628 2410042 2402902 2397044 2392324 2388398 2384861 2381336 2377552 
1498.485 2373384 2368873 2364158 2359430 2354879 2350682 2347002 2343923 
1502.343 2341440 2339420 2337512 2335251 2332136 2327773 2321977 2314962 
1506.200 2307183 2299327 2292087 2286029 2281446 2278428 2276863 2276435 
1510.058 2276764 2277387 2277787 2277363 2275688 2272456 2267695 2261691 
1513.915 2254993 2248156 2241653 2235686 2230261 2225197 2220363 2215766 
1517.772 2211566 2208122 2205732 2204575 2204519 2205208 2206163 2206790 
1521.630 2206629 2205373 2202879 2199132 2194223 2188346 2181797 2174942 
1525.487 2168140 2161731 2155810 2150313 2144934 2139363 2133344 2126829 
1529.345 2120045 2113387 2107260 2101940 2097496 2093752 2090440 2087283 
1533.202 2084097 2080763 2077274 2073546 2069402 2064599 2058901 2052255 
1537.060 2044785 2036891 2029145 2022146 2016347 2011917 2008751 2006476 
1540.917 2004568 2002533 1999980 1996704 1992667 1988028 1983037 1977939 
1544.774 1972964 1968233 1963695 1959233 1954726 1950073 1945413 1940960 
1548.632 1937055 1934002 1931899 1930677 1929992 1929466 1928733 1927655 
1552.489 1926232 1924733 1923419 1922485 1922016 1921913 1922000 1922071 
1556.347 1921945 1921452 1920455 1918830 1916476 1913387 1909685 1905693 
1560.204 1901795 1898378 1895651 1893618 1892058 1890699 1889285 1887711 
1564.062 1886039 1884403 1882878 1881378 1879637 1877340 1874289 1870558 
1567.919 1866568 1863029 1860648 1859953 1861048 1863620 1867032 1870537 
1571.776 1873574 1875942 1877706 1879257 1881012 1883369 1886541 1890515 
1575.634 1895065 1899886 1904582 1908845 1912465 1915448 1917915 1920126 
1579.491 1922375 1924830 1927469 1930142 1932585 1934667 1936519 1938587 
1583.349 1941519 1945987 1952346 1960422 1969510 1978533 1986312 1991997 
1587.206 1995190 1996121 1995411 1993892 1992368 1991460 1991619 1993134 
1591.063 1996235 2001030 2007462 2015138 2023351 2031221 2037889 2042803 
1594.921 2045936 2047899 2049667 2052373 2056933 2063873 2073163 2084429 
1598.778 2097030 2110334 2123718 2136703 2148850 2159850 2169484 2177805 
1602.636 2185030 2191612 2198051 2204724 2211763 2219037 2226256 2233187 
1606.493 2239832 2246514 2253855 2262543 2273037 2285444 2299386 2314172 
1610.351 2328935 2342921 2355608 2366808 2376529 2385051 2392711 2399949 
1614.208 2407197 2414887 2423319 2432532 2442350 2452308 2461901 2470722 
1618.065 2478617 2485839 2492860 2500174 2508171 2516863 2525979 2535039 
1621.923 2543559 2551277 2558062 2563981 2569039 2573112 2575986 2577365 
1625.780 2577174 2575574 2573046 2570274 2567837 2566052 2564865 2563894 
1629.638 2562615 2560647 2557807 2554222 2550169 2545944 2541757 2537741 
1633.495 2534019 2530874 2528657 2527821 2528628 2530985 2534316 2537681 
1637.353 2540037 2540526 2538844 2535225 2530325 2525040 2520051 2515746 
1641.210 2512159 2509094 2506348 2503983 2502197 2501369 2501838 2503661 
1645.067 2506591 2510115 2513630 2516626 2518861 2520379 2521433 2522352 
1648.925 2523424 2524790 2526496 2528520 2530874 2533671 2537115 2541434 
1652.782 2546885 2553627 2561674 2570896 2580998 2591649 2602442 2613106 
1656.640 2623458 2633533 2643517 2653684 2664196 2675129 2686276 2697259 
1660.497 2707690 2717311 2726188 2734757 2743668 2753639 2765133 2778211 
1664.354 2792444 2807077 2821257 2834350 2846057 2856474 2866104 2875534 
1668.212 2885262 2895613 2906667 2918425 2930855 2944122 2958495 2974377 
1672.069 2992067 3011614 3032771 3054952 3077250 3098738 3118616 3136436 
1675.927 3152164 3166215 3179383 3192635 3206947 3223206 3242053 3263829 
1679.784 3288587 3316069 3345810 3377159 3409379 3441858 3474094 3505829 
1683.642 3537125 3568277 3599656 3631612 3664286 3697608 3731263 3764956 
1687.499 3798642 3832556 3867429 3904225 3943953 3987342 4034541 4085090 
1691.356 4138030 4192240 4246769 4301171 4355599 4410787 4467788 4527646 
1695.214 4591159 4658763 4730503 4806299 4886023 4969761 5057844 5150724 
1699.071 5248806 5352275 5460959 5574325 5691699 5812473 5936336 6063582 
1702.929 6195026 6332010 6476176 6629164 6792298 6966434 7151785 7347979 
1706.786 7554333 7770075 7994658 8227826 8469716 8720800 8981685 9253024 
1710.644 9535385 9829231 10134815 10452296 10781527 11122030 11472879 
1714.019 11832839 12200387 12574087 12952840 13336167 13724169 14117411 
1717.394 14516535 14921841 15333113 15749717 16171029 16596945 17028352 
1720.769 17467442 17917488 18382568 18867054 19375236 19911238 20479162 
1724.145 21083278 21728272 22419300 23161888 23961798 24824894 25757086 
1727.520 26764580 27853802 29031468 30304554 31680152 33165598 34768964 
1730.895 36499548 38368460 40388564 42573292 44934692 47480896 50213964 
1734.270 53129060 56215632 59460484 62851024 66377736 70034120 73814096 
1737.646 77707768 81697312 85754464 89841440 93914168 97927264 101837632 
1741.021 105606064 109195992 112571576 115696504 118535808 121058712 
1743.914 123242584 125074520 126550424 127672112 128444800 128875648 
1746.807 128975104 128758168 128245152 127460232 126428496 125172984 
1749.700 123713496 122067616 120253016 118289304 116198328 114001920 
1752.593 111718832 109362296 106939616 104454216 101909104 99309848 96666536 
1755.968 93992920 91304680 88616688 85941496 83288880 80666960 78083464 
1759.344 75546640 73065392 70648688 68304376 66038620 63855708 61758388 
1762.719 59748196 57825940 55991472 54243516 52579272 50994676 49484888 
1766.094 48044968 46670468 45357908 44104356 42907016 41762740 40667772 
1769.469 39618020 38609492 37638720 36702912 35799456 34925412 34076564 
1772.844 33247480 32431576 31622394 30814434 30004298 29190808 28374788 
1776.220 27558020 26742348 25928688 25116864 24305860 23494550 22682450 
1779.595 21870256 21060078 20255026 19458620 18674288 17904742 17152090 
1782.970 16417848 15703478 15010501 14340816 13696487 13079533 12491646 
1786.345 11933883 11406688 10909883 10442675 10003960 9592310 9206090 
1789.721 8843595 8503139 8183254 7882809 7600925 7336976 7090372 6860385 
1793.578 6646175 6446762 6261178 6088668 5928725 5781121 5645655 5521935 
1797.436 5409216 5306262 5211431 5122977 5039089 4958354 4879731 4802695 
1801.293 4727168 4653561 4582506 4514941 4451806 4393892 4341658 4294965 
1805.150 4253018 4214341 4177089 4139275 4099188 4055820 4008937 3959202 
1809.008 3907949 3856910 3807786 3761882 3719862 3681635 3646419 3612892 
1812.865 3579530 3545085 3508733 3470563 3431425 3393001 3357282 3326117 
1816.723 3300628 3280834 3265414 3252186 3238545 3222445 3202955 3180552 
1820.580 3156857 3134073 3113996 3097379 3083581 3070795 3056617 3038836 
1824.438 3016081 2988135 2955765 2920434 2883639 2846791 2810990 2777242 
1828.295 2746508 2719701 2697447 2679582 2664823 2650730 2634098 2611754 
1832.152 2581440 2542557 2496416 2445861 2394492 2345696 2301817 2263840 
1836.010 2231346 2203097 2177476 2153076 2128914 2104753 2080731 2057529 
1839.867 2036010 2017024 2001104 1988199 1977403 1967123 1955348 1940303 
1843.725 1921143 1898435 1874139 1851195 1832537 1820282 1815030 1815867 
1847.582 1820543 1826374 1830672 1831432 1827308 1817639 1802198 1781409 
1851.439 1756182 1728266 1699969 1673868 1652162 1636029 1625200 1618224 
1855.297 1612994 1607818 1601735 1595080 1588647 1583083 1577824 1571106 
1859.154 1559989 1541966 1515841 1483082 1447619 1415379 1392469 1383595 
1863.012 1390672 1412429 1444732 1481922 1517976 1547985 1568685 1578882 
1866.869 1578949 1570557 1555966 1537553 1517526 1497658 1479184 1462864 
1870.727 1449062 1437785 1428751 1421475 1415110 1408673 1401204 1392007 
1874.584 1381139 1369565 1359111 1352262 1351169 1357162 1370016 1387974 
1878.441 1407970 1426631 1440851 1448689 1449479 1443628 1432325 1417122 
1882.299 1399586 1381284 1363414 1346864 1331795 1317653 1302935 1285953 
1886.156 1265431 1241527 1216240 1193201 1176649 1169986 1174278 1187795 
1890.014 1206004 1223558 1235738 1240335 1238067 1232253 1226971 1225501 
1893.871 1228806 1235395 1242025 1245351 1243174 1235728 1225179 1215155 
1897.729 1208923 1208413 1213253 1220962 1227488 1228707 1221432 1204848 
1901.586 1180729 1153518 1129127 1113480 1110547 1120886 1140943 1163677 
1905.443 1180396 1183314 1168000 1135110 1089972 1041265 998237 968103 
1909.301 954038 955155 967261 985019 1003641 1020212 1033413 1043498 1050752 
1913.640 1055614 1058032 1058427 1057800 1057809 1060107 1065519 1073096 
1917.498 1080259 1083247 1078767 1065134 1043465 1017271 991702 971505 
1921.355 959835 956907 960104 964489 964408 954837 932812 898255 854442 
1925.695 807196 764203 733008 719531 726146 751192 788868 831026 869086 
1930.034 896684 911042 913598 908612 901527 896892 896766 900570 906132 
1934.374 910647 912260 910141 904345 894597 879748 857574 825811 783439 
1938.714 732475 678310 629392 595036 583024 596705 633816 686069 741009 
1943.053 784738 805630 797064 759614 700651 633451 573562 535917 530987 
1947.393 562933 628450 717594 815756 906356 973863 1006283 997251 947182 
1951.732 863310 759090 651785 558944 494125 463195 461656 475461 483834 
1956.072 466011 407672 307027 176524 41379 -68054 -124073 -111773 -33020 
1960.412 92966 236634 366119 457188 497635 489123 443609 377842 307769 
1964.751 244117 191033 146679 105163 60366 7508 -53747 -119424 -180195 
1969.091 -224206 -239281 -216770 -154809 -60385 51730 161887 251899 310271 
1973.430 336921 342893 348619 375947 443076 557166 713465 896099 1083377 
1977.770 1252276 1384925 1470226 1504398 1488920 1429198 1333164 1212010 
1981.627 1080116 954862 853312 790117 772523 798635 857071 930278 998718 
1985.967 1046222 1063545 1049962 1011186 956398 894042 829752 765286 701043 
1990.307 637282 577329 526608 492310 479963 491950 525782 575887 635236 
1994.646 698231 761463 823930 884421 939740 984211 1010372 1012323 989552 
1998.986 948139 900635 861050 839646 837606 845521 846126 821453 760726 
2003.325 666462 555623 454732 391172 382717 429478 513007 600693 658069 
2007.665 660519 602613 498295 376734 271560 211513 212459 274937 385854 
2012.005 523318 662240 780384 861028 895972 884037 830181 742426 630185 
2016.344 502473 368249 235949 114703 13455 -60283 -102855 -116821 -111615 
2020.684 -100702 -98277 -112163 -140396 -169475 -179731 -151580 -75733 42014 
2025.023 180150 307531 393430 417874 378191 289416 178387 75295 4013 -22313 
2029.845 -3308 52923 132281 219366 298924 356712 380657 364396 309850 230888 
2034.667 150831 97570 93380 147248 249037 373146 486035 558728 576207 543187 
2039.489 480794 419259 386080 397270 452277 536232 626099 699281 739796 
2043.828 741917 708405 648715 575100 501267 440930 408614 417821 478593 
2048.168 593250 753373 938262 1119509 1266790 1356308 1375182 1323990 
2052.025 1214820 1068348 909004 761137 644505 571689 546028 562513 609434 
2056.365 672319 736851 792305 832417 855888 865194 864673 858798 851053 
2060.705 843525 838291 837397 844518 863854 899290 952161 1020069 1096016 
2065.044 1169941 1230791 1269769 1282191 1268896 1235121 1189067 1138948 
2068.902 1091429 1050323 1017095 991327 972496 960361 955805 960253 975429 
2073.241 1002498 1041779 1091820 1149661 1210067 1266384 1310875 1336462 
2077.099 1338420 1316224 1274503 1222882 1173626 1138900 1127148 1140992 
2080.956 1176112 1223249 1270495 1307931 1329570 1335201 1328805 1316401 
2084.813 1302556 1288903 1273045 1250693 1217810 1173476 1120732 1066076 
2088.671 1016656 977602 949292 927387 903944 871319 825193 767521 706344 
2093.010 654029 623229 623044 655557 715531 791545 869928 938392 989330 
2097.350 1020388 1034274 1035946 1030931 1022980 1014118 1004592 994387 
2101.208 983819 974726 969811 972406 984448 1006192 1034727 1064702 1089174 
2105.547 1101665 1098154 1078897 1048514 1015373 988822 976713 982643 
2109.405 1005179 1038138 1073296 1102600 1121347 1128651 1127130 1120584 
2113.262 1112002 1101623 1087030 1064040 1029188 980977 921247 854123 784784 
2117.602 717296 653665 593440 535112 477537 421622 370703 329733 303493 
2121.941 294583 301768 320073 341292 356507 357839 340408 302646 246151 
2126.281 174263 90683 -1642 -101086 -207173 -319526 -437355 -558194 -678258 
2130.620 -792119 -894101 -978647 -1041846 -1081030 -1095544 -1085592 
2133.996 -1052324 -997468 -923871 -836278 -742266 -652038 -578287 -533091 
2137.853 -526633 -564089 -645385 -764791 -913258 -1080006 -1255146 -1429679 
2141.710 -1596188 -1747619 -1877363 -1979136 -2049411 -2088218 -2100908 
2145.086 -2096627 -2086575 -2079353 -2078722 -2081046 -2078271 -2060696 
2148.461 -2023245 -1968244 -1907639 -1859473 -1844405 -1879069 -1972686 
2151.836 -2124240 -2324774 -2559511 -2812322 -3068000 -3314219 -3540776 
2155.211 -3737571 -3892876 -3992548 -4019025 -3955541 -3788675 -3516141 
2158.587 -3150665 -2723536 -2278326 -1863306 -1518881 -1269823 -1120919 
2161.962 -1060172 -1061315 -1092235 -1119298 -1115106 -1061871 -955177 
2165.337 -801803 -618479 -425591 -243771 -88954 27641 101540 132232 122906 
2169.677 77683 2243 -95839 -207101 -319442 -418159 -488671 -517920 -498617 
2174.016 -430298 -322079 -190167 -56989 54684 124363 139385 94878 -4567 
2178.356 -147516 -316858 -492818 -654904 -784615 -866994 -893764 -863416 
2182.213 -781896 -660721 -514405 -357369 -201829 -56180 73765 184565 273430 
2186.553 338822 380022 398692 398278 384408 362089 335470 305855 273798 
2190.893 239999 208197 184935 179852 200486 250033 323203 407085 483863 
2195.232 537108 556930 544186 509470 469733 441749 437105 458996 503657 
2199.572 562974 629368 697644 765624 831827 893252 943378 973944 977152 
2203.911 950037 895807 824503 748809 681504 630330 597957 581965 578906 
2208.251 585414 601329 627259 663910 709067 757557 801822 835069 853469 
2212.591 857753 852059 842581 833478 826362 819052 808488 792111 770435 
2216.930 747260 728493 719463 723144 738057 759567 780780 795486 799435 
2221.270 792337 776976 758851 743934 738061 744598 764552 795696 833682 
2225.609 872889 908138 935251 952703 960497 960139 952972 940418 923258 
2229.949 903843 886063 876618 883342 913298 969569 1049241 1142968 1237222 
2234.289 1317793 1374588 1403696 1408568 1396844 1377571 1357007 1337574 
2238.146 1317903 1295822 1270378 1244350 1222985 1212672 1217662 1238441 
2242.003 1271086 1309034 1345046 1373804 1392914 1402515 1403963 1398839 
2245.861 1388088 1372927 1355375 1339352 1330104 1332828 1350269 1381505 
2249.718 1421045 1460550 1490986 1505998 1503427 1486254 1460645 1434266 
2253.576 1413042 1400230 1395832 1397911 1404032 1412885 1424717 1441275 
2257.433 1463908 1492913 1526012 1558445 1583598 1594741 1586488 1557089 
2261.291 1508702 1448065 1384582 1329001 1290817 1276541 1288258 1323951 
2265.148 1377836 1442353 1509440 1572191 1625408 1666473 1694911 1712661 
2269.005 1723283 1731623 1742218 1758691 1781915 1810083 1838716 1862220 
2272.863 1875738 1877011 1867351 1851338 1835275 1825220 1824870 1834752 
2276.720 1852171 1872999 1892986 1909652 1922911 1935053 1949673 1970937 
2280.578 2001905 2044476 2098439 2161734 2230146 2298254 2359681 2408679 
2284.435 2440871 2454865 2451999 2436479 2413767 2389382 2367353 2349634 
2288.292 2335994 2324841 2313965 2301439 2285935 2266902 2244177 2218163 
2292.150 2189529 2159757 2130681 2104651 2083778 2069506 2062108 2060833 
2296.007 2064108 2070492 2078977 2089261 2101300 2114877 2128898 2141494 
2299.865 2150436 2154010 2151611 2144326 2134288 2124021 2115293 2108667 
2303.722 2103278 2097668 2090325 2080648 2069018 2056651 2045038 2035760 
2307.580 2030022 2029120 2034273 2046855 2067753 2096808 2132294 2170867 
2311.437 2208115 2239840 2263044 2276849 2282444 2282503 2280093 2277908 
2315.294 2277739 2280757 2287732 2299555 2316884 2339960 2368193 2400151 
2319.152 2434439 2470602 2509977 2555637 2611018 2677699 2752848 2828201 
2323.009 2890684 2925409 2919517 2866088 2766039 2628282 2467288 2300043 
2326.867 2142226 2005701 1896688 1816058 1760549 1724796 1702990 1690286 
2330.724 1682894 1678153 1674141 1669593 1663991 1657726 1651994 1648358 
2334.582 1648030 1651374 1657480 1664392 1669929 1672470 1671532 1667932 
2338.439 1663298 1659537 1657965 1658905 1661919 1665856 1669417 1671567 
2342.296 1671422 1668452 1662221 1652618 1639800 1624593 1608310 1592788 
2346.154 1579670 1570164 1564437 1561836 1560869 1560139 1558626 1556179 
2350.011 1553171 1550366 1548280 1546762 1545014 1541897 1536420 1528329 
2353.869 1518114 1507088 1496771 1488447 1482661 1479021 1476447 1473517 
2357.726 1468921 1461905 1452391 1440725 1427629 1413720 1399498 1385082 
2361.583 1370409 1355398 1339995 1324334 1308653 1293174 1278191 1263974 
2365.441 1250720 1238931 1229145 1222166 1218820 1219631 1224676 1233289 
2369.298 1244162 1255598 1265926 1273961 1279295 1282363 1284232 1286196 
2373.156 1289276 1293910 1299987 1306889 1313952 1320812 1327491 1334460 
2377.013 1342263 1351369 1361646 1372535 1382941 1391771 1398175 1401792 
2380.871 1402932 1402336 1401100 1400183 1400331 1401975 1405189 1409989 
2384.728 1416201 1423706 1432193 1441172 1449866 1457169 1461884 1463190 
2388.585 1460621 1454662 1446494 1437921 1430590 1425907 1424259 1425277 
2392.443 1427967 1431293 1434669 1438271 1442848 1449382 1458277 1469117 
2396.300 1480106 1488959 1493134 1491057 1482700 1469738 1455104 1442199 
2400.158 1433660 1430819 1433099 1438630 1444906 1449846 1452421 1453262 
2404.015 1454175 1457844 1466677 1482248 1504548 1532265 1562777 1593051 
2407.873 1620218 1642336 1658451 1668865 1674358 1676130 1675045 1671605 
2411.730 1665818 1657738 1647496 1635878 1624209 1614250 1607650 1605566 
2415.587 1608089 1614360 1622602 1630709 1636656 1639066 1637228 1631473 
2419.445 1622517 1611678 1600225 1589493 1580459 1573875 1570091 1569165 
2423.302 1570716 1574166 1578687 1583551 1587986 1591581 1594175 1595838 
2427.160 1596931 1598040 1599812 1602866 1607548 1613866 1621332 1628957 
2431.017 1635488 1639748 1640785 1638319 1632668 1624746 1615651 1606521 
2434.875 1598100 1590905 1585223 1581317 1579532 1580377 1584494 1592401 
2438.732 1604298 1619919 1638446 1658650 1678808 1697079 1711537 1720583 
2442.589 1723095 1718836 1708372 1693240 1675347 1656809 1639114 1623159 
2446.447 1608846 1595674 1582959 1570504 1558728 1548670 1541589 1538516 
2450.304 1539815 1545325 1554191 1565600 1578903 1593945 1610719 1629178 
2454.162 1648729 1668159 1685344 1698074 1704121 1702024 1691258 1672482 
2458.019 1647318 1618188 1587946 1559785 1536672 1521178 1514852 1518011 
2461.876 1529105 1545221 1561966 1574795 1579693 1574475 1559204 1536621 
2465.734 1511167 1488236 1472608 1467286 1472637 1486464 1504578 1521964 
2469.591 1534130 1538605 1534886 1525005 1512420 1501179 1494626 1495050 
2473.449 1502863 1517163 1535778 1555983 1574761 1589161 1596590 1595319 
2477.306 1584659 1565740 1541270 1515497 1493151 1478431 1473745 1479039 
2481.164 1491762 1507960 1523349 1534891 1541640 1544919 1547373 1552133 
2485.021 1561213 1575202 1592692 1611446 1628705 1642417 1651440 1655744 
2488.878 1656040 1653597 1649645 1645591 1642559 1641670 1643606 1648635 
2492.736 1656250 1665537 1675005 1683336 1689647 1693752 1695826 1696574 
2496.593 1696364 1695288 1693001 1688915 1682590 1674095 1663846 1652628 
2500.451 1641146 1630022 1619392 1609389 1600191 1592438 1587232 1585778 
2504.308 1589022 1597303 1609825 1624999 1640602 1654569 1665304 1672382 
2508.166 1676113 1677735 1678252 1678448 1678120 1676431 1671786 1662973 
2512.023 1649307 1631396 1611165 1591438 1575196 1564858 1561295 1563818 
2515.880 1570122 1577434 1582974 1585333 1584477 1581860 1579691 1580078 
2519.738 1584310 1592560 1603915 1616963 1630297 1642967 1654448 1664685 
2523.595 1673382 1680079 1683874 1683924 1679589 1670936 1658660 1644043 
2527.453 1628420 1613200 1599312 1587596 1578538 1572956 1571554 1574958 
2531.310 1583213 1595617 1610444 1625262 1637370 1644532 1645569 1640802 
2535.167 1631821 1621287 1611943 1605921 1604094 1606037 1610105 1614226 
2539.025 1616615 1616410 1614027 1610917 1608959 1609768 1613936 1621106 
2542.882 1629964 1639193 1647998 1656568 1665689 1676398 1688945 1702355 
2546.740 1714169 1721488 1721711 1714148 1700160 1683347 1668185 1658757 
2550.597 1657269 1663588 1675214 1688477 1699744 1706576 1708213 1705451 
2554.455 1699903 1693588 1688062 1684623 1684184 1687718 1695754 1708474 
2558.312 1725074 1743621 1761341 1775184 1782966 1784138 1780085 1773917 
2562.169 1769257 1769124 1774565 1784444 1795451 1803422 1804538 1796852 
2566.027 1780715 1759165 1736861 1719139 1710286 1712803 1726582 1749361 
2569.884 1777283 1806227 1832721 1854994 1872974 1887999 1901843 1915998 
2573.742 1930662 1945005 1957166 1965442 1968729 1967421 1963124 1958390 
2577.599 1955619 1956576 1961532 1969743 1979358 1988481 1995493 1999783 
2581.457 2001584 2001950 2002271 2004056 2008186 2014941 2023599 2032766 
2585.314 2040385 2044526 2043869 2038333 2029076 2018577 2009682 2004974 
2589.171 2005741 2011748 2021296 2031819 2040834 2046652 2048817 2047939 
2593.029 2045170 2041866 2038824 2036569 2035161 2034699 2035304 2036997 
2596.886 2039574 2042336 2044091 2043541 2039782 2032891 2024051 2015332 
2600.744 2009012 2006683 2008766 2014342 2021510 2028198 2032965 2035520 
2604.601 2036635 2037944 2041186 2047630 2057867 2071750 2088685 2107803 
2608.458 2128084 2148517 2167824 2184603 2197439 2205297 2207672 2205018 
2612.316 2198612 2190316 2182167 2175887 2172739 2173290 2177665 2185664 
2616.173 2196760 2210362 2225641 2241618 2257142 2271161 2282787 2291434 
2620.031 2296887 2299055 2297865 2293245 2285105 2273674 2259712 2244861 
2623.888 2231319 2221781 2218660 2223342 2235860 2254517 2276273 2297383 
2627.746 2314329 2324590 2327257 2323203 2314765 2305176 2297542 2294379 
2631.603 2296756 2304357 2315549 2328134 2339835 2349001 2355000 2358194 
2635.460 2359677 2360911 2363037 2366742 2372082 2378574 2385471 2392129 
2639.318 2397950 2402809 2406678 2409718 2412115 2414013 2415517 2416691 
2643.175 2417525 2417984 2417870 2417032 2415137 2412086 2407825 2402569 
2647.033 2396649 2390538 2384659 2379270 2374533 2370378 2366615 2363011 
2650.890 2359291 2355174 2350437 2344990 2338841 2332323 2325874 2320033 
2654.748 2315169 2311362 2308074 2304489 2299456 2292088 2281887 2269071 
2658.605 2254256 2238343 2221995 2205364 2188047 2169334 2148533 2125528 
2662.462 2100865 2075939 2052311 2031437 2014162 2000431 1989472 1980083 
2666.320 1971204 1962178 1952925 1943920 1935786 1929014 1923779 1919846 
2670.177 1916757 1914134 1911691 1909381 1907377 1905795 1904554 1903286 
2674.035 1901324 1897937 1892442 1884539 1874517 1863221 1851958 1842260 
2677.892 1835453 1832394 1833057 1836778 1842277 1848121 1853146 1856801 
2681.750 1859284 1861207 1863385 1866195 1869421 1872269 1873618 1872481 
2685.607 1868459 1861931 1853963 1845956 1839141 1834278 1831485 1830492 
2689.464 1830847 1832226 1834528 1837855 1842179 1847193 1852128 1856040 
2693.322 1858004 1857521 1854543 1849550 1843295 1836403 1829200 1821686 
2697.179 1813789 1805554 1797470 1790392 1785427 1783548 1785120 1789863 
2701.037 1796816 1804590 1811885 1817728 1821591 1823462 1823651 1822556 
2704.894 1820624 1818190 1815655 1813411 1811749 1810860 1810545 1810284 
2708.751 1809139 1806225 1800785 1792699 1782522 1771587 1761550 1754083 
2712.609 1750391 1750948 1755238 1762194 1770240 1777869 1784021 1788349 
2716.466 1791125 1793124 1795326 1798350 1802446 1807230 1811877 1815530 
2720.324 1817499 1817629 1816294 1814280 1812376 1811113 1810462 1809921 
2724.181 1808656 1805906 1801266 1794863 1787451 1780137 1774095 1770437 
2728.039 1769768 1772559 1778700 1787892 1799392 1812174 1824843 1835937 
2731.896 1843927 1847802 1847144 1842457 1834954 1826326 1818275 1812145 
2735.753 1808470 1807160 1807469 1808496 1809377 1809640 1809286 1808655 
2739.611 1808264 1808573 1809832 1811995 1814757 1817613 1820018 1821556 
2743.468 1821904 1821015 1818981 1816160 1812831 1809520 1806567 1804343 
2747.326 1803098 1802925 1803805 1805592 1807915 1810489 1812897 1815001 
2751.183 1816735 1818322 1820029 1822135 1824640 1827340 1829680 1831020 
2755.041 1830691 1828444 1824341 1818856 1812645 1806553 1801183 1797016 
2758.898 1794203 1792828 1792687 1793520 1794873 1796198 1796875 1796445 
2762.755 1794733 1792007 1788918 1786265 1784764 1784638 1785451 1786377 
2766.613 1786325 1784617 1781150 1776611 1772238 1769400 1769102 1771664 
2770.470 1776714 1783396 1790725 1797869 1804382 1810068 1814748 1818236 
2774.328 1820157 1820258 1818558 1815550 1812177 1809634 1808912 1810553 
2778.185 1814314 1819461 1824928 1829835 1833697 1836540 1838739 1840677 
2782.042 1842568 1844367 1845744 1846335 1845990 1844933 1843585 1842527 
2785.900 1842274 1843240 1845546 1849297 1854476 1861016 1868807 1877586 
2789.757 1886819 1895907 1904133 1910991 1916161 1919649 1921673 1922418 
2793.615 1922139 1920919 1918776 1915956 1912805 1909935 1908137 1908052 
2797.472 1910048 1914097 1919720 1926250 1932867 1938997 1944280 1948726 
2801.330 1952457 1955783 1958856 1961807 1964560 1967070 1969193 1971128 
2805.187 1973119 1975745 1979722 1985677 1993949 2004391 2016179 2028021 
2809.044 2038305 2045603 2049040 2048644 2045264 2040424 2035895 2033165 
2812.902 2033201 2036326 2042259 2050469 2060210 2070884 2081857 2092578 
2816.759 2102582 2111384 2118794 2124999 2130494 2136133 2142764 2150975 
2820.617 2160844 2171869 2183069 2193342 2201599 2207156 2209743 2209501 
2824.474 2206896 2202613 2197471 2192422 2188439 2186344 2186640 2189359 
2828.332 2193939 2199428 2204698 2208883 2211608 2213112 2214099 2215537 
2832.189 2218035 2221920 2226943 2232475 2237846 2242588 2246471 2249666 
2836.046 2252441 2255121 2257802 2260455 2262783 2264604 2265707 2266112 
2839.904 2265998 2265798 2266115 2267708 2271411 2277917 2287523 2300138 
2843.761 2315042 2331279 2347619 2363265 2377851 2391752 2405793 2421013 
2847.619 2438213 2457540 2478405 2499561 2519340 2536140 2548707 2556466 
2851.476 2559560 2558836 2555554 2551238 2547278 2544717 2544008 2545046 
2855.333 2547204 2549750 2552006 2553847 2555496 2557522 2560448 2564244 
2859.191 2568255 2571222 2571714 2568790 2562555 2554161 2545802 2539968 
2863.048 2538701 2543157 2553193 2567797 2585556 2605331 2626472 2649138 
2866.906 2673843 2701133 2731363 2764427 2800009 2837790 2877610 2919510 
2870.763 2963599 3009805 3057738 3106906 3156714 3207037 3258128 3310716 
2874.621 3365533 3422909 3482289 3542196 3600514 3654844 3703204 3744524 
2878.478 3778646 3806181 3828063 3845244 3858239 3867272 3872222 3873018 
2882.335 3869569 3861922 3850104 3834227 3814236 3790184 3762376 3731323 
2886.193 3698014 3663598 3629299 3596278 3565489 3537759 3513708 3493935 
2890.050 3478845 3468615 3462794 3460426 3459920 3459433 3457399 3452871 
2893.908 3445937 3437690 3429855 3424373 3422527 3424754 3430384 3437791 
2897.765 3445004 3450255 3452418 3451432 3448126 3444068 3441094 3440827 
2901.623 3444373 3452021 3463328 3477350 3492554 3507537 3520954 3531861 
2905.480 3539833 3545035 3548089 3550025 3552060 3555295 3560702 3568806 
2909.337 3579670 3593088 3608555 3625686 3644165 3664032 3685480 3709013 
2913.195 3734955 3763456 3794320 3827013 3860710 3894517 3927615 3959547 
2917.052 3990190 4019861 4049090 4078575 4108815 4140101 4172344 4205136 
2920.910 4237966 4270255 4301881 4333054 4364514 4397346 4432574 4470934 
2924.767 4512540 4556966 4603251 4650421 4697846 4745444 4793910 4844345 
2928.625 4897840 4955179 5016481 5081294 5148943 5219045 5292073 5369403 
2932.482 5453161 5545790 5649242 5764588 5891755 6029750 6177024 6332332 
2936.339 6495004 6665069 6843104 7029745 7225100 7428668 7638943 7853750 
2940.197 8070573 8286615 8498882 8704170 8898792 9078623 9239243 9376383 
2944.054 9486574 9567586 9619068 9642266 9639792 9615068 9571368 9511521 
2947.912 9437416 9350152 9250233 9138083 9014325 8880183 8737503 8588623 
2951.769 8436237 8282960 8131081 7982324 7837801 7698136 7563554 7434279 
2955.626 7310671 7193244 7082472 6978660 6881506 6790077 6702929 6618466 
2959.484 6535518 6453741 6373939 6297778 6227210 6163812 6107990 6058956 
2963.341 6014585 5972397 5930198 5886826 5842635 5799122 5758396 5722385 
2967.199 5692178 5667702 5647856 5631121 5615953 5601492 5587553 5574646 
2971.056 5563546 5554943 5549161 5546247 5546047 5548530 5553956 5563035 
2974.914 5576800 5596346 5622583 5655870 5695917 5741783 5791951 5844817 
2978.771 5899074 5954022 6010002 6068445 6131643 6202477 6283718 6377594 
2982.628 6485416 6607502 6743436 6892482 7053856 7227245 7412500 7609450 
2986.486 7817530 8035451 8261010 8491246 8722851 8952636 9177816 9396172 
2990.343 9606019 9805785 9993876 10168488 10327693 10469813 10593397 
2993.719 10697589 10782038 10846733 10891633 10916450 10920648 10903554 
2997.094 10864715 10804261 10723297 10623701 10508155 10379612 10240940 
3000.469 10094554 9942172 9784938 9623489 9458221 9289598 9118219 8944795 
3004.326 8770326 8595517 8420951 8246864 8072934 7898527 7722969 7545575 
3008.184 7366346 7186062 7006362 6829618 6658462 6495393 6341848 6198155 
3012.041 6063179 5934462 5809037 5684026 5557074 5427209 5294717 5160988 
3015.899 5028248 4898806 4774957 4658292 4549800 4449671 4357445 4272274 
3019.756 4192801 4117648 4045394 3974838 3905145 3836033 3767462 3699720 
3023.614 3633258 3568425 3505549 3444854 3386709 3331503 3279745 3231662 
3027.471 3187332 3146096 3106719 3067495 3026803 2983348 2936803 2888063 
3031.328 2839028 2792224 2750221 2714927 2687282 2666805 2652098 2640938 
3035.186 2631068 2620558 2608230 2593797 2577841 2561462 2545951 2532397 
3039.043 2521243 2512261 2504416 2496303 2486360 2473365 2456742 2436780 
3042.901 2414709 2392182 2371030 2352932 2338847 2329092 2323206 2320379 
3046.758 2319524 2319706 2320392 2321303 2322647 2324557 2327310 2330866 
3050.615 2334886 2338794 2341974 2343795 2344001 2342569 2339747 2335997 
3054.473 2331484 2326351 2320372 2313433 2305432 2296696 2287886 2280032 
3058.330 2274000 2270338 2268923 2269012 2269432 2269067 2267227 2263911 
3062.188 2259758 2255800 2252944 2251616 2251557 2251871 2251523 2249604 
3066.045 2245774 2240341 2234203 2228426 2224094 2221818 2221785 2223612 
3069.903 2226620 2229876 2232461 2233494 2232396 2228937 2223470 2216944 
3073.760 2210706 2206466 2205548 2208774 2216041 2226129 2237144 2246815 
3077.617 2252943 2254219 2250236 2241646 2230024 2217269 2205403 2196004 
3081.475 2189944 2187412 2187785 2189820 2192032 2192925 2191398 2186930 
3085.332 2179874 2171289 2162774 2155951 2152140 2151874 2154632 2159139 
3089.190 2163283 2165108 2162980 2156200 2145349 2131998 2118581 2107680 
3093.047 2101503 2101227 2106927 2117327 2130304 2143296 2154125 2161269 
3096.905 2164316 2163840 2161120 2157608 2154354 2151914 2150026 2148200 
3100.762 2145758 2142427 2138594 2135083 2133055 2133449 2136549 2141771 
3104.619 2147570 2151907 2152847 2149145 2140600 2128373 2114604 2101952 
3108.477 2092864 2089004 2090741 2097312 2106943 2117550 2127187 2134524 
3112.334 2139098 2141210 2141647 2141360 2141115 2141468 2142585 2144396 
3116.192 2146721 2149309 2152023 2154717 2157381 2160035 2162742 2165607 
3120.049 2168715 2171970 2175143 2177865 2179557 2179788 2178317 2175330 
3123.906 2171333 2166998 2163156 2160312 2158594 2157706 2157165 2156455 
3127.764 2155304 2153688 2151881 2150170 2148521 2146850 2144567 2141188 
3131.621 2136490 2130684 2124602 2119352 2116061 2115384 2117282 2120888 
3135.479 2124760 2127450 2127778 2125539 2121495 2117185 2114585 2115375 
3139.336 2120581 2130109 2143003 2157571 2172093 2185150 2195969 2204391 
3143.194 2210730 2215176 2217771 2218238 2216227 2211642 2205127 2197890 
3147.051 2191668 2187977 2187485 2189590 2192470 2193580 2190639 2182458 
3150.908 2169607 2154187 2139167 2127412 2120661 2118937 2120811 2124128 
3154.766 2126979 2128462 2128925 2129537 2131700 2135967 2141841 2147832 
3158.623 2152051 2153007 2150411 2145135 2139048 2134226 2132328 2134068 
3162.481 2139077 2146204 2153984 2160914 2165727 2167400 2165247 2158939 
3166.338 2148857 2135948 2121992 2109131 2099433 2094199 2093675 2096894 
3170.196 2102119 2107633 2112349 2115978 2119203 2122930 2127833 2133976 
3174.053 2140933 2147978 2154822 2161839 2169917 2179965 2192262 2205922 
3177.910 2218871 2228433 2232453 2229880 2221514 2209515 2196733 2185779 
3181.768 2178111 2173996 2172611 2172994 2174448 2177039 2181452 2188429 
3185.625 2198423 2211111 2225639 2240774 2255389 2268539 2279750 2288484 
3189.483 2294191 2296246 2294164 2287922 2278379 2267113 2256242 2247734 
3193.340 2242912 2242251 2245257 2250964 2258405 2266828 2275782 2284835 
3197.198 2293407 2300507 2304980 2305834 2302765 2296161 2287151 2277104 
3201.055 2267281 2258361 2250582 2243890 2238394 2234600 2233243 2235046 
3204.912 2240152 2247871 2256888 2265595 2272826 2278374 2283027 2288233 
3208.770 2295450 2305589 2318607 2333523 2348986 2363546 2376088 2385841 
3212.627 2392176 2394409 2391822 2384057 2371295 2354901 2337032 2320503 
3216.485 2307795 2300393 2298559 2301126 2306381 2312669 2319034 2325227 
3220.342 2331586 2338261 2345047 2350999 2355042 2356306 2354737 2351102 
3224.199 2346838 2343255 2341194 2340522 2340361 2339624 2337603 2334267 
3228.057 2330494 2327612 2326894 2329265 2334824 2343106 2353198 2364111 
3231.914 2374940 2384924 2393679 2401130 2407559 2413729 2420619 2429007 
3235.772 2438990 2449511 2458333 2462356 2458694 2445567 2423310 2394631 
3239.629 2364017 2336621 2316829 2306913 2306623 2313244 2322795 2331060 
3243.487 2334946 2333064 2326034 2315975 2305881 2298637 2296464 2300216 
3247.344 2309209 2321398 2333876 2343711 2348777 2348348 2343583 2337010 
3251.201 2331717 2330091 2333088 2339569 2346885 2351738 2351714 2345978 
3255.059 2335964 2324697 2315929 2312718 2316669 2327424 2343241 2361568 
3258.916 2380133 2397299 2412199 2424500 2433970 2440222 2442671 2440801 
3262.774 2434695 2424914 2412809 2399999 2388110 2378176 2370792 2365938 
3266.631 2363304 2362410 2362891 2364428 2366638 2369223 2371830 2374119 
3270.489 2376144 2378048 2380404 2383732 2388427 2394480 2401517 2408766 
3274.346 2415366 2420423 2423527 2424558 2423833 2422036 2419919 2418297 
3278.203 2417869 2418909 2421475 2425070 2428798 2431554 2432188 2429703 
3282.061 2423766 2414521 2402862 2389939 2377090 2365391 2355392 2347139 
3285.918 2340246 2334291 2329166 2325333 2323903 2326304 2333866 2347214 
3289.776 2365708 2387502 2409550 2428502 2441349 2446256 2443040 2433044 
3293.633 2418694 2402743 2387610 2374750 2364740 2357281 2351920 2348299 
3297.490 2346466 2346720 2349441 2354706 2362163 2370844 2379584 2387193 
3301.348 2392780 2395944 2396827 2395831 2393621 2390710 2387619 2384661 
3305.205 2382125 2380290 2379523 2380238 2382858 2387618 2394652 2403595 
3309.063 2413924 2424590 2434513 2442644 2448188 2450922 2451033 2449123 
3312.920 2446075 2442511 2439048 2435851 2433078 2430818 2429171 2428228 
3316.778 2427967 2428018 2427700 2426174 2422736 2417217 2410265 2403177 
3320.635 2397608 2395114 2396346 2400935 2407642 2414630 2420332 2423719 
3324.492 2424652 2423817 2422342 2421225 2421285 2422846 2425967 2430590 
3328.350 2436538 2443498 2450807 2457402 2461977 2463198 2460411 2453840 
3332.207 2444774 2435201 2427389 2422877 2422149 2424476 2428366 2432100 
3336.065 2434385 2434928 2434256 2433518 2433790 2435829 2439646 2444657 
3339.922 2450085 2455087 2459135 2462023 2463752 2464310 2463708 2461957 
3343.780 2459134 2455533 2451808 2448565 2446415 2445596 2445891 2446628 
3347.637 2446867 2445764 2442856 2438288 2432838 2427794 2424486 2424079 
3351.494 2427272 2433844 2442891 2453037 2462644 2470322 2475255 2477273 
3355.352 2476826 2474649 2471566 2467939 2463791 2458940 2453059 2446168 
3359.209 2438801 2431907 2426710 2424239 2425029 2428887 2435113 2442622 
3363.067 2450440 2457840 2464664 2470902 2476755 2482020 2486301 2488926 
3366.924 2489283 2487211 2483151 2478127 2473521 2470548 2469846 2471130 
3370.781 2473415 2475188 2475168 2472749 2468375 2463261 2459407 2458543 
3374.639 2461691 2468854 2478943 2490071 2500292 2508036 2512617 2514194 
3378.496 2513528 2511450 2508642 2505298 2501075 2495473 2488126 2479136 
3382.354 2469119 2459202 2450821 2445322 2443642 2446145 2452469 2461362 
3386.211 2470873 2478597 2482191 2479599 2469952 2453556 2432259 2409041 
3390.069 2387305 2370109 2359486 2355951 2358524 2365164 2373371 2380918 
3393.926 2386262 2388806 2388814 2387164 2385159 2384057 2385162 2389378 
3397.783 2397131 2408148 2421470 2435530 2448483 2458658 2465113 2467811 
3401.641 2467577 2465783 2463795 2462355 2461477 2460530 2458745 2455664 
3405.498 2451641 2447766 2445634 2446669 2451538 2459874 2470269 2480668 
3409.356 2489220 2494420 2495980 2494264 2490433 2485646 2480836 2476381 
3413.213 2472165 2467719 2462628 2456706 2450186 2443732 2438221 2434468 
3417.071 2433074 2434154 2437513 2442601 2448692 2455222 2461755 2468024 
3420.928 2473685 2478252 2481022 2481072 2477581 2470215 2459341 2446170 
3424.785 2432592 2420788 2412731 2409621 2411748 2418528 2428760 2440970 
3428.643 2453739 2465877 2476356 2484226 2488540 2488508 2483632 2474119 
3432.500 2461055 2446276 2432328 2421799 2416738 2418223 2426035 2438711 
3436.358 2453878 2468716 2480595 2487497 2488576 2484106 2475556 2465059 
3440.215 2455138 2447915 2444816 2446027 2450926 2457925 2465367 2471801 
3444.073 2476417 2479119 2480371 2480788 2480775 2480333 2478961 2475952 
3447.930 2470782 2463392 2454408 2445098 2437029 2431699 2430134 2432611 
3451.787 2438658 2447172 2456944 2466906 2476487 2485722 2494948 2504503 
3455.645 2514516 2524310 2532757 2538353 2539825 2536602 2529206 2519116 
3459.502 2508651 2500177 2495711 2496455 2502703 2513968 2529343 2547642 
3463.360 2567733 2588206 2607706 2624691 2637756 2646046 2649523 2649039 
3467.217 2646215 2642830 2640438 2639717 2640552 2642217 2644059 2645889 
3471.074 2648340 2652477 2659484 2669912 2683460 2698828 2714424 2728737 
3474.932 2741121 2751738 2761350 2770906 2780783 2790639 2799665 2806933 
3478.789 2812019 2815298 2818084 2822011 2828523 2838305 2851123 2865979 
3482.647 2881628 2897130 2912238 2927387 2943483 2961316 2981334 3003140 
3486.504 3025779 3047732 3067655 3084377 3097496 3107316 3114861 3121535 
3490.362 3129049 3138798 3151762 3168167 3187498 3208632 3230237 3250904 
3494.219 3269663 3286003 3300018 3312156 3323020 3333236 3343277 3353310 
3498.076 3363370 3373148 3382266 3390201 3396740 3401916 3406322 3410885 
3501.934 3416706 3424464 3434099 3444390 3453212 3458035 3456717 3448377 
3505.791 3433810 3415439 3396578 3380292 3368614 3361923 3358999 3357736 
3509.649 3355808 3351812 3345340 3336906 3327530 3317961 3308570 3299068 
3513.506 3289018 3278061 3266270 3254226 3242644 3232107 3222780 3214369 
3517.364 3206228 3197670 3188384 3178322 3167828 3157345 3147371 3138265 
3521.221 3130205 3123309 3117532 3112658 3108069 3102823 3095563 3085036 
3525.078 3070205 3050855 3027535 3001626 2974725 2948466 2923954 2901609 
3528.936 2881250 2862342 2844515 2827544 2811665 2797476 2785715 2777074 
3532.793 2772018 2770573 2772286 2776050 2780437 2783797 2784702 2782362 
3536.651 2777097 2770161 2763641 2759626 2759584 2763506 2770079 2776750 
3540.508 2780747 2779740 2772819 2760197 2743391 2724085 2703748 2683086 
3544.365 2662326 2641372 2620594 2600972 2583940 2570837 2562379 2558078 
3548.223 2556286 2554804 2551685 2545862 2537705 2528758 2521208 2517065 
3552.080 2517563 2522833 2532067 2544080 2557617 2571531 2584946 2596916 
3555.938 2606254 2611713 2612175 2607231 2597526 2584799 2571673 2560859 
3559.795 2554718 2554249 2559309 2568616 2580375 2592737 2604564 2615013 
3563.653 2623905 2631094 2636423 2639399 2639612 2636604 2630422 2621606 
3567.510 2611057 2600158 2590410 2583198 2579566 2579891 2583764 2589754 
3571.367 2595483 2597903 2593993 2581488 2559641 2529823 2495395 2461181 
3575.225 2432296 2412925 2405260 2409015 2421642 2439125 2457254 2472389 
3579.082 2482434 2486781 2486248 2482183 2476189 2469554 2463158 2457437 
3582.940 2452473 2447991 2443423 2437840 2430158 2419288 2404507 2385923 
3586.797 2364596 2342314 2321622 2304872 2293852 2289285 2290702 2296503 
3590.655 2304381 2311742 2316243 2316144 2310584 2299984 2285745 2270212 
3594.512 2256150 2245952 2241141 2241647 2245816 2250880 2253770 2252040 
3598.369 2245073 2234040 2221916 2212379 2208574 2212064 2222381 2237095 
3602.227 2252650 2265581 2273431 2275274 2271677 2264116 2254277 2243477 
3606.084 2232240 2220769 2208945 2197083 2185848 2176321 2169785 2167347 
3609.942 2169565 2176586 2188183 2203630 2222105 2242421 2263145 2282722 
3613.799 2299550 2312349 2320558 2324417 2324994 2323906 2322915 2323492 
3617.656 2326478 2332287 2340824 2351725 2364406 2377944 2391146 2402391 
3621.514 2410277 2413730 2412893 2409387 2406039 2406554 2414190 2430695 
3625.371 2455698 2486679 2519566 2549940 2574465 2591277 2600469 2603430 
3629.229 2601942 2597569 2591238 2583524 2575111 2567369 2562304 2562228 
3633.086 2568685 2582046 2600711 2621501 2640622 2654679 2661707 2661730 
3636.944 2656458 2648513 2640762 2635217 2632967 2634334 2639097 2647075 
3640.801 2658196 2672559 2690241 2711072 2734637 2760165 2786908 2814129 
3644.658 2841066 2866760 2890264 2910357 2926210 2937393 2944183 2947675 
3648.516 2949210 2949944 2950334 2949849 2947306 2941608 2932396 2920607 
3652.373 2908396 2898562 2893594 2894630 2901165 2911019 2921332 2929330 
3656.231 2933356 2933349 2930316 2925901 2921484 2917400 2913253 2907956 
3660.088 2900583 2890936 2879780 2868425 2858488 2850920 2845835 2842292 
3663.946 2838687 2833301 2824997 2813342 2798705 2781828 2763626 2744580 
3667.803 2725087 2705381 2686179 2668730 2655011 2647113 2646583 2653608 
3671.660 2666636 2682414 2696688 2705124 2704836 2694791 2676363 2652745 
3675.518 2628071 2606069 2589041 2577322 2569797 2564401 2559263 2553369 
3679.375 2546779 2540300 2535120 2531921 2530468 2529622 2527437 2521831 
3683.233 2510929 2493593 2469918 2440960 2409026 2377163 2348806 2326941 
3687.090 2313735 2309836 2314254 2324600 2337776 2351019 2362567 2371797 
3690.948 2379157 2385240 2390157 2393015 2391999 2385380 2372277 2353433 
3694.805 2331431 2310023 2292996 2282749 2279519 2281220 2284649 2286326 
3698.662 2284151 2277860 2269231 2260799 2255038 2253180 2254941 2258370 
3702.520 2261102 2261011 2257162 2249802 2240548 2231617 2225310 2223496 
3706.377 2227085 2236179 2249971 2266920 2285246 2303093 2319000 2331996 
3710.235 2341603 2347659 2349785 2347245 2338728 2323032 2299598 2269322 
3714.092 2235089 2201403 2173629 2156257 2151846 2159749 2176468 2196488 
3717.949 2214081 2225122 2228359 2225224 2219627 2216003 2218078 2227665 
3721.807 2244358 2265871 2288705 2309072 2323538 2329334 2324678 2308866 
3725.664 2282760 2248802 2211326 2175638 2147433 2131290 2129562 2141856 
3729.522 2164935 2193849 2223275 2248754 2267699 2279578 2285391 2286965 
3733.379 2285969 2283441 2280047 2276049 2271800 2268177 2266022 2266227 
3737.237 2269181 2274610 2281887 2290133 2298696 2307098 2315176 2322678 
3741.094 2329138 2333828 2336467 2337184 2337271 2338717 2343813 2354071 
3744.951 2369418 2387616 2404838 2416876 2420337 2414046 2399448 2380135 
3748.809 2360768 2345608 2337062 2335233 2338155 2342578 2345351 2344240 
3752.666 2338336 2328141 2314766 2299786 2284842 2271321 2260686 2254087 
3756.524 2252319 2255410 2262352 2271341 2280257 2287281 2291856 2294676 
3760.381 2297460 2302013 2309386 2319049 2328943 2336235 2338330 2334000 
3764.239 2324090 2311243 2299014 2290629 2287860 2290456 2296572 2303347 
3768.096 2308263 2309686 2307512 2302841 2297487 2293220 2291334 2292336 
3771.953 2296127 2302011 2309163 2316597 2323297 2328426 2331414 2331901 
3775.811 2330106 2326406 2321601 2316325 2311099 2306315 2302166 2298993 
3779.668 2297318 2297815 2301182 2307574 2316559 2326716 2336089 2342298 
3783.526 2343576 2338979 2328937 2315104 2300059 2286526 2276857 2272275 
3787.383 2272704 2276900 2282790 2287981 2290652 2289887 2286040 2280498 
3791.240 2275363 2272633 2273470 2277887 2284522 2291224 2295696 2296459 
3795.098 2293232 2287313 2281011 2276977 2277228 2282518 2292160 2304319 
3798.955 2316393 2325956 2331294 2331577 2327109 2318795 2308155 2296504 
3802.813 2285374 2275954 2269215 2265924 2266621 2271356 2279634 2290471 
3806.670 2302296 2313358 2321954 2326777 2327392 2324077 2317972 2310533 
3810.528 2303554 2298225 2295340 2294913 2296318 2298798 2301446 2303634 
3814.385 2304925 2305088 2304033 2301491 2297615 2292662 2287578 2283699 
3818.242 2282538 2285289 2292160 2302149 2312925 2321523 2325128 2322096 
3822.100 2312475 2297819 2280900 2264300 2250099 2239119 2231360 2226131 
3825.957 2223084 2222156 2223991 2229001 2237329 2248204 2260239 2271636 
3829.815 2281094 2287930 2292400 2295224 2297109 2298106 2297829 2295388 
3833.672 2290242 2282597 2273791 2265975 2261313 2261391 2266520 2275659 
3837.530 2286849 2297760 2306494 2312046 2314451 2314290 2312491 2309736 
3841.387 2306684 2303566 2300719 2298258 2296597 2295956 2296657 2298869 
3845.244 2302852 2308889 2317331 2328206 2341126 2354852 2367677 2377286 
3849.102 2381633 2379408 2370559 2356027 2337923 2318690 2300632 2285469 
3852.959 2274225 2267301 2264699 2265888 2270121 2276140 2282408 2287110 
3856.817 2288562 2285764 2278665 2268104 2255727 2243309 2232289 2223353 
3860.674 2216579 2211516 2207916 2205754 2205601 2208094 2213584 2221890 
3864.531 2232067 2242805 2252859 2261422 2268443 2274401 2280192 2286347 
3868.389 2293077 2300016 2306671 2312483 2317425 2321692 2325519 2328735 
3872.246 2330742 2330239 2325923 2316882 2303351 2286850 2270138 2256365 
3876.104 2248381 2247555 2253667 2264624 2277160 2287616 2293281 2292744 
3879.961 2286606 2276933 2266777 2259069 2255752 2257271 2262454 2269268 
3883.819 2275444 2279418 2280954 2281159 2281990 2285444 2292489 2302761 
3887.676 2314342 2324332 2329963 2329298 2322009 2309479 2294386 2279773 
3891.533 2268321 2261545 2259721 2261817 2266307 2271360 2275578 2278005 
3895.391 2278365 2276528 2272885 2267762 2261486 2254437 2246928 2239260 
3899.248 2231853 2225204 2219875 2216549 2215906 2218354 2224012 2232187 
3903.106 2241923 2251728 2260199 2266312 2269870 2271344 2271821 2272416 
3906.963 2273798 2275981 2278257 2279443 2278464 2274755 2268695 2261162 
3910.821 2253747 2247747 2244098 2242917 2243640 2245427 2247530 2249607 
3914.678 2252092 2255840 2262034 2271529 2284605 2300737 2318440 2335570 
3918.535 2349731 2358696 2360961 2355866 2344171 2327549 2308738 2290781 
3922.393 2276693 2268741 2268032 2274331 2286061 2300682 2315214 2326957 
3926.250 2334258 2336708 2335412 2332783 2331592 2334411 2342682 2356130 
3930.108 2372830 2389298 2401650 2406397 2401513 2386876 2364324 2337012 
3933.965 2308668 2282567 2260995 2244916 2234449 2229002 2228125 2231398 
3937.823 2238743 2249832 2263938 2279399 2294256 2306154 2313397 2314964 
3941.680 2311355 2303880 2294683 2285629 2278268 2273118 2270124 2268680 
3945.537 2268308 2268678 2270002 2272612 2276866 2282843 2290188 2298066 
3949.395 2305494 2311413 2314972 2315559 2313029 2307446 2299274 2288976 
3953.252 2277216 2264698 2252112 2239921 2228644 2218613 2210307 2204123 
3957.110 2200647 2200503 2204185 2211840 2223124 2237296 2253121 2269270 
3960.967 2284573 2297965 2309154 2317937 2324873 2330574 2336035 2342191 
3964.824 2349946 2359861 2372004 2385456 2398752 2409854 2416679 2417679 
3968.682 2412532 2402117 2388513 2374306 2362031 2353155 2348211 2346229 
3972.539 2345873 2345197 2343066 2338746 2332477 2324870 2316929 2309654 
3976.397 2304006 2300693 2300545 2303989 2311335 2322410 2336616 2353071 
3980.254 2370802 2388833 2406603 2423429 2438762 2451718 2461197 2465940 
3984.112 2465033 2458529 2447417 2433678 2420044 2408725 2401247 2397707 
3987.969 2397018 2397308 2397022 2395033 2391315 2386497 2381504 2377032 
3991.826 2373257 2369789 2366226 2362435 2358951 2356902 2357723 2362489 
3995.684 2371618 2384655 2400409 2417296 2433960 2449232 2462534 2473367 
3999.541 2481314 2485888 2486725 
##END=
