##TITLE=Tecor_PLA-Bicolour_Black_Filament_r1_ATR-Corrected
##JCAMP-DX=5.01  $$ Nicolet v. 1
##DATATYPE=INFRARED SPECTRUM
##ORIGIN=Curtin University
##OWNER=Nicolet
##LONGDATE=2024/07/19
##TIME=15:03:47
##SPECTROMETER/DATA SYSTEM=Nicolet iS50
##DATA PROCESSING=
Ratio against background
%Transmittance->Absorbance
ATR Correction
Truncated
ElementMultiply or ElementDivide
##COMMENTS=
Number of sample scans: 32
Collection length: 47.26 sec
Sample gain: 1.0
Background collected on: Fri Jul 19 14:58:51 2024 (GMT+08:00);
Number of background scans: 32
Background gain: 1.0
Sample spacing:  1.000
Number of scan points: 16672
Resolution points: 8192
Number of FFT points: 65536
Apodization: N-B strong;
Phase correction: Mertz;
Laser frequency: 15798.3 cm-1
Number of rejected sample scans: 0
Number of rejected background scans: 0
Bench serial number: AUP1200105;
##RESOLUTION=4.000
##XUNITS=1/CM
##YUNITS=ABSORBANCE
##FIRSTX=400.163452
##LASTX=4000.187744
##FIRSTY=0.069964
##MAXX=4000.187744
##MINX=400.163452
##MAXY=1.011930
##MINY=-0.030322
##XFACTOR=1.000000
##YFACTOR=1.000000E-008
##NPOINTS=7468
##DELTAX=0.482125
##ZPD=8192
##XYDATA=(X++(Y..Y))
400.163 6996432 6892428 6771114 6628289 6465282 6291669 6122536 5974165 
404.020 5859465 5783872 5744030 5728767 5722452 5709399 5677858 5622383 
407.877 5544141 5449161 5345558 5240619 5138876 5041647 4947941 4855938 
411.734 4764640 4674510 4587408 4505891 4432264 4367844 4312777 4266128 
415.591 4226181 4190555 4156284 4119846 4077500 4025801 3962597 3887786 
419.448 3803751 3715036 3627494 3547128 3478886 3425874 3389167 3367874 
423.305 3359759 3361710 3370262 3381989 3393762 3403036 3408195 3408560 
427.162 3404345 3396142 3384488 3369317 3349912 3325175 3294407 3257918 
431.019 3217414 3175756 3136187 3101234 3072242 3048697 3028642 3009614 
434.876 2989644 2967972 2945364 2923777 2905660 2893284 2888129 2890663 
438.733 2900264 2915302 2933293 2951178 2965763 2974460 2976093 2971492 
442.590 2963599 2956754 2955410 2962575 2978629 3000985 3024921 3045151 
446.447 3057723 3061232 3057050 3048483 3039160 3031559 3026067 3021107 
450.304 3014085 3002559 2985218 2962245 2934809 2904328 2871825 2837681 
454.161 2802021 2765308 2728929 2695225 2666993 2646594 2635102 2631756 
458.017 2634151 2638857 2642374 2641950 2636028 2624271 2607276 2586288 
461.874 2562939 2539134 2516969 2498114 2484476 2476758 2474526 2476229 
465.731 2479657 2482542 2483300 2481388 2477271 2471946 2466303 2460531 
469.588 2454029 2445609 2434149 2419169 2401201 2381696 2362559 2345437 
473.445 2331185 2319568 2309464 2299359 2287902 2274389 2258897 2242107 
477.302 2225015 2208476 2192992 2178677 2165397 2152955 2141291 2130534 
481.159 2120888 2112433 2104981 2097957 2090506 2081680 2070791 2057573 
485.016 2042417 2026162 2009937 1994798 1981438 1970034 1960403 1952176 
488.873 1945194 1939679 1936313 1936026 1939622 1947400 1958908 1972938 
492.730 1987799 2001686 2013126 2021109 2025633 2027069 2026062 2023322 
496.587 2019446 2014942 2010271 2005948 2002523 2000482 2000056 2001071 
500.444 2002910 2004597 2005120 2003709 2000127 1994739 1988412 1982235 
504.301 1977159 1973694 1971774 1970812 1969890 1968042 1964564 1959084 
508.158 1951701 1942881 1933420 1924351 1916933 1912519 1912477 1917916 
512.015 1929433 1946760 1968664 1992985 2016917 2037519 2052216 2059285 
515.871 2058065 2048963 2033269 2012890 1990032 1966960 1945725 1927883 
519.728 1914176 1904247 1896552 1888601 1877543 1861027 1838080 1809640 
523.585 1778542 1748800 1724510 1708484 1701855 1703533 1710910 1720828 
527.442 1730644 1738743 1744551 1748005 1748916 1746538 1739770 1727676 
531.299 1710341 1689308 1667536 1648658 1635795 1630516 1632254 1638504 
535.156 1645737 1650564 1650794 1645910 1636954 1625898 1614884 1605638 
539.013 1599211 1596006 1595987 1598796 1603783 1609953 1616027 1620691 
542.870 1623007 1622859 1621166 1619704 1620530 1625162 1633954 1645792 
546.727 1658452 1669319 1676325 1678569 1676608 1671988 1666588 1661756 
550.584 1657884 1654287 1649668 1642711 1632740 1620055 1605942 1592332 
554.441 1581293 1574470 1572709 1575869 1583100 1592972 1603977 1614870 
558.298 1625001 1634244 1642888 1651250 1659347 1666737 1672603 1676075 
562.155 1676728 1674855 1671575 1668509 1667214 1668575 1672523 1678029 
566.012 1683654 1688152 1691079 1692912 1694798 1697944 1703042 1709877 
569.869 1717540 1724894 1731213 1736649 1742201 1749257 1758963 1771583 
573.725 1786332 1801579 1815549 1826957 1835444 1841598 1846562 1851441 
577.582 1856870 1862844 1868919 1874578 1879538 1883916 1888003 1891953 
581.439 1895568 1898233 1899246 1898260 1895724 1893009 1892146 1895249 
585.296 1903813 1918089 1936952 1958135 1978902 1996771 2010239 2019092 
589.153 2024441 2028218 2032732 2039936 2051073 2066367 2085120 2105879 
593.010 2126824 2146160 2162417 2174699 2182723 2186794 2187698 2186501 
596.867 2184478 2182890 2182919 2185483 2191114 2199825 2211045 2223693 
600.724 2236388 2247700 2256489 2262183 2264893 2265378 2264905 2265014 
604.581 2267228 2272868 2282799 2297320 2316085 2338051 2361673 2385106 
608.438 2406712 2425417 2441086 2454649 2467844 2482779 2501299 2524444 
612.295 2552158 2583356 2616290 2649094 2680260 2708933 2734911 2758452 
616.152 2779963 2799840 2818384 2835931 2852993 2870301 2888721 2909010 
620.009 2931483 2955816 2981009 3005646 3028300 3047993 3064550 3078652 
623.866 3091659 3105139 3120415 3138120 3158077 3179361 3200627 3220622 
627.723 3238543 3254327 3268690 3282839 3298128 3315631 3335828 3358470 
631.579 3382743 3407571 3431974 3455381 3477754 3499470 3521073 3542981 
635.436 3565218 3587368 3608693 3628445 3646108 3661621 3675399 3688193 
639.293 3700808 3713830 3727487 3741689 3756139 3770623 3785190 3800237 
643.150 3816399 3834293 3854238 3875984 3898645 3920826 3940986 3957854 
647.007 3970879 3980406 3987706 3994628 4003120 4014749 4030242 4049376 
650.864 4071139 4094074 4116778 4138256 4158192 4176836 4194863 4212939 
654.721 4231552 4250791 4270412 4289998 4309173 4327759 4345877 4363859 
658.578 4382204 4401393 4421814 4443631 4466766 4490847 4515153 4538680 
662.435 4560209 4578504 4592595 4602054 4607215 4609173 4609627 4610501 
666.292 4613467 4619554 4628931 4640966 4654567 4668587 4682309 4695657 
670.149 4709213 4723893 4740534 4759536 4780607 4802831 4824998 4845997 
674.006 4865214 4882673 4898948 4914817 4930856 4947123 4963099 4977906 
677.863 4990673 5001014 5009225 5016406 5024014 5033544 5046062 5061900 
681.720 5080712 5101600 5123478 5145348 5166460 5186293 5204511 5220854 
685.577 5235175 5247530 5258323 5268341 5278687 5290543 5304840 5321970 
689.433 5341721 5363333 5385796 5408190 5429888 5450644 5470479 5489489 
693.290 5507655 5524782 5540608 5554975 5567981 5580103 5592036 5604518 
697.147 5618099 5632914 5648660 5664706 5680288 5694766 5707739 5719146 
701.004 5729215 5738333 5746922 5755240 5763292 5770747 5776968 5781099 
704.861 5782287 5779840 5773482 5763393 5750139 5734515 5717251 5698777 
708.718 5679163 5658131 5635253 5610134 5582461 5552028 5518567 5481569 
712.575 5440303 5393846 5341440 5282769 5218133 5148470 5075052 4999045 
716.432 4921192 4841515 4759480 4674298 4585365 4492567 4396555 4298519 
720.289 4200000 4102534 4007422 3915617 3827703 3744014 3664721 3589909 
724.146 3519667 3454160 3393775 3339240 3291665 3252460 3223189 3205299 
728.003 3199897 3207677 3229004 3264102 3313288 3377011 3455734 3549626 
731.860 3658263 3780350 3913784 4055984 4204359 4356763 4511817 4668821 
735.717 4827455 4987317 5147560 5306684 5462775 5613798 5758083 5894623 
739.574 6023198 6144255 6258628 6367229 6470907 6570241 6665580 6757071 
743.431 6844678 6928245 7007562 7082534 7153348 7220692 7285800 7350349 
747.287 7416224 7485144 7558319 7636278 7718859 7805367 7894829 7986132 
751.144 8078084 8169334 8258188 8342548 8419939 8487696 8543279 8584566 
755.001 8610129 8619218 8611748 8588087 8548855 8494668 8426067 8343393 
758.858 8246881 8136771 8013529 7878168 7732433 7578899 7420854 7261833 
762.715 7105095 6952943 6806390 6665047 6527491 6391930 6256927 6121988 
766.572 5987767 5855851 5728161 5606327 5491102 5382180 5278320 5177827 
770.429 5079078 4980962 4883124 4785848 4689885 4596079 4505149 4417534 
774.286 4333486 4253057 4176202 4102736 4032267 3964159 3897537 3831368 
778.143 3764773 3697154 3628400 3558802 3488895 3419124 3349571 3279806 
782.000 3209022 3136317 3061109 2983493 2904416 2825467 2748528 2675279 
785.857 2606709 2542944 2483296 2426601 2371680 2317673 2264323 2211891 
789.714 2161013 2112370 2066469 2023477 1983249 1945413 1909573 1875389 
793.571 1842750 1811798 1782918 1756645 1733541 1713935 1697775 1684359 
797.428 1672442 1660349 1646441 1629528 1609376 1586820 1563650 1542112 
801.285 1524295 1511479 1503885 1500654 1500389 1501595 1503219 1504897 
805.141 1506876 1509680 1513721 1519013 1525096 1531262 1536777 1541123 
808.998 1544092 1545646 1545790 1544417 1541391 1536755 1530956 1525063 
812.855 1520650 1519436 1522715 1530835 1542882 1556811 1569961 1579792 
816.712 1584647 1584263 1579779 1573404 1567743 1565016 1566607 1572730 
820.569 1582673 1595140 1608749 1622404 1635481 1647740 1659127 1669528 
824.426 1678646 1685971 1690987 1693429 1693415 1691549 1688811 1686262 
828.283 1684834 1685081 1687173 1691026 1696498 1703612 1712671 1724173 
832.140 1738660 1756458 1777592 1801674 1828167 1856491 1886272 1917435 
835.997 1950208 1985063 2022606 2063519 2108517 2158410 2213988 2275906 
839.854 2344481 2419473 2500000 2584670 2671882 2760215 2848788 2937295 
843.711 3025902 3114727 3203410 3290790 3374901 3453325 3523799 3584780 
847.568 3635878 3677874 3712501 3742028 3768888 3795462 3824159 3857577 
851.425 3898704 3950993 4018144 4103788 4211060 4342223 4498448 4679760 
855.282 4885177 5112756 5359744 5622622 5897126 6178435 6461382 6740883 
859.139 7012396 7272333 7518298 7749132 7964682 8165376 8351817 8524343 
862.995 8682836 8826712 8955132 9067299 9162749 9241497 9304015 9350991 
866.852 9383132 9400880 9404420 9393796 9369019 9330320 9278041 9212455 
870.709 9133508 9040597 8932603 8808222 8666468 8507199 8331465 8141428 
874.566 7939965 7730174 7514751 7295803 7074821 6852931 6631219 6410844 
878.423 6193128 5979275 5770308 5567017 5370046 5180201 4998638 4826924 
882.280 4666842 4520083 4387890 4270879 4169067 4082185 4009977 3952438 
886.137 3909815 3882303 3869689 3870934 3884100 3906405 3934675 3965753 
889.994 3996959 4026274 4052452 4074870 4093409 4108290 4119944 4128841 
893.851 4135346 4139499 4141021 4139332 4133883 4124477 4111536 4096190 
897.708 4080041 4064594 4050767 4038586 4027170 4015263 4001907 3986991 
901.565 3971528 3957341 3946333 3939763 3937627 3938619 3940663 3941673 
905.422 3940427 3936974 3932560 3929101 3928393 3931404 3938037 3947207 
909.279 3957335 3966925 3975050 3981467 3986597 3991091 3995541 4000176 
913.136 4004782 4008729 4011190 4011351 4008601 4002748 3994049 3983187 
916.993 3971117 3958842 3947172 3936535 3926969 3918178 3909767 3901489 
920.849 3893315 3885441 3878114 3871447 3865204 3858890 3851875 3843645 
924.706 3834019 3823241 3811806 3800379 3789546 3779618 3770786 3763125 
928.563 3756822 3752128 3749295 3748444 3749352 3751494 3754165 3756708 
932.420 3758797 3760486 3762196 3764440 3767610 3771808 3776879 3782512 
936.277 3788574 3795172 3802665 3811543 3822168 3834710 3849116 3865270 
940.134 3883262 3903465 3926516 3953092 3983629 4018109 4056032 4096610 
943.991 4139107 4183143 4228780 4276500 4326862 4380258 4436721 4495966 
947.848 4557649 4621577 4687961 4757284 4830071 4906492 4985989 5067202 
951.705 5148127 5226477 5300101 5367324 5426994 5478305 5520507 5552554 
955.562 5572891 5579595 5570536 5543824 5498143 5433060 5349139 5247855 
959.419 5131492 5002914 4865411 4722474 4577728 4434726 4296786 4166788 
963.276 4047025 3939059 3843692 3761065 3690752 3632059 3584145 3546183 
967.133 3517400 3497064 3484369 3478445 3478353 3483126 3491973 3504331 
970.990 3519968 3538956 3561479 3587710 3617626 3650888 3686838 3724654 
974.847 3763451 3802500 3841332 3879832 3918217 3956956 3996639 4037826 
978.703 4080910 4125978 4172789 4220883 4269708 4318881 4368388 4418710 
982.560 4470744 4525624 4584349 4647498 4714957 4785862 4858775 4931932 
986.417 5003597 5072434 5137719 5199535 5258668 5316618 5375335 5436953 
990.274 5503408 5576040 5655326 5740746 5830976 5924230 6018754 6113297 
994.131 6207415 6301478 6396388 6493233 6592943 6696047 6802787 6913198 
997.988 7027376 7145516 7267867 7394603 7525594 7660463 7798716 7940023 
1001.845 8084574 8233229 8387456 8548994 8719400 8899604 9089770 9289321 
1005.702 9497222 9712522 9934649 10163798 10400877 10647493 10905623 
1009.077 11177346 11464512 11768547 12090185 12429510 12785967 13158579 
1012.452 13546251 13948101 14363675 14793004 15236458 15694487 16167298 
1015.826 16654608 17155538 17668676 18192266 18724336 19262790 19805534 
1019.201 20350366 20895218 21438246 21978012 22513614 23044708 23571320 
1022.576 24093666 24611864 25125876 25635620 26141202 26643282 27143308 
1025.951 27643648 28147336 28657884 29178948 29713938 30265912 30837492 
1029.326 31430730 32047180 32687810 33352972 34042332 34754924 35489092 
1032.702 36242512 37012040 37793636 38582256 39371832 40155420 40925660 
1036.077 41675136 42396964 43085016 43734044 44339612 44897868 45405364 
1039.452 45858972 46255936 46594028 46871852 47088932 47245880 47344480 
1042.827 47387600 47379016 47323136 47224760 47088624 46919196 46720524 
1046.203 46496200 46249496 45983560 45701636 45407240 45104196 44796612 
1049.578 44488884 44185256 43889696 43605660 43335716 43081560 42843892 
1052.953 42622732 42417672 42228376 42054828 41897612 41757832 41637216 
1056.328 41537960 41462848 41415332 41399704 41421248 41485948 41600120 
1059.704 41769792 41999960 42294148 42654248 43080596 43572412 44128184 
1063.079 44745936 45423240 46157048 46943428 47777596 48654036 49566932 
1066.454 50510712 51480360 52471484 53480132 54502368 55534100 56571132 
1069.829 57609516 58646076 59678704 60706144 61727672 62742268 63748048 
1073.205 64742152 65721100 66681372 67619840 68533800 69420352 70275472 
1076.580 71093272 71865944 72584280 73239096 73822632 74329416 74756384 
1079.955 75102040 75365528 75545128 75638296 75641776 75552520 75368912 
1083.330 75091528 74723664 74271080 73741640 73144424 72488760 71783424 
1086.706 71035944 70252312 69437032 68593696 67725720 66837080 65932692 
1090.081 65018316 64099984 63183160 62272048 61369240 60475720 59591300 
1093.456 58715284 57846772 56984896 56128852 55277752 54430752 53587280 
1096.831 52747368 51911968 51082980 50262780 49453616 48656864 47872484 
1100.207 47099068 46334244 45575504 44821044 44070476 43325036 42587352 
1103.582 41861020 41149964 40457992 39788496 39144320 38527836 37940960 
1106.957 37385212 36861840 36371748 35915680 35494420 35108832 34759920 
1110.332 34448792 34176372 33943060 33748584 33591712 33470336 33381656 
1113.708 33322504 33289688 33280286 33291894 33322694 33371622 33438318 
1117.083 33523100 33626880 33750884 33896412 34064560 34255920 34470428 
1120.458 34707272 34964916 35240912 35531888 35833360 36139796 36444484 
1123.833 36739972 37018488 37272452 37494980 37680156 37823068 37919636 
1127.208 37966508 37960920 37900788 37784952 37613424 37387636 37110276 
1130.584 36785068 36416160 36007604 35562648 35083444 34570868 34024704 
1133.959 33444002 32827622 32174802 31485576 30761128 30003846 29217106 
1137.334 28405124 27572474 26723828 25863742 24996504 24126258 23257102 
1140.709 22393236 21539130 20699456 19878822 19081760 18312186 17573260 
1144.085 16867236 16195641 15559381 14959091 14395307 13868685 13379925 
1147.460 12929752 12518647 12146793 11813778 11518650 11259797 11035040 
1150.835 10841804 10677326 10538966 10424440 10331976 10260375 10208866 
1154.210 10177007 10164364 10170483 10194846 10237055 10296986 10374926 
1157.586 10471711 10588613 10727195 10889168 11076231 11290026 11532158 
1160.961 11804266 12108107 12445667 12819204 13231423 13685670 14186104 
1164.336 14737858 15347159 16021143 16767636 17594642 18509958 19520636 
1167.711 20632810 21851494 23180590 24622882 26180100 27852666 29639434 
1171.087 31537240 33540306 35639684 37822668 40072624 42368852 44686928 
1174.462 46999220 49275596 51484280 53592544 55567776 57378536 58995832 
1177.837 60394692 61555408 62464548 63115240 63507108 63645900 63543044 
1181.212 63215388 62684720 61977100 61121380 60147352 59083660 57955992 
1184.588 56786048 55591452 54386280 53182120 51988936 50815768 49670608 
1187.963 48560292 47489928 46462792 45480440 44543044 43650128 42801060 
1191.338 41995372 41232868 40513432 39836736 39202028 38608112 38053376 
1194.713 37536008 37054236 36606416 36191076 35806860 35452448 35126504 
1198.089 34827704 34554724 34306252 34080972 33877464 33694128 33529100 
1201.464 33380240 33245122 33121234 33005986 32896892 32791554 32687908 
1204.839 32584176 32478868 32370812 32259104 32142842 32021004 31892222 
1208.214 31754658 31606116 31444272 31266948 31072456 30859834 30628846 
1211.590 30379840 30113464 29830336 29530886 29215240 28883428 28535572 
1214.965 28172248 27794706 27404914 27005512 26599508 26189932 25779418 
1218.340 25369912 24962510 24557542 24154688 23753430 23353396 22954648 
1221.715 22557882 22164406 21775850 21393832 21019542 20653508 20295564 
1225.091 19945014 19601050 19263102 18931162 18605872 18288254 17979474 
1228.466 17680366 17391304 17112126 16842308 16581300 16328774 16084768 
1231.841 15849628 15623811 15407681 15201353 15004663 14817323 14638992 
1235.216 14469485 14308676 14156389 14012249 13875577 13745415 13620634 
1238.592 13500243 13383581 13270508 13161302 13056609 12957124 12863427 
1241.967 12775816 12694304 12618728 12548809 12484261 12424856 12370401 
1245.342 12320719 12275644 12235008 12198668 12166554 12138616 12114818 
1248.717 12095111 12079390 12067577 12059633 12055745 12056391 12062327 
1252.093 12074449 12093622 12120391 12154824 12196429 12244229 12297033 
1255.468 12353730 12413497 12475920 12540932 12608686 12679261 12752521 
1258.843 12828034 12905110 12982890 13060558 13137354 13212618 13285781 
1262.218 13356255 13423331 13486275 13544197 13596162 13641210 13678376 
1265.594 13706776 13725685 13734645 13733520 13722523 13702117 13672858 
1268.969 13635150 13589054 13534148 13469695 13394682 13308179 13209543 
1272.344 13098493 12975137 12839825 12693059 12535280 12366897 12188210 
1275.719 11999661 11801679 11594845 11379792 11157271 10928084 10693195 
1279.094 10453788 10211333 9967586 9724413 9483693 9246987 9015506 8790051 
1282.952 8571177 8359385 8155417 7960377 7775704 7603124 7444367 7300958 
1286.809 7174081 7064524 6972699 6898690 6842342 6803269 6780844 6774260 
1290.667 6782471 6804283 6838365 6883261 6937346 6998862 7065913 7136539 
1294.524 7208847 7281217 7352388 7421499 7488070 7551832 7612544 7669896 
1298.382 7723479 7772872 7817679 7857697 7892892 7923414 7949528 7971570 
1302.239 7989914 8005055 8017554 8028066 8037270 8045687 8053560 8060803 
1306.096 8066962 8071372 8073362 8072494 8068723 8062367 8054172 8045117 
1309.954 8036241 8028483 8022524 8018707 8016862 8016380 8016199 8015062 
1313.811 8011738 8005358 7995711 7983386 7969704 7956457 7945514 7938299 
1317.669 7935481 7936822 7941240 7947202 7953099 7957769 7960741 7962340 
1321.526 7963549 7965675 7969925 7977105 7987395 8000366 8015263 8031263 
1325.384 8047861 8065068 8083407 8103754 8127158 8154512 8186486 8223530 
1329.241 8265913 8313974 8368058 8428561 8495606 8568978 8647950 8731388 
1333.098 8818036 8906788 8997049 9088875 9182792 9279669 9380339 9485420 
1336.956 9595209 9709719 9828866 9952543 10080694 10213241 10350043 10490845 
1340.813 10635294 10783141 10934345 11089148 11248100 11411840 11580966 
1344.188 11755824 11936446 12122635 12314033 12510331 12711245 12916519 
1347.564 13125832 13338631 13554138 13771331 13989063 14206149 14421535 
1350.939 14634226 14843267 15047677 15246305 15437852 15620820 15793596 
1354.314 15954550 16102248 16235508 16353664 16456623 16544904 16619629 
1357.689 16682287 16734545 16778002 16813974 16843332 16866636 16884158 
1361.065 16896148 16903028 16905426 16904198 16900194 16893924 16885248 
1364.440 16873094 16855312 16828780 16789660 16733879 16657600 16557676 
1367.815 16432010 16279738 16101308 15898575 15674856 15435098 15186062 
1371.190 14936386 14696482 14478163 14293826 14155523 14073755 14056392 
1374.566 14107744 14228110 14413708 14657021 14947559 15272623 15618284 
1377.941 15970229 16314517 16638377 16930606 17182056 17385588 17536030 
1381.316 17629920 17665312 17641604 17559464 17420762 17228424 16986184 
1384.691 16698284 16369249 16003639 15606000 15180941 14733079 14266993 
1388.067 13787062 13297237 12800859 12300585 11798391 11295811 10794158 
1391.442 10294880 9799743 9311025 8831587 8364770 7914179 7483490 7075996 
1395.299 6694434 6340644 6015512 5719006 5450219 5207617 4989260 4792957 
1399.157 4616549 4458018 4315557 4187609 4072777 3969762 3877275 3794008 
1403.014 3718735 3650363 3587987 3530924 3478711 3430991 3387432 3347774 
1406.872 3311687 3278953 3249338 3222683 3198811 3177504 3158522 3141587 
1410.729 3126545 3113335 3102023 3092659 3085096 3078936 3073521 3068097 
1414.586 3062156 3055705 3049402 3044524 3042494 3044506 3051015 3061576 
1418.444 3074972 3089634 3104130 3117683 3130321 3142792 3156198 3171579 
1422.301 3189609 3210415 3233676 3258814 3285237 3312564 3340812 3370417 
1426.159 3402222 3437369 3477179 3522873 3575354 3635044 3701795 3775086 
1430.016 3854292 3939102 4029833 4127549 4233971 4351258 4481712 4627562 
1433.874 4790987 4974119 5179241 5408896 5665726 5952327 6271056 6623866 
1437.731 7012378 7437947 7901721 8404581 8946777 9527608 10144971 10795054 
1441.588 11472476 12170445 12881185 13596424 14307761 15006980 15686589 
1444.964 16339874 16961222 17546174 18091208 18593544 19051072 19462178 
1448.339 19825910 20142112 20411418 20635078 20814628 20951500 21046802 
1451.714 21101214 21115122 21088732 21022146 20915184 20767356 20577668 
1455.089 20344914 20068168 19747298 19383452 18979116 18537774 18063376 
1458.465 17559664 17030116 16477893 15906297 15318888 14719707 14112945 
1461.840 13502723 12892844 12286766 11687874 11099716 10525995 9970444 
1465.215 9436262 8925773 8440065 7979152 7542395 7128998 6738579 6371143 
1469.073 6027078 5706727 5410109 5136706 4885507 4655280 4444689 4252527 
1472.930 4077709 3919131 3775536 3645446 3527197 3419085 3319558 3227360 
1476.787 3141696 3062212 2988900 2921993 2861757 2808317 2761490 2720720 
1480.645 2685069 2653287 2624062 2596242 2569071 2542343 2516331 2491706 
1484.502 2469176 2449241 2431997 2417032 2403583 2390732 2377705 2364034 
1488.360 2349712 2335113 2320840 2307588 2295861 2285949 2277788 2271148 
1492.217 2265584 2260631 2255880 2251039 2245963 2240680 2235281 2229940 
1496.074 2224785 2219868 2215148 2210543 2205945 2201360 2196916 2192885 
1499.932 2189581 2187261 2185969 2185498 2185444 2185291 2184561 2183037 
1503.789 2180780 2178093 2175389 2172988 2171017 2169360 2167809 2166165 
1507.647 2164447 2162835 2161605 2160942 2160722 2160461 2159434 2156894 
1511.504 2152350 2145826 2137833 2129266 2121052 2113874 2107946 2103083 
1515.362 2098796 2094684 2090511 2086367 2082656 2079747 2077869 2076965 
1519.219 2076705 2076600 2076173 2075084 2073236 2070714 2067733 2064510 
1523.076 2061212 2057933 2054657 2051258 2047508 2043047 2037504 2030663 
1526.934 2022526 2013497 2004401 1996255 1990084 1986565 1985776 1987212 
1530.791 1989819 1992406 1993891 1993619 1991405 1987524 1982464 1976767 
1534.649 1970825 1964912 1959120 1953499 1947999 1942576 1937117 1931456 
1538.506 1925408 1918890 1912059 1905260 1899057 1894010 1890537 1888763 
1542.364 1888470 1889177 1890240 1891046 1891032 1889796 1887015 1882442 
1546.221 1875901 1867348 1856915 1844996 1832265 1819539 1807730 1797661 
1550.078 1789965 1784961 1782740 1783073 1785512 1789437 1794067 1798599 
1553.936 1802372 1804957 1806242 1806447 1805938 1805083 1804085 1802953 
1557.793 1801476 1799467 1796942 1794135 1791554 1789714 1788875 1788913 
1561.651 1789301 1789295 1788109 1785295 1780783 1774890 1768211 1761391 
1565.508 1754960 1749362 1745001 1742274 1741664 1743628 1748365 1755655 
1569.365 1764737 1774467 1783471 1790670 1795453 1797838 1798293 1797523 
1573.223 1796088 1794262 1791969 1789004 1785159 1780621 1775817 1771449 
1577.080 1768237 1766643 1766797 1768469 1771221 1774581 1778191 1781813 
1580.938 1785394 1788912 1792363 1795772 1799135 1802569 1806200 1810209 
1584.795 1814652 1819481 1824469 1829234 1833445 1836870 1839502 1841574 
1588.653 1843468 1845580 1848277 1851684 1855856 1860691 1866033 1871752 
1592.510 1877681 1883706 1889636 1895348 1900688 1905663 1910401 1915164 
1596.367 1920310 1926177 1932979 1940727 1949231 1958155 1967096 1975672 
1600.225 1983605 1990746 1997084 2002715 2007875 2012884 2018192 2024208 
1604.082 2031225 2039367 2048468 2058085 2067664 2076647 2084725 2091986 
1607.940 2098833 2105899 2113804 2122859 2132980 2143691 2154284 2164146 
1611.797 2172935 2180760 2188088 2195575 2203757 2212894 2222859 2233174 
1615.655 2243269 2252624 2260935 2268167 2274517 2280223 2285539 2290593 
1619.512 2295521 2300408 2305470 2310890 2316935 2323722 2331219 2339165 
1623.369 2347128 2354600 2361042 2366057 2369405 2371049 2371150 2370059 
1627.227 2368235 2366199 2364412 2363126 2362346 2361834 2361120 2359768 
1631.084 2357488 2354345 2350715 2347221 2344509 2343052 2342894 2343719 
1634.942 2344915 2345729 2345541 2344053 2341240 2337422 2333007 2328506 
1638.799 2324355 2320875 2318263 2316519 2315476 2314797 2314056 2312864 
1642.656 2311063 2308784 2306502 2304934 2304851 2306765 2310741 2316448 
1646.514 2323162 2330105 2336636 2342538 2347914 2353128 2358583 2364509 
1650.371 2370903 2377561 2384211 2390690 2396980 2403319 2409945 2417119 
1654.229 2424899 2433176 2441709 2450224 2458523 2466464 2474040 2481257 
1658.086 2488143 2494755 2501068 2507238 2513433 2519923 2527026 2535046 
1661.944 2544172 2554497 2566038 2578695 2592402 2607078 2622646 2639010 
1665.801 2655936 2673144 2690199 2706654 2722105 2736219 2748862 2760088 
1669.658 2770109 2779223 2787808 2796231 2804774 2813708 2823236 2833519 
1673.516 2844621 2856551 2869278 2882691 2896719 2911394 2926881 2943434 
1677.373 2961360 2980868 3001910 3024176 3047063 3069917 3092146 3113499 
1681.231 3134118 3154458 3175100 3196509 3218891 3242167 3266140 3290757 
1685.088 3316255 3343265 3372557 3404705 3439865 3477535 3516645 3556016 
1688.946 3594664 3632253 3669158 3706335 3744842 3785532 3828622 3873834 
1692.803 3920607 3968470 4017391 4067842 4120700 4176910 4237098 4301392 
1696.660 4369553 4441038 4515363 4592418 4672352 4755568 4842474 4933417 
1700.518 5028543 5127926 5231603 5339752 5452597 5570559 5694084 5823756 
1704.375 5960240 6104396 6257146 6419360 6591511 6773588 6964878 7164240 
1708.233 7370360 7582149 7799211 8021873 8250975 8487636 8732777 8986933 
1712.090 9250251 9522650 9804024 10094472 10393968 10702349 11018833 
1715.465 11341958 11669771 12000152 12331384 12662685 12994283 13327502 
1718.841 13664261 14006734 14357066 14717238 15088977 15473977 15873842 
1722.216 16290277 16725142 17180652 17659640 18165768 18703538 19278150 
1725.591 19895122 20559894 21277546 22052840 22890376 23795024 24772068 
1728.966 25827288 26966556 28195548 29519584 30944004 32474470 34117656 
1732.342 35880952 37771828 39796032 41955848 44248740 46667220 49200392 
1735.717 51835884 54562080 57368760 60246204 63183208 66164576 69169792 
1739.092 72173296 75146512 78060424 80887768 83603664 86184896 88608768 
1742.467 90852760 92895784 94720552 96315832 97677568 98807720 99711864 
1745.843 100396584 100867840 101131200 101192952 101061360 100747000 
1748.736 100261864 99617984 98826008 97895368 96834840 95653736 94362640 
1752.111 92973056 91495880 89940296 88312808 86617776 84858568 83039448 
1755.486 81166696 79248856 77296240 75319760 73329848 71335968 69346760 
1758.861 67370360 65414600 63487244 61595452 59745352 57941820 56188696 
1762.237 54488884 52844984 51259352 49733964 48270136 46868040 45526560 
1765.612 44243616 43016640 41843284 40721828 39651240 38630736 37659128 
1768.987 36734064 35851700 35006616 34192384 33402302 32630218 31871030 
1772.362 31121250 30378664 29642138 28910976 28184510 27461648 26740864 
1775.738 26020244 25297740 24571570 23840330 23103324 22360610 21613030 
1779.113 20862192 20110420 19360582 18615880 17879600 17154712 16443650 
1782.488 15748250 15069814 14409348 13767953 13146916 12547961 11973000 
1785.863 11423975 10902492 10409726 9946043 9511236 9104423 8724194 8368826 
1789.721 8036398 7725014 7433054 7159209 6902651 6662960 6440009 6233763 
1793.578 6043999 5870240 5711551 5566422 5432976 5308895 5191806 5079631 
1797.436 4970859 4864993 4762548 4665042 4574404 4492434 4420069 4357000 
1801.293 4301530 4250953 4202179 4152522 4100372 4045372 3988370 3930933 
1805.150 3874766 3821153 3770614 3722999 3677685 3633966 3591454 3550265 
1809.008 3511057 3474649 3441792 3412551 3386231 3361159 3335054 3305463 
1812.865 3270557 3229595 3183459 3134416 3085759 3040927 3002684 2972469 
1816.723 2950078 2934044 2922134 2912396 2903597 2895563 2888682 2883318 
1820.580 2879089 2874708 2868128 2857245 2840799 2818890 2793158 2766181 
1824.438 2740713 2718494 2699831 2683389 2666836 2647655 2624163 2596016 
1828.295 2564223 2530606 2497199 2465313 2435425 2406996 2379099 2350785 
1832.152 2321511 2291169 2259979 2228129 2195601 2162183 2127736 2092519 
1836.010 2057530 2024380 1995013 1971097 1953552 1942124 1935580 1932035 
1839.867 1929569 1926726 1922751 1917412 1910689 1902288 1891588 1877733 
1843.725 1859972 1838322 1813723 1787961 1763257 1741599 1724098 1710611 
1847.582 1699802 1689640 1677921 1662934 1644032 1621766 1597850 1574816 
1851.439 1555655 1543112 1539259 1544829 1559047 1579520 1602578 1623993 
1855.297 1639896 1647407 1645249 1633541 1613597 1587195 1556218 1522425 
1859.154 1487600 1453833 1423462 1398995 1382370 1374258 1373603 1377851 
1863.012 1383614 1387835 1388991 1387359 1384744 1383380 1384498 1387599 
1866.869 1390285 1389310 1382007 1367619 1347943 1326795 1308645 1297006 
1870.727 1293278 1296717 1304985 1315741 1327652 1340782 1356149 1374550 
1874.584 1395512 1416805 1435010 1446627 1449651 1444313 1433206 1420182 
1878.441 1408913 1401510 1397936 1396280 1393932 1388673 1379665 1367673 
1882.299 1354561 1342440 1332902 1326557 1323089 1321435 1320326 1318276 
1886.156 1313990 1306285 1294447 1278571 1259724 1240115 1222540 1209502 
1890.014 1202452 1201036 1203262 1206297 1207826 1207001 1205037 1204675 
1893.871 1208784 1218805 1233759 1249820 1261745 1264408 1254959 1233848 
1897.729 1205076 1174799 1149819 1135373 1134059 1145460 1166851 1194111 
1901.586 1223184 1250707 1274457 1292974 1305468 1311477 1310610 1302843 
1905.443 1288667 1269363 1247071 1224376 1204196 1188898 1179943 1177335 
1909.301 1179660 1184181 1187857 1187862 1182972 1173768 1162569 1152825 
1913.158 1147633 1148726 1155542 1165366 1174373 1178782 1176464 1167545 
1917.016 1154390 1140671 1129845 1124092 1123524 1126423 1130027 1131633 
1920.873 1129427 1122910 1112904 1100921 1088752 1077889 1069250 1062860 
1924.730 1057527 1050660 1038565 1016748 981362 930598 866249 794301 724434 
1929.070 668081 635563 633279 661658 714989 783074 853965 917195 966257 
1933.410 999255 1018524 1028503 1033873 1037961 1042304 1046838 1050614 
1937.267 1052552 1051059 1044357 1029458 1003370 963319 908958 843512 774573 
1941.607 712928 670644 657330 677375 728100 799782 878038 947274 994487 
1945.946 1012232 999457 961528 907592 848676 794614 752761 726632 716244 
1950.286 718044 726161 733051 731216 714011 677156 619352 543100 454030 
1954.625 360645 272957 201409 155581 143307 169554 235856 339028 471669 
1958.965 622017 776079 919677 1041873 1136909 1205189 1252168 1285835 
1962.823 1313323 1338355 1360187 1374131 1374144 1355771 1318215 1265245 
1966.680 1204033 1142664 1087991 1043431 1008865 982466 961764 946554 938482 
1971.020 940903 956391 984914 1021185 1056317 1078224 1075441 1041079 975227 
1975.359 887501 795567 722426 691023 717975 808402 953455 1133288 1322693 
1979.699 1498991 1648111 1767244 1863341 1949300 2038090 2137342 2245874 
1983.556 2353115 2442272 2495866 2501895 2458177 2373869 2266789 2158543 
1987.414 2068548 2009051 1983520 1987319 2010742 2042998 2075160 2100603 
1991.271 2115836 2118026 2104956 2074427 2025625 1960204 1883140 1801937 
1995.128 1724305 1655608 1596511 1542551 1486128 1419966 1341021 1253256 
1998.986 1167062 1096119 1052555 1040996 1056284 1083028 1100497 1089092 
2002.843 1037515 947245 834191 723815 644911 620619 661539 762531 904336 
2007.183 1060360 1204826 1319469 1397223 1440271 1456573 1454498 1439716 
2011.040 1413959 1376923 1327709 1267978 1201430 1133738 1069235 1009961 
2014.898 954275 898107 837456 771306 703058 640339 593222 571002 578396 
2019.237 614699 673231 744121 817440 885836 945826 997293 1040052 1071506 
2023.577 1084658 1068698 1012418 909413 762665 587036 407141 252842 150187 
2027.917 114511 145607 227954 336129 443460 529735 588385 625166 654547 
2032.256 691924 746565 818228 898586 975688 1041134 1093461 1138294 1184443 
2036.596 1237924 1297441 1352297 1386055 1381121 1325335 1216791 1064272 
2040.453 885691 703010 537242 403975 311525 260665 246692 261107 294577 
2044.793 338990 389681 446964 516966 610036 737082 904723 1109518 1334979 
2049.132 1553365 1731458 1840356 1863195 1799599 1665143 1486745 1296103 
2052.990 1123275 990546 909493 879764 891632 930163 980696 1032060 1078959 
2057.329 1121135 1161623 1204505 1252678 1306507 1363697 1419044 1465892 
2061.187 1496805 1505658 1488301 1444196 1376558 1292034 1199844 1110143 
2065.044 1032221 973126 936415 922182 927213 946305 973597 1004401 1036202 
2069.384 1069478 1107038 1153114 1211146 1282168 1363461 1448415 1527908 
2073.241 1592438 1634330 1649877 1639745 1608904 1564706 1515529 1468993 
2077.099 1431555 1407721 1400558 1411074 1437797 1476537 1520230 1559742 
2080.956 1585788 1590956 1571944 1530721 1473903 1410918 1351404 1302290 
2084.813 1266348 1241856 1223838 1206194 1183949 1154654 1118834 1079574 
2088.671 1041062 1007343 981208 963928 955323 954451 960302 972230 990339 
2093.010 1014974 1046539 1084531 1127419 1172110 1214867 1251503 1278984 
2096.868 1295851 1302550 1301206 1294756 1286153 1277695 1270912 1266808 
2100.725 1266068 1269239 1276302 1286208 1296197 1302043 1298665 1282057 
2104.583 1250606 1206909 1157349 1111467 1079222 1068429 1082288 1118635 
2108.440 1170090 1225923 1274467 1305541 1312287 1292256 1247249 1182693 
2112.298 1106451 1027059 952143 887210 834678 794038 762661 737252 715237 
2116.637 695959 680647 671854 672120 682725 703005 730427 761326 791867 
2120.977 818425 837959 847366 843541 823306 784723 728178 657782 580947 
2125.316 506981 444137 396666 362680 334442 300351 249082 173302 72350 
2129.656 -47559 -175378 -298518 -405974 -490827 -550098 -584113 -594870 
2133.513 -584918 -557160 -515120 -463695 -409139 -357805 -315379 -284886 
2137.371 -267030 -260261 -262333 -271189 -285758 -305116 -328612 -355292 
2141.228 -384089 -414918 -449650 -491799 -545752 -614262 -696504 -787157 
2145.086 -877032 -954795 -1010514 -1037492 -1033343 -999637 -941249 -865436 
2148.943 -782551 -706835 -656285 -650574 -706710 -833665 -1028118 -1273404 
2152.801 -1543084 -1808813 -2049046 -2254632 -2430419 -2588539 -2739348 
2156.176 -2880174 -2990413 -3032220 -2963004 -2750167 -2389596 -1912223 
2159.551 -1378753 -861574 -423763 -104132 86041 158889 141415 69337 -19645 
2163.891 -88995 -110348 -67513 38727 190028 355415 499484 593025 621840 
2168.230 589378 514406 422371 335551 265455 209875 156277 88727 -3519 
2172.570 -119493 -245855 -359658 -435768 -454201 -406906 -300231 -153860 
2176.427 4175 143885 240364 278614 256868 186223 88168 -10428 -83643 -112490 
2181.249 -89774 -20837 79116 189770 292991 376566 435982 472741 491277 
2185.589 495163 486565 466075 434740 396087 356275 322866 303094 300970 
2189.928 317153 349202 393585 447062 508286 576307 649622 724065 793358 
2194.268 849983 888094 905565 906021 897346 889704 891538 907125 934723 
2198.607 968089 997592 1014227 1011480 987330 944298 888852 829242 773645 
2202.947 728153 695429 673848 658742 643595 623310 596063 564804 536358 
2207.287 518981 518984 537652 570221 607059 637131 652309 650490 636353 
2211.626 619425 610575 617496 642540 682211 729453 776629 818496 853431 
2215.966 883133 910513 938425 967811 998066 1027830 1055817 1080947 1102620 
2220.305 1119871 1131221 1135577 1133165 1126945 1123136 1129856 1154994 
2224.163 1203038 1272783 1356619 1442419 1516875 1569277 1594848 1595629 
2228.020 1579173 1555629 1534054 1519888 1513289 1509774 1502150 1482901 
2231.878 1446856 1393032 1325114 1250971 1181228 1126422 1094595 1089236 
2235.735 1107818 1142281 1181212 1212759 1228036 1223847 1203390 1175239 
2239.593 1150388 1138807 1146263 1173080 1214269 1261701 1307136 1344587 
2243.450 1371897 1390486 1403730 1415162 1426487 1436738 1442779 1440686 
2247.307 1427402 1402350 1367624 1327714 1287909 1252875 1225448 1206495 
2251.165 1195193 1190616 1192396 1201507 1219691 1248307 1287098 1333205 
2255.022 1381277 1424995 1458645 1479137 1486976 1485881 1481292 1478357 
2258.880 1479836 1485578 1492721 1497389 1496058 1487705 1473545 1457167 
2262.737 1442817 1434275 1433880 1442239 1458621 1481824 1510507 1543625 
2266.594 1579768 1617253 1653621 1686158 1712156 1730222 1740347 1744185 
2270.452 1744425 1743969 1744883 1748027 1752950 1758305 1762688 1765324 
2274.309 1766527 1767630 1770676 1777945 1791261 1811728 1839234 1872672 
2278.167 1910037 1948933 1987028 2022571 2054802 2084093 2111482 2138565 
2282.024 2166340 2195061 2223608 2249815 2270899 2284219 2288055 2282107 
2285.882 2267586 2247071 2223661 2200635 2180510 2164796 2153705 2146277 
2289.739 2140714 2135032 2127440 2117016 2103858 2088967 2074018 2060662 
2293.596 2050025 2042449 2037369 2033637 2030160 2026231 2021951 2018019 
2297.454 2015336 2014453 2015202 2016566 2016864 2014503 2008339 1998323 
2301.311 1985339 1970999 1957059 1945161 1936224 1930645 1928395 1929165 
2305.169 1932558 1938126 1945254 1953259 1961407 1969255 1976733 1984487 
2309.026 1993392 2004541 2018539 2035285 2053832 2072748 2090511 2106006 
2312.884 2118810 2129195 2137813 2145363 2152376 2159251 2166411 2174524 
2316.741 2184483 2197233 2213318 2232875 2255578 2281337 2310754 2345565 
2320.598 2388259 2440804 2502891 2570503 2635019 2684656 2706648 2690862 
2324.456 2632512 2533903 2404014 2256601 2107273 1970258 1855611 1768021 
2328.313 1706585 1666393 1640584 1622645 1607684 1593228 1578667 1564611 
2332.171 1552223 1542507 1536390 1534525 1537205 1544120 1554093 1565109 
2336.028 1574676 1580348 1580650 1575612 1566788 1556756 1548202 1543028 
2339.885 1541590 1543010 1545493 1547182 1547005 1544975 1541802 1538643 
2343.743 1536437 1535373 1535019 1534467 1532691 1528943 1522754 1513981 
2347.600 1502767 1489521 1474873 1459929 1445952 1434381 1426287 1422125 
2351.458 1421366 1422938 1425237 1427150 1428154 1428502 1429031 1430416 
2355.315 1432774 1435379 1436757 1435357 1430027 1420592 1407954 1393713 
2359.173 1379609 1366865 1355765 1345692 1335291 1323143 1308114 1289688 
2363.030 1268119 1244295 1219499 1195334 1173384 1155051 1141303 1132617 
2366.887 1128757 1129011 1132262 1137452 1143842 1151179 1159600 1169478 
2370.745 1180950 1193803 1207258 1220157 1231359 1240076 1245980 1249513 
2374.602 1251519 1253103 1255341 1259158 1265009 1273039 1282884 1293922 
2378.460 1305189 1315615 1324170 1330045 1332807 1332390 1329000 1323042 
2382.317 1315139 1306147 1297160 1289705 1285422 1285762 1291407 1301937 
2386.175 1315459 1329292 1340505 1347050 1348549 1346480 1343624 1342989 
2390.032 1346557 1354436 1364726 1374362 1380181 1380411 1375282 1366969 
2393.889 1358678 1353567 1353422 1358406 1367164 1377624 1387944 1397126 
2397.747 1405161 1412499 1419687 1426677 1432840 1437159 1438690 1437043 
2401.604 1432523 1426122 1419170 1413015 1408850 1407825 1410796 1418728 
2405.462 1431923 1450104 1471893 1494828 1515730 1531503 1539842 1540102 
2409.319 1533241 1521735 1508461 1496081 1485967 1478112 1471493 1464532 
2413.177 1456012 1445607 1434041 1422941 1414271 1409735 1410284 1416002 
2417.034 1425961 1438636 1452179 1464639 1474221 1479563 1479574 1473720 
2420.891 1462033 1445315 1425169 1404076 1384947 1370808 1364141 1366373 
2424.749 1377364 1395403 1417436 1439742 1458687 1471526 1476982 1475268 
2428.606 1467932 1457435 1446372 1437265 1431901 1431238 1435458 1443894 
2432.464 1455146 1467326 1478220 1485759 1488524 1486020 1479008 1469308 
2436.321 1459401 1451725 1448017 1448975 1454086 1462123 1471491 1481045 
2440.178 1490159 1499049 1508065 1517513 1526841 1534762 1539303 1538333 
2444.036 1530380 1515383 1494862 1471929 1450651 1435006 1427655 1429350 
2447.893 1438312 1450913 1462674 1469602 1469307 1462114 1450564 1438682 
2451.751 1430410 1428353 1432826 1441906 1452243 1460566 1464695 1464504 
2455.608 1461517 1458166 1456513 1457311 1459817 1462184 1462612 1460156 
2459.466 1455453 1450484 1447653 1448879 1454594 1463561 1473293 1480937 
2463.323 1484222 1482104 1474720 1463211 1448917 1433352 1417700 1403220 
2467.180 1391172 1382913 1379530 1381324 1387361 1395673 1403515 1408417 
2471.038 1408966 1405308 1398952 1392104 1386615 1383308 1381768 1380758 
2474.895 1379125 1376436 1373423 1371613 1372395 1376262 1382458 1388982 
2478.753 1393520 1394615 1392115 1387516 1383132 1381127 1382603 1387095 
2482.610 1392981 1398294 1401724 1403297 1404103 1405785 1409562 1415369 
2486.468 1421828 1426872 1428651 1426531 1421570 1416347 1413964 1417063 
2490.325 1426609 1441729 1459785 1477432 1491397 1499766 1502092 1499542 
2494.182 1494269 1488675 1484545 1482703 1482755 1483268 1482431 1478698 
2498.040 1471148 1460297 1447699 1435818 1427316 1424334 1428068 1438412 
2501.897 1454112 1473409 1494390 1515458 1535571 1554096 1570534 1584488 
2505.755 1595298 1602430 1605537 1604539 1599823 1591925 1581545 1569190 
2509.612 1555321 1540478 1525463 1511211 1498931 1489549 1483540 1480659 
2513.469 1480116 1480957 1482415 1484541 1487749 1492918 1500481 1510060 
2517.327 1520295 1529079 1534271 1534472 1529441 1520151 1508445 1496211 
2521.184 1484828 1474798 1465992 1458048 1450990 1445506 1442588 1443296 
2525.042 1447776 1455107 1463204 1469499 1471722 1468982 1461996 1453251 
2528.899 1445997 1443293 1447067 1457282 1472073 1488173 1502079 1510828 
2532.757 1513132 1509548 1502176 1494283 1489127 1489223 1495715 1508248 
2536.614 1524971 1543468 1561071 1575740 1586286 1592545 1595015 1594712 
2540.471 1592538 1589151 1585130 1580800 1576417 1572452 1569323 1567269 
2544.329 1566207 1565648 1564730 1562580 1558547 1552783 1546196 1540446 
2548.186 1537544 1539213 1546510 1559199 1575913 1594453 1612214 1626922 
2552.044 1637140 1642711 1644489 1644121 1643487 1644167 1646926 1651619 
2555.901 1657062 1661639 1663457 1661225 1654338 1643346 1629770 1615974 
2559.759 1604447 1597435 1596178 1600654 1609436 1620230 1630210 1637006 
2563.616 1639159 1636544 1630377 1622706 1615698 1611136 1609990 1612277 
2567.473 1617335 1624234 1631939 1639829 1647454 1654625 1661271 1667401 
2571.331 1673119 1678856 1685235 1692985 1702712 1714452 1727635 1740954 
2575.188 1752763 1761517 1766087 1766080 1761865 1754404 1744885 1734616 
2579.046 1724770 1716414 1710555 1708062 1709509 1714805 1723360 1733883 
2582.903 1744758 1754621 1762775 1769401 1775517 1782567 1791787 1803649 
2586.760 1817660 1832461 1846224 1857195 1864246 1867027 1865953 1862147 
2590.618 1856909 1851616 1847483 1845478 1846214 1849807 1856117 1864509 
2594.475 1874286 1884609 1894789 1904369 1913061 1920566 1926533 1930525 
2598.333 1931977 1930619 1926536 1920260 1912722 1904891 1897557 1891221 
2602.190 1885908 1881856 1879425 1879457 1883095 1891218 1904032 1920530 
2606.048 1938530 1955169 1967711 1974405 1974928 1970597 1963670 1956644 
2609.905 1951358 1948586 1948092 1948980 1950396 1951997 1953996 1957149 
2613.762 1962233 1969733 1979493 1990907 2002942 2014746 2025566 2035181 
2617.620 2043547 2051086 2058213 2065493 2073430 2082388 2092401 2103037 
2621.477 2113316 2121900 2127363 2128666 2125630 2119042 2110723 2102979 
2625.335 2097987 2097291 2101257 2109107 2119205 2129536 2138329 2144383 
2629.192 2147235 2147221 2145057 2141720 2138161 2134990 2132662 2131364 
2633.050 2131097 2131745 2133184 2135327 2138048 2141393 2145353 2149858 
2636.907 2154862 2160091 2165207 2169736 2173260 2175528 2176550 2176626 
2640.764 2176302 2176208 2177043 2179180 2182835 2187901 2194050 2200834 
2644.622 2207783 2214341 2219981 2224095 2226020 2225121 2220983 2213588 
2648.479 2203498 2191858 2180242 2170260 2163210 2159541 2158779 2159574 
2652.337 2160137 2158792 2154446 2146919 2136943 2125755 2114690 2104661 
2656.194 2095937 2088143 2080464 2071983 2062022 2050228 2036565 2021179 
2660.052 2004218 1985757 1965965 1945011 1923293 1901327 1879780 1859135 
2663.909 1839634 1821187 1803525 1786380 1769653 1753586 1738825 1726015 
2667.766 1715723 1708129 1702946 1699503 1696902 1694344 1691364 1687925 
2671.624 1684341 1681267 1679432 1679367 1681395 1685438 1691047 1697440 
2675.481 1703656 1708767 1711981 1712911 1711572 1708432 1704246 1699824 
2679.339 1695807 1692526 1689948 1687647 1685174 1682097 1678252 1673883 
2683.196 1669675 1666466 1665214 1666559 1670631 1676889 1684241 1691145 
2687.053 1696064 1697895 1696294 1691934 1686155 1680743 1677211 1676409 
2690.911 1678156 1681361 1684250 1685085 1682590 1676338 1666833 1655297 
2694.768 1643233 1632180 1623370 1617638 1615345 1616531 1620843 1627541 
2698.626 1635539 1643585 1650355 1654705 1656081 1654552 1650726 1645673 
2702.483 1640292 1635326 1630977 1627144 1623436 1619528 1615345 1611071 
2706.341 1607040 1603653 1601220 1599896 1599698 1600529 1602297 1604857 
2710.198 1607956 1611328 1614620 1617585 1620050 1622115 1624025 1626147 
2714.055 1628642 1631530 1634565 1637337 1639452 1640711 1641184 1640983 
2717.913 1640324 1639318 1637810 1635542 1632442 1628592 1624375 1620422 
2721.770 1617253 1615135 1614031 1613557 1613294 1613040 1612923 1613337 
2725.628 1614620 1616902 1619687 1622154 1623229 1622242 1619101 1614639 
2729.485 1610213 1607343 1607178 1610030 1615332 1621874 1628328 1633582 
2733.343 1637075 1638888 1639526 1639650 1639828 1640522 1641997 1644502 
2737.200 1648157 1652972 1658654 1664587 1669767 1673043 1673494 1670649 
2741.057 1664661 1656416 1647145 1638222 1630854 1625768 1623326 1623492 
2744.915 1625971 1630424 1636337 1643183 1650263 1656884 1662252 1665711 
2748.772 1666733 1665076 1660786 1654212 1645983 1637012 1628371 1621095 
2752.630 1615989 1613434 1613208 1614573 1616585 1618237 1619030 1619054 
2756.487 1618883 1619324 1620839 1623401 1626186 1627962 1627598 1624573 
2760.344 1619350 1613310 1608251 1605852 1606874 1611135 1617401 1624031 
2764.202 1629532 1633047 1634493 1634388 1633354 1631919 1630057 1627516 
2768.059 1623886 1619101 1613572 1608245 1604181 1602331 1603167 1606611 
2771.917 1611870 1617931 1623669 1628105 1630587 1630954 1629318 1626311 
2775.774 1622772 1619688 1617955 1618087 1619963 1622810 1625517 1626817 
2779.632 1625885 1622639 1617803 1612724 1608941 1607566 1609069 1613123 
2783.489 1618823 1625170 1631380 1637105 1642469 1647871 1653603 1659814 
2787.346 1666356 1672956 1679343 1685414 1691075 1696401 1701251 1705398 
2791.204 1708507 1710406 1711142 1711091 1710870 1711053 1712174 1714263 
2795.061 1717095 1720247 1723400 1726413 1729503 1732922 1736963 1741561 
2798.919 1746395 1750949 1754630 1757162 1758557 1759237 1759794 1760897 
2802.776 1763056 1766686 1771985 1779078 1788012 1798675 1810711 1823423 
2806.634 1835894 1847002 1855800 1861645 1864469 1864666 1863001 1860353 
2810.491 1857419 1854627 1852127 1849957 1848202 1847128 1847199 1849058 
2814.348 1853152 1859691 1868391 1878497 1888948 1898465 1906024 1910920 
2818.206 1913154 1913377 1912727 1912589 1914292 1918625 1925704 1934970 
2822.063 1945417 1955887 1965459 1973686 1980574 1986419 1991524 1995859 
2825.921 1999169 2000814 2000299 1997355 1992392 1986331 1980412 1975948 
2829.778 1973979 1974973 1978951 1985570 1994289 2004452 2015383 2026299 
2833.635 2036150 2043723 2047824 2047503 2042512 2033478 2022006 2010253 
2837.493 2000571 1994948 1994437 1998991 2007362 2017583 2027367 2034715 
2841.350 2038429 2038374 2035522 2031721 2029231 2030207 2036146 2047396 
2845.208 2063040 2081300 2099568 2115302 2126619 2132633 2133637 2131080 
2849.065 2126869 2123061 2121249 2122232 2125993 2131898 2138854 2145831 
2852.923 2151935 2156714 2160013 2161937 2162726 2162706 2162234 2161645 
2856.780 2161250 2161335 2162046 2163442 2165359 2167575 2169801 2171912 
2860.637 2173841 2175895 2178588 2182593 2188578 2197153 2208648 2223191 
2864.495 2240542 2260366 2282134 2305382 2329910 2355622 2382665 2411351 
2868.352 2442019 2474925 2510023 2547045 2585420 2624509 2663798 2703063 
2872.210 2742470 2782604 2824272 2868188 2914738 2963777 3014589 3065985 
2876.067 3116559 3164941 3210061 3251190 3287980 3320366 3348500 3372443 
2879.925 3392252 3407823 3418928 3425211 3426147 3421303 3410420 3393537 
2883.782 3371165 3344333 3314484 3283230 3252032 3221960 3193504 3166624 
2887.639 3140919 3116004 3091616 3067980 3045635 3025337 3007802 2993441 
2891.497 2982217 2973638 2966961 2961273 2955779 2949950 2943648 2937246 
2895.354 2931304 2926803 2924746 2926009 2931183 2940378 2953184 2968808 
2899.212 2986002 3003500 3019932 3034265 3045552 3053287 3057322 3057928 
2903.069 3055726 3051749 3047258 3043575 3041841 3042889 3047083 3054484 
2906.927 3064730 3077427 3092075 3108014 3124433 3140188 3153943 3164302 
2910.784 3170226 3171522 3168911 3164332 3160235 3159402 3164072 3175456 
2914.641 3193509 3217177 3244684 3274049 3303499 3331835 3358537 3383586 
2918.499 3407337 3430582 3454039 3478491 3504587 3532647 3562742 3594558 
2922.356 3627735 3661909 3697011 3733390 3771748 3812854 3857444 3905673 
2926.214 3957194 4011166 4066459 4122064 4177430 4232436 4287563 4343677 
2930.071 4401771 4462959 4528359 4599031 4676113 4760779 4854079 4956852 
2933.928 5069542 5192079 5324008 5464469 5612549 5767433 5928720 6096284 
2937.786 6270369 6451246 6638816 6832495 7030736 7231099 7430518 7625375 
2941.643 7812063 7987376 8148528 8293232 8419570 8525676 8609775 8670177 
2945.501 8705815 8716623 8703744 8669733 8617993 8552403 8476365 8392338 
2949.358 8301563 8204341 8100325 7989333 7871604 7748016 7620013 7489329 
2953.216 7357514 7225865 7095325 6966582 6840305 6717197 6598116 6483921 
2957.073 6375228 6272551 6176144 6085863 6001546 5922872 5849620 5781610 
2960.930 5718650 5660653 5607502 5558834 5514135 5472612 5433313 5395273 
2964.788 5357702 5320377 5283686 5248436 5215795 5186774 5161886 5141067 
2968.645 5123561 5108395 5094679 5082025 5070637 5061242 5054795 5052010 
2972.503 5053198 5058300 5066824 5078346 5092525 5109356 5129149 5152325 
2976.360 5179321 5210479 5246052 5286248 5331282 5381325 5436672 5497480 
2980.218 5563837 5635902 5713769 5797790 5888540 5986783 6093510 6209680 
2984.075 6336362 6474410 6624546 6787064 6961579 7146910 7340929 7540669 
2987.932 7742690 7943710 8141093 8333187 8519447 8699852 8874463 9042740 
2991.790 9203241 9353688 9491401 9613881 9719315 9806944 9876621 9928777 
2995.647 9963758 9981590 9982059 9964786 9929619 9876841 9807285 9722314 
2999.505 9623336 9511996 9389768 9258202 9118655 8972440 8820745 8664587 
3003.362 8504576 8341231 8175000 8006370 7836181 7665413 7495229 7326477 
3007.219 7159798 6995414 6833309 6673536 6516330 6362166 6211712 6065367 
3011.077 5923189 5784689 5649086 5515538 5383615 5253457 5126036 5002570 
3014.934 4884366 4772388 4666744 4567093 4472379 4381415 4292943 4205951 
3018.792 4119546 4033151 3946445 3859356 3772351 3686230 3602414 3522296 
3022.649 3447393 3378728 3316611 3260585 3209504 3161681 3115504 3069410 
3026.507 3022496 2974498 2925763 2877164 2829870 2784895 2743088 2704815 
3030.364 2670108 2638657 2610050 2583900 2559878 2537706 2516986 2497245 
3034.221 2477799 2457928 2437021 2414788 2391384 2367188 2342897 2319432 
3038.079 2297337 2277194 2259394 2244213 2231804 2222190 2215073 2209870 
3041.936 2205824 2202022 2197871 2193257 2188355 2183821 2180023 2177024 
3045.794 2174107 2170163 2163959 2154809 2143112 2130303 2118795 2110990 
3049.651 2108593 2111986 2120023 2130157 2139587 2145557 2146359 2141465 
3053.509 2131481 2117752 2101737 2084877 2068187 2052462 2038306 2026153 
3057.366 2016362 2009120 2004232 2001245 1999482 1998264 1997014 1995630 
3061.223 1994267 1993386 1993391 1994498 1996553 1999176 2001798 2004072 
3065.081 2005923 2007559 2009422 2012058 2015665 2020213 2025267 2030355 
3068.938 2035196 2039646 2043994 2048530 2053346 2057833 2060771 2060516 
3072.796 2055432 2044628 2028487 2008776 1988306 1970169 1957014 1950050 
3076.653 1949032 1952545 1958396 1964757 1970551 1975684 1980675 1986215 
3080.510 1992265 1998182 2002412 2003430 2000022 1991999 1980377 1967071 
3084.368 1954448 1944570 1938578 1936568 1937555 1939954 1942063 1942771 
3088.225 1941777 1939661 1937617 1937130 1939239 1944300 1951607 1959727 
3092.083 1966800 1971287 1972197 1969676 1964553 1958086 1951452 1945211 
3095.940 1939207 1932942 1925936 1918033 1909565 1901419 1894311 1888608 
3099.798 1884069 1879945 1875581 1870632 1865681 1861928 1860914 1863737 
3103.655 1870720 1881189 1893748 1906625 1918537 1928658 1936725 1942728 
3107.512 1946194 1946465 1942515 1933547 1919489 1901320 1881153 1861619 
3111.370 1845280 1834049 1828814 1829359 1834630 1843175 1853398 1863823 
3115.227 1873153 1880467 1885165 1887299 1887560 1887119 1887348 1889389 
3119.085 1893475 1898987 1904397 1907868 1907974 1904283 1897466 1889124 
3122.942 1881348 1875752 1873271 1873581 1875697 1878149 1879636 1879390 
3126.800 1877254 1873856 1870152 1867246 1866073 1867023 1870055 1874464 
3130.657 1879012 1882257 1882905 1880217 1874319 1866157 1857361 1849605 
3134.514 1844215 1841793 1841961 1843718 1845782 1846993 1846792 1845284 
3138.372 1843112 1841487 1841665 1844889 1851996 1863315 1878373 1895874 
3142.229 1913785 1929602 1940999 1946463 1945610 1939472 1929941 1919413 
3146.087 1909824 1902262 1896738 1892567 1888902 1885235 1881833 1879539 
3149.944 1879340 1881924 1887176 1894166 1901381 1907168 1910288 1910157 
3153.802 1906867 1901235 1894393 1887454 1881584 1877535 1875744 1876062 
3157.659 1877887 1880295 1882121 1882418 1880689 1877187 1872824 1868863 
3161.516 1866610 1867054 1870483 1876579 1884484 1893092 1901162 1907650 
3165.374 1911609 1912592 1910532 1906025 1900208 1894687 1891006 1890347 
3169.231 1892923 1898120 1904563 1910754 1915636 1919007 1921505 1924312 
3173.089 1928272 1933790 1940184 1946133 1950248 1951494 1949784 1945682 
3176.946 1940106 1933877 1927358 1920518 1913120 1905357 1898030 1892603 
3180.803 1890582 1893177 1900539 1911624 1924487 1936629 1945876 1950867 
3184.661 1951184 1947380 1940525 1931934 1922805 1914177 1906725 1901017 
3188.518 1897234 1895443 1895484 1897120 1900129 1904414 1909997 1916784 
3192.376 1924387 1932036 1938594 1942749 1943515 1940567 1934408 1926357 
3196.233 1918176 1911550 1907747 1907347 1910471 1916722 1925748 1937153 
3200.091 1950519 1965299 1980666 1995544 2008749 2019279 2026420 2029870 
3203.948 2029626 2025956 2019517 2010996 2001708 1993290 1987587 1986377 
3207.805 1990470 1999762 2013005 2028055 2042809 2055669 2066190 2074880 
3211.663 2082612 2090054 2096764 2101413 2101998 2096811 2085190 2067999 
3215.520 2047453 2026515 2007920 1993376 1983381 1977245 1973680 1971336 
3219.378 1969208 1966723 1963706 1960169 1956372 1952713 1950050 1949562 
3223.235 1952388 1959352 1970294 1984004 1998239 2010354 2018202 2020607 
3227.093 2017731 2010851 2001897 1992691 1984655 1978473 1974514 1973104 
3230.950 1974441 1979003 1986933 1997788 2010526 2023487 2034941 2043595 
3234.807 2048934 2051285 2051634 2050993 2050015 2048764 2046979 2044182 
3238.665 2040360 2035993 2032201 2030369 2031575 2036159 2043588 2052349 
3242.522 2060296 2065106 2064726 2058020 2044856 2026311 2004732 1983117 
3246.380 1964749 1952453 1947823 1950873 1959925 1972048 1983923 1992724 
3250.237 1996919 1996778 1994136 1991787 1992400 1997810 2008273 2022600 
3254.094 2038278 2052539 2062867 2067682 2066565 2060105 2049570 2036472 
3257.952 2022188 2007759 1993951 1981290 1970269 1961415 1955362 1952661 
3261.809 1953771 1958948 1968061 1980729 1996166 2013320 2031008 2047770 
3265.667 2062179 2072947 2079162 2080293 2076524 2068491 2057204 2043970 
3269.524 2029997 2016328 2003789 1993017 1984649 1979192 1977219 1979083 
3273.382 1984873 1994108 2005888 2018784 2031233 2041683 2048998 2052549 
3277.239 2052444 2049418 2044773 2040170 2037284 2037452 2041312 2048581 
3281.096 2057870 2067130 2074009 2076587 2073990 2066689 2056351 2045348 
3284.954 2035889 2029409 2026140 2025211 2025177 2024778 2023483 2021825 
3288.811 2021016 2022373 2026760 2033813 2042173 2049662 2054112 2054003 
3292.669 2048992 2040205 2029679 2020058 2013689 2012134 2015751 2023477 
3296.526 2033157 2042074 2047681 2048225 2043602 2035353 2026448 2020734 
3300.384 2021495 2030775 2048346 2071651 2096542 2118103 2132141 2136174 
3304.241 2129864 2114862 2094190 2071259 2049093 2029956 2015095 2005142 
3308.098 2000244 2000314 2004985 2013650 2025088 2037686 2049600 2058946 
3311.956 2064366 2065224 2061638 2054499 2045121 2035026 2025565 2017761 
3315.813 2012161 2008989 2007988 2008882 2011336 2015018 2019749 2025384 
3319.671 2031568 2037686 2042836 2045890 2045852 2042197 2035069 2025516 
3323.528 2015157 2005834 1999234 1996307 1997345 2001869 2009077 2018198 
3327.385 2028418 2039279 2050132 2060229 2068494 2073651 2074679 2070904 
3331.243 2062594 2050790 2037269 2024048 2013030 2005505 2002031 2002410 
3335.100 2005758 2010878 2016313 2020898 2023757 2024700 2024174 2023367 
3338.958 2023738 2026644 2032996 2042572 2054228 2065899 2075306 2080537 
3342.815 2080590 2075507 2066423 2054820 2042214 2029627 2017634 2006470 
3346.673 1996451 1988351 1983454 1983380 1989480 2002377 2021299 2044214 
3350.530 2067994 2089070 2104252 2111372 2109872 2100753 2086279 2069423 
3354.387 2053139 2039637 2030010 2024022 2020479 2017409 2013142 2006574 
3358.245 1997680 1987644 1978498 1972419 1971257 1975727 1985109 1997508 
3362.102 2010104 2020129 2025402 2025059 2019676 2010935 2001243 1992849 
3365.960 1987289 1985064 1985552 1987329 1988677 1988215 1985094 1979415 
3369.817 1971935 1964035 1957196 1952688 1951292 1953190 1957739 1963761 
3373.675 1969627 1973681 1974519 1971627 1965312 1957023 1948878 1943352 
3377.532 1942450 1947162 1957082 1970545 1984887 1997248 2005174 2007254 
3381.389 2003292 1994117 1981350 1966740 1951968 1938409 1927063 1918668 
3385.247 1913624 1912180 1914260 1919307 1926709 1935490 1944899 1954425 
3389.104 1963807 1973111 1982408 1991583 2000179 2007583 2012926 2015605 
3392.962 2015220 2011722 2005385 1996641 1986037 1974108 1961641 1949695 
3396.819 1939549 1932583 1929675 1931135 1936280 1943733 1951564 1958302 
3400.677 1963147 1966543 1969940 1975131 1983672 1996043 2011437 2027809 
3404.534 2042448 2052827 2057224 2055078 2047050 2034556 2019439 2003426 
3408.391 1987949 1974185 1963098 1955820 1953280 1956327 1965273 1979630 
3412.249 1998082 2018284 2037508 2052853 2061917 2063183 2056395 2042527 
3416.106 2023745 2003032 1983567 1968196 1958720 1955542 1957631 1962774 
3419.964 1968104 1971355 1971277 1968143 1963814 1960988 1962299 1969471 
3423.821 1982474 1999724 2018374 2035247 2047730 2054487 2055512 2051922 
3427.678 2045199 2036781 2027567 2017821 2007670 1997252 1987004 1977860 
3431.536 1970592 1965868 1963575 1963102 1963424 1963653 1963329 1962706 
3435.393 1962600 1964076 1968066 1974792 1983828 1994114 2004288 2012952 
3439.251 2019125 2022307 2022521 2020390 2016917 2013420 2011252 2011730 
3443.108 2015562 2022840 2032909 2044392 2055590 2064929 2071376 2074584 
3446.966 2074666 2072246 2067648 2061102 2052470 2041728 2029152 2015671 
3450.823 2002615 1991481 1983438 1978836 1977188 1977476 1978842 1981054 
3454.680 1984706 1991212 2001991 2017658 2037244 2058277 2077077 2089960 
3458.538 2094342 2089613 2077423 2061127 2044910 2032490 2026241 2026791 
3462.395 2033131 2043392 2055506 2067846 2079585 2090489 2100804 2110866 
3466.253 2120850 2130768 2140560 2150204 2159746 2169163 2178421 2187132 
3470.110 2194821 2201041 2205455 2208364 2210655 2213577 2218649 2227027 
3473.968 2239181 2254833 2272887 2291906 2310360 2327195 2341732 2353817 
3477.825 2363483 2370659 2375285 2377242 2376704 2374363 2371576 2370159 
3481.682 2372092 2378820 2390859 2407558 2427289 2447978 2467725 2485495 
3485.540 2501230 2516055 2531626 2549622 2571315 2597062 2626429 2658128 
3489.397 2690536 2721936 2750890 2776346 2798043 2816284 2831844 2845723 
3493.255 2858582 2870572 2881068 2888805 2892343 2890771 2884334 2874661 
3497.112 2864537 2857232 2855430 2860205 2870842 2884873 2898921 2910090 
3500.969 2916604 2918614 2917880 2916875 2917938 2922339 2929925 2939383 
3504.827 2948844 2956521 2961273 2962830 2961579 2958218 2953601 2948425 
3508.684 2943307 2938852 2935356 2932736 2930400 2927055 2920911 2910257 
3512.542 2894016 2872232 2846509 2819478 2794342 2773863 2759727 2752076 
3516.399 2749523 2749817 2750325 2748791 2743661 2734114 2720387 2703251 
3520.257 2684035 2664448 2646343 2631403 2620758 2614611 2612024 2611182 
3524.114 2609615 2605304 2597096 2585381 2571941 2559580 2551042 2548265 
3527.971 2551466 2559315 2569069 2577483 2581867 2580471 2573103 2560664 
3531.829 2544725 2526893 2508295 2489493 2470640 2451856 2433509 2416456 
3535.686 2401840 2390708 2383655 2380600 2380674 2382701 2385360 2387661 
3539.544 2389118 2389527 2388733 2386353 2381733 2374060 2362810 2348292 
3543.401 2331686 2315005 2300598 2290325 2285021 2284271 2286561 2290045 
3547.259 2293148 2295440 2297374 2300097 2304552 2310893 2317905 2323391 
3551.116 2324650 2319806 2308258 2291284 2271834 2253672 2240417 2234651 
3554.973 2237225 2247281 2262422 2279373 2294729 2305459 2309493 2306012 
3558.831 2295422 2279313 2260160 2240778 2223679 2210754 2202698 2199285 
3562.688 2199319 2201377 2204178 2206872 2209267 2211590 2214358 2218050 
3566.546 2223073 2229499 2237319 2246185 2255522 2264345 2271395 2275171 
3570.403 2274374 2268198 2256774 2241157 2223317 2205282 2188792 2174678 
3574.260 2162651 2151761 2140751 2128728 2115730 2102694 2091205 2083005 
3578.118 2079345 2080743 2086708 2096196 2107684 2119524 2130225 2138524 
3581.975 2143240 2143517 2138858 2129373 2116057 2100609 2085398 2072930 
3585.833 2065046 2062675 2065276 2070998 2077227 2081157 2080605 2074690 
3589.690 2063797 2049623 2034651 2021424 2012100 2007837 2008818 2013983 
3593.548 2021611 2029482 2035364 2037556 2035090 2027939 2017046 2004146 
3597.405 1991256 1980139 1972025 1967025 1964329 1962358 1959468 1954416 
3601.262 1946993 1938060 1929571 1923642 1922328 1926864 1937205 1952373 
3605.120 1970692 1990155 2008997 2025727 2039315 2049093 2054745 2056485 
3608.977 2055112 2051982 2049057 2048107 2050514 2056546 2065198 2074485 
3612.835 2082088 2086175 2086174 2083031 2078903 2076328 2077321 2082795 
3616.692 2092143 2103802 2115696 2126306 2134890 2141689 2147457 2153081 
3620.550 2158913 2164796 2170181 2174352 2176710 2177048 2175390 2172150 
3624.407 2167812 2163084 2159219 2157935 2161219 2171118 2189002 2214816 
3628.264 2247018 2282345 2316994 2347009 2369760 2383996 2390224 2390127 
3632.122 2385643 2379056 2372186 2366623 2363955 2365528 2372553 2385426 
3635.979 2403440 2424850 2446819 2466336 2481036 2489839 2493280 2493181 
3639.837 2491833 2491134 2491868 2493510 2494637 2493459 2488909 2480914 
3643.694 2470708 2460464 2452610 2449352 2452216 2461766 2477444 2498123 
3647.552 2521805 2546321 2569249 2588377 2602104 2609725 2611546 2608767 
3651.409 2603036 2596087 2588963 2581949 2574625 2566168 2556331 2545495 
3655.266 2535051 2527103 2523806 2526478 2535170 2548471 2563858 2578622 
3659.124 2590557 2598675 2603146 2605240 2606446 2607924 2609957 2612077 
3662.981 2613223 2612469 2609320 2604036 2597195 2589600 2581571 2573071 
3666.839 2563607 2552905 2541276 2529792 2520283 2514451 2513287 2516162 
3670.696 2520965 2524360 2523073 2514715 2498915 2477241 2452646 2428495 
3674.553 2407356 2390232 2376479 2364565 2352971 2341287 2330406 2322464 
3678.411 2319627 2323011 2331912 2343439 2353299 2356862 2350549 2332920 
3682.268 2305090 2270414 2233731 2200079 2173849 2157972 2153701 2160319 
3686.126 2175668 2195999 2216908 2233538 2241736 2238708 2223706 2198391 
3689.983 2166283 2131868 2099620 2072722 2052722 2039323 2031151 2026385 
3693.841 2023601 2022117 2022220 2024393 2029183 2036617 2046161 2056738 
3697.698 2067045 2075730 2081649 2083596 2080652 2072106 2057684 2037945 
3701.555 2014340 1989156 1965211 1945224 1931059 1923647 1922817 1927490 
3705.413 1936388 1948235 1962049 1976975 1992366 2007364 2021248 2033481 
3709.270 2043839 2052944 2061602 2070550 2079936 2088864 2095564 2098030 
3713.128 2094738 2085537 2072021 2057045 2044148 2036135 2034517 2038746 
3716.985 2046793 2055691 2062645 2065820 2064827 2060589 2054939 2049937 
3720.843 2047631 2049270 2055655 2066539 2080924 2097013 2112434 2124671 
3724.700 2131648 2132237 2126622 2116390 2103942 2091830 2082255 2076357 
3728.557 2074348 2075717 2079853 2086093 2094125 2103412 2113090 2121694 
3732.415 2127242 2128006 2122955 2112350 2097895 2082322 2068602 2059066 
3736.272 2054944 2055987 2060992 2068156 2075962 2083180 2089259 2093695 
3740.130 2096375 2097122 2095987 2093381 2090361 2088243 2088412 2091809 
3743.987 2098550 2107567 2117102 2125107 2129983 2130911 2128129 2122767 
3747.844 2116474 2110959 2107845 2108091 2112125 2119547 2129111 2138954 
3751.702 2146723 2150035 2147099 2137308 2121291 2101227 2080152 2061406 
3755.559 2047835 2041255 2042185 2049708 2062023 2076864 2091786 2104897 
3759.417 2114882 2121211 2124323 2125075 2124830 2124938 2126233 2128880 
3763.274 2132109 2134656 2135006 2131943 2125113 2114857 2102425 2089194 
3767.132 2076491 2065317 2056276 2049901 2046838 2047808 2053408 2063639 
3770.989 2077390 2092362 2105363 2113014 2112727 2103790 2087456 2066966 
3774.846 2046549 2030536 2022208 2023074 2033011 2050415 2072870 2097628 
3778.704 2122117 2144067 2161621 2173560 2179231 2178798 2173210 2163851 
3782.561 2152432 2140084 2127594 2114835 2101362 2086960 2071984 2057794 
3786.419 2046433 2040062 2040259 2047164 2059396 2074213 2088209 2098254 
3790.276 2102527 2100619 2093864 2084499 2075298 2068576 2065759 2067141 
3794.134 2071808 2078094 2083833 2086976 2086057 2080602 2071541 2060886 
3797.991 2051528 2046360 2047639 2056082 2070774 2089270 2108207 2124510 
3801.848 2136021 2142367 2144693 2144978 2145403 2147245 2150634 2154470 
3805.706 2157042 2156817 2152989 2145978 2137125 2128436 2121727 2118148 
3809.563 2117790 2119784 2122520 2124157 2123262 2119015 2111670 2102482 
3813.421 2093369 2086352 2083289 2085139 2091675 2101594 2112949 2123437 
3817.278 2131289 2135492 2135954 2133070 2127418 2119535 2109611 2097903 
3821.135 2084963 2072008 2060870 2053629 2051900 2056302 2066015 2078965 
3824.993 2092265 2103234 2109969 2112007 2110077 2105617 2100321 2095434 
3828.850 2091703 2089358 2088606 2089769 2093271 2099524 2108608 2119804 
3832.708 2131955 2143427 2152819 2159113 2162061 2161767 2158653 2153027 
3836.565 2145070 2134858 2122879 2109933 2097293 2086428 2078266 2073001 
3840.423 2069654 2066616 2062133 2054905 2044814 2032956 2021430 2012687 
3844.280 2008840 2010948 2018795 2030901 2044803 2057639 2066801 2070467 
3848.137 2068029 2060452 2050007 2039948 2033631 2033796 2041490 2055877 
3851.995 2074353 2093365 2109501 2120393 2125456 2125696 2123078 2119398 
3855.852 2115704 2111854 2106890 2099854 2090423 2079320 2068177 2058960 
3859.710 2053107 2051059 2051846 2053643 2054236 2052096 2046588 2038266 
3863.567 2028687 2019727 2013331 2010900 2013328 2020800 2033032 2049172 
3867.425 2067873 2087437 2105840 2121120 2131511 2136114 2134796 2128373 
3871.282 2118494 2107027 2095949 2086856 2080892 2078462 2079422 2082969 
3875.139 2087986 2093095 2097049 2098740 2097687 2093864 2087724 2080333 
3878.997 2072941 2067057 2064113 2065228 2070926 2081091 2094670 2109909 
3882.854 2124657 2136986 2145357 2149377 2149696 2147799 2145562 2144642 
3886.712 2145925 2149465 2154585 2160215 2165415 2169364 2171709 2172239 
3890.569 2170902 2167463 2161659 2153241 2142158 2128630 2113166 2096603 
3894.427 2080024 2064710 2052215 2044212 2042270 2047371 2059388 2076833 
3898.284 2096703 2115077 2128119 2133001 2129090 2118086 2103586 2090051 
3902.141 2081514 2080200 2086205 2097330 2110201 2121215 2127714 2128658 
3905.999 2124819 2118148 2111371 2107097 2107095 2112166 2121842 2134590 
3909.856 2148129 2159914 2167752 2169896 2166016 2156765 2143903 2129803 
3913.714 2116765 2106824 2101069 2099489 2101443 2105432 2110000 2113755 
3917.571 2115803 2115800 2114063 2111128 2107838 2104771 2102163 2099778 
3921.428 2097089 2093585 2089080 2083837 2078883 2075295 2074274 2076253 
3925.286 2080984 2087494 2094255 2100018 2104017 2106159 2107024 2107388 
3929.143 2108121 2109698 2112396 2116320 2121459 2127944 2135671 2144311 
3933.001 2153164 2161136 2167288 2170959 2172242 2171835 2170833 2170109 
3936.858 2170044 2170165 2169756 2168079 2165054 2161394 2158459 2157640 
3940.716 2159675 2164316 2170387 2176169 2180206 2181782 2181241 2179549 
3944.573 2177897 2177210 2177807 2179649 2182537 2186367 2191403 2197592 
3948.430 2204433 2210719 2214541 2214043 2208122 2197015 2182525 2167463 
3952.288 2154733 2146336 2142725 2142748 2144455 2145977 2146265 2145518 
3956.145 2144904 2145842 2149528 2156296 2165602 2176359 2187251 2197111 
3960.003 2204927 2209781 2210914 2207713 2200337 2189675 2177814 2167547 
3963.860 2161760 2162541 2170360 2183995 2200602 2216723 2229134 2235836 
3967.718 2236321 2231451 2223171 2213517 2204568 2197841 2194324 2194497 
3971.575 2198269 2205147 2214373 2224882 2235848 2246616 2257055 2267309 
3975.432 2277620 2288015 2297944 2306368 2312137 2314207 2312030 2305710 
3979.290 2295862 2283193 2268290 2251381 2232839 2213173 2193691 2176317 
3983.147 2163405 2156877 2157860 2165955 2179533 2196072 2212990 2228268 
3987.005 2240781 2250341 2257131 2261287 2262671 2260735 2255062 2245531 
3990.862 2232917 2218680 2204883 2193522 2185923 2182623 2182940 2185562 
3994.719 2188681 2190822 2191113 2189634 2187351 2186005 2187194 2192328 
3998.577 2201876 2215158 2230578 2245990 2259191 
##END=
