##TITLE=Tecor_PLA-Bicolour_White_Filament_r2_ATR-Corrected
##JCAMP-DX=5.01  $$ Nicolet v. 1
##DATATYPE=INFRARED SPECTRUM
##ORIGIN=Curtin University
##OWNER=Nicolet
##LONGDATE=2024/07/19
##TIME=11:10:50
##SPECTROMETER/DATA SYSTEM=Nicolet iS50
##DATA PROCESSING=
Ratio against background
%Transmittance->Absorbance
ATR Correction
Truncated
ElementMultiply or ElementDivide
##COMMENTS=
Number of sample scans: 32
Collection length: 47.28 sec
Sample gain: 1.0
Background collected on: Fri Jul 19 11:08:56 2024 (GMT+08:00);
Number of background scans: 32
Background gain: 1.0
Sample spacing:  1.000
Number of scan points: 16672
Resolution points: 8192
Number of FFT points: 65536
Apodization: N-B strong;
Phase correction: Mertz;
Laser frequency: 15798.3 cm-1
Number of rejected sample scans: 0
Number of rejected background scans: 0
Bench serial number: AUP1200105;
##RESOLUTION=4.000
##XUNITS=1/CM
##YUNITS=ABSORBANCE
##FIRSTX=400.163452
##LASTX=4000.187744
##FIRSTY=0.066832
##MAXX=4000.187744
##MINX=400.163452
##MAXY=1.207194
##MINY=-0.034836
##XFACTOR=1.000000
##YFACTOR=1.000000E-008
##NPOINTS=7468
##DELTAX=0.482125
##ZPD=8192
##XYDATA=(X++(Y..Y))
400.163 6683213 6621475 6566693 6518288 6470749 6415619 6343014 6244383 
404.020 6115691 5959069 5782696 5598629 5420142 5258585 5121768 5013067 
407.877 4931795 4874163 4834166 4804483 4777300 4745285 4702871 4647438 
411.734 4580163 4505753 4431220 4363561 4307693 4264727 4231945 4204004 
415.591 4175191 4141550 4102060 4058501 4014212 3972225 3933987 3899033 
419.448 3865823 3833226 3801612 3773128 3750788 3736873 3731559 3732123 
423.305 3733486 3729646 3715397 3687729 3646477 3593853 3533690 3470384 
427.162 3408301 3351519 3303859 3268644 3248394 3243944 3253897 3274259 
431.019 3299082 3321644 3336089 3338655 3328874 3308731 3282031 3253046 
434.876 3225463 3201760 3183104 3169607 3160686 3155344 3152277 3149772 
438.733 3145853 3138513 3126139 3107980 3084541 3057543 3029664 3003884 
442.590 2982840 2968263 2960676 2959311 2962500 2968016 2973611 2977454 
446.447 2978406 2976166 2971018 2963544 2954209 2942950 2929177 2911902 
450.304 2890257 2864063 2834160 2802441 2771379 2743471 2720469 2703002 
454.161 2690632 2682218 2676551 2672797 2670684 2670217 2671278 2673172 
458.017 2674521 2673607 2668953 2659892 2647063 2632182 2617588 2605387 
461.874 2596772 2591599 2588446 2584792 2578800 2568902 2554737 2537131 
465.731 2517982 2499685 2484627 2474546 2470135 2470797 2474757 2479401 
469.588 2481944 2480178 2473043 2461004 2445912 2430382 2416997 2407395 
473.445 2401735 2398650 2395744 2390247 2379991 2363860 2342051 2315842 
477.302 2287137 2257911 2229840 2204048 2181123 2161170 2143985 2129093 
481.159 2115905 2103816 2092404 2081632 2071956 2064284 2059700 2059013 
485.016 2062327 2068707 2076208 2082203 2084120 2080047 2069341 2052724 
488.873 2032127 2010148 1989441 1972247 1960153 1954081 1954433 1961200 
492.730 1974012 1992001 2013715 2036855 2059274 2078755 2093850 2104300 
496.587 2111114 2116112 2121256 2127803 2135767 2143916 2150262 2152884 
500.444 2150766 2144242 2134910 2124984 2116515 2110694 2107678 2106868 
504.301 2107536 2109415 2112903 2118769 2127541 2138843 2151113 2161927 
508.158 2168800 2170216 2166318 2159002 2151276 2146081 2145196 2148482 
512.015 2153930 2158443 2158946 2153495 2141856 2125468 2106874 2088860 
515.871 2073733 2062851 2056550 2054296 2054981 2057120 2059169 2059715 
519.728 2057784 2053159 2046531 2039401 2033721 2031148 2032478 2037146 
523.585 2043339 2048542 2050359 2047110 2038866 2026788 2012834 1998995 
527.442 1986741 1976692 1968791 1962545 1957375 1952707 1947968 1942382 
531.299 1934980 1924822 1911360 1894870 1876656 1858838 1843830 1833631 
535.156 1829234 1830390 1835839 1843798 1852563 1860831 1867793 1872884 
539.013 1875540 1875118 1871061 1863265 1852443 1840169 1828625 1819894 
542.870 1815341 1815106 1818117 1822511 1826387 1828509 1828711 1827842 
546.727 1827363 1828703 1832713 1839423 1848042 1857265 1865652 1871980 
550.584 1875464 1875888 1873641 1869619 1865205 1861936 1861222 1863910 
554.441 1869957 1878361 1887271 1894459 1898232 1897687 1893151 1886058 
558.298 1878504 1872597 1869855 1870880 1875324 1882237 1890522 1899333 
562.155 1908390 1917938 1928550 1940773 1954836 1970427 1986702 2002450 
566.012 2016400 2027563 2035440 2040119 2042200 2042470 2041645 2040132 
569.869 2037986 2035110 2031580 2027930 2025306 2025306 2029540 2039121 
573.725 2054159 2073673 2095764 2118174 2138927 2156801 2171510 2183469 
577.582 2193394 2201832 2208927 2214442 2218073 2219786 2220081 2219945 
581.439 2220603 2223139 2228142 2235591 2244979 2255526 2266518 2277469 
585.296 2288186 2298699 2309210 2320032 2331644 2344611 2359525 2376727 
589.153 2395966 2416148 2435365 2451196 2461386 2464552 2460788 2451763 
593.010 2440413 2430088 2423695 2422935 2427981 2437629 2449887 2462609 
596.867 2474082 2483319 2490073 2494607 2497556 2499705 2502007 2505533 
600.724 2511402 2520534 2533404 2549754 2568593 2588352 2607412 2624617 
604.581 2639656 2653227 2666719 2681693 2699254 2719628 2742078 2765134 
608.438 2787180 2807035 2824319 2839567 2853985 2868982 2885725 2904807 
612.295 2926099 2948983 2972559 2995991 3018761 3040733 3062114 3083345 
616.152 3104900 3127186 3150430 3174607 3199499 3224688 3249687 3273995 
620.009 3297316 3319576 3341046 3362236 3383748 3406078 3429450 3453679 
623.866 3478262 3502596 3526228 3549128 3571776 3595028 3619805 3646678 
627.723 3675481 3705224 3734230 3760632 3782983 3800826 3814970 3827368 
631.579 3840570 3856979 3878048 3903816 3932811 3962522 3990085 4013164 
635.436 4030577 4042569 4050602 4056789 4063264 4071550 4082314 4095387 
639.293 4110125 4125828 4142132 4159132 4177298 4197179 4219050 4242692 
643.150 4267328 4291772 4314787 4335330 4352929 4367632 4380043 4391084 
647.007 4401835 4413354 4426587 4442343 4461258 4483720 4509758 4538882 
650.864 4570017 4601574 4631738 4658847 4681848 4700612 4715987 4729498 
654.721 4742830 4757255 4773125 4789819 4805990 4820226 4831711 4840705 
658.578 4848693 4857899 4870622 4888386 4911373 4938314 4966860 4994329 
662.435 5018554 5038431 5054158 5066899 5078251 5089624 5101786 5114818 
666.292 5128307 5141796 5155121 5168533 5182656 5198113 5215204 5233669 
670.149 5252634 5270932 5287404 5301290 5312539 5321736 5330033 5338724 
674.006 5348898 5361108 5375250 5390558 5405912 5420084 5432188 5441897 
677.863 5449562 5456095 5462672 5470396 5479865 5491099 5503617 5516698 
681.720 5529766 5542695 5555947 5570374 5586898 5606069 5627703 5650861 
685.577 5674010 5695479 5713956 5728787 5740222 5749156 5756854 5764526 
689.433 5773022 5782718 5793558 5805248 5817571 5830430 5844004 5858578 
693.290 5874388 5891455 5909457 5927707 5945325 5961350 5975073 5986103 
697.147 5994473 6000605 6005099 6008595 6011590 6014442 6017401 6020790 
701.004 6025066 6030843 6038711 6048940 6061269 6074701 6087630 6098180 
704.861 6104653 6105976 6101919 6093019 6080293 6064757 6047064 6027369 
708.718 6005417 5980803 5953227 5922715 5889456 5853680 5815448 5774518 
712.575 5730403 5682555 5630588 5574321 5513759 5448861 5379404 5304950 
716.432 5225019 5139437 5048688 4953970 4857084 4759902 4663855 4569577 
720.289 4476769 4384608 4292295 4199657 4107426 4017171 3930892 3850421 
724.146 3776995 3711129 3652803 3601860 3558458 3523194 3497085 3481210 
728.003 3476413 3483137 3501466 3531436 3573338 3627877 3696094 3779016 
731.860 3877106 3989983 4116173 4253339 4398721 4549593 4703704 4859372 
735.717 5015368 5170722 5324410 5475278 5622148 5764037 5900368 6031104 
739.574 6156635 6277522 6394213 6506745 6614794 6717769 6815123 6906712 
743.431 6992944 7074867 7153884 7231514 7309004 7387171 7466358 7546562 
747.287 7627677 7709667 7792658 7876836 7962228 8048460 8134614 8219245 
751.144 8300545 8376740 8446348 8508399 8562439 8608332 8645905 8674695 
755.001 8693682 8701394 8696006 8675699 8638974 8584911 8513303 8424719 
758.858 8320443 8202378 8072848 7934453 7789739 7640999 7489997 7337875 
762.715 7185221 7032226 6879054 6726047 6573976 6423928 6277204 6135001 
766.572 5998173 5867131 5741829 5621864 5506658 5395558 5287897 5183039 
770.429 5080370 4979386 4879765 4781385 4684473 4589390 4496574 4406362 
774.286 4318885 4234064 4151690 4071538 3993414 3917177 3842688 3769708 
778.143 3697817 3626516 3555284 3483753 3411769 3339417 3266865 3194262 
782.000 3121577 3048590 2974957 2900335 2824565 2747702 2670094 2592313 
785.857 2515144 2439582 2366726 2297782 2233819 2175575 2123176 2075988 
789.714 2032677 1991558 1951070 1910251 1869069 1828350 1789502 1753883 
793.571 1722319 1694808 1670553 1648308 1626860 1605408 1583766 1562216 
797.428 1541231 1521234 1502351 1484458 1467407 1451142 1435856 1421911 
801.285 1409668 1399333 1390795 1383696 1377712 1372586 1368261 1364836 
805.141 1362386 1360791 1359664 1358438 1356648 1354226 1351715 1350203 
808.998 1351063 1355456 1363854 1375730 1389593 1403290 1414612 1421875 
812.855 1424314 1422303 1417071 1410314 1403688 1398367 1394878 1393170 
816.712 1392876 1393644 1395377 1398230 1402482 1408184 1414941 1421759 
820.569 1427245 1430000 1429072 1424437 1417102 1408962 1402267 1399011 
824.426 1400367 1406396 1416108 1427874 1440001 1451295 1461384 1470744 
828.283 1480405 1491472 1504685 1520070 1536928 1554044 1570134 1584278 
832.140 1596324 1606979 1617685 1630231 1646378 1667375 1693759 1725398 
835.997 1761696 1801985 1845815 1893074 1943928 1998595 2057065 2118977 
839.854 2183699 2250591 2319361 2390294 2464300 2542571 2626104 2715181 
843.711 2808878 2905124 3000920 3092815 3177578 3252649 3316472 3368590 
847.568 3409583 3441009 3465205 3485203 3504480 3526658 3555204 3593159 
851.425 3642923 3706402 3785179 3880817 3995000 4129554 4286144 4465876 
855.282 4668879 4894108 5139403 5401680 5677349 5962541 6253253 6545298 
859.139 6834232 7115485 7384584 7637691 7872151 8086815 8282047 8459278 
862.995 8620267 8766369 8898091 9014928 9115724 9199210 9264529 9311501 
866.852 9340588 9352643 9348537 9328830 9293696 9243035 9176614 9094360 
870.709 8996488 8883560 8756439 8616198 8463982 8300823 8127503 7944502 
874.566 7751973 7550002 7338819 7119125 6892333 6660539 6426378 6192614 
878.423 5961792 5735941 5516542 5304676 5101300 4907454 4724419 4553545 
882.280 4396133 4253233 4125574 4013576 3917470 3837368 3773179 3724512 
886.137 3690440 3669443 3659538 3658555 3664610 3676417 3693407 3715480 
889.994 3742575 3774114 3808703 3844140 3877796 3907264 3930929 3948326 
893.851 3960066 3967407 3971644 3973577 3973206 3969831 3962433 3950246 
897.708 3933096 3911724 3887613 3862723 3838956 3817770 3799905 3785280 
901.565 3773211 3762721 3752885 3743166 3733541 3724479 3716730 3710954 
905.422 3707490 3706149 3706194 3706605 3706332 3704654 3701354 3696762 
909.279 3691622 3686884 3683472 3682100 3683235 3687040 3693362 3701765 
913.136 3711421 3721153 3729575 3735261 3737156 3734843 3728788 3720273 
916.993 3711056 3702971 3697374 3694715 3694453 3695195 3695097 3692368 
920.849 3685739 3674783 3659968 3642543 3624253 3606950 3592196 3581008 
924.706 3573555 3569219 3566620 3563952 3559383 3551406 3539180 3522735 
928.563 3502900 3481135 3459245 3438958 3421750 3408609 3400000 3395873 
932.420 3395748 3398788 3403905 3409910 3415654 3420271 3423266 3424662 
936.277 3424945 3424946 3425607 3427772 3432118 3438971 3448573 3461099 
940.134 3476756 3495910 3518884 3545912 3576912 3611473 3648867 3688292 
943.991 3729032 3770742 3813513 3857813 3904277 3953477 4005698 4060840 
947.848 4118466 4178028 4239088 4301480 4365392 4431219 4499337 4569789 
951.705 4641997 4714701 4786006 4853524 4914782 4967365 5009182 5038457 
955.562 5053741 5053747 5037384 5003762 4952308 4883025 4796643 4694673 
959.419 4579383 4453543 4320216 4182459 4043179 3904977 3770241 3641124 
963.276 3519662 3407720 3306941 3218614 3143458 3081555 3032255 2994259 
967.133 2965781 2944836 2929475 2918077 2909533 2903356 2899683 2899140 
970.990 2902638 2911101 2925162 2944882 2969679 2998291 3029023 3060085 
974.847 3089957 3117788 3143545 3167959 3192317 3218076 3246482 3278299 
978.703 3313661 3352208 3393279 3436124 3480165 3525044 3570601 3616815 
982.560 3663632 3710955 3758653 3806644 3854978 3903907 3953870 4005386 
986.417 4058895 4114578 4172355 4231876 4292558 4353915 4415756 4478318 
990.274 4542295 4608714 4678608 4752805 4831576 4914558 5000825 5089134 
994.131 5178227 5267260 5355929 5444552 5533925 5625105 5719105 5816779 
997.988 5918674 6025145 6136319 6252248 6372903 6498193 6627940 6762014 
1001.845 6900383 7043236 7191044 7344575 7504700 7672234 7847798 8031750 
1005.702 8224271 8425619 8636282 8857076 9089118 9333487 9590953 9861751 
1009.559 10145552 10441699 10749604 11069187 11401086 11746620 12107506 
1012.934 12485322 12881073 13294931 13726279 14173920 14636506 15112825 
1016.309 15601963 16103244 16615956 17139166 17671440 18210896 18755122 
1019.683 19301388 19846756 20388258 20922916 21448082 21961672 22462576 
1023.058 22950954 23428372 23897562 24362088 24825560 25291318 25761992 
1026.433 26239676 26726290 27224198 27736426 28266916 28820146 29400530 
1029.809 30011820 30656468 31335362 32047742 32791510 33563468 34359688 
1033.184 35175604 36006208 36846060 37689316 38529680 39360596 40175212 
1036.559 40966452 41727136 42450140 43128608 43756272 44327792 44838816 
1039.934 45286116 45667340 45981052 46226540 46403848 46514004 46559084 
1043.310 46542092 46466736 46337092 46157148 45930816 45662024 45354992 
1046.685 45014648 44646744 44257712 43854304 43443096 43030056 42620460 
1050.060 42218656 41828268 41452016 41091616 40747508 40418904 40103880 
1053.435 39799968 39504968 39217760 38938944 38670976 38417956 38185208 
1056.811 37978604 37804212 37668088 37576492 37535804 37552840 37634668 
1060.186 37788456 38021140 38339140 38748016 39252280 39855172 40558536 
1063.561 41362564 42265712 43264612 44354300 45528336 46779252 48098896 
1066.936 49478816 50910420 52385296 53895264 55432696 56990720 58563544 
1070.312 60146360 61735236 63326680 64917196 66502916 68079608 69642816 
1073.687 71188192 72711560 74208712 75674792 77103648 78487568 79817544 
1077.062 81084056 82278136 83392208 84420248 85357032 86197272 86934544 
1080.437 87561304 88069168 88450240 88697888 88807624 88776928 88605272 
1083.813 88293960 87846520 87269392 86572400 85768536 84872896 83901120 
1087.188 82867840 81785536 80664440 79513064 78338936 77149032 75949936 
1090.563 74747256 73545392 72347312 71154968 69969976 68794168 67629800 
1093.938 66479276 65344448 64226036 63123436 62034952 60958672 59893088 
1097.313 58837628 57792580 56758636 55736500 54726420 53728364 52742396 
1100.689 51769184 50810164 49867424 48943188 48039264 47156520 46295060 
1104.064 45454544 44634808 43836440 43061144 42311568 41591104 40903448 
1107.439 40252280 39640968 39072464 38549108 38072576 37643472 37261448 
1110.814 36925136 36632408 36380844 36168052 35991892 35850520 35742228 
1114.190 35665224 35617548 35597108 35601924 35630472 35681792 35755488 
1117.565 35851552 35970080 36111004 36274152 36459308 36666468 36895876 
1120.940 37147924 37422548 37718716 38033800 38363172 38700284 39036928 
1124.315 39363996 39671968 39951776 40195036 40394460 40544040 40639128 
1127.691 40676488 40654244 40571724 40429248 40227940 39969432 39655720 
1131.066 39288996 38871436 38404852 37890484 37328792 36719572 36062388 
1134.441 35357232 34605140 33808620 32971680 32099378 31197218 30270628 
1137.816 29324672 28364066 27393556 26418046 25442750 24472962 23513626 
1141.192 22569114 21643084 20738668 19859096 19007886 18189038 17406790 
1144.567 16665046 15966801 15313657 14705856 14142613 13622585 13144471 
1147.942 12707222 12309992 11951884 11631589 11347230 11096476 10876812 
1151.317 10685956 10522037 10383684 10269801 10179286 10110814 10062882 
1154.693 10033992 10022956 10029193 10052788 10094472 10155252 10236179 
1158.068 10338184 10461970 10608134 10777303 10970171 11187667 11430993 
1161.443 11701679 12001736 12333888 12701705 13109614 13562770 14066778 
1164.818 14627397 15250343 15941246 16705874 17550310 18481168 19505542 
1168.194 20630848 21864332 23212754 24682120 26277444 28002744 29860860 
1171.569 31853008 33978216 36232240 38606704 41088440 43658940 46294384 
1174.944 48965908 51639956 54278724 56840764 59281884 61556856 63621800 
1178.319 65437092 66970236 68198080 69107792 69696984 69972768 69950696 
1181.695 69653536 69110072 68353544 67419448 66343556 65159464 63897200 
1185.070 62582428 61236568 59877432 58520084 57177496 55860680 54578656 
1188.445 53338276 52144124 50998808 49903424 48858236 47863208 46918388 
1191.820 46023920 45179932 44386188 43641888 42945556 42295156 41688140 
1195.196 41121876 40593836 40101796 39643944 39218928 38825688 38463280 
1198.571 38130580 37826108 37547884 37293508 37060400 36846124 36648576 
1201.946 36466184 36297760 36142100 35997680 35862176 35732660 35605560 
1205.321 35477208 35344328 35204368 35055744 34897500 34729032 34549568 
1208.697 34357868 34152088 33929964 33689184 33427870 33144966 32840452 
1212.072 32515234 32170958 31809490 31432628 31041726 30637676 30221122 
1215.447 29792694 29353354 28904588 28448388 27987060 27522880 27057844 
1218.822 26593456 26130780 25670520 25213268 24759708 24310658 23867076 
1222.198 23430040 23000594 22579690 22168084 21766426 21375218 20994832 
1225.573 20625492 20267340 19920432 19584706 19259990 18945924 18641890 
1228.948 18347062 18060474 17781228 17508764 17243158 16985178 16736186 
1232.323 16497806 16271459 16057922 15857087 15668035 15489301 15319483 
1235.698 15157403 15002495 14854588 14713672 14579578 14451763 14329356 
1239.074 14211403 14097160 13986450 13879687 13777661 13681370 13591540 
1242.449 13508472 13432001 13361646 13296869 13237284 13182741 13133344 
1245.824 13089301 13050807 13017920 12990545 12968408 12951140 12938340 
1249.199 12929617 12924770 12923875 12927361 12936020 12950914 12973140 
1252.575 13003467 13042101 13088584 13141839 13200481 13263233 13329226 
1255.950 13398106 13470051 13545440 13624538 13707304 13793264 13881610 
1259.325 13971350 14061490 14151147 14239548 14325988 14409834 14490542 
1262.700 14567669 14640826 14709625 14773454 14831306 14881690 14922741 
1266.076 14952625 14969844 14973564 14963788 14941069 14906166 14859547 
1269.451 14801194 14730464 14646499 14548513 14436223 14309885 14170308 
1272.826 14018458 13855213 13681148 13496538 13301492 13096192 12880933 
1276.201 12656207 12422625 12180777 11931299 11674882 11412454 11145237 
1279.577 10874708 10602509 10330214 10059185 9790521 9525170 9264196 9008890 
1283.434 8760880 8522012 8294158 8078999 7877891 7691938 7522147 7369610 
1287.292 7235577 7121325 7027936 6955852 6904705 6873221 6859381 6860875 
1291.149 6875420 6901161 6936748 6981245 7033961 7094227 7161201 7233838 
1295.006 7310904 7390982 7472508 7553809 7633135 7708791 7779249 7843432 
1298.864 7900740 7951236 7995416 8034109 8068257 8098694 8126115 8151103 
1302.721 8174082 8195425 8215429 8234197 8251650 8267528 8281399 8292861 
1306.579 8301590 8307475 8310535 8310966 8308976 8304843 8298870 8291474 
1310.436 8283221 8274748 8266709 8259583 8253576 8248583 8244286 8240302 
1314.293 8236337 8232369 8228589 8225324 8222956 8221697 8221628 8222701 
1318.151 8224895 8228210 8232829 8238957 8246775 8256300 8267276 8279220 
1322.008 8291450 8303269 8314056 8323432 8331428 8338540 8345695 8354243 
1325.866 8365658 8381396 8402507 8429531 8462457 8500808 8544017 8591694 
1329.723 8643823 8700810 8763247 8831567 8905763 8985244 9068897 9155504 
1333.581 9244055 9334152 9426145 9520920 9619626 9723300 9832549 9947488 
1337.438 10067769 10192828 10321973 10454630 10590281 10728581 10869334 
1340.813 11012550 11158565 11308105 11462212 11622092 11788902 11963470 
1344.188 12146082 12336469 12533858 12737128 12945098 13156641 13370848 
1347.564 13587126 13805115 14024714 14245872 14468502 14692211 14916089 
1350.939 15138610 15357697 15570836 15775523 15969475 16151042 16319226 
1354.314 16473562 16613948 16740280 16852378 16949912 17032542 17100150 
1357.689 17153088 17192200 17218860 17234742 17241560 17240922 17234114 
1361.065 17222116 17205674 17185282 17161366 17134152 17103620 17069364 
1364.440 17030462 16985400 16932130 16868136 16790692 16697061 16584805 
1367.815 16452070 16297789 16122124 15926635 15714528 15490927 15262838 
1371.190 15039119 14830108 14647147 14501867 14405368 14367293 14394972 
1374.566 14492527 14660402 14895055 15189041 15531442 15908585 16305020 
1377.941 16704497 17091130 17450290 17769504 18038752 18250642 18400138 
1381.316 18484218 18501492 18451900 18336598 18157838 17918884 17623938 
1384.691 17277976 16886688 16456272 15993360 15504743 14997026 14476217 
1388.067 13947339 13414207 12879369 12344422 11810387 11278172 10748963 
1391.442 10224434 9706773 9198613 8702877 8222623 7760937 7320764 6904857 
1395.299 6515657 6155105 5824556 5524597 5254941 5014373 4800764 4611343 
1399.157 4442899 4292309 4156804 4034281 3923297 3823009 3732787 3652029 
1403.014 3579951 3515577 3457888 3405958 3359084 3316812 3278768 3244521 
1406.872 3213444 3184763 3157683 3131598 3106293 3082007 3059350 3039033 
1410.729 3021556 3007108 2995349 2985549 2976785 2968178 2959134 2949499 
1414.586 2939549 2930046 2922004 2916525 2914683 2917108 2923960 2934730 
1418.444 2948358 2963423 2978475 2992434 3004863 3016106 3027144 3039309 
1422.301 3053910 3071897 3093678 3119102 3147600 3178519 3211328 3245873 
1426.159 3282391 3321521 3364091 3410979 3462975 3520738 3584781 3655581 
1430.016 3733565 3819235 3913066 4015626 4127515 4249512 4382710 4528702 
1433.874 4689735 4868745 5069186 5294787 5549214 5835703 6156974 6515187 
1437.731 6912113 7349258 7827941 8349021 8912612 9517623 10161522 10840228 
1441.588 11548239 12278996 13025077 13778384 14530461 15272462 15995713 
1444.964 16692021 17354214 17976438 18554244 19084438 19564832 19993996 
1448.339 20371252 20696600 20970828 21195290 21371746 21501952 21587344 
1451.714 21628900 21627160 21582322 21494316 21362952 21187866 20968620 
1455.089 20704914 20396876 20045398 19652408 19220680 18753580 18254560 
1458.465 17726884 17173538 16597460 16001935 15390776 14768352 14139324 
1461.840 13508259 12879400 12256510 11643019 11042146 10456996 9890448 
1465.215 9344947 8822302 8323590 7849382 7399970 6975630 6576755 6203738 
1469.073 5856777 5535644 5239667 4967767 4718665 4491058 4283621 4095023 
1472.930 3923696 3767890 3625678 3495195 3374957 3263937 3161654 3067920 
1476.787 2982609 2905377 2835593 2772398 2714969 2662633 2614993 2571830 
1480.645 2532969 2498021 2466425 2437487 2410507 2385086 2361071 2338639 
1484.502 2317986 2299228 2282233 2266628 2251888 2237556 2223319 2209055 
1488.360 2194765 2180535 2166386 2152373 2138594 2125289 2112865 2101851 
1492.217 2092740 2085847 2081105 2078108 2076136 2074336 2071916 2068292 
1496.074 2063207 2056757 2049383 2041620 2034145 2027444 2021794 2017141 
1499.932 2013165 2009367 2005259 2000578 1995305 1989782 1984491 1979957 
1503.789 1976448 1974015 1972392 1971163 1969892 1968265 1966127 1963396 
1507.647 1960123 1956327 1952034 1947445 1942879 1938897 1936088 1934896 
1511.504 1935488 1937591 1940480 1943283 1945147 1945534 1944303 1941650 
1515.362 1937940 1933513 1928582 1923187 1917339 1911089 1904654 1898334 
1519.219 1892420 1887046 1882145 1877465 1872751 1867811 1862805 1858045 
1523.076 1853906 1850615 1848131 1846041 1843720 1840541 1836111 1830452 
1526.934 1823931 1817220 1810999 1805820 1801939 1799306 1797623 1796439 
1530.791 1795275 1793615 1791010 1787104 1781652 1774652 1766308 1757092 
1534.649 1747700 1738893 1731360 1725552 1721680 1719607 1718970 1719274 
1538.506 1719949 1720598 1720844 1720571 1719691 1718191 1716014 1713013 
1542.364 1709056 1704011 1697804 1690586 1682645 1674427 1666446 1659144 
1546.221 1652830 1647631 1643500 1640287 1637781 1635815 1634210 1632814 
1550.078 1631517 1630219 1628862 1627420 1625982 1624654 1623524 1622552 
1553.936 1621584 1620304 1618369 1615455 1611469 1606497 1600873 1595013 
1557.793 1589424 1584493 1580495 1577578 1575723 1574882 1574898 1575500 
1561.651 1576427 1577305 1577802 1577664 1576730 1574972 1572381 1569007 
1565.508 1564868 1560003 1554562 1548943 1543746 1539773 1537764 1538194 
1569.365 1541076 1545843 1551587 1557324 1562330 1566353 1569680 1572827 
1573.223 1576350 1580509 1585120 1589648 1593446 1596013 1597239 1597412 
1577.080 1597061 1596720 1596710 1597102 1597771 1598591 1599604 1601084 
1580.938 1603433 1607049 1612105 1618426 1625561 1632868 1639782 1645878 
1584.795 1650955 1654982 1657972 1659886 1660660 1660276 1658867 1656837 
1588.653 1654839 1653712 1654262 1657063 1662311 1669770 1678898 1688904 
1592.510 1699040 1708697 1717554 1725513 1732724 1739441 1745865 1752162 
1596.367 1758350 1764330 1769993 1775247 1780031 1784410 1788461 1792231 
1600.225 1795725 1798868 1801544 1803715 1805494 1807226 1809481 1812899 
1604.082 1818092 1825487 1835137 1846776 1859860 1873687 1887509 1900771 
1607.940 1913102 1924401 1934891 1945021 1955400 1966620 1979155 1993105 
1611.797 2008175 2023709 2038781 2052577 2064555 2074696 2083511 2091785 
1615.655 2100325 2109587 2119463 2129367 2138394 2145747 2151047 2154581 
1619.512 2157098 2159578 2162834 2167099 2171993 2176552 2179700 2180608 
1623.369 2179137 2175933 2172288 2169819 2169802 2172940 2178924 2186664 
1627.227 2194541 2200872 2204440 2204798 2202254 2197815 2192721 2188048 
1631.084 2184498 2182200 2180849 2180081 2179554 2179209 2179255 2179976 
1634.942 2181525 2183699 2185908 2187324 2187146 2184864 2180421 2174235 
1638.799 2167037 2159595 2152503 2146089 2140423 2135421 2131015 2127235 
1642.656 2124293 2122432 2121888 2122785 2125097 2128697 2133415 2139092 
1646.514 2145486 2152345 2159197 2165502 2170650 2174174 2175858 2175947 
1650.371 2175090 2174219 2174341 2176302 2180543 2187034 2195358 2204795 
1654.229 2214622 2224242 2233194 2241292 2248410 2254603 2259973 2264768 
1658.086 2269469 2274717 2281256 2289831 2300910 2314536 2330257 2347088 
1661.944 2363808 2379247 2392568 2403608 2412912 2421548 2430840 2441890 
1665.801 2455278 2470863 2487825 2505018 2521371 2536243 2549683 2562411 
1669.658 2575491 2589945 2606344 2624517 2643629 2662521 2680014 2695437 
1673.516 2708788 2720796 2732661 2745654 2760696 2778074 2797359 2817583 
1677.373 2837615 2856483 2873776 2889659 2904836 2920440 2937505 2956839 
1681.231 2978734 3002954 3028820 3055460 3081995 3107838 3132819 3157198 
1685.088 3181504 3206480 3232737 3260695 3290525 3322093 3355247 3389800 
1688.946 3425753 3463309 3502885 3544876 3589584 3637053 3687023 3738983 
1692.803 3792378 3846832 3902291 3959142 4018125 4080101 4145835 4215798 
1696.660 4290065 4368540 4450956 4537261 4627577 4722125 4821155 4924572 
1700.518 5032090 5143169 5257276 5374323 5494715 5619470 5749976 5887603 
1704.375 6033393 6187769 6350580 6521220 6699098 6883881 7075716 7275162 
1708.233 7483065 7700160 7926904 8163424 8409514 8664922 8929482 9203198 
1712.090 9486296 9779012 10081504 10393656 10714959 11044745 11382130 
1715.465 11726324 12076637 12432547 12793760 13160042 13531290 13907458 
1718.841 14288612 14675176 15067929 15468314 15878327 16300617 16738264 
1722.216 17194788 17673946 18179662 18716112 19287626 19898710 20554074 
1725.591 21258470 22016930 22834650 23717200 24670578 25701272 26816088 
1728.966 28022084 29326266 30735766 32258040 33901344 35675184 37590304 
1732.342 39657888 41888280 44289004 46863132 49608516 52518336 55583012 
1735.717 58792384 62137360 65609868 69200936 72897696 76680280 80520168 
1739.092 84380696 88219776 91993480 95659336 99178040 102513608 105632760 
1742.467 108505056 111104024 113408960 115405872 117087152 118449544 
1745.360 119491936 120214688 120620944 120719384 120526608 120066784 
1748.253 119368840 118461072 117366656 116101376 114674880 113094256 
1751.146 111368432 109510384 107537232 105467304 103317272 101099512 
1754.040 98822168 96490512 94109784 91686832 89231240 86754480 84268752 
1757.415 81785536 79314976 76866096 74447264 72066648 69732640 67453176 
1760.790 65235556 63085752 61008544 59007452 57085128 55243136 53482132 
1764.165 51801424 50198912 48671080 47213624 45821920 44491856 43220104 
1767.541 42004300 40842548 39733076 38673432 37660308 36689436 35755860 
1770.916 34854332 33979824 33127906 32294926 31478008 30674786 29883062 
1774.291 29100558 28324666 27552528 26781350 26008836 25233442 24454648 
1777.666 23672902 22889312 22105334 21322678 20543124 19768720 19001832 
1781.042 18245090 17501072 16772069 16059573 15364324 14686550 14026546 
1784.417 13385290 12764683 12167653 11597417 11056802 10547526 10069710 
1787.792 9622131 9202591 8808772 8438776 8091496 7766348 7463109 7181269 
1791.649 6919882 6677431 6452203 6242671 6047795 5867003 5700067 5546623 
1795.507 5405924 5276531 5156532 5043896 4936898 4834523 4736510 4643217 
1799.364 4555171 4472679 4395633 4323447 4255349 4190656 4129118 4070869 
1803.222 4016344 3965858 3919349 3876093 3834980 3794607 3753889 3712179 
1807.079 3669573 3626584 3583879 3541959 3500747 3459755 3418250 3375573 
1810.937 3331470 3286250 3240662 3195633 3151957 3110115 3070222 3032315 
1814.794 2996586 2963634 2934574 2910649 2892974 2881889 2876719 2875658 
1818.651 2876146 2875289 2870624 2860442 2844196 2822179 2795561 2765763 
1822.509 2734284 2702333 2670829 2640132 2610225 2580738 2551078 2520539 
1826.366 2488679 2455285 2420683 2385560 2350871 2317527 2286226 2257084 
1830.224 2229772 2203483 2177240 2150156 2121757 2091964 2061337 2030813 
1834.081 2001517 1974380 1949917 1927859 1907322 1886705 1864394 1839088 
1837.938 1810549 1779782 1749161 1721854 1700887 1688154 1683619 1684889 
1841.796 1687686 1686737 1677333 1656577 1624413 1583594 1539061 1496342 
1845.653 1460225 1433471 1416469 1407521 1403845 1402647 1401985 1401048 
1849.511 1399997 1399196 1398656 1397648 1394872 1388886 1378870 1365047 
1853.368 1348853 1332404 1317985 1307259 1300939 1298553 1298984 1300847 
1857.226 1302973 1304412 1304626 1303049 1298961 1291428 1279571 1262944 
1861.083 1241716 1216888 1190151 1163547 1139098 1118431 1102893 1093309 
1864.940 1090348 1094338 1105300 1122625 1144982 1170018 1194697 1215544 
1868.798 1229347 1233651 1227396 1211182 1187358 1159409 1131657 1108145 
1872.655 1091909 1084139 1084097 1089121 1095759 1100650 1101828 1099131 
1876.513 1094315 1089857 1088018 1089427 1092847 1095412 1094141 1087213 
1880.370 1075238 1061263 1049879 1045386 1050019 1062768 1079604 1094693 
1884.228 1102503 1099678 1086071 1064553 1039796 1016426 997709 984626 
1888.085 976394 971249 967627 964802 963001 962588 963581 964822 964212 
1892.425 959218 948099 930611 908709 886059 867356 857030 857940 870590 
1896.764 893069 921185 949827 973745 989042 993681 988092 974849 957983 
1901.104 942220 931983 930403 939022 957354 983269 1013010 1041908 1064949 
1905.443 1077658 1076817 1061368 1032581 994343 952196 912382 880423 859920 
1909.783 851826 854682 865062 878898 892110 901512 904917 900993 889113 
1914.123 869269 842294 810258 776348 744690 719528 704328 700713 708208 
1918.462 724375 745673 768155 788529 804291 813895 816324 810870 797421 
1922.802 776476 749719 719987 690836 665691 646468 632981 622227 609303 
1927.141 588362 554743 506414 445362 377705 313193 263196 238927 248625 
1931.481 295670 377403 485179 605589 723305 823785 896135 934563 938920 
1935.821 913571 865599 802650 731877 658869 588385 524323 470345 429363 
1940.160 403080 390635 388955 392723 396208 394670 386354 372976 359373 
1944.500 351925 356529 376803 413054 462080 517843 572988 620225 653881 
1948.839 671009 671631 658840 637508 613555 591562 574024 560003 545463 
1953.179 523821 488526 434589 360918 271001 173025 77794 -2696 -58680 -84486 
1958.001 -81085 -55767 -21727 5791 13326 -6131 -50699 -108800 -163211 
1962.340 -195464 -192300 -149878 -75968 12073 91608 141718 147879 106774 
1966.680 25370 -81575 -196623 -304231 -394897 -464951 -516232 -552417 
1970.537 -576362 -587342 -580576 -547278 -478155 -365011 -205173 -2164 
1974.395 233468 487388 743797 989721 1216631 1420842 1600004 1750484 1864464 
1978.734 1932379 1945138 1900315 1804553 1673869 1529287 1392179 1277056 
1982.592 1189281 1123697 1069609 1016366 959215 901802 854663 829422 833132 
1986.931 863092 907708 949745 973418 969129 937222 885114 824404 764485 
1991.271 710799 663397 620692 582109 550402 530788 528576 544836 575034 
1995.611 608739 633492 638663 619535 577794 520853 457506 395698 339125 
1999.950 288504 241319 195206 147734 97223 41885 -19421 -86669 -155547 
2004.290 -216496 -253830 -249373 -187261 -61590 120044 335139 553038 743023 
2008.629 882903 963690 989810 973466 929979 870508 801761 724719 638674 
2012.969 542881 439376 331959 226489 128176 41790 -29589 -83695 -120237 
2017.309 -140101 -147009 -144400 -136949 -126340 -112504 -92842 -65994 
2021.166 -33008 -1131 18922 14891 -20200 -85073 -167776 -249303 -308887 
2025.506 -332069 -314719 -264704 -196606 -126665 -66049 -18983 16222 42793 
2029.845 62588 73112 71344 54450 25187 -8975 -36731 -49122 -40870 -13626 
2034.667 27960 77942 134007 196273 266078 340882 413072 469001 494007 477271 
2039.489 416464 318938 200418 78745 -30370 -116901 -176744 -210345 -218776 
2043.828 -203479 -165080 -105774 -29228 59850 158670 268638 396439 550230 
2048.168 734350 941334 1150190 1328273 1441949 1466963 1397449 1247354 
2052.025 1047237 834445 644511 501427 413832 374972 368742 377131 387693 
2056.365 395736 403721 416025 435352 459422 482748 498489 502655 495476 
2060.705 481553 466761 456049 450648 448803 446751 441922 434163 426807 
2065.044 424728 432611 452688 484151 523292 565633 606791 644385 677177 
2069.384 705055 727762 744516 753995 755312 748247 734624 717439 700962 
2073.723 689292 686094 693346 711482 739101 773505 810645 845998 874833 
2078.063 893030 897745 887935 864605 831248 792817 755477 725115 706684 
2082.403 702543 712680 733824 761192 788763 811566 826346 832423 831067 
2086.742 825035 816594 807186 796378 782999 765035 741322 711462 676190 
2091.082 636624 594407 550865 508167 469115 437722 418270 414261 426322 
2095.421 451583 483369 513658 535438 545753 546766 545325 549690 566773 
2099.761 598655 641992 689009 730450 758714 770751 767689 754592 737092 
2104.101 720255 706287 695759 687807 682193 679199 679854 684786 693485 
2108.440 704048 714166 722113 728401 735594 748214 770067 802981 844758 
2112.780 889513 928389 952219 953186 927128 873822 797122 703430 600791 
2117.119 497126 399606 313340 241499 184813 142378 111757 90465 75954 66446 
2121.941 60242 55556 49488 38526 18459 -13604 -58315 -112675 -170725 -224162 
2126.763 -265586 -290641 -300179 -300149 -300435 -311366 -341045 -391377 
2130.620 -458580 -532672 -601034 -651745 -676796 -674142 -648916 -610874 
2134.478 -572666 -545767 -538449 -553563 -589362 -640000 -698661 -758415 
2138.335 -814393 -863061 -903226 -934387 -957361 -973996 -988430 -1006105 
2142.193 -1034588 -1081202 -1151592 -1246548 -1361503 -1485935 -1606542 
2145.568 -1709984 -1787707 -1837729 -1865709 -1882480 -1900700 -1929635 
2148.943 -1973905 -2031135 -2094828 -2155790 -2206976 -2245035 -2271941 
2152.318 -2293967 -2321273 -2364368 -2433733 -2535879 -2673621 -2842532 
2155.694 -3031107 -3218628 -3377849 -3476129 -3483643 -3378927 -3160726 
2159.069 -2849681 -2487768 -2125678 -1811560 -1576752 -1433905 -1376946 
2162.444 -1387186 -1439367 -1507979 -1570127 -1610229 -1619077 -1595134 
2165.819 -1540866 -1462971 -1367657 -1261469 -1148197 -1030231 -908414 
2169.195 -784188 -660178 -542212 -438893 -361358 -320073 -323092 -370584 
2173.052 -454844 -558234 -657157 -726741 -747853 -712736 -629263 -518014 
2176.909 -407691 -325700 -291004 -308379 -369057 -452887 -536686 -599003 
2180.767 -627327 -618376 -577828 -515652 -442331 -365778 -291280 -221743 
2184.624 -160811 -112829 -83484 -77467 -96904 -139530 -199320 -266242 
2188.482 -330010 -380503 -410761 -417035 -399423 -360664 -306770 -244433 
2192.339 -181158 -123190 -74057 -34090 -523 31760 67192 107918 151478 191606 
2197.161 218925 225293 205781 162217 102395 39084 -14336 -47014 -54298 
2201.500 -38220 -6653 29704 60365 78994 84032 79328 71654 69206 78466 103771 
2206.804 145700 202827 271655 348470 429062 508971 582638 643823 685605 
2211.144 702158 690738 653306 596677 532219 472478 428597 407224 409501 
2215.484 431015 464811 503313 541346 576453 608430 637488 663131 683083 
2219.823 694646 695864 687537 673456 660030 653902 660035 680101 712433 
2224.163 753322 798713 845491 892334 938482 982816 1022984 1055254 1075649 
2228.502 1082027 1074793 1057908 1037105 1018702 1007360 1005067 1011486 
2232.360 1024994 1043984 1067803 1096218 1129013 1164530 1199409 1229168 
2236.217 1249754 1258814 1257096 1247521 1234556 1221730 1210920 1201632 
2240.075 1192371 1181904 1171088 1162629 1161135 1170415 1192143 1224286 
2243.932 1261409 1295539 1318809 1324922 1311162 1278515 1231367 1175984 
2247.790 1119607 1068713 1028448 1001861 990223 992718 1007832 1033221 
2251.647 1066961 1107179 1152574 1201235 1250788 1297443 1337097 1365820 
2255.504 1381398 1383922 1376590 1364213 1352492 1345788 1346356 1353783 
2259.362 1365845 1379257 1391111 1399006 1401478 1397261 1385304 1364571 
2263.219 1334969 1297749 1256333 1215608 1181468 1158794 1150593 1157045 
2267.077 1176256 1205045 1240589 1280714 1324278 1369953 1415722 1457858 
2270.934 1491727 1512522 1517544 1506896 1484325 1456085 1429554 1411128 
2274.792 1404921 1412040 1431057 1458994 1492564 1528557 1564732 1599347 
2278.649 1631640 1661407 1689613 1717961 1749128 1785466 1828600 1878321 
2282.506 1932343 1986887 2037600 2080747 2114212 2137505 2151358 2156935 
2286.364 2154867 2145147 2127620 2102384 2071021 2036210 2001598 1970458 
2290.221 1944600 1923774 1905955 1888130 1867880 1844445 1819125 1794784 
2294.079 1774716 1761168 1754565 1753223 1754373 1755036 1753336 1748824 
2297.936 1742411 1735415 1729006 1723268 1717536 1710810 1702499 1692898 
2301.793 1683379 1675780 1671926 1672648 1677842 1686306 1696421 1706556 
2305.651 1715671 1723274 1729474 1734712 1739664 1745233 1752494 1762576 
2309.508 1776464 1794536 1816180 1839648 1862490 1881804 1895242 1901541 
2313.366 1900851 1894435 1884532 1873492 1863582 1856616 1853906 1856271 
2317.223 1864063 1877171 1895154 1917603 1944845 1978139 2019967 2073091 
2321.081 2139122 2216585 2299451 2377014 2435389 2460739 2442868 2378287 
2324.938 2271468 2134048 1982281 1833389 1702099 1597823 1523462 1475963 
2328.795 1448314 1432097 1420102 1407697 1393104 1376769 1360179 1344916 
2332.653 1332264 1323102 1318119 1317898 1322739 1332371 1345662 1360780 
2336.510 1375357 1387305 1395317 1399037 1399121 1396573 1392500 1387513 
2340.368 1381888 1375726 1369295 1363097 1357927 1354313 1352389 1351541 
2344.225 1350631 1348405 1343857 1336731 1327492 1317249 1307232 1298638 
2348.083 1292231 1288446 1287489 1289140 1292993 1298227 1303534 1307432 
2351.940 1308560 1306073 1300229 1292188 1283853 1277070 1273065 1271770 
2355.797 1271974 1271626 1268597 1261401 1249646 1234037 1215989 1197129 
2359.655 1178803 1161864 1146733 1133353 1121679 1111377 1101959 1092846 
2363.512 1083414 1073194 1062347 1051718 1042930 1037687 1037352 1042189 
2367.370 1051070 1061549 1070740 1076073 1076229 1071545 1063939 1056156 
2371.227 1050941 1050147 1054346 1062852 1074119 1086235 1097609 1107072 
2375.084 1114257 1119265 1122755 1125602 1128888 1133648 1140721 1150498 
2378.942 1162703 1176470 1190427 1202962 1212943 1219671 1223408 1224997 
2382.799 1225637 1226468 1228027 1230218 1232441 1233738 1233420 1231301 
2386.657 1227941 1224419 1222129 1222368 1225922 1232777 1242344 1253350 
2390.514 1264394 1274192 1281893 1286974 1289408 1289259 1286748 1282029 
2394.372 1275260 1266721 1256927 1246696 1237016 1228859 1223095 1220077 
2398.229 1219849 1222048 1226363 1232426 1240254 1249841 1261292 1274134 
2402.086 1287651 1300555 1311652 1320117 1325907 1329933 1333944 1339733 
2405.944 1348755 1361189 1375900 1390393 1401780 1407390 1405933 1397865 
2409.801 1385393 1371793 1360650 1354609 1354783 1360300 1368897 1377344 
2413.659 1382635 1382612 1376727 1365782 1351704 1336844 1323302 1312302 
2417.516 1304097 1297884 1292318 1285882 1277545 1266933 1254654 1242096 
2421.374 1231141 1223642 1221141 1224096 1232211 1244052 1257832 1271645 
2425.231 1284016 1294246 1302536 1309462 1315837 1322027 1327870 1332445 
2429.088 1334625 1333414 1328648 1320920 1311771 1303083 1296416 1292487 
2432.946 1290712 1289343 1286162 1279012 1266985 1250612 1231955 1214120 
2436.803 1200241 1192638 1192212 1198045 1208186 1220066 1231371 1240882 
2440.661 1248237 1253853 1258472 1262429 1265734 1267925 1268724 1268179 
2444.518 1267003 1266343 1267224 1270074 1274467 1279059 1282306 1282879 
2448.375 1280619 1276281 1271408 1267666 1265911 1266069 1267017 1267357 
2452.233 1266175 1263744 1261746 1262546 1268447 1280564 1298081 1318218 
2456.090 1336884 1349757 1353534 1346717 1330018 1305951 1278178 1250269 
2459.948 1225119 1204194 1187634 1174575 1163763 1154102 1145387 1138121 
2463.805 1133460 1132592 1136107 1143536 1153223 1162766 1169702 1172427 
2467.663 1170779 1166014 1160571 1156927 1156723 1160076 1165598 1171065 
2471.520 1174414 1174585 1172272 1169353 1168413 1171590 1179742 1192044 
2475.377 1206491 1220547 1232254 1240563 1245861 1249226 1252028 1255129 
2479.235 1258648 1261894 1263926 1263798 1261249 1256669 1251064 1245574 
2483.092 1241239 1238450 1237158 1236732 1236622 1236471 1236611 1237900 
2486.950 1241650 1248902 1259935 1273718 1288075 1299985 1306741 1306811 
2490.807 1300808 1291536 1283390 1280872 1287338 1303605 1327633 1355275 
2494.665 1381351 1401488 1413194 1416407 1413161 1406469 1399397 1394051 
2498.522 1391309 1390915 1392048 1393507 1394062 1392433 1387220 1377170 
2502.379 1361458 1340343 1315480 1289816 1267129 1250892 1243409 1245008 
2506.237 1254008 1267332 1281477 1293662 1302396 1307634 1310225 1311427 
2510.094 1312126 1312596 1312789 1312519 1312165 1312543 1314758 1319798 
2513.952 1327917 1338224 1348865 1357486 1361839 1360817 1354670 1345303 
2517.809 1335562 1328537 1326731 1331099 1341081 1354525 1368711 1380697 
2521.667 1388458 1391008 1388320 1381237 1370815 1358088 1344257 1330498 
2525.524 1318455 1309940 1306717 1309838 1319097 1332726 1347727 1360598 
2529.381 1368604 1370596 1367564 1362255 1358337 1359071 1366381 1380329 
2533.239 1399377 1420875 1442156 1460981 1475968 1486560 1492822 1495270 
2537.096 1494906 1492983 1491110 1490533 1492095 1495380 1498889 1500265 
2540.954 1497333 1488894 1475596 1459726 1444816 1434256 1430233 1432912 
2544.811 1440812 1451321 1461997 1471293 1479045 1485680 1491813 1497213 
2548.668 1500792 1500896 1496256 1486836 1474399 1462002 1453396 1451460 
2552.526 1457578 1470941 1489087 1508607 1526163 1539359 1547025 1549086 
2556.383 1546389 1540143 1531766 1522681 1514478 1508524 1505963 1507322 
2560.241 1512447 1520274 1529224 1537385 1543192 1545583 1544177 1539438 
2564.098 1532131 1523383 1514330 1505878 1498948 1494102 1491849 1492344 
2567.956 1495582 1501245 1508920 1518091 1528294 1539252 1551071 1563983 
2571.813 1578544 1595299 1614484 1635704 1657809 1678854 1696497 1708605 
2575.670 1713934 1712608 1706419 1698303 1691528 1688757 1691085 1697795 
2579.528 1706616 1714547 1719000 1718427 1713120 1704615 1695404 1687902 
2583.385 1683751 1683752 1687639 1694587 1703487 1713242 1722898 1731566 
2587.243 1738609 1743574 1746355 1747246 1747093 1746843 1747464 1749708 
2591.100 1753739 1759281 1765784 1772404 1778372 1782945 1785460 1785442 
2594.958 1782638 1777335 1770404 1763079 1756982 1753331 1752652 1754350 
2598.815 1757010 1758692 1757916 1754042 1747751 1740871 1735496 1733611 
2602.672 1736060 1742478 1751508 1761253 1770003 1776591 1780620 1782195 
2606.530 1781797 1779845 1776883 1773314 1769727 1766806 1765297 1765667 
2610.387 1767961 1771784 1776488 1781352 1786112 1790953 1796473 1803298 
2614.245 1811842 1821868 1832603 1842929 1851937 1859117 1864704 1869368 
2618.102 1874086 1879503 1885742 1892328 1898511 1903433 1906662 1908196 
2621.959 1908503 1908183 1907765 1907381 1906928 1906076 1904631 1902734 
2625.817 1901040 1900496 1902287 1907221 1915884 1928093 1942993 1959405 
2629.674 1975729 1990340 2001890 2009265 2012012 2010241 2004742 1996853 
2633.532 1988357 1980987 1976367 1975246 1977810 1983238 1990231 1997226 
2637.389 2002954 2006548 2007787 2006979 2004739 2001643 1998136 1994557 
2641.247 1991119 1988063 1985869 1984913 1985516 1987669 1990919 1994403 
2645.104 1997192 1998555 1998367 1997142 1995954 1996049 1998296 2002919 
2648.961 2009196 2015628 2020471 2022027 2019222 2011758 2000233 1985888 
2652.819 1970226 1954802 1940867 1929129 1919802 1912574 1906776 1901423 
2656.676 1895657 1888823 1880717 1871615 1862143 1853044 1844856 1837561 
2660.534 1830613 1822856 1813002 1799919 1783133 1763003 1740718 1717892 
2664.391 1696406 1677657 1662569 1651142 1642918 1636969 1632408 1628436 
2668.249 1624660 1620954 1617382 1614104 1611283 1608891 1606965 1605478 
2672.106 1604394 1603651 1603160 1602649 1601816 1600289 1597900 1594666 
2675.963 1591025 1587554 1585062 1584007 1584518 1586071 1587679 1588235 
2679.821 1586730 1582766 1576667 1569441 1562546 1557342 1554857 1555533 
2683.678 1559146 1564996 1572201 1579815 1587143 1593472 1598306 1601147 
2687.536 1601588 1599420 1594722 1587954 1579902 1571559 1563809 1557403 
2691.393 1552748 1549836 1548414 1547923 1547784 1547229 1545697 1542644 
2695.250 1537917 1531749 1524945 1518655 1514147 1512480 1514073 1518546 
2699.108 1524860 1531412 1536716 1539583 1539559 1536886 1532272 1526730 
2702.965 1521178 1516332 1512728 1510692 1510489 1512266 1516004 1521452 
2706.823 1528101 1535116 1541634 1546799 1549930 1550706 1549054 1545272 
2710.680 1539786 1533299 1526590 1520526 1515935 1513263 1512604 1513464 
2714.538 1514881 1515815 1515337 1513018 1509084 1504273 1499589 1495979 
2718.395 1493909 1493517 1494576 1496694 1499606 1503222 1507397 1511902 
2722.252 1516153 1519327 1520519 1519116 1515134 1509331 1503087 1498103 
2726.110 1495862 1497160 1502028 1509716 1518909 1528179 1536216 1542103 
2729.967 1545390 1546048 1544387 1541002 1536744 1532393 1528784 1526393 
2733.825 1525341 1525252 1525466 1525148 1523636 1520663 1516366 1511315 
2737.682 1506272 1501943 1498743 1496728 1495714 1495352 1495395 1495805 
2741.540 1496776 1498787 1502327 1507708 1514942 1523679 1533093 1542068 
2745.397 1549443 1554296 1556053 1554759 1551094 1546063 1540846 1536485 
2749.254 1533747 1532844 1533620 1535505 1537879 1540005 1541235 1540942 
2753.112 1538754 1534403 1527933 1519633 1510100 1500093 1490443 1481808 
2756.969 1474670 1469313 1465852 1464433 1465115 1467907 1472644 1478790 
2760.827 1485475 1491579 1496093 1498337 1498181 1496274 1493651 1491492 
2764.684 1490676 1491520 1493757 1496578 1499150 1500720 1500935 1499906 
2768.542 1498068 1496016 1494390 1493749 1494428 1496556 1500052 1504479 
2772.399 1509149 1513198 1515815 1516395 1514732 1511048 1505957 1500110 
2776.256 1494158 1488597 1483834 1480253 1478488 1479266 1483289 1491014 
2780.114 1502101 1515440 1529307 1541548 1550441 1554940 1555070 1551733 
2783.971 1546462 1540731 1535708 1531899 1529332 1527727 1526822 1526460 
2787.829 1526705 1527652 1529460 1532055 1535409 1539344 1543815 1548718 
2791.686 1554007 1559354 1564507 1569023 1572614 1575248 1577208 1579048 
2795.543 1581309 1584407 1588313 1592737 1597238 1601458 1605491 1609687 
2799.401 1614748 1621156 1629032 1637899 1646836 1654732 1660740 1664555 
2803.258 1666584 1667831 1669418 1672380 1677341 1684302 1692888 1702419 
2807.116 1712209 1721645 1730282 1737800 1744036 1748793 1752011 1753691 
2810.973 1754096 1753518 1752505 1751454 1750837 1751014 1752213 1754613 
2814.831 1758376 1763579 1770270 1778336 1787580 1797652 1808059 1818337 
2818.688 1827900 1836300 1843196 1848405 1851919 1853934 1854906 1855308 
2822.545 1855729 1856787 1858994 1862675 1867943 1874534 1881802 1888741 
2826.403 1894170 1896833 1895815 1890791 1882302 1871698 1861053 1852556 
2830.260 1848159 1848845 1854579 1864181 1875846 1887534 1897731 1905615 
2834.118 1911299 1915506 1919238 1923162 1927545 1932093 1936116 1938986 
2837.975 1940337 1940323 1939592 1939004 1939505 1941698 1945671 1951147 
2841.833 1957495 1964065 1970408 1976390 1982441 1989308 1997892 2009095 
2845.690 2023399 2040863 2060972 2082569 2104224 2124412 2141661 2154923 
2849.547 2163617 2167654 2167463 2163898 2158054 2151063 2144128 2137990 
2853.405 2133215 2129872 2127702 2126059 2124263 2121715 2117972 2112948 
2857.262 2106785 2099899 2092876 2086303 2080972 2077633 2077096 2080049 
2861.120 2086916 2097720 2111990 2128592 2146147 2163112 2178405 2191540 
2864.977 2202846 2213315 2224359 2237351 2253240 2272465 2294758 2319685 
2868.834 2346727 2375780 2407272 2441944 2480877 2524873 2574231 2628504 
2872.692 2686465 2746271 2805931 2863389 2917108 2966119 3010254 3049898 
2876.549 3085973 3119627 3152049 3184049 3216078 3247822 3278389 3306231 
2880.407 3329618 3346840 3356579 3358337 3352425 3339987 3322720 3302428 
2884.264 3280681 3258459 3236048 3213084 3188920 3162917 3134774 3104853 
2888.122 3074036 3043766 3015670 2991129 2971096 2955755 2944491 2936146 
2891.979 2929279 2922519 2915060 2906785 2898468 2891267 2886655 2885869 
2895.836 2889403 2897062 2907857 2920415 2933224 2945074 2955249 2963440 
2899.694 2969865 2974805 2978517 2981237 2983071 2984197 2984831 2985474 
2903.551 2986551 2988456 2991386 2995254 2999644 3004076 3008154 3011701 
2907.409 3014924 3018324 3022586 3028348 3035998 3045686 3057135 3070052 
2911.266 3084189 3099677 3116991 3136965 3160540 3188384 3220580 3256481 
2915.124 3294644 3333158 3370148 3404023 3434046 3460240 3483308 3504400 
2918.981 3524616 3544882 3565864 3587821 3610994 3635542 3661508 3688774 
2922.838 3717040 3745792 3774508 3802891 3831329 3860831 3892958 3929422 
2926.696 3971623 4020144 4074640 4133967 4196669 4261459 4327669 4395260 
2930.553 4464819 4537054 4612697 4692208 4776121 4865174 4960490 5063949 
2934.411 5177650 5303702 5443579 5597790 5765753 5945927 6136143 6333966 
2938.268 6537167 6743465 6951026 7157844 7361926 7561011 7752681 7934110 
2942.125 8102359 8254261 8386898 8497739 8585195 8648757 8689100 8707862 
2945.983 8707146 8688865 8654114 8603287 8536052 8452059 8351701 8236479 
2949.840 8109151 7973402 7833118 7691521 7551004 7412688 7276799 7143163 
2953.698 7011670 6882596 6756603 6634561 6517387 6405637 6299639 6199483 
2957.555 6104944 6015723 5931392 5851419 5775163 5702096 5631906 5564745 
2961.413 5501089 5441775 5387617 5339114 5296290 5258614 5225282 5195374 
2965.270 5168276 5143783 5121854 5102580 5085787 5070925 5057092 5043143 
2969.127 5028066 5011165 4992298 4971809 4950643 4930047 4911533 4896597 
2972.985 4886701 4882980 4886188 4896550 4913898 4937716 4967386 5002454 
2976.842 5042648 5087895 5138263 5193678 5253996 5319123 5389191 5464663 
2980.700 5546594 5636371 5735291 5844272 5963498 6092473 6230309 6376329 
2984.557 6530191 6692531 6864343 7046589 7239733 7442993 7654528 7871386 
2988.415 8090379 8308435 8522937 8731830 8933236 9125182 9305427 9471484 
2992.272 9620948 9751856 9863032 9953853 10024262 10074092 10102855 10109791 
2996.129 10094104 10055499 9994891 9914452 9817745 9708913 9592039 9470320 
2999.987 9345549 9217955 9086656 8950216 8807219 8656871 8499078 8334642 
3003.844 8164947 7991718 7816732 7641514 7467324 7294870 7124632 6956604 
3007.702 6790638 6626544 6464290 6303945 6145913 5990683 5838773 5690607 
3011.559 5546341 5405925 5269263 5136013 5006188 4879705 4756682 4637296 
3015.417 4521622 4409694 4301461 4196814 4095786 3998423 3904935 3815479 
3019.274 3730194 3648836 3571112 3496361 3424022 3353488 3284406 3216602 
3023.131 3150094 3084972 3021381 2959409 2899270 2841415 2786485 2735502 
3026.989 2689427 2649084 2614851 2586427 2562677 2541922 2522115 2501487 
3030.846 2478613 2452943 2424631 2394453 2363527 2333129 2304099 2277103 
3034.704 2252312 2229553 2208489 2188771 2170094 2152426 2136022 2121355 
3038.561 2109027 2099684 2093857 2091671 2092822 2096553 2101585 2106444 
3042.418 2109430 2109160 2104720 2095873 2083293 2068231 2052388 2037463 
3046.276 2024738 2014583 2006753 2000212 1993905 1987002 1979338 1971477 
3050.133 1964506 1959554 1957320 1957845 1960555 1964448 1968597 1972451 
3053.991 1976008 1979432 1982909 1986161 1988509 1988915 1986474 1980793 
3057.848 1972313 1962103 1951573 1941780 1933219 1925541 1917911 1909457 
3061.706 1899694 1888879 1877752 1867570 1859228 1853117 1849002 1845988 
3065.563 1843024 1839091 1833601 1826420 1817919 1808859 1800054 1792618 
3069.420 1787591 1785687 1787112 1791517 1797822 1804644 1810571 1814726 
3073.278 1817178 1818795 1821145 1825696 1833398 1844141 1856873 1869847 
3077.135 1881327 1889905 1895001 1896767 1895843 1892911 1888612 1883297 
3080.993 1877112 1870044 1862125 1853304 1843517 1832744 1821140 1809295 
3084.850 1798193 1789274 1783970 1783170 1786734 1793316 1800533 1805709 
3088.708 1806748 1802932 1795121 1785627 1777345 1772766 1773239 1778624 
3092.565 1787519 1797674 1806961 1813705 1817095 1817066 1814220 1809336 
3096.422 1803483 1797504 1792282 1788483 1786525 1786387 1787820 1790388 
3100.280 1793789 1797941 1803042 1809259 1816384 1823596 1829382 1832053 
3104.137 1830180 1823343 1812458 1799694 1787647 1778746 1774089 1773331 
3107.995 1774775 1776115 1775461 1771927 1765886 1758830 1752618 1748744 
3111.852 1748002 1750372 1755053 1761218 1768076 1774978 1781484 1786884 
3115.709 1790373 1791026 1787861 1780519 1769314 1755343 1740323 1726398 
3119.567 1715611 1709532 1709137 1714658 1725480 1740488 1757974 1776014 
3123.424 1792656 1806242 1815679 1820471 1820742 1817223 1810942 1803117 
3127.282 1795006 1787807 1782527 1779882 1780198 1783319 1788449 1794421 
3131.139 1799985 1804005 1805839 1805455 1803345 1800108 1796229 1791844 
3134.997 1786689 1780364 1772628 1763668 1754211 1745457 1738733 1735209 
3138.854 1735539 1739935 1747988 1758902 1771642 1784905 1797392 1807678 
3142.711 1814593 1817277 1815488 1809717 1801031 1791087 1781489 1773557 
3146.569 1767999 1764721 1762963 1761427 1758737 1753765 1746033 1735963 
3150.426 1724897 1715022 1708963 1708991 1716476 1731273 1751547 1774085 
3154.284 1794949 1810537 1818537 1818306 1810954 1798821 1784588 1770595 
3158.141 1758401 1748536 1741011 1735637 1732382 1731310 1732529 1735837 
3161.999 1740738 1746257 1751395 1755260 1757428 1757823 1756721 1754440 
3165.856 1751201 1747239 1742946 1739025 1736536 1736673 1740478 1748304 
3169.713 1759706 1773432 1787792 1801241 1812811 1822182 1829702 1835892 
3173.571 1841105 1845349 1848082 1848703 1846574 1841566 1833814 1823800 
3177.428 1812193 1799614 1786616 1773892 1762168 1752192 1744614 1739852 
3181.286 1737928 1738426 1740889 1744933 1750581 1758110 1767747 1779247 
3185.143 1791618 1803084 1811474 1815054 1813114 1806433 1797258 1788529 
3189.000 1783084 1782637 1787435 1796143 1806547 1816225 1823272 1826580 
3192.858 1826041 1821976 1815024 1805724 1794694 1782632 1770622 1759927 
3196.715 1751999 1747993 1748589 1753596 1762232 1773179 1785107 1796771 
3200.573 1807279 1816051 1822837 1827583 1830524 1832069 1832947 1833825 
3204.430 1835263 1837250 1839130 1839729 1837616 1831799 1822234 1810028 
3208.288 1797464 1787407 1782593 1784821 1794419 1810313 1830095 1850964 
3212.145 1870073 1885338 1895549 1900355 1900155 1895700 1887930 1877739 
3216.002 1866044 1853678 1841427 1830082 1820440 1813162 1808885 1807967 
3219.860 1810518 1816291 1824747 1835011 1846156 1857369 1868089 1878088 
3223.717 1887451 1896244 1904498 1911911 1917906 1921898 1923421 1922462 
3227.575 1919421 1914981 1909758 1903905 1897194 1888887 1878505 1865930 
3231.432 1851985 1838342 1827093 1820128 1818522 1821919 1828856 1837088 
3235.290 1844454 1849486 1851837 1852189 1852008 1852686 1855180 1859664 
3239.147 1865650 1872247 1878423 1883435 1886817 1888263 1887825 1885667 
3243.004 1882267 1878267 1874570 1872038 1871249 1872290 1874420 1876476 
3246.862 1877059 1875081 1870060 1862322 1852740 1842205 1831396 1820432 
3250.719 1809181 1797547 1786062 1776113 1769862 1769699 1777329 1793271 
3254.577 1816166 1843158 1870370 1893988 1910978 1919880 1920930 1915678 
3258.434 1906606 1896262 1886955 1880295 1877092 1877392 1880527 1885197 
3262.292 1889912 1892853 1892771 1888865 1881329 1871140 1859973 1849559 
3266.149 1841270 1835567 1832066 1829770 1827561 1824913 1822242 1820777 
3270.006 1822307 1828338 1839323 1854286 1870936 1886065 1896694 1900941 
3273.864 1898693 1891508 1882386 1874493 1870491 1871602 1877488 1886456 
3277.721 1896231 1904490 1909658 1910908 1908326 1902504 1894446 1885350 
3281.579 1876548 1869233 1864505 1862928 1864303 1867597 1871080 1872733 
3285.436 1871056 1865485 1856812 1847023 1838567 1833661 1833522 1837974 
3289.293 1845728 1854788 1863232 1869713 1873622 1875035 1874381 1871980 
3293.151 1868065 1862789 1856571 1850142 1844651 1841437 1841540 1845560 
3297.008 1853310 1864029 1876634 1889975 1903088 1915120 1925261 1932669 
3300.866 1936465 1935950 1931088 1922421 1911401 1899902 1889908 1882786 
3304.723 1879089 1878498 1880114 1882719 1885214 1886765 1886885 1885150 
3308.581 1881204 1874747 1865722 1854585 1842289 1830413 1820691 1814722 
3312.438 1813519 1817318 1825509 1836828 1849741 1862537 1873714 1882055 
3316.295 1886815 1887724 1885092 1879765 1872921 1865741 1859217 1853938 
3320.153 1850330 1848704 1849686 1854324 1863769 1878861 1899424 1923779 
3324.010 1948681 1970110 1984289 1988766 1983434 1970259 1952835 1934860 
3327.868 1919162 1906802 1897144 1888802 1880413 1871620 1863407 1857416 
3331.725 1855348 1857897 1864407 1873123 1881808 1888706 1893042 1895197 
3335.583 1896075 1896551 1896735 1895934 1892993 1886936 1877661 1866255 
3339.440 1854802 1845611 1840620 1840527 1844807 1851869 1859774 1866807 
3343.297 1871946 1874898 1875999 1875854 1875002 1873824 1872521 1871163 
3347.155 1869905 1868893 1868443 1868746 1869948 1872038 1874781 1877952 
3351.012 1881259 1884409 1887268 1889711 1891907 1894071 1896448 1899164 
3354.870 1902061 1904519 1905694 1904515 1900225 1892542 1881916 1869360 
3358.727 1856475 1844681 1835195 1828649 1825135 1824371 1826008 1829631 
3362.584 1834925 1841417 1848531 1855343 1860848 1864073 1864430 1861930 
3366.442 1857226 1851482 1846053 1842283 1841156 1843353 1849054 1858003 
3370.299 1869521 1882492 1895377 1906400 1913837 1916386 1913445 1905350 
3374.157 1893290 1878939 1864132 1850501 1839257 1831272 1827150 1827433 
3378.014 1832567 1842644 1857249 1875136 1894346 1912521 1927422 1937664 
3381.872 1943004 1944269 1943002 1940677 1938080 1935130 1930769 1923715 
3385.729 1913078 1899110 1883172 1867721 1855369 1848177 1846984 1851113 
3389.586 1858610 1866802 1873223 1876254 1875463 1871791 1867082 1863352 
3393.444 1862398 1865054 1871128 1879345 1887850 1894705 1898382 1898390 
3397.301 1895216 1890377 1885855 1883659 1885147 1890548 1899066 1908843 
3401.159 1917618 1923108 1923928 1919599 1910790 1899044 1886393 1874745 
3405.016 1865585 1859485 1856400 1855680 1856422 1857828 1859314 1860630 
3408.874 1861739 1862460 1862712 1862129 1860515 1857860 1854563 1851436 
3412.731 1849568 1849738 1852473 1857397 1863432 1869230 1873482 1875432 
3416.588 1875203 1873656 1872258 1872293 1874530 1879027 1884983 1891194 
3420.446 1896315 1899315 1899617 1897140 1892091 1884949 1876312 1866858 
3424.303 1857367 1848645 1841482 1836352 1833347 1831995 1831656 1831626 
3428.161 1831538 1831463 1832042 1833945 1837666 1843172 1849680 1855984 
3432.018 1860896 1863575 1864044 1863385 1863093 1865037 1870520 1880049 
3435.875 1893213 1908585 1924227 1938214 1948952 1955551 1958006 1957184 
3439.733 1954445 1951439 1949703 1950184 1953103 1957883 1963392 1968256 
3443.590 1971214 1971524 1969071 1964201 1957536 1949747 1941436 1933020 
3447.448 1925052 1918194 1913463 1911821 1914195 1920772 1931126 1943904 
3451.305 1957208 1969011 1977549 1981836 1981707 1978007 1972160 1965976 
3455.163 1961263 1959518 1961497 1967189 1975588 1984847 1992845 1997431 
3459.020 1997407 1992587 1984245 1974450 1965721 1960115 1958738 1961487 
3462.877 1967386 1975031 1983271 1991572 2000143 2009567 2020355 2032637 
3466.735 2045913 2059333 2071896 2082995 2092595 2101185 2109590 2118756 
3470.592 2129441 2142090 2156889 2173713 2192096 2211035 2229187 2244765 
3474.450 2255931 2261258 2260274 2253632 2243225 2231529 2221175 2214023 
3478.307 2211032 2212087 2216617 2223815 2233414 2245463 2260501 2278731 
3482.165 2300141 2323939 2348990 2374180 2398736 2422400 2445393 2468161 
3486.022 2490574 2512070 2531471 2547436 2558942 2565725 2568537 2569057 
3489.879 2569294 2571307 2576745 2586466 2600651 2618832 2640094 2663189 
3493.737 2686648 2708714 2727866 2742898 2753194 2758976 2761268 2761495 
3497.594 2761381 2762257 2764951 2769842 2776872 2785971 2797198 2810616 
3501.452 2826224 2843505 2861254 2877543 2890099 2896721 2895972 2887624 
3505.309 2872718 2853312 2832069 2811450 2793443 2779127 2768903 2762394 
3509.167 2759009 2757979 2758571 2760123 2762089 2764020 2765596 2766628 
3513.024 2767138 2767150 2766617 2765349 2762882 2758612 2752028 2742869 
3516.881 2731346 2718161 2704380 2691071 2678958 2668159 2658165 2647849 
3520.739 2635904 2621097 2602869 2581339 2557540 2533191 2510395 2491120 
3524.596 2476720 2467587 2463081 2461519 2460798 2458713 2453871 2445868 
3528.454 2435322 2423598 2412168 2401937 2393080 2384900 2376420 2367012 
3532.311 2356817 2346881 2338882 2334125 2333100 2334714 2336697 2336291 
3536.168 2331387 2321343 2307657 2293278 2281919 2276387 2277923 2285459 
3540.026 2296293 2306882 2314187 2316551 2314174 2308425 2301470 2294872 
3543.883 2289428 2284674 2279371 2272230 2262489 2250313 2237003 2224536 
3547.741 2215251 2210984 2212895 2220950 2234006 2249860 2265828 2279258 
3551.598 2287927 2290638 2287556 2279827 2269454 2258530 2248858 2241348 
3555.456 2236058 2232094 2228356 2223494 2216621 2207308 2195779 2182874 
3559.313 2170026 2158969 2151511 2149183 2152692 2161791 2175033 2190160 
3563.170 2204766 2216861 2225655 2231479 2235687 2239658 2244036 2248272 
3567.028 2250614 2248807 2241352 2227993 2210793 2193183 2179168 2171785 
3570.885 2172102 2178431 2187042 2193219 2192855 2183762 2166489 2143859 
3574.743 2120337 2100379 2087382 2082679 2085687 2094124 2105279 2116571 
3578.600 2126508 2134620 2141545 2148015 2154823 2161814 2168206 2172613 
3582.458 2173785 2171068 2165063 2157264 2150040 2145633 2145597 2149872 
3586.315 2156788 2163283 2165815 2161165 2147557 2125039 2095793 2063387 
3590.172 2032293 2006631 1989667 1982932 1986356 1998124 2015298 2034263 
3594.030 2051547 2063986 2069574 2067292 2057428 2041104 2020250 1997063 
3597.887 1973958 1952926 1935573 1922600 1914020 1908987 1906187 1904148 
3601.745 1901782 1898533 1894800 1891538 1889942 1890847 1894533 1900433 
3605.602 1907736 1915514 1923524 1932226 1942746 1956235 1973264 1993205 
3609.459 2014317 2033935 2049355 2058405 2060316 2055414 2045333 2032048 
3613.317 2017622 2003775 1991732 1982101 1975184 1970643 1967825 1965636 
3617.174 1962889 1958672 1952937 1946776 1942568 1943070 1950967 1967489 
3621.032 1992171 2022357 2054404 2084325 2109077 2127439 2140027 2148723 
3624.889 2155961 2163530 2172270 2181659 2190392 2196838 2199836 2198933 
3628.747 2194751 2188483 2182080 2177284 2175915 2179217 2188046 2202675 
3632.604 2222703 2247220 2274715 2303297 2330926 2355658 2376059 2391148 
3636.461 2400798 2405436 2406170 2404323 2401190 2397726 2394482 2391395 
3640.319 2388479 2385795 2384127 2384713 2389169 2398859 2414189 2434184 
3644.176 2456712 2478893 2498139 2512949 2523530 2531549 2539509 2549718 
3648.034 2563259 2579484 2596525 2611606 2622216 2626793 2624926 2617401 
3651.891 2605594 2591140 2575737 2560983 2548699 2540435 2537436 2539900 
3655.749 2546832 2555821 2563792 2567787 2566069 2558660 2547307 2534585 
3659.606 2522982 2513754 2506877 2501046 2495165 2488838 2483348 2481136 
3663.463 2485001 2496549 2515439 2538827 2562238 2580818 2591072 2591659 
3667.321 2583751 2570308 2554701 2539412 2525332 2511570 2496175 2477084 
3671.178 2453186 2424876 2393970 2363123 2335287 2312870 2297316 2289158 
3675.036 2287741 2291698 2299041 2307437 2314389 2317524 2314947 2305420 
3678.893 2288696 2265576 2238089 2209066 2181821 2159284 2143853 2136393 
3682.750 2136587 2142642 2152002 2161946 2169975 2174418 2174393 2169490 
3686.608 2159523 2144007 2122434 2094458 2060439 2021987 1982259 1945513 
3690.465 1916413 1898819 1894983 1904575 1925103 1952438 1981854 2009113 
3694.323 2031463 2047363 2056868 2060547 2059253 2053678 2044480 2032451 
3698.180 2018843 2005085 1992986 1983939 1978612 1976747 1977229 1978479 
3702.038 1979222 1978647 1976942 1974753 1973333 1973391 1975350 1979037 
3705.895 1983944 1989249 1994606 1999617 2004018 2007352 2008894 2007712 
3709.752 2003070 1994593 1982928 1969606 1956841 1946613 1940379 1938229 
3713.610 1939178 1941310 1942808 1942437 1940259 1937334 1935491 1936329 
3717.467 1940843 1948799 1959103 1970070 1980405 1989296 1996567 2002729 
3721.325 2008020 2012088 2013947 2011910 2004627 1991433 1973205 1952013 
3725.182 1931155 1913943 1903085 1899809 1903740 1913134 1925705 1939044 
3729.040 1951686 1962969 1973180 1983044 1993224 2003920 2014908 2025435 
3732.897 2034902 2042680 2048907 2054033 2058810 2063877 2069558 2075467 
3736.754 2080827 2084506 2085678 2083990 2079856 2074427 2069374 2066277 
3740.612 2066355 2069622 2075224 2081268 2085493 2085849 2081055 2071109 
3744.469 2057253 2041598 2026481 2013749 2004219 1997778 1993561 1990511 
3748.327 1987977 1986082 1985445 1986946 1990949 1996816 2002998 2007132 
3752.184 2007151 2002046 1992586 1981172 1971342 1966571 1969091 1978902 
3756.042 1993958 2010379 2023996 2031453 2031234 2024044 2012464 1999810 
3759.899 1989171 1982465 1980171 1981560 1985246 1989929 1995005 2000423 
3763.756 2006789 2014760 2024729 2036445 2049136 2061542 2072358 2080410 
3767.614 2084849 2085507 2082511 2076543 2068600 2059605 2050546 2041876 
3771.471 2033888 2026240 2018882 2011661 2005045 1999872 1997456 1998927 
3775.329 2005108 2015723 2029648 2044857 2058804 2068928 2073312 2070901 
3779.186 2061795 2046931 2028133 2007532 1987271 1969175 1954563 1944033 
3783.043 1937495 1934267 1933321 1933441 1933890 1934174 1934573 1935695 
3786.901 1938506 1943718 1951801 1962388 1974580 1986762 1996992 2003322 
3790.758 2003996 1998174 1986005 1968837 1949212 1930449 1915879 1908314 
3794.616 1909320 1918671 1934589 1954013 1973763 1990896 2003782 2011998 
3798.473 2016266 2017936 2018294 2018041 2017353 2015850 2013148 2009119 
3802.331 2004210 1999261 1995293 1992969 1992571 1993640 1995437 1996928 
3806.188 1997563 1997306 1996742 1996905 1998806 2003031 2009390 2016812 
3810.045 2023699 2028224 2029158 2026168 2020236 2013319 2008049 2006615 
3813.903 2010309 2018712 2029932 2040849 2048351 2050018 2045335 2035568 
3817.760 2023738 2013493 2008151 2009788 2018688 2033408 2051093 2068387 
3821.618 2082290 2090631 2092665 2088850 2080647 2069992 2059130 2049779 
3825.475 2043314 2040171 2040042 2041943 2044524 2046386 2046605 2044949 
3829.333 2041893 2038438 2035894 2035110 2036676 2040274 2045133 2050082 
3833.190 2054043 2056037 2055537 2052374 2046831 2039459 2031173 2023039 
3837.047 2016190 2011373 2009078 2008905 2010098 2011303 2011594 2010366 
3840.905 2007862 2004829 2002272 2000733 2000082 1999212 1996640 1991167 
3844.762 1982600 1972148 1962404 1956358 1956719 1964612 1979280 1997965 
3848.620 2016915 2032218 2041045 2042257 2036469 2025526 2011986 1997979 
3852.477 1985106 1974012 1964752 1957065 1950824 1946132 1943559 1943763 
3856.334 1947418 1954798 1965839 1979755 1995318 2010783 2024519 2034906 
3860.192 2041387 2044025 2043931 2042696 2042084 2043271 2046765 2051919 
3864.049 2057722 2062528 2065327 2065286 2062457 2057255 2050469 2042800 
3867.907 2034895 2027132 2019757 2012807 2005999 1998827 1990588 1980532 
3871.764 1968253 1954169 1939484 1926213 1916613 1912437 1914376 1921471 
3875.622 1931555 1941525 1948485 1950351 1946604 1938384 1927980 1918431 
3879.479 1912780 1913317 1921448 1937138 1958974 1984344 2009712 2031184 
3883.336 2045357 2049909 2044367 2030134 2010246 1988544 1968937 1953977 
3887.194 1945087 1942149 1944162 1949929 1958461 1968782 1980254 1991716 
3891.051 2001837 2008974 2011885 2009916 2003665 1994515 1984397 1974891 
3894.909 1966793 1959881 1953204 1945571 1936474 1926186 1916132 1908140 
3898.766 1904300 1905947 1913735 1927250 1945437 1966532 1988512 2009021 
3902.624 2025809 2036725 2040550 2037137 2027739 2014910 2001947 1992098 
3906.481 1987669 1989486 1996936 2008188 2021028 2033387 2044165 2052900 
3910.338 2059880 2065459 2069872 2072974 2074371 2073773 2071142 2067000 
3914.196 2062253 2058227 2056223 2057303 2061917 2069907 2080291 2091373 
3918.053 2101186 2107635 2109261 2105577 2097236 2085857 2073844 2063433 
3921.911 2056243 2052603 2051737 2051779 2050557 2046151 2037506 2024569 
3925.768 2008695 1992029 1977229 1967086 1963866 1968689 1981519 2000359 
3929.625 2022156 2042829 2058263 2065476 2063237 2052494 2036078 2017894 
3933.483 2002001 1991512 1988037 1991512 2000766 2013797 2028732 2043816 
3937.340 2057810 2069709 2078785 2084244 2085701 2082878 2076169 2066380 
3941.198 2054831 2042936 2032097 2023357 2017339 2014148 2013601 2014997 
3945.055 2017810 2021323 2025234 2029518 2034675 2041170 2049600 2059886 
3948.913 2071380 2082586 2091742 2097045 2097420 2092654 2083698 2072249 
3952.770 2060440 2050113 2042649 2038483 2037591 2039112 2041881 2044425 
3956.627 2045297 2042972 2036733 2026458 2013382 1999494 1987434 1979740 
3960.485 1978056 1982625 1992426 2005523 2019940 2034148 2047631 2060319 
3964.342 2072414 2083515 2092346 2097189 2096340 2088959 2075776 2058825 
3968.200 2041114 2025383 2013548 2005969 2002074 2000826 2001761 2005319 
3972.057 2012939 2025900 2044807 2068343 2093660 2116268 2132084 2138143 
3975.915 2133922 2121416 2104680 2088583 2077524 2074214 2079282 2091130 
3979.772 2106625 2121858 2133118 2137663 2134209 2123034 2106126 2086452 
3983.629 2067736 2053293 2045860 2046722 2055829 2071634 2091883 2113676 
3987.487 2134367 2151401 2163061 2168247 2166889 2159655 2148324 2135063 
3991.344 2122657 2113394 2108802 2109084 2113075 2118621 2123204 2124800 
3995.202 2122283 2115838 2106605 2096164 2086083 2077259 2070298 2065252 
3999.059 2062471 2062532 2066576 2075409 
##END=
