##TITLE=Tecor_PLA-Bicolour_Black_Filament_r3_ATR-Corrected
##JCAMP-DX=5.01  $$ Nicolet v. 1
##DATATYPE=INFRARED SPECTRUM
##ORIGIN=Curtin University
##OWNER=Nicolet
##LONGDATE=2024/07/19
##TIME=15:20:59
##SPECTROMETER/DATA SYSTEM=Nicolet iS50
##DATA PROCESSING=
Ratio against background
%Transmittance->Absorbance
ATR Correction
Truncated
ElementMultiply or ElementDivide
##COMMENTS=
Number of sample scans: 32
Collection length: 47.28 sec
Sample gain: 1.0
Background collected on: Fri Jul 19 15:11:27 2024 (GMT+08:00);
Number of background scans: 32
Background gain: 1.0
Sample spacing:  1.000
Number of scan points: 16672
Resolution points: 8192
Number of FFT points: 65536
Apodization: N-B strong;
Phase correction: Mertz;
Laser frequency: 15798.3 cm-1
Number of rejected sample scans: 0
Number of rejected background scans: 0
Bench serial number: AUP1200105;
##RESOLUTION=4.000
##XUNITS=1/CM
##YUNITS=ABSORBANCE
##FIRSTX=400.163452
##LASTX=4000.187744
##FIRSTY=0.073952
##MAXX=4000.187744
##MINX=400.163452
##MAXY=1.037629
##MINY=-0.021050
##XFACTOR=1.000000
##YFACTOR=1.000000E-008
##NPOINTS=7468
##DELTAX=0.482125
##ZPD=8192
##XYDATA=(X++(Y..Y))
400.163 7395154 7159220 6905411 6650325 6412332 6209247 6053176 5947609 
404.020 5887238 5859743 5849554 5841451 5823837 5789926 5737861 5669383 
407.877 5588262 5499001 5406030 5313327 5224540 5142727 5070190 5007710 
411.734 4954348 4907246 4862274 4814997 4761860 4701043 4632848 4559079 
415.591 4482387 4405085 4328542 4253113 4178730 4105723 4035487 3970522 
419.448 3913910 3868182 3834207 3810415 3793098 3777182 3757835 3731706 
423.305 3698083 3658921 3618265 3580952 3551390 3532459 3525146 3528529 
427.162 3540315 3557291 3575799 3592030 3602373 3603765 3594280 3573596 
431.019 3543428 3507352 3470244 3436912 3411271 3394901 3386869 3383931 
434.876 3381650 3375725 3363340 3343999 3319730 3294494 3273066 3259555 
438.733 3256123 3262153 3274213 3286838 3294059 3291134 3276078 3250287 
442.590 3218197 3185849 3159058 3141551 3133996 3133865 3136641 3137405 
446.447 3132653 3121460 3105662 3088954 3075567 3068759 3069917 3078311 
450.304 3091590 3106632 3120331 3130072 3134008 3130974 3120509 3102885 
454.161 3079247 3051669 3023000 2996461 2975049 2960907 2954875 2956356 
458.017 2963574 2973966 2984745 2993237 2997278 2995358 2986962 2972715 
461.874 2954512 2935328 2918627 2907281 2903462 2907179 2916482 2927868 
465.731 2937193 2940722 2935934 2921949 2899475 2870382 2837238 2802855 
469.588 2770065 2741494 2719323 2704940 2698524 2698750 2702839 2706929 
473.445 2706933 2699443 2682427 2655607 2620398 2579551 2536683 2495824 
477.302 2461035 2435979 2423315 2424040 2436922 2458234 2482280 2502544 
481.159 2513444 2511868 2498168 2475904 2450582 2427659 2410731 2400498 
485.016 2394963 2390593 2384041 2373535 2359489 2344029 2329953 2319454 
488.873 2313334 2311043 2311189 2312510 2314429 2317169 2321346 2327276 
492.730 2334490 2341747 2347544 2350644 2351345 2351019 2351957 2356490 
496.587 2366052 2380618 2398572 2417164 2433291 2444270 2448514 2445627 
500.444 2436397 2422389 2405616 2388110 2371746 2358026 2348024 2342327 
504.301 2341071 2343965 2350335 2359191 2369291 2379205 2387506 2392942 
508.158 2394727 2392806 2387911 2381393 2374860 2369626 2366297 2364566 
512.015 2363382 2361459 2357841 2352282 2345419 2338401 2332475 2328428 
515.871 2326423 2326031 2326577 2327474 2328370 2329033 2329070 2327658 
519.728 2323584 2315597 2303035 2286346 2267257 2248387 2232437 2221166 
523.585 2214753 2211709 2209530 2205631 2198819 2189503 2179648 2171972 
527.442 2168748 2170888 2177481 2186088 2193608 2197271 2195458 2188027 
531.299 2176111 2161610 2146551 2132649 2121135 2112765 2107938 2106694 
535.156 2108718 2113202 2118863 2124091 2127249 2127082 2123035 2115354 
539.013 2104982 2093264 2081554 2070875 2061810 2054472 2048712 2044283 
542.870 2041092 2039268 2039189 2041347 2046192 2053889 2064113 2075951 
546.727 2087922 2098243 2105210 2107629 2105259 2098899 2090309 2081712 
550.584 2075232 2072276 2073220 2077317 2083034 2088579 2092441 2093831 
554.441 2092851 2090438 2088106 2087453 2090082 2097053 2108708 2124539 
558.298 2143149 2162380 2179572 2191984 2197380 2194475 2183361 2165560 
562.155 2143748 2121231 2101239 2086297 2077832 2076066 2080237 2089011 
566.012 2100954 2114863 2129920 2145639 2161640 2177431 2192266 2205078 
569.869 2214716 2220209 2221101 2217620 2210833 2202388 2194313 2188573 
573.725 2186759 2189897 2198383 2212117 2230628 2253199 2278950 2306720 
577.582 2335024 2361987 2385475 2403324 2413822 2416109 2410576 2398944 
581.439 2384124 2369706 2359310 2355902 2361226 2375429 2397105 2423529 
585.296 2451207 2476509 2496415 2509072 2514185 2513027 2508139 2502706 
589.153 2499807 2501710 2509371 2522301 2538906 2557008 2574560 2590143 
593.010 2603298 2614345 2624098 2633331 2642457 2651343 2659413 2665974 
596.867 2670560 2673189 2674439 2675286 2676853 2680023 2685243 2692330 
600.724 2700551 2708808 2715928 2720972 2723543 2723910 2723050 2722430 
604.581 2723692 2728219 2736814 2749463 2765434 2783537 2802558 2821607 
608.438 2840366 2859116 2878445 2898991 2921148 2944909 2969989 2995934 
612.295 3022382 3049072 3075863 3102510 3128590 3153472 3176528 3197331 
616.152 3215987 3233137 3249890 3267360 3286375 3307152 3329308 3352052 
620.009 3374634 3396664 3418285 3440082 3462771 3486843 3512361 3538897 
623.866 3565775 3592318 3618052 3642799 3666526 3689167 3710531 3730286 
627.723 3748167 3764239 3779006 3793349 3808302 3824536 3842134 3860404 
631.579 3878121 3893970 3907133 3917630 3926436 3935179 3945653 3959158 
635.436 3976152 3996078 4017627 4039137 4059173 4076880 4092201 4105791 
639.293 4118785 4132432 4147808 4165587 4185966 4208685 4233146 4258515 
643.150 4283891 4308382 4331192 4351685 4369449 4384327 4396486 4406415 
647.007 4414876 4422788 4431058 4440398 4451143 4463279 4476466 4490297 
650.864 4504471 4519023 4534342 4551002 4569625 4590474 4613399 4637711 
654.721 4662389 4686397 4708913 4729546 4748386 4765825 4782366 4798381 
658.578 4814020 4829218 4843836 4857837 4871422 4885048 4899329 4914850 
662.435 4931985 4950769 4970845 4991594 5012322 5032444 5051647 5069910 
666.292 5087494 5104698 5121698 5138329 5154069 5168144 5179684 5188044 
670.149 5193001 5194880 5194515 5193072 5191868 5192126 5194897 5200949 
674.006 5210787 5224582 5242076 5262568 5284859 5307385 5328530 5347024 
677.863 5362294 5374653 5385196 5395422 5406654 5419574 5434096 5449408 
681.720 5464494 5478650 5491913 5505073 5519394 5536076 5555672 5577829 
685.577 5601348 5624626 5646283 5665597 5682810 5698881 5715077 5732414 
689.433 5751270 5771256 5791368 5810379 5827249 5841423 5853027 5862770 
693.290 5871787 5881400 5892814 5906886 5923915 5943511 5964599 5985588 
697.147 6004721 6020452 6031930 6039160 6043081 6045197 6047160 6050232 
701.004 6054969 6061039 6067499 6073092 6076733 6077821 6076378 6072968 
704.861 6068462 6063689 6059148 6054807 6050054 6043817 6034824 6021825 
708.718 6003939 5980872 5952905 5920837 5885698 5848386 5809420 5768708 
712.575 5725632 5679257 5628597 5572927 5511944 5445696 5374482 5298603 
716.432 5218238 5133462 5044330 4951101 4854386 4755220 4655013 4555367 
720.289 4457905 4364054 4274970 4191425 4113731 4041778 3975051 3912758 
724.146 3854058 3798412 3745903 3697473 3654889 3620509 3596763 3585517 
728.003 3587689 3603006 3630221 3667600 3713621 3767534 3829715 3901579 
731.860 3985197 4082586 4195083 4322833 4464569 4617755 4778965 4944407 
735.717 5110363 5273657 5431754 5582871 5725859 5860106 5985427 6101976 
739.574 6210245 6310989 6405225 6494100 6578852 6660650 6740542 6819376 
743.431 6897808 6976383 7055456 7135270 7215935 7297376 7379391 7461659 
747.287 7543938 7626065 7708138 7790459 7873448 7957463 8042627 8128650 
751.144 8214818 8300046 8382997 8462167 8535933 8602472 8659718 8705309 
755.001 8736813 8751971 8749158 8727641 8687833 8631028 8559059 8473717 
758.858 8376331 8267605 8147787 8017140 7876476 7727461 7572648 7415128 
762.715 7257890 7103229 6952411 6805527 6661942 6520728 6381165 6243142 
766.572 6107127 5974004 5844752 5720163 5600735 5486620 5377825 5274243 
770.429 5175771 5082227 4993283 4908360 4826701 4747405 4669612 4592683 
774.286 4516292 4440408 4365210 4290903 4217595 4145201 4073470 4002051 
778.143 3930650 3859132 3787619 3716504 3646376 3577885 3511578 3447672 
782.000 3385936 3325646 3265717 3204973 3142471 3077849 3011502 2944487 
785.857 2878269 2814287 2753538 2696357 2642454 2591249 2542204 2495185 
789.714 2450538 2408940 2370975 2336758 2305780 2276950 2249023 2221091 
793.571 2193020 2165486 2139808 2117373 2099118 2085161 2074768 2066635 
797.428 2059379 2051966 2043909 2035194 2026001 2016422 2006325 1995378 
801.285 1983397 1970607 1957834 1946380 1937825 1933499 1934031 1939192 
805.141 1947921 1958577 1969315 1978382 1984406 1986512 1984337 1978092 
808.998 1968531 1956924 1944927 1934286 1926535 1922635 1922755 1926210 
812.855 1931743 1937848 1943181 1946938 1948875 1949275 1948668 1947517 
816.712 1946086 1944354 1942141 1939275 1935827 1932118 1928770 1926466 
820.569 1925782 1926977 1929907 1934047 1938625 1942871 1946193 1948344 
824.426 1949409 1949698 1949607 1949394 1949152 1948841 1948426 1948044 
828.283 1948141 1949400 1952605 1958379 1967017 1978381 1992023 2007398 
832.140 2024093 2041967 2061064 2081528 2103369 2126377 2150230 2174724 
835.997 2200083 2227137 2257242 2291993 2332760 2380298 2434588 2494898 
839.854 2560146 2629301 2701632 2776763 2854505 2934529 3016218 3098560 
843.711 3180344 3260394 3337761 3411807 3482053 3547961 3608863 3663939 
847.568 3712494 3754297 3789860 3820631 3848832 3877263 3908959 3947011 
851.425 3994472 4054349 4129602 4222988 4336831 4472691 4631098 4811476 
855.282 5012347 5231595 5466859 5715703 5975656 6244026 6517717 6793119 
859.139 7066323 7333422 7590953 7836197 8067286 8283002 8482487 8664833 
862.995 8829017 8973951 9098773 9203219 9287807 9353920 9403499 9438661 
866.852 9461249 9472476 9472740 9461655 9438248 9401273 9349531 9282189 
870.709 9198978 9100242 8986814 8859731 8719941 8568042 8404215 8228384 
874.566 8040562 7841321 7631966 7414703 7192246 6967411 6742677 6519811 
878.423 6300022 6084224 5873464 5669243 5473554 5288585 5116262 4957816 
882.280 4813547 4683026 4565441 4460152 4367135 4287054 4221084 4170447 
886.137 4135907 4117386 4113710 4122770 4141717 4167338 4196472 4226335 
889.994 4254776 4280504 4303087 4322870 4340692 4357482 4373882 4389911 
893.851 4404872 4417549 4426559 4430772 4429733 4423737 4413795 4401264 
897.708 4387508 4373565 4359977 4346822 4333871 4320802 4307428 4293801 
901.565 4280247 4267342 4255752 4246158 4239032 4234534 4232456 4232204 
905.422 4232936 4233778 4234062 4233477 4232159 4230590 4229405 4229107 
909.279 4229922 4231728 4234129 4236657 4238987 4241044 4243038 4245261 
913.136 4247962 4251114 4254366 4257126 4258691 4258578 4256696 4253367 
916.993 4249333 4245453 4242409 4240385 4238955 4237049 4233310 4226393 
920.849 4215419 4200290 4181761 4161239 4140428 4120857 4103530 4088742 
924.706 4076133 4064959 4054438 4044051 4033674 4023553 4014157 4005974 
928.563 3999455 3994917 3992577 3992566 3994911 3999419 4005630 4012787 
932.420 4019930 4026183 4030970 4034271 4036672 4039159 4042827 4048474 
936.277 4056380 4066233 4077373 4089143 4101235 4113873 4127771 4143820 
940.134 4162745 4184777 4209594 4236437 4264505 4293350 4323165 4354740 
943.991 4389300 4427977 4471455 4519607 4571554 4625962 4681474 4737260 
947.848 4793289 4850314 4909576 4972308 5039191 5109991 5183514 5257833 
951.705 5330768 5400320 5465062 5524216 5577479 5624647 5665238 5698227 
955.562 5721923 5734134 5732465 5714695 5679085 5624672 5551430 5460254 
959.419 5353037 5232475 5101982 4965481 4827104 4690967 4560853 4440069 
963.276 4331279 4236481 4157023 4093510 4045849 4013099 3993548 3984741 
967.133 3983759 3987567 3993442 3999429 4004562 4009021 4013931 4021080 
970.990 4032334 4049289 4072789 4102761 4138248 4177662 4219242 4261477 
974.847 4303508 4345306 4387559 4431365 4477775 4527423 4580288 4635686 
978.703 4692578 4749885 4806828 4863107 4918870 4974544 5030641 5087594 
982.560 5145729 5205331 5266732 5330292 5396307 5464777 5535236 5606736 
986.417 5677943 5747540 5814594 5878953 5941196 6002668 6064958 6129569 
990.274 6197512 6269172 6344387 6422680 6503531 6586574 6671738 6759166 
994.131 6849170 6942073 7038147 7137500 7240024 7345375 7452944 7561883 
997.988 7671359 7780689 7889702 7998813 8109156 8222303 8340048 8463893 
1001.845 8594847 8733262 8878940 9031448 9190469 9356034 9528669 9709293 
1005.702 9898943 10098561 10308717 10529606 10761101 11003011 11255313 
1009.077 11518373 11793020 12080508 12382369 12700137 13035065 13387990 
1012.452 13759160 14148283 14554682 14977483 15415774 15868756 16335741 
1015.826 16816092 17309002 17813378 18327806 18850392 19379030 19911484 
1019.201 20445536 20979082 21510334 22037638 22559590 23075028 23583160 
1022.576 24083662 24576752 25063240 25544342 26021480 26496118 26969660 
1025.951 27443588 27919620 28400088 28888168 29387852 29903612 30440048 
1029.326 31001174 31590072 32208610 32857416 33536056 34243344 34977308 
1032.702 35735364 36514044 37308808 38114072 38923220 39728932 40523640 
1036.077 41299924 42050872 42770136 43451968 44091072 44682540 45221808 
1039.452 45704620 46127196 46486248 46779244 47004612 47162024 47252668 
1042.827 47279428 47246724 47160040 47025448 46848832 46635456 46389852 
1046.203 46115856 45816968 45496780 45159152 44808396 44449176 44086404 
1049.578 43725072 43369948 43025400 42694980 42381032 42084472 41804732 
1052.953 41540004 41287796 41045748 40812280 40587092 40371292 40167396 
1056.328 39979096 39811020 39668600 39558132 39486576 39461352 39489908 
1059.704 39579092 39734608 39960636 40259812 40633392 41081624 41604104 
1063.079 42199928 42867620 43604876 44408348 45273624 46195352 47167732 
1066.454 48185000 49241744 50333136 51454688 52602012 53770532 54955364 
1069.829 56151580 57354492 58559960 59764640 60965860 62161416 63349224 
1073.205 64527096 65692556 66842844 67974752 69084624 70168016 71219768 
1076.580 72233904 73204040 74123480 74985640 75783976 76511864 77162384 
1079.955 77728464 78203248 78580800 78857032 79030040 79099968 79068376 
1083.330 78937272 78708528 78383616 77964344 77453640 76856272 76179176 
1086.706 75431248 74622656 73763928 72865424 71936760 70986584 70022336 
1090.081 69049976 68073920 67097008 66121048 65147348 64177316 63212716 
1093.456 62255572 61307468 60368860 59438740 58514792 57594096 56674356 
1096.831 55754740 54836188 53921104 53012388 52112376 51222096 50341232 
1100.207 49468696 48603492 47745448 46895524 46055752 45228628 44416504 
1103.582 43621288 42844428 42087108 41350692 40636884 39947836 39285908 
1106.957 38653596 38053472 37488052 36959896 36471580 36025472 35623376 
1110.332 35266196 34953712 34684572 34456744 34267856 34115616 33998084 
1113.708 33913560 33860372 33836640 33840100 33868368 33919364 33991764 
1117.083 34085312 34200896 34340164 34504976 34696816 34916292 35162916 
1120.458 35435288 35731096 36047368 36380400 36725704 37077752 37429920 
1123.833 37774420 38102684 38405700 38674588 38901140 39078380 39200880 
1127.208 39265124 39269520 39214288 39101004 38932144 38710448 38438412 
1130.584 38118020 37750820 37338060 36880956 36380804 35839000 35256784 
1133.959 34635092 33974560 33275622 32538908 31765768 30958560 30120784 
1137.334 29257006 28372428 27472588 26562908 25648528 24734234 23824552 
1140.709 22923846 22036448 21166732 20319030 19497750 18707094 17950948 
1144.085 17232706 16555041 15919776 15327807 14779100 14272870 13807769 
1147.460 13382183 12994432 12642996 12326490 12043778 11793736 11575203 
1150.835 11386847 11227122 11094198 10986154 10900952 10836686 10791644 
1154.210 10764435 10753977 10759586 10780817 10817546 10869849 10938101 
1157.586 11022837 11124841 11245028 11384466 11544195 11725364 11929192 
1160.961 12157124 12411027 12693386 13007326 13356668 13745646 14178777 
1164.336 14660643 15195854 15789132 16445568 17170760 17971010 18853106 
1167.711 19824080 20890670 22058884 23333628 24718622 26216298 27827946 
1171.087 29553554 31391546 33338160 35386692 37526704 39743620 42018376 
1174.462 44327672 46644428 48938516 51177460 53327232 55353172 57220916 
1177.837 58897704 60353952 61564684 62511240 63182508 63575984 63698072 
1181.212 63563748 63195408 62621028 61871808 60979796 59975688 58887564 
1184.588 57740080 56554492 55348968 54139024 52937764 51756184 50603032 
1187.963 49484944 48406504 47370568 46378704 45431624 44529492 43672240 
1191.338 42859676 42091540 41367480 40687108 40049988 39455648 38903432 
1194.713 38392344 37920864 37486896 37087812 36720700 36382708 36071476 
1198.089 35785304 35523300 35285012 35070268 34878584 34708988 34559836 
1201.464 34428716 34312744 34208740 34113352 34023296 33935380 33846764 
1204.839 33754940 33657804 33553662 33441180 33319176 33186566 33042074 
1208.214 32884314 32711744 32522890 32316378 32091176 31846544 31582118 
1211.590 31297848 30994024 30671194 30330354 29972666 29599654 29212904 
1214.965 28814114 28404882 27986750 27561206 27129770 26694056 26255826 
1218.340 25816890 25379082 24944030 24513104 24087252 23667050 23252690 
1221.715 22844244 22441710 22045212 21655100 21271860 20896084 20528424 
1225.091 20169344 19819168 19478122 19146348 18824054 18511592 18209414 
1228.466 17918054 17637896 17369134 17111590 16864848 16628243 16401085 
1231.841 16182812 15973073 15771803 15579106 15395167 15220131 15053950 
1235.216 14896472 14747275 14605904 14471775 14344367 14223224 14108001 
1238.592 13998432 13894351 13795608 13702092 13613640 13530117 13451350 
1241.967 13377263 13307862 13243262 13183679 13129367 13080500 13037123 
1245.342 12999092 12966076 12937632 12913375 12893043 12876584 12864189 
1248.717 12856130 12852809 12854564 12861645 12874246 12892534 12916701 
1252.093 12946902 12983294 13025895 13074562 13128951 13188596 13253023 
1255.468 13321911 13395113 13472657 13554627 13640893 13731039 13824168 
1258.843 13918996 14013983 14107619 14198644 14286174 14369801 14449438 
1262.218 14525233 14597318 14665723 14730223 14790346 14845268 14893979 
1265.594 14935181 14967516 14989531 14999880 14997469 14981484 14951475 
1268.969 14907381 14849426 14778014 14693604 14596690 14487600 14366646 
1272.344 14234056 14090052 13934925 13769034 13592769 13406548 13210709 
1275.719 13005498 12791078 12567610 12335405 12095037 11847369 11593653 
1279.094 11335377 11074174 10811666 10549370 10288702 10030989 9777573 
1282.470 9529877 9289410 9057807 8836638 8627455 8431548 8249958 8083477 
1286.327 7932653 7797908 7679560 7577953 7493406 7426309 7376925 7345404 
1290.185 7331571 7334885 7354348 7388507 7435473 7493038 7558873 7630589 
1294.042 7705967 7783010 7860064 7935752 8009036 8079089 8145373 8207516 
1297.899 8265289 8318576 8367336 8411568 8451285 8486510 8517388 8544138 
1301.757 8567166 8586993 8604247 8619604 8633624 8646713 8659130 8670912 
1305.614 8681919 8691863 8700345 8706868 8710978 8712307 8710737 8706519 
1309.472 8700305 8693106 8686103 8680383 8676700 8675238 8675617 8676980 
1313.329 8678251 8678432 8676851 8673299 8668060 8661774 8655215 8649220 
1317.187 8644380 8641054 8639317 8638920 8639447 8640331 8641107 8641415 
1321.044 8641175 8640592 8640084 8640128 8641168 8643493 8647253 8652517 
1324.901 8659556 8668778 8680885 8696643 8716807 8741783 8771671 8806243 
1328.759 8845178 8888327 8935822 8988182 9046069 9109983 9180006 9255597 
1332.616 9335740 9419119 9504623 9591555 9679886 9770150 9863224 9959966 
1336.474 10061064 10166796 10277159 10391884 10510617 10633060 10758944 
1339.849 10888114 11020520 11156205 11295410 11438583 11586443 11739857 
1343.224 11899779 12067034 12242201 12425444 12616533 12814772 13019285 
1346.599 13228998 13442883 13660030 13879699 14101264 14324166 14547715 
1349.975 14770995 14992851 15211931 15426733 15635809 15837823 16031504 
1353.350 16215590 16388704 16549318 16695806 16826676 16940796 17037626 
1356.725 17117316 17180654 17228872 17263366 17285610 17297044 17299120 
1360.100 17293364 17281292 17264416 17243888 17220532 17194590 17165848 
1363.476 17133774 17097626 17056610 17009672 16955476 16892066 16816952 
1366.851 16727147 16619545 16491486 16341200 16168293 15974037 15761589 
1370.226 15535983 15304229 15075216 14859410 14668432 14514305 14408432 
1373.601 14360501 14377487 14462930 14616650 14834814 15110342 15433474 
1376.977 15792255 16173090 16561332 16941898 17300228 17623126 17899614 
1380.352 18121382 18282836 18380660 18413310 18380488 18282968 18122454 
1383.727 17901794 17625082 17297554 16925404 16515355 16074212 15608494 
1387.102 15124176 14626512 14120105 13608834 13095883 12583768 12074339 
1390.478 11568867 11068311 10573608 10086086 9607739 9141385 8690538 8259052 
1394.335 7850580 7468111 7113608 6787941 6490969 6221868 5979430 5762177 
1398.192 5568539 5396756 5244862 5110736 4992179 4887051 4793427 4709684 
1402.050 4634489 4566771 4505711 4450605 4400966 4356364 4316427 4280789 
1405.907 4248984 4220425 4194566 4170752 4148563 4127740 4108278 4090371 
1409.765 4074345 4060518 4049170 4040455 4034367 4030718 4029125 4029140 
1413.622 4030270 4032080 4034425 4037387 4041337 4046753 4054016 4063259 
1417.479 4074290 4086550 4099456 4112569 4125777 4139347 4153805 4169695 
1421.337 4187406 4207090 4228710 4252207 4277629 4305194 4335157 4367650 
1425.194 4402532 4439378 4477635 4516965 4557442 4599800 4645324 4695569 
1429.052 4752055 4815822 4887449 4966990 5054330 5149326 5252228 5363695 
1432.909 5484915 5617560 5763759 5926147 6107728 6311782 6541680 6800645 
1436.767 7091593 7417020 7779045 8179485 8619837 9101152 9623659 10186423 
1440.624 10787138 11421909 12085587 12771979 13474143 14184640 14895596 
1443.999 15598756 16285738 16948374 17579182 18171794 18721222 19223938 
1447.375 19677716 20081416 20434948 20738932 20994670 21203824 21368210 
1450.750 21489416 21568828 21607444 21606002 21565098 21485138 21366162 
1454.125 21207828 21009222 20769126 20486432 20160660 19792390 19383394 
1457.500 18936468 18454994 17942472 17402362 16838164 16253749 15653458 
1460.875 15042284 14425488 13808326 13195550 12591244 11998752 11420858 
1464.251 10859806 10317530 9795607 9295297 8817582 8363310 7933213 7527993 
1468.108 7148234 6794237 6465846 6162443 5882970 5626115 5390532 5174888 
1471.966 4977888 4798121 4634047 4484004 4346367 4219901 4103817 3997841 
1475.823 3901935 3815898 3739024 3669954 3606787 3547514 3490566 3435199 
1479.680 3381623 3330847 3284203 3242854 3207311 3177263 3151657 3129031 
1483.538 3107771 3086617 3064745 3041958 3018561 2995251 2972939 2952442 
1487.395 2934324 2918738 2905358 2893618 2882801 2872411 2862362 2852994 
1491.253 2844938 2838871 2835139 2833596 2833514 2833876 2833606 2831918 
1495.110 2828547 2823683 2817832 2811564 2805203 2798787 2792191 2785274 
1498.968 2778136 2771233 2765320 2761224 2759544 2760451 2763616 2768274 
1502.825 2773537 2778657 2783209 2787180 2790811 2794422 2798134 2801826 
1506.682 2805126 2807582 2808871 2808956 2808033 2806420 2804320 2801748 
1510.540 2798318 2793553 2786956 2778349 2767991 2756503 2744769 2733637 
1514.397 2723634 2714881 2707091 2699794 2692441 2684680 2676381 2667548 
1518.255 2658266 2648590 2638481 2627947 2616999 2605784 2594599 2583756 
1522.112 2573542 2564145 2555657 2548140 2541636 2536242 2531977 2528708 
1525.969 2525962 2522988 2518829 2512707 2504173 2493452 2481391 2469230 
1529.827 2458310 2449578 2443403 2439436 2436840 2434563 2431695 2427697 
1533.684 2422447 2416208 2409471 2402750 2396479 2391017 2386554 2383255 
1537.542 2381135 2380118 2379972 2380395 2381004 2381464 2381543 2381103 
1541.399 2380065 2378332 2375787 2372293 2367801 2362452 2356570 2350786 
1545.257 2345723 2341894 2339469 2338245 2337589 2336682 2334770 2331397 
1549.114 2326496 2320470 2314069 2308116 2303308 2300088 2298493 2298233 
1552.971 2298777 2299475 2299730 2299111 2297394 2294465 2290382 2285272 
1556.829 2279273 2272593 2265568 2258731 2252724 2248283 2246013 2246221 
1560.686 2248684 2252812 2257659 2262283 2265947 2268360 2269638 2270327 
1564.544 2271124 2272612 2275205 2279082 2284249 2290649 2298240 2306900 
1568.401 2316410 2326212 2335498 2343213 2348462 2350654 2349904 2346976 
1572.259 2343146 2339906 2338509 2339775 2343877 2350464 2358827 2368174 
1576.116 2377760 2387103 2395820 2403703 2410492 2416045 2420225 2423067 
1579.973 2424804 2425864 2426827 2428284 2430658 2434186 2438856 2444497 
1583.831 2450826 2457670 2464964 2472874 2481676 2491693 2503103 2515819 
1587.688 2529307 2542751 2555032 2565091 2572194 2576113 2577326 2576871 
1591.546 2576103 2576357 2578584 2583210 2589928 2597998 2606485 2614506 
1595.403 2621549 2627575 2632923 2638181 2643958 2650730 2658627 2667520 
1599.260 2676965 2686427 2695371 2703450 2710542 2716810 2722645 2728478 
1603.118 2734641 2741222 2747989 2754484 2760119 2764463 2767419 2769369 
1606.975 2770992 2773165 2776646 2781849 2788696 2796774 2805419 2814179 
1610.833 2822873 2831734 2841246 2851971 2864218 2877849 2892370 2907031 
1614.690 2921161 2934348 2946622 2958336 2969980 2981928 2994092 3006001 
1618.548 3016815 3025655 3031883 3035263 3036099 3035163 3033491 3032155 
1622.405 3032052 3033772 3037555 3043287 3050530 3058642 3066816 3074297 
1626.262 3080438 3084881 3087620 3088940 3089371 3089412 3089345 3089199 
1630.120 3088652 3087223 3084473 3080207 3074639 3068306 3061998 3056562 
1633.977 3052648 3050677 3050712 3052522 3055685 3059654 3063794 3067557 
1637.835 3070460 3072214 3072784 3072497 3071852 3071552 3072183 3074130 
1641.692 3077390 3081635 3086244 3090516 3093834 3095823 3096315 3095538 
1645.550 3093872 3091942 3090444 3090146 3091621 3095291 3101187 3108981 
1649.407 3118023 3127585 3136983 3145797 3153874 3161280 3168125 3174412 
1653.264 3179930 3184351 3187388 3189044 3189664 3189917 3190541 3192164 
1657.122 3195103 3199299 3204491 3210411 3217005 3224512 3233232 3243470 
1660.979 3255177 3267917 3280966 3293562 3305164 3315585 3324996 3333635 
1664.837 3341636 3348914 3355167 3360210 3364225 3367988 3372661 3379548 
1668.694 3389447 3402365 3417299 3432551 3446311 3457166 3464704 3469509 
1672.552 3472899 3476412 3481311 3488197 3496978 3507069 3517721 3528373 
1676.409 3538781 3549074 3559554 3570571 3582367 3595013 3608491 3622645 
1680.266 3637353 3652411 3667738 3683239 3698963 3715103 3731942 3749790 
1684.124 3768899 3789256 3810658 3832749 3855152 3877763 3900757 3924661 
1687.981 3950155 3977851 4008065 4040762 4075462 4111516 4148219 4185178 
1691.839 4222335 4260000 4298786 4339481 4382834 4429462 4479699 4533575 
1695.696 4590754 4650784 4713123 4777505 4844011 4913169 4985896 5063139 
1699.553 5145618 5233564 5326596 5423887 5524486 5627769 5733719 5843117 
1703.411 5957333 6078091 6207006 6345325 6493664 6651988 6819796 6996297 
1707.268 7180618 7372067 7570100 7774520 7985396 8203029 8427907 8660540 
1711.126 8901305 9150399 9407707 9672935 9945644 10225464 10512106 10805385 
1714.983 11105195 11411307 11723305 12040538 12362111 12687072 13014516 
1718.358 13343900 13675059 14008480 14345251 14687154 15036395 15395601 
1721.734 15767504 16154841 16560180 16986178 17435470 17911050 18416298 
1725.109 18954974 19531282 20149754 20815196 21532830 22308388 23148068 
1728.484 24058450 25046304 26118178 27280336 28538892 29900328 31371918 
1731.859 32961986 34679408 36532356 38526540 40663616 42940332 45349372 
1735.235 47881064 50526000 53276636 56127496 59073340 62106300 65212840 
1738.610 68372112 71556264 74732912 77868256 80929872 83887664 86713488 
1741.985 89379984 91860384 94129768 96167800 97961016 99504136 100798752 
1745.360 101850536 102666536 103253152 103616336 103762952 103701960 
1748.253 103444920 103004920 102395120 101627136 100711056 99656032 98471600 
1751.629 97168384 95757904 94251256 92657896 90984664 89236184 87415912 
1755.004 85527880 83577640 81572856 79522752 77437584 75327712 73203384 
1758.379 71074920 68952968 66848256 64771624 62733012 60741044 58802356 
1761.754 56921916 55103200 53348696 51660300 50039412 48486660 47001696 
1765.130 45583012 44228120 42933792 41696848 40514408 39384300 38304892 
1768.505 37274852 36292556 35355724 34460928 33603844 32779268 31981710 
1771.880 31205756 30446758 29700822 28964918 28236588 27513662 26794008 
1775.255 26075468 25356126 24634534 23909998 23182776 22453712 21724058 
1778.631 20995014 20267566 19542598 18821218 18105072 17396696 16699193 
1782.006 16016035 15350357 14704451 14079621 13476345 12894635 12334700 
1785.381 11797217 11283402 10794819 10332856 9898304 9490998 9109780 8752833 
1789.239 8418036 8103499 7807830 7530293 7270625 7028749 6804355 6596864 
1793.096 6405166 6227906 6063632 5911088 5769307 5637687 5515842 5403552 
1796.953 5300523 5206242 5120022 5040895 4967561 4898525 4832102 4766710 
1800.811 4701091 4634665 4567559 4500671 4435273 4372650 4313531 4258035 
1804.668 4205566 4155320 4106667 4059564 4014612 3972743 3934659 3900376 
1808.526 3869030 3839064 3808804 3777194 3744177 3710640 3677818 3646557 
1812.383 3616457 3585892 3552282 3513327 3467988 3417383 3364757 3314874 
1816.240 3272594 3241445 3222722 3215114 3215315 3219224 3222966 3223770 
1820.098 3220132 3211468 3197634 3178719 3154892 3126756 3095463 3062872 
1823.955 3031156 3002236 2977155 2955803 2936856 2918380 2898386 2875499 
1827.813 2849223 2820073 2789024 2757393 2726216 2696346 2668267 2642246 
1831.670 2618414 2596754 2577001 2558672 2541004 2523191 2504357 2483868 
1835.528 2461379 2436808 2410363 2382533 2354022 2325726 2298439 2272910 
1839.385 2249344 2227540 2206621 2185627 2163757 2140935 2117900 2096157 
1843.242 2077348 2062521 2051619 2043258 2035044 2024650 2010501 1992633 
1847.100 1972572 1952918 1936195 1924021 1916485 1912190 1908922 1904611 
1850.957 1898118 1889606 1880318 1871943 1865883 1862711 1861932 1862303 
1854.815 1862272 1860390 1855670 1847474 1835523 1819848 1800662 1778708 
1858.672 1755212 1732151 1711742 1696084 1686590 1683621 1686205 1692487 
1862.530 1700261 1707554 1713236 1717124 1719801 1722405 1725887 1730868 
1866.387 1737354 1744881 1752501 1759107 1763496 1764508 1761273 1753491 
1870.244 1741629 1727261 1712844 1701423 1695737 1697472 1706313 1719920 
1874.102 1734018 1743703 1744735 1734988 1715194 1689028 1662089 1640495 
1877.959 1629128 1630511 1644198 1667172 1694806 1722209 1744968 1760273 
1881.817 1766757 1764648 1755316 1741270 1725734 1712468 1704974 1705901 
1885.674 1715984 1733546 1754480 1773194 1783898 1782436 1767411 1740763 
1889.531 1707111 1672357 1641977 1619720 1606840 1602615 1604807 1610966 
1893.389 1618785 1626525 1632675 1636062 1635780 1631929 1625724 1620036 
1897.246 1618518 1624592 1639887 1663120 1689865 1713817 1728471 1729695 
1901.104 1716807 1693258 1664906 1638396 1618772 1608359 1606342 1610216 
1904.961 1616667 1623231 1628214 1630739 1629695 1623727 1610962 1590432 
1908.819 1562659 1530609 1499148 1473804 1458936 1456360 1464585 1479542 
1912.676 1496083 1509924 1518847 1523125 1524949 1527556 1533669 1545566 
1916.533 1564135 1589618 1621106 1656583 1692507 1723966 1745034 1750442 
1920.391 1736919 1704799 1657991 1603416 1548630 1500065 1460564 1429568 
1924.248 1403580 1378345 1350622 1319823 1287898 1258807 1236737 1225076 
1928.106 1225382 1237555 1259650 1288778 1320874 1351444 1375842 1390654 
1931.963 1394555 1389578 1380627 1374434 1376952 1391408 1416506 1447299 
1935.821 1477107 1501114 1518455 1533258 1552505 1582745 1625904 1677691 
1939.678 1727561 1762623 1771925 1750858 1702283 1635741 1562832 1493784 
1943.535 1433660 1382747 1337659 1295549 1255985 1222779 1201689 1198813 
1947.393 1216723 1253854 1304471 1361173 1416790 1466536 1507744 1539177 
1951.250 1559587 1567258 1560358 1538347 1503195 1459941 1414764 1374020 
1955.108 1340776 1314926 1292723 1269744 1243438 1215621 1192660 1184149 
1958.965 1199224 1243060 1313742 1402568 1495610 1578675 1640899 1679191 
1962.823 1697965 1709498 1729310 1772217 1846778 1952572 2077231 2200014 
1966.680 2294505 2336843 2311952 2219349 2074287 1906196 1749883 1638520 
1970.537 1593485 1619486 1702461 1813919 1918111 1982049 1983176 1916421 
1974.395 1794658 1646645 1509273 1417626 1396259 1452531 1573791 1733391 
1978.252 1897607 2038231 2139197 2200051 2231238 2248041 2262577 2280628 
1982.110 2299804 2314033 2317282 2308786 2294413 2285949 2295758 2332690 
1985.967 2397322 2481335 2569695 2645659 2694948 2710284 2690409 2639786 
1989.824 2564933 2472513 2367795 2256037 2143295 2037809 1949336 1888101 
1993.682 1861490 1872377 1917135 1987109 2069509 2151781 2222401 2273962 
1997.539 2302243 2306714 2289212 2253792 2205492 2150736 2095989 2047779 
2001.397 2011041 1988993 1982087 1988790 2005392 2028162 2051927 2072253 
2005.254 2084292 2083731 2066159 2029422 1972648 1898989 1813745 1725824 
2009.112 1644556 1579920 1539633 1528606 1546896 1589744 1646835 1704447 
2012.969 1746880 1761109 1738582 1679317 1590963 1488745 1390235 1313440 
2016.826 1270915 1269903 1311172 1391001 1502478 1637915 1787706 1941361 
2020.684 2086149 2209411 2299678 2351480 2366373 2354626 2330983 2311591 
2024.541 2306605 2318327 2338132 2351532 2342141 2298818 2217757 2105211 
2028.399 1972533 1834180 1701895 1584405 1486834 1414585 1374027 1375174 
2032.256 1427794 1538149 1703907 1911413 2136240 2349074 2520841 2631376 
2036.114 2672512 2649690 2577755 2476598 2364961 2257106 2159784 2074463 
2039.971 1997141 1922890 1846216 1764115 1676067 1584896 1495994 1417326 
2043.828 1357619 1325345 1326496 1363954 1435990 1537920 1661616 1798000 
2047.686 1936702 2066835 2176926 2255793 2293407 2284099 2227384 2130301 
2051.543 2006482 1874590 1754449 1663344 1611664 1600257 1619942 1655452 
2055.401 1689813 1710739 1713383 1701358 1683133 1668271 1662534 1666523 
2059.258 1675576 1683526 1685353 1680801 1673881 1671301 1678660 1698169 
2063.115 1726380 1756196 1779198 1789425 1785341 1770575 1751351 1734321 
2066.973 1723171 1718147 1715783 1712222 1704678 1693895 1683186 1678099 
2070.830 1683222 1700985 1730248 1767383 1807186 1844997 1877404 1902796 
2074.688 1920715 1931283 1934479 1930564 1920287 1905949 1890947 1879954 
2078.545 1876797 1883802 1900013 1921697 1942931 1957887 1962090 1954565 
2082.403 1937330 1914959 1892343 1873367 1859088 1847821 1835789 1819015 
2086.260 1794586 1762186 1723608 1682570 1642891 1607508 1577369 1551896 
2090.117 1529166 1507233 1484753 1461733 1439166 1419158 1403856 1395642 
2093.975 1396330 1407138 1428415 1459159 1496901 1537905 1577546 1611683 
2097.832 1637370 1654021 1662864 1666539 1667354 1666483 1662910 1654785 
2101.690 1640076 1618812 1593609 1569670 1552851 1547719 1555074 1571841 
2105.547 1591592 1607650 1615519 1615185 1611170 1611204 1622644 1650159 
2109.405 1693570 1748164 1806380 1860727 1905580 1938804 1960636 1972369 
2113.262 1974315 1965005 1941081 1899134 1836993 1755601 1659238 1555292 
2117.119 1452402 1358999 1281361 1223050 1184297 1162951 1154801 1154992 
2120.977 1158671 1162030 1162209 1158215 1149953 1138261 1123845 1106966 
2124.834 1086935 1062518 1032462 996278 954780 910286 865422 823065 784392 
2129.174 748962 714061 676450 632902 582441 526622 470797 422547 391048 
2133.513 384108 406300 456318 526716 604056 672036 714919 721938 689498 
2137.853 622627 532622 434204 340407 259649 193492 138248 87287 35877 -16947 
2142.675 -66275 -104400 -123336 -119582 -96088 -62891 -33845 -23120 -39775 
2147.014 -85835 -154448 -233350 -307120 -363844 -397162 -409748 -412379 
2150.872 -422191 -457339 -533587 -658629 -830903 -1038928 -1265088 -1489217 
2154.729 -1694320 -1867126 -1999173 -2082184 -2105010 -2050474 -1900421 
2158.104 -1643029 -1286030 -862827 -430654 -52129 224042 380724 434977 
2161.962 430691 419286 445996 534282 683153 870316 1063420 1232849 1361405 
2166.302 1447137 1500577 1536705 1567743 1597102 1620072 1624754 1598599 
2170.159 1530958 1417783 1261517 1071844 863562 656169 470852 328393 244823 
2174.499 228294 276300 376180 507293 647016 775845 881274 958522 1008902 
2178.838 1036067 1044079 1035416 1012956 980519 945911 917833 904998 911221 
2183.178 934270 964774 990972 1002258 993993 968406 933548 898664 870835 
2187.517 851412 836957 821225 800047 773314 747688 733648 743496 785517 
2191.857 862546 968667 1091457 1212987 1314995 1381086 1401224 1373466 
2195.714 1305508 1212848 1116592 1038296 995185 995602 1037654 1109709 
2199.572 1195080 1276627 1342270 1386741 1412869 1427692 1440486 1458512 
2203.429 1486188 1524566 1572799 1628336 1687945 1746567 1798032 1834908 
2207.287 1851382 1844471 1817341 1778479 1740980 1717491 1717135 1741113 
2211.144 1783032 1830462 1869789 1889820 1885737 1859010 1816757 1768317 
2215.001 1722734 1686491 1663399 1654048 1657323 1670562 1690046 1711689 
2218.859 1731819 1748406 1762289 1776923 1797832 1829839 1874825 1929359 
2222.716 1984736 2028749 2049664 2039217 1996601 1928027 1845973 1765350 
2226.574 1700083 1660073 1649906 1668828 1712054 1771691 1838692 1903289 
2230.431 1956629 1991504 2004425 1995717 1970291 1936266 1903000 1878401 
2234.289 1867222 1869912 1883800 1904397 1927659 1951149 1974207 1996720 
2238.146 2018188 2036685 2048905 2051301 2041965 2021537 1993744 1964129 
2242.003 1938656 1921172 1913051 1912211 1914813 1916218 1912989 1903151 
2245.861 1886754 1865088 1840307 1814900 1791734 1773828 1764497 1766386 
2249.718 1780783 1806589 1840115 1875242 1905436 1925301 1933142 1931257 
2253.576 1926240 1926310 1938965 1967474 2009626 2057125 2098076 2120262 
2257.433 2115113 2080560 2022140 1951797 1884901 1835971 1815152 1825352 
2261.291 1862210 1915356 1972240 2021021 2054325 2069920 2071165 2064702 
2265.148 2058367 2058598 2069364 2091326 2122643 2159888 2199206 2236780 
2269.005 2269514 2294791 2310638 2315926 2310911 2297134 2278016 2257745 
2272.863 2240974 2231465 2231514 2241522 2260526 2286538 2317631 2352037 
2276.720 2388501 2425581 2461561 2494054 2520724 2539694 2550632 2555132 
2280.578 2556610 2559098 2566372 2580323 2600578 2624674 2649260 2671202 
2284.435 2688804 2701903 2711616 2719202 2725381 2729686 2731071 2728312 
2288.292 2721204 2710633 2698500 2686698 2676093 2665820 2653508 2636016 
2292.150 2610871 2577521 2537823 2495492 2455124 2420497 2393686 2374512 
2296.007 2361254 2351513 2343560 2336602 2331154 2328096 2328288 2331717 
2299.865 2337923 2346052 2355644 2366544 2379160 2393447 2408680 2423022 
2303.722 2433828 2438624 2435981 2426318 2411956 2396385 2383213 2374842 
2307.580 2372011 2373729 2378070 2383259 2388498 2394201 2401749 2412571 
2311.437 2427329 2445258 2464391 2481807 2494770 2501427 2501548 2496526 
2315.294 2489253 2483204 2481818 2487456 2501188 2522375 2549302 2579944 
2319.152 2613059 2648795 2689057 2736564 2793418 2859221 2929639 2995964 
2323.009 3046479 3069083 3054377 2998405 2903896 2779782 2639434 2497786 
2326.867 2368488 2261395 2181226 2127595 2096033 2079977 2072852 2069356 
2330.724 2066388 2062637 2058034 2053002 2047993 2043053 2038260 2033458 
2334.582 2028535 2023556 2018629 2013859 2009521 2005924 2003565 2002801 
2338.439 2003743 2006093 2008989 2011285 2011913 2010041 2005740 1999751 
2342.296 1993388 1988115 1985160 1985061 1987846 1992817 1999154 2005716 
2346.154 2011393 2014946 2015122 2010729 2000978 1985709 1965700 1942663 
2350.011 1918996 1897172 1879344 1866620 1859083 1855876 1855685 1857129 
2353.869 1859218 1861640 1864389 1867735 1871869 1876689 1881797 1886431 
2357.726 1889705 1890648 1888448 1882353 1871885 1856978 1837926 1815550 
2361.583 1791028 1765808 1741398 1719028 1699592 1683544 1671011 1661772 
2365.441 1655508 1651838 1650478 1651101 1653534 1657554 1663019 1669659 
2369.298 1677020 1684512 1691297 1696488 1699461 1700046 1698866 1697189 
2373.156 1696726 1699062 1705085 1714550 1726093 1737577 1746848 1752480 
2377.013 1754446 1754105 1753875 1756371 1763494 1775576 1791556 1808988 
2380.871 1825098 1837603 1845494 1849218 1850412 1851124 1853131 1857068 
2384.728 1862456 1867845 1871514 1872134 1869396 1864049 1857619 1851760 
2388.585 1847711 1845683 1844975 1844243 1842253 1838415 1833165 1827993 
2392.443 1825022 1826439 1833820 1847760 1867943 1893083 1921416 1950875 
2396.300 1979294 2004518 2024558 2037781 2043280 2041243 2033255 2021966 
2400.158 2010608 2002149 1998245 1998914 2002342 2005689 2006051 2001705 
2404.015 1992810 1981404 1970944 1965192 1967039 1977752 1996663 2021391 
2407.873 2048412 2073985 2094763 2108091 2112473 2107452 2093792 2073225 
2411.730 2048434 2022661 1999141 1980586 1968718 1963895 1965502 1972091 
2415.587 1981920 1993395 2005201 2016229 2025556 2032250 2035579 2035315 
2419.445 2031961 2026841 2021906 2018916 2019031 2021896 2025906 2028421 
2423.302 2026819 2019601 2006829 1990444 1973588 1959519 1950770 1948143 
2427.160 1950857 1956841 1963606 1968874 1971200 1969992 1965403 1957959 
2431.017 1948731 1938967 1930587 1925741 1926681 1935019 1950877 1972669 
2434.875 1996955 2019250 2035321 2042365 2039913 2030019 2016466 2003436 
2438.732 1994437 1990969 1992656 1997655 2003719 2009160 2013448 2017218 
2442.589 2021634 2027758 2035899 2045530 2055404 2064094 2070574 2074527 
2446.447 2076143 2076031 2074902 2073326 2071823 2070875 2071067 2072924 
2450.304 2076585 2081597 2086777 2090427 2090738 2086525 2077793 2065735 
2454.162 2052562 2040613 2031694 2026404 2024157 2023451 2022703 2020777 
2458.019 2017455 2013219 2009031 2005489 2002693 2000070 1996699 1991823 
2461.876 1985166 1977194 1968970 1961592 1956039 1952664 1951300 1951531 
2465.734 1952720 1954367 1956272 1958403 1960809 1963574 1966906 1971098 
2469.591 1976484 1983355 1991697 2000978 2010095 2017422 2021430 2020930 
2473.449 2015596 2006151 1994114 1981288 1969319 1959310 1951645 1946009 
2477.306 1941833 1938441 1935274 1931796 1927480 1921891 1914644 1905998 
2481.164 1896688 1888362 1883130 1883019 1889220 1901646 1918644 1937545 
2485.021 1955350 1969776 1979889 1986390 1991257 1996680 2004280 2014176 
2488.878 2025102 2034689 2040715 2041825 2038587 2033262 2029248 2029901 
2492.736 2037279 2051176 2069104 2086925 2100069 2104959 2100342 2087249 
2496.593 2069060 2050125 2034575 2025136 2022701 2026432 2034509 2044802 
2500.451 2055800 2066356 2075868 2083451 2088053 2088168 2082601 2071063 
2504.308 2054676 2036095 2018940 2006981 2002977 2008041 2021662 2041901 
2508.166 2066233 2092376 2118375 2142667 2163878 2180254 2189984 2191415 
2512.023 2183811 2167807 2145625 2120527 2096036 2074810 2058123 2045499 
2515.880 2035445 2026076 2015965 2004636 1992489 1980338 1969153 1959502 
2519.738 1951794 1946328 1943589 1944088 1948330 1956333 1967496 1980648 
2523.595 1994573 2008376 2021872 2035672 2050314 2065782 2080773 2092928 
2527.453 2099456 2098533 2090352 2077635 2064999 2057706 2059661 2072032 
2531.310 2092829 2117529 2140831 2158438 2168539 2171897 2171129 2169426 
2535.167 2168905 2170311 2173004 2175825 2178091 2180280 2183722 2190023 
2539.025 2199844 2212468 2225707 2236462 2241990 2240723 2232665 2219406 
2542.882 2203306 2186721 2171447 2158534 2148386 2141131 2136816 2135346 
2546.740 2136249 2138822 2141809 2144064 2145021 2144910 2145092 2147350 
2550.597 2153511 2164399 2179533 2197089 2214439 2228717 2237839 2240515 
2554.455 2236690 2227067 2212863 2195590 2176966 2158976 2143782 2133741 
2558.312 2130739 2135989 2149436 2169773 2194559 2220633 2244904 2264796 
2562.169 2278712 2286161 2287814 2285079 2280046 2274847 2271510 2271425 
2566.027 2274949 2281548 2289729 2297592 2303347 2305847 2304881 2301212 
2569.884 2296159 2291235 2287544 2285782 2286045 2288170 2292062 2297513 
2573.742 2304480 2312688 2321551 2330113 2337303 2342272 2344690 2344963 
2577.599 2344311 2344218 2346122 2350862 2358695 2368913 2380281 2391304 
2581.457 2400576 2407099 2410328 2410507 2408342 2405022 2402015 2400670 
2585.314 2401941 2406265 2413464 2422838 2433511 2444575 2455241 2464851 
2589.171 2472693 2478065 2480070 2478076 2471893 2462155 2450474 2439000 
2593.029 2430087 2425551 2426187 2431512 2440240 2450448 2460520 2469304 
2596.886 2476323 2481550 2485091 2486951 2486955 2484890 2480869 2475349 
2600.744 2469141 2463212 2458348 2454935 2452967 2452232 2452492 2453890 
2604.601 2456725 2461414 2468239 2477080 2487425 2498578 2510151 2521951 
2608.458 2534161 2547130 2560855 2574871 2588247 2599814 2608688 2614535 
2612.316 2617852 2619522 2620635 2621783 2623002 2623787 2623385 2621429 
2616.173 2618125 2614305 2611095 2609474 2609830 2611944 2615053 2618332 
2620.031 2621248 2623872 2626727 2630650 2636299 2644005 2653572 2664451 
2623.888 2675915 2687222 2697663 2706727 2713941 2718966 2721694 2722220 
2627.746 2720972 2718501 2715433 2712113 2708703 2705041 2701101 2697116 
2631.603 2693896 2692613 2694731 2701263 2712399 2727319 2744205 2760733 
2635.460 2774647 2784363 2789258 2789776 2787055 2782693 2778150 2774663 
2639.318 2773118 2774037 2777627 2783755 2792045 2801721 2811715 2820878 
2643.175 2828097 2832599 2834274 2833336 2830673 2827191 2823690 2820592 
2647.033 2817852 2814958 2811201 2805922 2798690 2789513 2778966 2767930 
2650.890 2757503 2748729 2742282 2738380 2736690 2736441 2736659 2736327 
2654.748 2734663 2731250 2726043 2719302 2711424 2702840 2693803 2684340 
2658.605 2674297 2663359 2651182 2637461 2622004 2604876 2586400 2566992 
2662.462 2547300 2527966 2509593 2492658 2477461 2464091 2452549 2442627 
2666.320 2433984 2426240 2418972 2411837 2404637 2397552 2391007 2385723 
2670.177 2382478 2381906 2384061 2388377 2393742 2398604 2401388 2401006 
2674.035 2397053 2389923 2380764 2371051 2362322 2355761 2352131 2351595 
2677.892 2353775 2357893 2363000 2367965 2371816 2373756 2373467 2371056 
2681.750 2367112 2362414 2357823 2353883 2350840 2348468 2346493 2344582 
2685.607 2342797 2341583 2341458 2342951 2346260 2350924 2356072 2360513 
2689.464 2363219 2363469 2361355 2357412 2352612 2347964 2344271 2341960 
2693.322 2341005 2341106 2341834 2342791 2343775 2344750 2345825 2347202 
2697.179 2348953 2350932 2352766 2353660 2352740 2349118 2342355 2332577 
2701.037 2320807 2308605 2297998 2290912 2288663 2291665 2299300 2310082 
2704.894 2321974 2332966 2341438 2346274 2347186 2344410 2338650 2330847 
2708.751 2321916 2312717 2303872 2295849 2288904 2283220 2278982 2276419 
2712.609 2275889 2277614 2281713 2288059 2296086 2305034 2314140 2322775 
2716.466 2330576 2337600 2343884 2349324 2353582 2355810 2355170 2351019 
2720.324 2343391 2333242 2322188 2312134 2304745 2300858 2300308 2302068 
2724.181 2304702 2307025 2308409 2309038 2309752 2311495 2314972 2320303 
2728.039 2326999 2334187 2340925 2346643 2351218 2355029 2358731 2362969 
2731.896 2368169 2374342 2381143 2387939 2393989 2398663 2401592 2402699 
2735.753 2402106 2400105 2397040 2392966 2387908 2381581 2373919 2365014 
2739.611 2355376 2345845 2337489 2331195 2327473 2326243 2326995 2328914 
2743.468 2331391 2334248 2337728 2342321 2348484 2356060 2364446 2372390 
2747.326 2378564 2382027 2382464 2380392 2376990 2373560 2371197 2370395 
2751.183 2371136 2372816 2374813 2376531 2377683 2378155 2378106 2377750 
2755.041 2377300 2377055 2377340 2378455 2380585 2383546 2386797 2389414 
2758.898 2390419 2389046 2385033 2378938 2371852 2365137 2360119 2357488 
2762.755 2357265 2358843 2361150 2363169 2364188 2363965 2362751 2361191 
2766.613 2360023 2359967 2361584 2365063 2370471 2377462 2385579 2394214 
2770.470 2402768 2410791 2418031 2424364 2429716 2434020 2436927 2437989 
2774.328 2436687 2432663 2426012 2417369 2407964 2399325 2393162 2390828 
2778.185 2393101 2400156 2411478 2425887 2441910 2457770 2471860 2482778 
2782.042 2489775 2492796 2492521 2490232 2487397 2485275 2484575 2485090 
2785.900 2486001 2486215 2484844 2481513 2476757 2471689 2467637 2465724 
2789.757 2466368 2469379 2474033 2479492 2485310 2491481 2498400 2506615 
2793.615 2516262 2527026 2537985 2547842 2555536 2560461 2562748 2563181 
2797.472 2562856 2562720 2563218 2564153 2564907 2564581 2562739 2559361 
2801.330 2555157 2551302 2549106 2549763 2553843 2561255 2571222 2582589 
2805.187 2593988 2604215 2612518 2618753 2623422 2627532 2632480 2639369 
2809.044 2648981 2661270 2675430 2689948 2703111 2713327 2719746 2722471 
2812.902 2722470 2721279 2720592 2721754 2725453 2731662 2740019 2749974 
2816.759 2761145 2773389 2786719 2801076 2816003 2830679 2843985 2854837 
2820.617 2862471 2866874 2868666 2869032 2869320 2870835 2874419 2880465 
2824.474 2888967 2899628 2911836 2924912 2938052 2950372 2961143 2969739 
2828.332 2976044 2980354 2983388 2985952 2988747 2992101 2995937 2999965 
2832.189 3003889 3007786 3012117 3017662 3025209 3035013 3046880 3059909 
2836.046 3072856 3084614 3094478 3102504 3109203 3115450 3122115 3129766 
2839.904 3138694 3149083 3161128 3175187 3191736 3211171 3233516 3258204 
2843.761 3284163 3309971 3334311 3356261 3375684 3393178 3409865 3427181 
2847.619 3446279 3467911 3492096 3518236 3545158 3571451 3595719 3616740 
2851.476 3633947 3647184 3656891 3663731 3668508 3671795 3673946 3675063 
2855.333 3675226 3674599 3673581 3672652 3672384 3672848 3673828 3674692 
2859.191 3674648 3673258 3670675 3667722 3665772 3666234 3669996 3677179 
2863.048 3686973 3698051 3708988 3718970 3727919 3736715 3746787 3759691 
2866.906 3776751 3798746 3825926 3858011 3894518 3934766 3978023 4023480 
2870.763 4070237 4117429 4164328 4210739 4256750 4302948 4350086 4398944 
2874.621 4450007 4503331 4558570 4614920 4671304 4726394 4778645 4826473 
2878.478 4868285 4902616 4928521 4945576 4953791 4953934 4946799 4933323 
2882.335 4914363 4890760 4863528 4834041 4804073 4775591 4750344 4729531 
2886.193 4713273 4700654 4689880 4678795 4665652 4649347 4629830 4607847 
2890.050 4584868 4562431 4542176 4525393 4513195 4506309 4505162 4509600 
2893.908 4518779 4531173 4544616 4556861 4566046 4571175 4572393 4571005 
2897.765 4568908 4568175 4570399 4576299 4585738 4597851 4611435 4625383 
2901.623 4638828 4651301 4662571 4672558 4681322 4688869 4695362 4701015 
2905.480 4706252 4711411 4716840 4722532 4728465 4734370 4740298 4746597 
2909.337 4754060 4763867 4777273 4795213 4817969 4845016 4875148 4906920 
2913.195 4938811 4970037 5000406 5030491 5061194 5093343 5127311 5162919 
2917.052 5199233 5235186 5269687 5302144 5332590 5361671 5390494 5420162 
2920.910 5451613 5485254 5520969 5558179 5596009 5633611 5670292 5705810 
2924.767 5740303 5774219 5808225 5842910 5878612 5915308 5952748 5990690 
2928.625 6029070 6068523 6110352 6156345 6208670 6268997 6338355 6416540 
2932.482 6502595 6594745 6691442 6791690 6895599 7004370 7119982 7244610 
2936.339 7380158 7527671 7687161 7857707 8037573 8224488 8415760 8608450 
2940.197 8799392 8985202 9162542 9328211 9479424 9613957 9730112 9826573 
2944.054 9902203 9956058 9987329 9995402 9980290 9942774 9884326 9807068 
2947.912 9713363 9605628 9485852 9355944 9217682 9073158 8924758 8775427 
2951.769 8628004 8484947 8347852 8217047 8091817 7970806 7852547 7736086 
2955.626 7621523 7509643 7402050 7300330 7205688 7118542 7038408 6964187 
2959.484 6894383 6827634 6762938 6699813 6638343 6579092 6522854 6470578 
2963.341 6423104 6380876 6343972 6311863 6283548 6257551 6232274 6206332 
2967.199 6178881 6149552 6118940 6088007 6058132 6030606 6006387 5986019 
2971.056 5969514 5956605 5946899 5940274 5936813 5937063 5941690 5951465 
2974.914 5966767 5987526 6013077 6042351 6074204 6107832 6143021 6180578 
2978.771 6222011 6269271 6324431 6388988 6463738 6548737 6643373 6746942 
2982.628 6858776 6978822 7107495 7245525 7393919 7553401 7724327 7906541 
2986.486 8099250 8301185 8510590 8725350 8943056 9161150 9376918 9587693 
2990.343 9790667 9983159 10162434 10325620 10469965 10593089 10693076 
2993.719 10768923 10820758 10849785 10857972 10847571 10820696 10778692 
2997.094 10722178 10651150 10565262 10464547 10349753 10222428 10085113 
3000.469 9940596 9791748 9640755 9488875 9336431 9182943 9027546 8869419 
3004.326 8708360 8544732 8379674 8214640 8051046 7889860 7731446 7575510 
3008.184 7421422 7268658 7116963 6966682 6818597 6673574 6532137 6394362 
3012.041 6259769 6127561 5997172 5868471 5742005 5618928 5500469 5387849 
3015.899 5281772 5182381 5089447 5002365 4920504 4842966 4768612 4696144 
3019.756 4624117 4551238 4476927 4401621 4326790 4254738 4187781 4127608 
3023.614 4074665 4028071 3985962 3946032 3906474 3866213 3825106 3783657 
3027.471 3742632 3702814 3664822 3629417 3597324 3569590 3547021 3529729 
3031.328 3516952 3506803 3496651 3483908 3466837 3445080 3419873 3393446 
3035.186 3368171 3345884 3327215 3311618 3297926 3284746 3271338 3257616 
3039.043 3244139 3231670 3220809 3211854 3204776 3199472 3195787 3193619 
3042.901 3192844 3193195 3193991 3194352 3193307 3190196 3184663 3177011 
3046.758 3167743 3157759 3147825 3138776 3131392 3126457 3124706 3126587 
3050.615 3131976 3139995 3149116 3157433 3163183 3165433 3164120 3160298 
3054.473 3155408 3151045 3148142 3146866 3146699 3146853 3146540 3145439 
3058.330 3143673 3141772 3140315 3139918 3141087 3144230 3149710 3157644 
3062.188 3167720 3179100 3190317 3199511 3204965 3205677 3201667 3194274 
3066.045 3185579 3177818 3172802 3171188 3172664 3176235 3180680 3185169 
3069.903 3189597 3194245 3199706 3206275 3213732 3221338 3227987 3232760 
3073.760 3234937 3234484 3231673 3227179 3221682 3215840 3210131 3205016 
3077.617 3200797 3197591 3195344 3193650 3191977 3189457 3185440 3179740 
3081.475 3172585 3164936 3158153 3153837 3153274 3157031 3164838 3175536 
3085.332 3187296 3198097 3206095 3210210 3210229 3206801 3201130 3194629 
3089.190 3188262 3182533 3177358 3172381 3167318 3162380 3158237 3156076 
3093.047 3157008 3161677 3169988 3180886 3192711 3203522 3211711 3216477 
3096.905 3217756 3216312 3213302 3209965 3207310 3205790 3205405 3205756 
3100.762 3206170 3205974 3204673 3202130 3198627 3194881 3191672 3190029 
3104.619 3190472 3193306 3198386 3205268 3213375 3222235 3231360 3240332 
3108.477 3248556 3255359 3259832 3261288 3259471 3254729 3248200 3241670 
3112.334 3236870 3235471 3238317 3245423 3255850 3268163 3280617 3291448 
3116.192 3299246 3303143 3303019 3299486 3294059 3288660 3285187 3285081 
3120.049 3288596 3294709 3301363 3306144 3307100 3303550 3296279 3287510 
3123.906 3279906 3275980 3277111 3283515 3294260 3308077 3323587 3339794 
3127.764 3356072 3371866 3386403 3398852 3408444 3414861 3418557 3420881 
3131.621 3423323 3427287 3433286 3440873 3448792 3455596 3460207 3462337 
3135.479 3462465 3461356 3459608 3457378 3454295 3450038 3444639 3438887 
3139.336 3434210 3432176 3433867 3439377 3447697 3457162 3465957 3472909 
3143.194 3477661 3480502 3482222 3483525 3484819 3486315 3488197 3491031 
3147.051 3495491 3502233 3511212 3521585 3531396 3538340 3540349 3536778 
3150.908 3528449 3517751 3507949 3502079 3502164 3508723 3520882 3536958 
3154.766 3555144 3574174 3593383 3612709 3632075 3651160 3669103 3684699 
3158.623 3696614 3703942 3706453 3704793 3700399 3695197 3691004 3689350 
3162.481 3690752 3694953 3700761 3706622 3711227 3713893 3714879 3715381 
3166.338 3716884 3720608 3726760 3734487 3741851 3746693 3747273 3743171 
3170.196 3735106 3725086 3715323 3707694 3703216 3702008 3703606 3707496 
3174.053 3713493 3721816 3732778 3746350 3761765 3777586 3791953 3803296 
3177.910 3810583 3814008 3814544 3813779 3813340 3814416 3817606 3823233 
3181.768 3831139 3841325 3853540 3867583 3882835 3898376 3912945 3925404 
3185.625 3934838 3940939 3943958 3944740 3944412 3944140 3945008 3947855 
3189.483 3953193 3961207 3971552 3983358 3995354 4005951 4013719 4017635 
3193.340 4017632 4014470 4009630 4005038 4002308 4002716 4006666 4014084 
3197.198 4024285 4036463 4049759 4063420 4076628 4088661 4098592 4105762 
3201.055 4109560 4109971 4107432 4102903 4097630 4093000 4090020 4089356 
3204.912 4091152 4095060 4100576 4107254 4114985 4124043 4134987 4148420 
3208.770 4164564 4182982 4202472 4221158 4237066 4248550 4254717 4255783 
3212.627 4252888 4247677 4241861 4236812 4233330 4231670 4231953 4234224 
3216.485 4238660 4245459 4254568 4265669 4277973 4290524 4302418 4313184 
3220.342 4322645 4330985 4338349 4344317 4348171 4348921 4345771 4338786 
3224.199 4329045 4318541 4309743 4304877 4305267 4311026 4321042 4333599 
3228.057 4346855 4359245 4369740 4377734 4382760 4384474 4382411 4376526 
3231.914 4367315 4356057 4344819 4335976 4331793 4333578 4341541 4354704 
3235.772 4371111 4388599 4405031 4418934 4429567 4436792 4440786 4442112 
3239.629 4441222 4438925 4436051 4433830 4433736 4437377 4445909 4459966 
3243.487 4478999 4501402 4524569 4545482 4561127 4569414 4569593 4562471 
3247.344 4550225 4535999 4523091 4514361 4511629 4515478 4525221 4539338 
3251.201 4555653 4572051 4586620 4598254 4606518 4611868 4615281 4618092 
3255.059 4621529 4626303 4632350 4638900 4644839 4649007 4650721 4650294 
3258.916 4648716 4647529 4648251 4651807 4658200 4666605 4675482 4683346 
3262.774 4689055 4692128 4692788 4691770 4689904 4687845 4685886 4684108 
3266.631 4682237 4680131 4677711 4675312 4673440 4672920 4674662 4679606 
3270.489 4688336 4701003 4717101 4735381 4754127 4771456 4785585 4795466 
3274.346 4800740 4801985 4800211 4796911 4793463 4791058 4790472 4792255 
3278.203 4796532 4803214 4811821 4821520 4831200 4839647 4845655 4848527 
3282.061 4848148 4845023 4840288 4835428 4831782 4830376 4831535 4834857 
3285.918 4839249 4843203 4845187 4844061 4839486 4832138 4823502 4815734 
3289.776 4810803 4810098 4813848 4821151 4830295 4839386 4847068 4852937 
3293.633 4857598 4862172 4867806 4874934 4883093 4891118 4897598 4901660 
3297.490 4903179 4902890 4901865 4901043 4900527 4899681 4897264 4892321 
3301.348 4884683 4875403 4866685 4861204 4861416 4868489 4882088 4900451 
3305.205 4920759 4940009 4955866 4967045 4973531 4976571 4977932 4979678 
3309.063 4983401 4989973 4999068 5009450 5018903 5024952 5025399 5018913 
3312.920 5005483 4986606 4964930 4943784 4926477 4915521 4912109 4915974 
3316.778 4925478 4938181 4951288 4962407 4970060 4973832 4974372 4973228 
3320.635 4972139 4972622 4975429 4980628 4987276 4994200 5000145 5004417 
3324.492 5006750 5007568 5007495 5007138 5006905 5007072 5007741 5009277 
3328.350 5012080 5016792 5023731 5032671 5042734 5052218 5059292 5062277 
3332.207 5060516 5054320 5045285 5035619 5027655 5023201 5022955 5026724 
3336.065 5033276 5040939 5048101 5053606 5057084 5058948 5060240 5062357 
3339.922 5066537 5073618 5083510 5095319 5107362 5117516 5123853 5124810 
3343.780 5119788 5109061 5093866 5076063 5057855 5041505 5028881 5021570 
3347.637 5020295 5024945 5034455 5046897 5060022 5071392 5079179 5082544 
3351.494 5081608 5077578 5072039 5066788 5063065 5061676 5062771 5066031 
3355.352 5070868 5076617 5082505 5087864 5092004 5094579 5095472 5095143 
3359.209 5094330 5093886 5094282 5095394 5096540 5096614 5094703 5090554 
3363.067 5084904 5079344 5075606 5075076 5077974 5083134 5088412 5091370 
3366.924 5090170 5084257 5074691 5063737 5054086 5048119 5047073 5050754 
3370.781 5057731 5065646 5072061 5075042 5073511 5067631 5058427 5047625 
3374.639 5036879 5027611 5020470 5015377 5011682 5008659 5005935 5003812 
3378.496 5003183 5005101 5010207 5018245 5027769 5036508 5041886 5042119 
3382.354 5036529 5026031 5012562 4998579 4986114 4976372 4969563 4965282 
3386.211 4963017 4962471 4963781 4967215 4972753 4979941 4987735 4994916 
3390.069 5000575 5004565 5007566 5010766 5015373 5021877 5029815 5037730 
3393.926 5043671 5045843 5043183 5035740 5024615 5011731 4999275 4989237 
3397.783 4983122 4981663 4984722 4991313 4999652 5007365 5011910 5011081 
3401.641 5003550 4989229 4969427 4946660 4924018 4904662 4890747 4883522 
3405.498 4882663 4886935 4894276 4902600 4910144 4915998 4919938 4922701 
3409.356 4925406 4929080 4934322 4940814 4947204 4951573 4951770 4946379 
3413.213 4935175 4919457 4901794 4885473 4873417 4867521 4868092 4873820 
3417.071 4882264 4890642 4896446 4898121 4895194 4888133 4877991 4866102 
3420.928 4853788 4842116 4831895 4823592 4817442 4813328 4810773 4808977 
3424.785 4806877 4803299 4797235 4788016 4775722 4761024 4745373 4730844 
3428.643 4719549 4713047 4711998 4715663 4721980 4728077 4731089 4729065 
3432.500 4721724 4710624 4698771 4689662 4686105 4689382 4698767 4712010 
3436.358 4725961 4737755 4745567 4748925 4748345 4744930 4739419 4732003 
3440.215 4722148 4709186 4692668 4672983 4651401 4629909 4610685 4595600 
3444.073 4585866 4581789 4582972 4588474 4596969 4607092 4617276 4626286 
3447.930 4633071 4637137 4638622 4638351 4637490 4637325 4638480 4640944 
3451.787 4643621 4645014 4643526 4638228 4629256 4618041 4606647 4597563 
3455.645 4592680 4592943 4598212 4607157 4618147 4629378 4639324 4647039 
3459.502 4651884 4653620 4652270 4648104 4641703 4634139 4626610 4620499 
3463.360 4616788 4615904 4617612 4621356 4626427 4632624 4640091 4649454 
3467.217 4661108 4674756 4689014 4701498 4709564 4711226 4706080 4695726 
3471.074 4683494 4673443 4668955 4671608 4680624 4693122 4705243 4713486 
3474.932 4715826 4712252 4704493 4694999 4686156 4679129 4673930 4669562 
3478.789 4664800 4658968 4652278 4645907 4641543 4640890 4645173 4654823 
3482.647 4669330 4687640 4708148 4729188 4749081 4766502 4780511 4790792 
3486.504 4797499 4801335 4803084 4803569 4803219 4802344 4800967 4799303 
3490.362 4797830 4797322 4798690 4802648 4809617 4819444 4831650 4845642 
3494.219 4861025 4877716 4895838 4915473 4936420 4957854 4978639 4997552 
3498.076 5013572 5026136 5035277 5041124 5043785 5043161 5039011 5031120 
3501.934 5019820 5005916 4990810 4976000 4962604 4951041 4940722 4930605 
3505.791 4919513 4906645 4892105 4876664 4861520 4847980 4836802 4828286 
3509.649 4822192 4817981 4814934 4812366 4809508 4805617 4800008 4792331 
3513.506 4782467 4770870 4758334 4745640 4733135 4720507 4706748 4690486 
3517.364 4670666 4646998 4620359 4592456 4565451 4541196 4520481 4503079 
3521.221 4487705 4472640 4456287 4437780 4417084 4394968 4372560 4351194 
3525.078 4332037 4315952 4303373 4294300 4288193 4283864 4279701 4273939 
3528.936 4265001 4252094 4235229 4215488 4194421 4173700 4154551 4137360 
3532.793 4121788 4107176 4092753 4078268 4063912 4050263 4037803 4026650 
3536.651 4016398 4006119 3994804 3981694 3966668 3950232 3933469 3917581 
3540.508 3903555 3891861 3882367 3874556 3867693 3861262 3855059 3849238 
3544.365 3844236 3840448 3837923 3836229 3834667 3832406 3828806 3823856 
3548.223 3818109 3812686 3808539 3806200 3805161 3803846 3799960 3791190 
3552.080 3775990 3754057 3726839 3696929 3667463 3641263 3620184 3604867 
3555.938 3594755 3588947 3586309 3586168 3588235 3592281 3598162 3605241 
3559.795 3612586 3619210 3624228 3627207 3628085 3627078 3624234 3619431 
3563.653 3612161 3602111 3589289 3574350 3558901 3544778 3533809 3527189 
3567.510 3524873 3525725 3527701 3528456 3526065 3519208 3507499 3491285 
3571.367 3471475 3449243 3426051 3403474 3383374 3367531 3357541 3354254 
3575.225 3357431 3365534 3375929 3385395 3390926 3390620 3383989 3372158 
3579.082 3357381 3342346 3329236 3319298 3312498 3307889 3303825 3298802 
3582.940 3291668 3282009 3269949 3256030 3240956 3225408 3209820 3194666 
3586.797 3180164 3166630 3154355 3143631 3134724 3127829 3122983 3120029 
3590.655 3118408 3117407 3116005 3113376 3108937 3102857 3096083 3090147 
3594.512 3086723 3087112 3091597 3099182 3107789 3114746 3117498 3114426 
3598.369 3104993 3089951 3070904 3049874 3028803 3009481 2993549 2982371 
3602.227 2977211 2978862 2987219 3001128 3018023 3034608 3047413 3053862 
3606.084 3052942 3045419 3033702 3020716 3009189 3000792 2995733 2993110 
3609.942 2991413 2989374 2986323 2982355 2978168 2974760 2972839 2972858 
3613.799 2974719 2977886 2981554 2984723 2986220 2985129 2980751 2973063 
3617.656 2962797 2951403 2940790 2932911 2929332 2930797 2937115 2947285 
3621.514 2959720 2972648 2984272 2993062 2997816 2998007 2993571 2985585 
3625.371 2975810 2966682 2960673 2959646 2964265 2973722 2985903 2998099 
3629.229 3007787 3013568 3015562 3015301 3015235 3017990 3025407 3038225 
3633.086 3055686 3075707 3095428 3111607 3121466 3123305 3117023 3104497 
3636.944 3089032 3075015 3066819 3067509 3078204 3097708 3122679 3148731 
3640.801 3171496 3187659 3195727 3195805 3189615 3179680 3168695 3159445 
3644.658 3154295 3155156 3163226 3178581 3200094 3225253 3250619 3272554 
3648.516 3288277 3296488 3297689 3293939 3288052 3282571 3279225 3278621 
3652.373 3280511 3284268 3289422 3295714 3303060 3311408 3320131 3328311 
3656.231 3334749 3338481 3339069 3336589 3331583 3324582 3315773 3305118 
3660.088 3292417 3277795 3262032 3246514 3232936 3222712 3216313 3212909 
3663.946 3210458 3206421 3198344 3184900 3166251 3144042 3121076 3100373 
3667.803 3084314 3074113 3069238 3067770 3066835 3063606 3056062 3043854 
3671.660 3028210 3011745 2997373 2987474 2983067 2983285 2985649 2986971 
3675.518 2984361 2975954 2961540 2942210 2919663 2895475 2870416 2844597 
3679.375 2817870 2790422 2763342 2738729 2719225 2707385 2704538 2710588 
3683.233 2723616 2740522 2757558 2771245 2778951 2779351 2772309 2758952 
3687.090 2741206 2721369 2701890 2684770 2671450 2662328 2657070 2654807 
3690.948 2654346 2654518 2654342 2652960 2649413 2642718 2632040 2617105 
3694.805 2598535 2578195 2559035 2544624 2538075 2541069 2553238 2572432 
3698.662 2594809 2616161 2633098 2643585 2647332 2645733 2640816 2634901 
3702.520 2629770 2626421 2625067 2625034 2625301 2624670 2621954 2616617 
3706.377 2608795 2599349 2589951 2582260 2577565 2576414 2578198 2581593 
3710.235 2585126 2587799 2589734 2592057 2596706 2605406 2619048 2637384 
3714.092 2658767 2680733 2700730 2716479 2726435 2729769 2726253 2716210 
3717.949 2700504 2680523 2658297 2636358 2617295 2603279 2595398 2593680 
3721.807 2596861 2603062 2610331 2617013 2622417 2626544 2630070 2633835 
3725.664 2638805 2645610 2654574 2665425 2677308 2688643 2697381 2701423 
3729.522 2699373 2690900 2677363 2661410 2646535 2636069 2632086 2634915 
3733.379 2643063 2653979 2664698 2672904 2677225 2677583 2674518 2668998 
3737.237 2662067 2654820 2648314 2643821 2642613 2645548 2652791 2663237 
3741.094 2675008 2685713 2693168 2696364 2695552 2692229 2688427 2686049 
3744.951 2685953 2688002 2691225 2694537 2697382 2699964 2703064 2707616 
3748.809 2713938 2721461 2728608 2733369 2733821 2729079 2719205 2705435 
3752.666 2689754 2673881 2659384 2646982 2636791 2628772 2622914 2619596 
3756.524 2619515 2623405 2631712 2644134 2659496 2675788 2690579 2701612 
3760.381 2707203 2706726 2700992 2691595 2680712 2670677 2663136 2658864 
3764.239 2657810 2659165 2661750 2664348 2666046 2666387 2665168 2662528 
3768.096 2658529 2653374 2647343 2640828 2634692 2630103 2628471 2631093 
3771.953 2638821 2651555 2667991 2685856 2702151 2713913 2719168 2717366 
3775.811 2709560 2698306 2686669 2677306 2671770 2670126 2671205 2673480 
3779.668 2675794 2677969 2681060 2686445 2695167 2707179 2720788 2733407 
3783.526 2742270 2745538 2743160 2736764 2729040 2722642 2719188 2718628 
3787.383 2719574 2720137 2718939 2715789 2711782 2708821 2708553 2711770 
3791.240 2717862 2725155 2731646 2735660 2736289 2733455 2727373 2718287 
3795.098 2705825 2689525 2669158 2645478 2620454 2597318 2579637 2570595 
3798.955 2571791 2582794 2601128 2622821 2643371 2658898 2666954 2667062 
3802.813 2660614 2650438 2639966 2632539 2630696 2635461 2646532 2662142 
3806.670 2679655 2696443 2710428 2720417 2726328 2728623 2727955 2724604 
3810.528 2718442 2709263 2697180 2683196 2669209 2657813 2651499 2651783 
3814.385 2658577 2670075 2683105 2694366 2701016 2701923 2697675 2690071 
3818.242 2681758 2675153 2671672 2671919 2675292 2680583 2686247 2690910 
3822.100 2693463 2693249 2690268 2684955 2678289 2671635 2666408 2663744 
3825.957 2664247 2667855 2673719 2680627 2687345 2693124 2697730 2701848 
3829.815 2706380 2712435 2720543 2730601 2741592 2751902 2759685 2763311 
3833.672 2761747 2755043 2743985 2730354 2716268 2703911 2695027 2690702 
3837.530 2691079 2695488 2702534 2710307 2716866 2720596 2720342 2715768 
3841.387 2707469 2696735 2685287 2674977 2667122 2662449 2660531 2660489 
3845.244 2660900 2660457 2658473 2654948 2650489 2646133 2642721 2640707 
3849.102 2640028 2640202 2640624 2640968 2641208 2641850 2643567 2647037 
3852.959 2652581 2660086 2669034 2678529 2687611 2695463 2701343 2705018 
3856.817 2706447 2706149 2704968 2704007 2704345 2706762 2711233 2717057 
3860.674 2722648 2726200 2725890 2720677 2710391 2696174 2679900 2663884 
3864.531 2650311 2641015 2636856 2638044 2643877 2653214 2664362 2675658 
3868.389 2685302 2692137 2695338 2695009 2691840 2687067 2681954 2677570 
3872.246 2674462 2672683 2672012 2672201 2673238 2675566 2679774 2686526 
3876.104 2696047 2707920 2721011 2733622 2743861 2750197 2751859 2748960 
3879.961 2742730 2735139 2728252 2723912 2722917 2725099 2729216 2733582 
3883.819 2736446 2736916 2735111 2732245 2729967 2729952 2732791 2737816 
3887.676 2743195 2746416 2745382 2738938 2727569 2713369 2699323 2688590 
3891.533 2683630 2685574 2694110 2707628 2723824 2740249 2754516 2764839 
3895.391 2769956 2769315 2763018 2751746 2736995 2720561 2704597 2691046 
3899.248 2681417 2676655 2676894 2681571 2689584 2699347 2709007 2716608 
3903.106 2720307 2718685 2711161 2698049 2680860 2661921 2644122 2630251 
3906.963 2622491 2621947 2628675 2641441 2658275 2676813 2694804 2710393 
3910.821 2722432 2730669 2735562 2738231 2739952 2741963 2745002 2749136 
3914.678 2753877 2758211 2761109 2761699 2759639 2755336 2749422 2743191 
3918.535 2737921 2734735 2734557 2737704 2743638 2751289 2758692 2763627 
3922.393 2764191 2759194 2748886 2734876 2719913 2707062 2698832 2696336 
3926.250 2699019 2704942 2711474 2716118 2717337 2714655 2708825 2701062 
3930.108 2692610 2684685 2678201 2673872 2672439 2674712 2681010 2691175 
3933.965 2704045 2717607 2729583 2737973 2741754 2741335 2738396 2735325 
3937.823 2734467 2737440 2744883 2756227 2770321 2785746 2801203 2815762 
3941.680 2828652 2839210 2846649 2850252 2849298 2843482 2833067 2819009 
3945.537 2802956 2786940 2773008 2762901 2757524 2756704 2759074 2762230 
3949.395 2763498 2760564 2752509 2740089 2726084 2714352 2708750 2711781 
3953.252 2723928 2742960 2765021 2785598 2801175 2810242 2813610 2814045 
3957.110 2814988 2819357 2828458 2841630 2856725 2870759 2880994 2885588 
3960.967 2883925 2876788 2865579 2852113 2838244 2825374 2814557 2806435 
3964.824 2801316 2799186 2799820 2802965 2808061 2814482 2821158 2826860 
3968.682 2830024 2829231 2823505 2812817 2798344 2782264 2767464 2756488 
3972.539 2751085 2751753 2757585 2767044 2778580 2791203 2804914 2820197 
3976.397 2837574 2856818 2876458 2893920 2906053 2910132 2904719 2890027 
3980.254 2868132 2842266 2816263 2793490 2776572 2766919 2764975 2770285 
3984.112 2781767 2797854 2816831 2836742 2855988 2873025 2886884 2897093 
3987.969 2903637 2906851 2907242 2905363 2901641 2896520 2890443 2883787 
3991.826 2877022 2870645 2865195 2861210 2859349 2860354 2864669 2872348 
3995.684 2882736 2894271 2904624 2911035 2910968 2902955 2886992 2864871 
3999.541 2840161 2817200 2800459 
##END=
