##TITLE=Tecor_ABS_White_Filament_r1_ATR-Corrected
##JCAMP-DX=5.01  $$ Nicolet v. 1
##DATATYPE=INFRARED SPECTRUM
##ORIGIN=Curtin University
##OWNER=Nicolet
##LONGDATE=2024/07/19
##TIME=16:19:32
##SPECTROMETER/DATA SYSTEM=Nicolet iS50
##DATA PROCESSING=
Ratio against background
%Transmittance->Absorbance
ATR Correction
Truncated
ElementMultiply or ElementDivide
##COMMENTS=
Number of sample scans: 32
Collection length: 47.27 sec
Sample gain: 1.0
Background collected on: Fri Jul 19 16:16:42 2024 (GMT+08:00);
Number of background scans: 32
Background gain: 1.0
Sample spacing:  1.000
Number of scan points: 16672
Resolution points: 8192
Number of FFT points: 65536
Apodization: N-B strong;
Phase correction: Mertz;
Laser frequency: 15798.3 cm-1
Number of rejected sample scans: 0
Number of rejected background scans: 0
Bench serial number: AUP1200105;
##RESOLUTION=4.000
##XUNITS=1/CM
##YUNITS=ABSORBANCE
##FIRSTX=400.163452
##LASTX=4000.187744
##FIRSTY=0.012495
##MAXX=4000.187744
##MINX=400.163452
##MAXY=0.466824
##MINY=-0.013203
##XFACTOR=1.000000
##YFACTOR=1.000000E-009
##NPOINTS=7468
##DELTAX=0.482125
##ZPD=8192
##XYDATA=(X++(Y..Y))
400.163 12495189 12495339 12482559 12501253 12608416 12840255 13187625 
403.538 13590754 13953650 14176336 14188129 13971752 13567128 13057853 
406.913 12544054 12113771 11818917 11665847 11617812 11611257 11577122 
410.288 11462240 11245858 10946575 10616902 10331010 10163852 10172055 
413.663 10377493 10760173 11264559 11814829 12335648 12770675 13092192 
417.038 13300151 13410971 13443966 13409876 13306867 13123563 12849814 
420.412 12484491 12044072 11560158 11073949 10626521 10250493 9965267 
423.787 9777211 9682812 9673926 9740612 9872051 10055029 10272002 10499344 
427.644 10708103 10867535 10951727 10945396 10849870 10686018 10491862 
431.019 10314086 10197180 10170582 10238696 10381061 10557039 10718841 
434.394 10829428 10875956 10875500 10870623 10914637 11053009 11306366 
437.769 11663882 12085627 12515807 12897649 13187323 13361081 13415053 
441.143 13360838 13219196 13016232 12780969 12544877 12339241 12190968 
444.518 12115076 12109310 12152213 12208531 12240180 12220182 12142969 
447.893 12028454 11914562 11843230 11844307 11923181 12058449 12209509 
451.268 12331209 12391128 12380588 12317787 12240999 12195082 12216737 
454.643 12322533 12504020 12731158 12960920 13149209 13262189 13284899 
458.017 13223639 13104385 12965432 12848094 12787247 12804051 12902990 
461.392 13072588 13289778 13526805 13757483 13962371 14131021 14262522 
464.767 14362983 14443180 14514941 14588397 14668440 14753013 14831454 
468.142 14886463 14897685 14848370 14732448 14559546 14355632 14159085 
471.517 14011286 13946015 13980304 14110275 14313147 14554417 14797007 
474.892 15009745 15171434 15270702 15302795 15265937 15159257 14983985 
478.266 14746292 14460660 14150770 13847801 13585439 13393546 13293288 
481.641 13293921 13392771 13577146 13826939 14116339 14415327 14691233 
485.016 14911640 15048678 15084655 15017497 14863134 14653178 14428859 
488.391 14231955 14095179 14035504 14051425 14125802 14231570 14339979 
491.766 14427345 14479885 14495161 14480948 14451651 14424956 14417278 
495.140 14440541 14499615 14590292 14699588 14808387 14895332 14943199 
498.515 14943951 14902477 14836089 14770866 14734249 14747876 14820838 
501.890 14948791 15115611 15300112 15482707 15651785 15804740 15946988 
505.265 16086804 16230548 16379360 16528871 16672157 16803378 16920808 
508.640 17028162 17133060 17244276 17368580 17509818 17669130 17847464 
512.015 18047628 18275428 18538664 18845080 19199324 19601004 20044624 
515.389 20520766 21018474 21527784 22040782 22552958 23063006 23573230 
518.764 24089606 24622036 25183104 25785866 26439998 27148650 27905828 
522.139 28696900 29502038 30300722 31076664 31820654 32530252 33207946 
525.514 33857712 34483988 35091644 35688292 36286112 36901272 37550856 
528.889 38247088 38991920 39774036 40570960 41355468 42104212 42804988 
532.263 43459472 44080616 44686212 45290876 45901292 46515596 47126596 
535.638 47727352 48314808 48890092 49455184 50008392 50541228 51038888 
539.013 51484704 51866364 52180568 52434672 52642908 52819916 52974512 
542.388 53107032 53210320 53274772 53293800 53266680 53197996 53093644 
545.763 52956264 52782888 52566760 52302308 51990556 51642948 51279896 
549.138 50925324 50598384 50307544 50047488 49802952 49554908 49288924 
552.512 48999684 48691772 48376372 48065396 47766168 47479148 47198804 
555.887 46917032 46625548 46319652 45998028 45661740 45313036 44953900 
559.262 44586328 44212696 43836484 43461512 43090796 42725148 42362340 
562.637 41996584 41620240 41226132 40809728 40370996 39915312 39453484 
566.012 38999680 38569672 38177236 37831044 37532348 37272980 37037472 
569.386 36806104 36559840 36285652 35978492 35641588 35282636 34908768 
572.761 34522848 34121828 33699036 33249084 32771624 32274310 31770516 
576.136 31274532 30795760 30335078 29885776 29437554 28983522 28525702 
579.511 28075842 27652206 27271988 26944496 26666860 26425134 26199912 
582.886 25973388 25735310 25484302 25225052 24963094 24699756 24430436 
586.260 24147508 23845018 23523950 23194532 22874220 22582324 22333046 
589.635 22130726 21968344 21831424 21703332 21571426 21430770 21284474 
593.010 21141298 21011238 20902142 20817324 20755458 20711078 20676406 
596.385 20642180 20598948 20537488 20450158 20331704 20180724 19999802 
599.760 19795762 19578564 19359694 19151232 18965024 18811860 18701190 
603.135 18639984 18630398 18669006 18745088 18841374 18936848 19010824 
606.509 19047548 19039640 18989430 18907906 18810962 18715726 18636372 
609.884 18582668 18559200 18565678 18599082 18653848 18723334 18799886 
613.259 18876112 18946098 19007486 19063028 19122008 19199060 19311946 
616.634 19476692 19702732 19987934 20315752 20655396 20965730 21202212 
620.009 21326086 21313122 21159512 20883176 20520024 20115512 19713820 
623.383 19348878 19038790 18784986 18576770 18398166 18234650 18077858 
626.758 17925326 17778916 17640342 17508586 17379422 17248302 17113516 
630.133 16979626 16857810 16762597 16706739 16695365 16722551 16771836 
633.508 16820176 16844924 16830338 16772110 16677840 16563902 16449917 
636.883 16353263 16284931 16248142 16239589 16251581 16275931 16305402 
640.258 16335644 16365869 16398218 16437249 16488893 16558954 16651347 
643.632 16766258 16899132 17041264 17181228 17307622 17412598 17493642 
647.007 17554376 17602744 17648306 17699008 17758968 17828430 17904688 
650.382 17984728 18067914 18156858 18256418 18372600 18509796 18668888 
653.757 18847944 19042872 19250040 19468294 19699598 19948520 20220050 
657.132 20517434 20840304 21184794 21544804 21914242 22290094 22672962 
660.506 23067816 23481324 23919882 24386366 24878810 25390120 25909730 
663.881 26426410 26931420 27421446 27899592 28375744 28864086 29379994 
667.256 29935672 30537316 31182504 31860914 32556384 33251558 33932344 
670.631 34591684 35231480 35861308 36495256 37146968 37825304 38531808 
674.006 39261016 40002988 40747812 41489948 42230340 42976720 43740768 
677.381 44534812 45367488 46242484 47158732 48113304 49105884 50142136 
680.755 51235448 52406972 53682980 55090572 56654276 58393372 60321672 
684.130 62448980 64784752 67341904 70141024 73213712 76605096 80376224 
687.505 84606736 89397432 94874216 101193040 108543216 117150696 127277104 
690.880 139214096 153270784 169752768 188931984 211005408 236041104 
693.773 263911872 294215968 326194560 358664896 390009184 418274944 
696.665 441427808 457747296 466230528 466824320 460356608 448222176 
699.558 431999232 413149344 392863712 372023616 351230208 330859808 
702.451 311123872 292122752 273888384 256417424 239693712 223698400 
705.343 208414768 193826608 179916288 166663744 154048752 142054496 
708.236 130671856 119901624 109753768 100244000 91387992 83197696 75676688 
711.611 68820048 62615388 57045348 52088884 47722240 43917520 40641260 
714.986 37853612 35508416 33556004 31945478 30628416 29560322 28701502 
718.360 28016192 27472370 27041406 26699078 26426664 26211202 26044522 
721.735 25921350 25836806 25785158 25760302 25758268 25780064 25833424 
725.110 25931998 26091442 26323968 26633248 27012402 27446372 27917164 
728.485 28410968 28923610 29462638 30045110 30692774 31426516 32262776 
731.860 33212446 34281884 35474680 36792416 38233376 39790244 41447892 
735.235 43183444 44968764 46775424 48579748 50366188 52127760 53863332 
738.609 55574136 57260844 58922972 60561580 62182240 63798448 65432160 
741.984 67111648 68866552 70723840 72704072 74820680 77080232 79484632 
745.359 82032264 84718064 87533936 90468000 93506080 96633952 99839840 
748.734 103117016 106463976 109884048 113382216 116963280 120629824 
751.627 124381248 128212720 132112920 136060368 140018080 143930032 
754.519 147720672 151299760 154572336 157451856 159871552 161791072 
757.412 163195504 164088224 164480336 164381344 163795216 162721968 
760.305 161164416 159135408 156662896 153789952 150571088 147065616 
763.197 143331616 139422416 135385168 131261856 127090184 122903792 
766.090 118732376 114601440 110532272 106543192 102650696 98869720 95212928 
769.465 91689208 88301312 85045440 81912928 78892328 75973400 73149504 
772.840 70417224 67775416 65221728 62751188 60355972 58027792 55761328 
776.214 53556604 51419380 49359548 47386760 45507380 43722352 42028480 
779.589 40421080 38897192 37457404 36104912 34842724 33669676 32579072 
782.964 31557922 30591148 29665576 28774204 27917982 27104578 26345174 
786.339 25649122 25020746 24457096 23948356 23479908 23035038 22598544 
789.714 22158994 21710788 21254806 20799004 20356734 19944108 19576270 
793.089 19263410 19007752 18802698 18633844 18482926 18331636 18165994 
796.463 17978658 17769176 17542972 17309336 17079026 16862400 16667658 
799.838 16499829 16359450 16242526 16140684 16044168 15943967 15835654 
803.213 15721530 15609724 15511935 15438797 15395632 15379802 15380858 
806.588 15384387 15375839 15345520 15290468 15214480 15125143 15030791 
809.963 14937859 14850182 14769479 14696908 14633847 14581965 14541810 
813.337 14511852 14487551 14462882 14431653 14390279 14338974 14281440 
816.712 14222889 14167449 14115952 14065410 14010010 13943962 13864229 
820.087 13772669 13676133 13585239 13510966 13462606 13444835 13456648 
823.462 13491844 13539864 13588586 13626399 13644507 13639117 13611838 
826.837 13569162 13520541 13476161 13443724 13427321 13426658 13439060 
830.212 13461860 13495307 13543940 13617006 13725354 13878850 14082883 
833.586 14335837 14629412 14950482 15284069 15618071 15945496 16266614 
836.961 16587144 16916872 17264808 17636124 18029226 18434922 18837844 
840.336 19219418 19561938 19852834 20086998 20267782 20404578 20509852 
843.711 20594972 20666750 20725874 20767632 20783806 20766018 20708046 
847.086 20607140 20464246 20282818 20066768 19819968 19545482 19246538 
850.460 18927118 18593596 18254400 17919406 17597704 17296356 17018210 
853.835 16761869 16522642 16295252 16076511 15867773 15674895 15507440 
857.210 15374294 15279593 15219630 15181566 15146300 15093759 15009355 
860.585 14889670 14744281 14593076 14460082 14364813 14314729 14302247 
863.960 14306363 14299473 14256808 14165440 14028776 13866481 13708690 
867.335 13586476 13522641 13525501 13586752 13685850 13796400 13894708 
870.709 13966040 14007113 14023797 14027175 14027069 14028425 14030104 
874.084 14027416 14015879 13995901 13973726 13960855 13968598 14004255 
877.459 14066734 14146850 14230656 14305974 14367551 14420202 14476631 
880.834 14551888 14655935 14788261 14936293 15079419 15196066 15272483 
884.209 15306853 15310501 15302518 15302699 15324348 15370752 15436162 
887.583 15510556 15585679 15660116 15739946 15837120 15964964 16133601 
890.958 16347008 16602797 16893524 17208870 17538438 17873176 18206366 
894.333 18535666 18863862 19200486 19561768 19968844 20443922 21005982 
897.708 21667230 22431778 23297894 24262440 25325442 26493824 27780998 
901.083 29203898 30777880 32512594 34409308 36461648 38657768 40982848 
904.458 43418852 45943200 48523952 51117548 53667432 56107848 58370832 
907.832 60394088 62128208 63540004 64611660 65336584 65714612 65748848 
911.207 65444572 64810768 63863648 62628420 61139828 59440640 57577576 
914.582 55597888 53545528 51458432 49367456 47295972 45261136 43275084 
917.957 41347456 39487604 37705972 36014056 34423260 32942038 31573534 
921.332 30314712 29156424 28087370 27097212 26180488 25337088 24572004 
924.706 23890590 23294944 22780990 22338148 21951954 21608428 21297344 
928.081 21014848 20762746 20545752 20367260 20227892 20123420 20047544 
931.456 19993878 19958810 19942684 19948710 19980754 20041330 20129034 
934.831 20239394 20366080 20503678 20649510 20804734 20973138 21158852 
938.206 21363726 21585286 21815904 22044828 22260440 22454064 22622816 
941.581 22771142 22909352 23051992 23213726 23405752 23634150 23899514 
944.955 24198102 24524882 24875470 25248020 25643254 26063408 26511384 
948.330 26990388 27503862 28057174 28658458 29319382 30053316 30874006 
951.705 31793490 32820612 33962384 35226180 36622208 38166596 39880632 
955.080 41788972 43915648 46280064 48894624 51764336 54888236 58261552 
958.455 61876792 65722464 69779760 74017864 78389488 82829792 87257104 
961.829 91578344 95695544 99513520 102945456 105917696 108371784 110266240 
965.204 111575920 112293000 112425120 111994048 111033184 109584864 
968.097 107697848 105425568 102824504 99952848 96869048 93630120 90289768 
971.472 86897264 83497440 80131352 76836248 73645968 70589032 67686624 
974.847 64951384 62386008 59985372 57741280 55645840 53696340 51895888 
978.221 50251828 48770536 47453728 46293784 45275008 44375392 43572244 
981.596 42846436 42185532 41583728 41040092 40555484 40130996 39766644 
984.971 39463088 39221660 39045476 38937984 38900760 38931660 39024152 
988.346 39167844 39351240 39562704 39792368 40031124 40268724 40491748 
991.721 40683236 40824188 40897000 40888716 40793728 40613484 40354568 
995.095 40025576 39636044 39195700 38718168 38223400 37740240 37304032 
998.470 36951832 36714492 36608976 36632436 36762348 36960088 37179364 
1001.845 37374768 37509960 37561612 37520932 37391196 37183844 36915060 
1005.220 36602572 36263404 35913836 35567988 35238980 34937792 34673376 
1008.595 34452184 34278040 34151560 34070088 34028668 34020872 34040356 
1011.970 34082704 34146076 34232128 34344328 34486860 34661916 34869716 
1015.344 35107580 35372168 35660532 35972632 36311708 36683244 37093988 
1018.719 37549848 38055316 38614044 39230196 39910556 40665428 41508116 
1022.094 42453196 43513320 44695532 45999224 47414348 48921252 50490408 
1025.469 52083272 53651364 55138000 56478804 57605432 58449676 58950496 
1028.844 59059604 58747816 58007976 56856724 55332508 53492492 51407612 
1032.219 49156500 46819380 44473064 42185384 40012356 37995172 36160048 
1035.595 34518956 33071614 31808756 30716266 29777524 28977680 28304122 
1038.970 27746684 27296698 26945182 26680894 26490168 26357100 26265794 
1042.345 26202074 26156570 26124608 26106672 26106162 26126760 26170580 
1045.720 26236834 26321548 26419162 26523388 26629336 26733766 26835426 
1049.096 26934450 27033096 27134314 27242796 27363962 27503238 27664766 
1052.471 27850014 28056600 28279330 28511490 28747946 28987136 29232492 
1055.846 29491378 29773404 30086234 30433446 30812786 31217276 31636984 
1059.221 32062500 32487556 32910184 33332660 33760732 34201588 34662272 
1062.597 35149044 35665584 36213224 36789788 37389488 38002828 38616868 
1065.972 39217388 39789892 40321760 40803288 41227496 41588804 41883700 
1069.347 42107460 42256172 42325788 42313460 42218532 42042444 41788732 
1072.722 41463048 41072024 40623972 40127540 39592656 39029472 38448024 
1076.098 37856788 37262400 36669012 36078596 35491156 34906228 34322692 
1079.473 33739732 33156608 32572914 31988640 31404596 30823308 30248820 
1082.848 29686694 29143624 28625420 28136926 27680458 27256162 26862388 
1086.223 26496584 26156126 25839176 25544376 25270156 25014948 24776272 
1089.599 24550506 24333212 24120120 23907734 23695102 23483864 23279188 
1092.974 23088216 22918328 22774744 22657622 22561268 22474012 22381702 
1096.349 22270938 22134250 21972272 21794138 21614996 21451230 21314908 
1099.724 21211142 21135956 21079468 21028762 20972712 20904552 20822458 
1103.100 20728652 20627300 20522134 20416628 20313416 20215828 20127690 
1106.475 20053012 19994906 19953700 19926456 19907492 19890224 19869798 
1109.850 19844020 19814002 19782648 19752910 19725558 19699064 19669696 
1113.225 19633734 19588438 19533068 19467078 19389420 19296428 19181712 
1116.601 19037444 18858112 18642174 18394864 18127418 17854972 17592024 
1119.976 17349220 17131438 16937298 16761528 16597629 16441256 16291184 
1123.351 16149148 16018149 15900195 15795097 15699212 15606568 15510627 
1126.726 15406565 15292490 15171177 15048440 14932872 14832614 14754390 
1130.102 14700920 14671528 14661873 14666577 14680015 14698407 14720563 
1133.477 14747416 14780438 14821623 14871291 14928984 14993284 15063658 
1136.852 15140075 15224102 15317925 15423591 15541784 15671588 15810458 
1140.227 15955523 16103745 16253693 16405368 16560886 16723188 16897670 
1143.603 17090342 17309074 17562796 17860188 18209056 18615088 19081490 
1146.978 19609490 20200240 20856522 21584400 22393186 23293018 24291986 
1150.353 25391384 26582938 27846242 29150228 30455230 31717424 32892204 
1153.728 33938312 34820212 35509816 35987744 36244480 36281376 36110504 
1157.104 35753940 35242576 34612028 33900208 33142566 32370470 31608638 
1160.479 30875768 30184260 29542156 28953480 28419658 27939272 27509186 
1163.854 27124936 26781464 26474588 26201114 25959970 25751914 25578778 
1167.229 25442404 25343776 25282100 25254808 25257690 25285456 25333576 
1170.604 25398362 25477806 25572170 25683652 25815756 25973298 26161622 
1173.980 26386490 26653444 26968218 27336062 27761330 28246924 28793784 
1177.355 29399318 30056816 30754620 31475346 32196216 32890338 33528178 
1180.730 34080912 34522692 34834176 35003432 35027528 34910836 34664548 
1184.105 34304216 33848768 33319038 32737158 32125876 31507474 30902368 
1187.481 30328000 29797236 29318448 28895418 28528548 28216442 27957270 
1190.856 27749438 27591390 27480944 27414914 27388084 27393776 27424064 
1194.231 27471442 27529534 27593802 27661256 27730394 27800628 27871336 
1197.606 27941556 28009480 28072684 28127332 28169016 28193054 28195222 
1200.982 28173540 28128254 28062626 27982116 27893432 27802502 27713906 
1204.357 27629576 27549868 27474224 27401516 27331320 27262670 27193930 
1207.732 27122022 27041972 26948322 26836652 26704670 26553718 26388728 
1211.107 26216354 26044154 25877908 25721280 25574870 25437870 25307890 
1214.483 25182478 25058554 24933122 24803144 24666164 24520702 24367434 
1217.858 24209314 24051284 23898796 23756410 23626836 23510498 23406018 
1221.233 23312294 23229254 23159016 23105306 23072646 23063912 23080452 
1224.608 23120862 23181604 23258470 23346944 23442496 23541020 23637804 
1227.984 23727524 23804592 23864474 23905064 23927520 23937034 23941890 
1231.359 23952290 23978402 24028274 24106758 24214124 24345972 24493434 
1234.734 24644942 24787336 24908764 25000780 25060030 25088828 25093838 
1238.109 25083582 25065790 25045054 25021748 24993218 24955668 24906494 
1241.485 24846644 24779682 24711374 24647288 24591134 24543476 24502940 
1244.860 24466812 24432992 24400304 24369138 24339370 24310660 24281058 
1248.235 24247662 24207750 24159534 24103058 24040090 23972656 23903136 
1251.610 23832444 23761140 23689958 23620890 23557848 23506256 23471722 
1254.986 23458340 23467266 23495914 23538098 23586310 23632552 23670900 
1258.361 23697958 23713310 23718386 23715914 23708288 23696638 23680304 
1261.736 23657444 23625570 23582790 23529452 23468288 23405074 23346708 
1265.111 23299626 23267818 23250950 23244746 23242472 23237736 23226986 
1268.487 23211658 23197548 23193462 23207362 23244360 23304002 23380998 
1271.862 23467290 23554314 23636434 23711922 23782844 23853958 23930280 
1275.237 24016100 24113518 24222718 24342536 24470988 24605670 24743970 
1278.612 24882886 25019980 25152940 25281402 25406472 25530990 25658864 
1281.988 25793566 25937164 26089758 26249092 26412100 26575000 26735108 
1285.363 26890322 27039734 27183378 27321554 27454980 27585066 27713884 
1288.738 27844560 27980790 28126040 28283064 28453234 28636094 28829448 
1292.113 29030256 29235246 29440940 29644718 29844284 30038438 30225818 
1295.489 30405632 30577464 30740942 30896214 31044446 31187910 31330142 
1298.864 31476590 31633414 31807386 32004226 32227368 32477278 32750450 
1302.239 33040312 33337474 33631600 33912732 34172388 34404632 34607156 
1305.614 34780860 34930192 35062116 35185584 35308736 35438132 35576632 
1308.990 35723100 35872896 36019532 36156728 36280708 36390992 36490840 
1312.365 36584968 36678280 36773432 36869820 36963720 37049608 37121880 
1315.740 37177028 37214436 37236172 37247008 37252296 37256892 37264364 
1319.115 37276080 37291892 37309580 37326244 37338188 37342512 37337016 
1322.490 37322064 37300072 37276140 37257800 37253712 37271960 37318184 
1325.866 37394524 37498920 37624748 37762980 37903492 38037956 38160692 
1329.241 38270584 38369212 38460100 38545536 38625028 38694592 38746552 
1332.616 38772704 38766660 38727300 38659356 38573840 38485564 38409716 
1335.991 38358744 38339948 38355340 38403164 38480088 38582996 38711488 
1339.367 38866040 39047628 39254972 39483608 39725476 39970396 40208472 
1342.742 40432692 40640480 40834096 41019148 41202848 41390544 41584688 
1346.117 41782992 41980568 42169748 42343948 42497920 42630516 42743352 
1349.492 42840640 42927700 43009424 43089080 43167740 43243936 43314928 
1352.868 43376800 43426288 43461076 43480760 43486916 43482180 43470564 
1356.243 43455640 43440452 43425924 43412108 43397688 43381064 43361704 
1359.618 43340140 43317976 43297780 43281772 43270752 43263684 43257924 
1362.993 43249424 43234304 43209968 43175060 43130288 43077128 43017492 
1366.369 42952844 42884264 42812084 42736784 42658024 42574432 42483336 
1369.744 42379772 42256824 42107304 41924316 41704556 41448020 41158956 
1373.119 40844064 40510024 40161728 39799864 39421032 39019072 38587300 
1376.494 38120260 37616236 37077384 36509444 35920080 35317424 34708960 
1379.870 34100472 33495818 32897602 32306388 31722498 31145734 30576176 
1383.245 30014958 29464148 28927572 28409622 27915282 27448112 27009330 
1386.620 26597892 26209882 25840234 25484092 25137554 24799996 24473140 
1389.995 24160762 23867546 23597706 23352964 23133068 22933890 22749022 
1393.371 22570598 22391380 22206486 22015142 21821622 21634260 21463744 
1396.746 21320528 21211520 21139184 21099998 21085926 21087480 21094796 
1400.121 21100332 21100008 21091318 21073572 21046054 21008074 20959722 
1403.496 20902196 20839186 20776574 20720904 20679024 20654460 20648918 
1406.872 20661396 20689652 20732348 20790088 20865880 20964440 21090680 
1410.247 21248226 21439020 21663372 21920762 22211516 22537798 22902998 
1413.622 23310886 23763814 24260224 24792264 25345824 25900882 26433082 
1416.997 26917424 27332292 27662246 27900862 28051544 28126792 28145154 
1420.373 28129244 28102486 28087914 28107402 28182434 28333912 28581724 
1423.748 28944112 29434864 30062824 30831722 31741024 32787892 33969748 
1427.123 35284900 36732452 38310780 40015992 41840120 43771548 45796296 
1430.498 47898616 50063644 52278328 54531976 56816724 59127316 61461700 
1433.874 63820028 66205024 68619664 71066920 73547680 76060760 78603552 
1437.249 81174256 83774392 86410552 89096440 91852216 94704024 97682368 
1440.624 100820464 104151784 107707824 111514520 115589992 119940656 
1443.517 124559696 129427584 134514944 139786704 145209424 150757840 
1446.410 156421312 162209328 168151728 174294688 180686928 187354880 
1449.303 194268304 201300656 208194096 214542256 219803952 223358320 
1452.196 224594480 223022352 218370480 210644064 200126128 187331024 
1455.089 172926064 157644512 142204560 127241824 113259144 100598224 
1457.982 89435792 79803192 71620088 64736636 58971168 54139072 50071916 
1461.358 46625444 43681452 41145928 38945296 37021624 35330572 33838116 
1464.733 32516964 31346158 30307490 29385080 28564090 27829864 27168874 
1468.108 26569058 26020556 25516052 25051574 24625404 24237454 23888394 
1471.483 23577648 23304078 23065194 22858008 22679834 22529312 22406194 
1474.859 22311606 22247790 22217954 22225868 22276240 22374636 22526294 
1478.234 22737300 23012894 23357736 23777506 24279088 24872790 25572240 
1481.609 26395472 27362846 28497232 29822402 31363860 33148918 35208968 
1484.984 37580608 40309876 43454364 47090700 51321052 56280004 62134752 
1488.360 69074720 77284280 86896872 97934032 110239800 123425736 136848352 
1491.735 149633728 160762480 169207168 174100352 174893408 171462272 
1494.628 164129088 153592832 140793232 126748696 112407736 98546520 85718392 
1498.003 74253232 64289324 55820752 48746920 42914300 38147660 34271596 
1501.378 31122196 28555350 26448592 24702340 23236830 21990764 20917386 
1504.754 19981820 19159626 18434262 17795340 17236594 16752306 16335825 
1508.129 15977614 15666261 15389670 15137124 14901713 14680057 14472154 
1511.504 14279895 14104868 13947645 13807247 13682306 13571387 13474295 
1514.879 13390781 13320951 13263282 13214701 13170296 13125093 13074633 
1518.255 13016854 12951909 12882106 12810822 12741502 12676717 12618213 
1521.630 12566972 12523460 12488150 12461300 12443281 12434200 12432782 
1525.005 12437279 12444869 12452614 12457683 12458525 12455446 12450866 
1528.380 12449788 12458929 12484441 12530990 12599528 12686570 12784277 
1531.756 12882728 12971935 13045305 13100854 13142808 13179343 13220932 
1535.131 13276761 13353184 13451524 13569991 13703987 13848283 13997748 
1538.506 14148373 14296362 14438218 14569341 14685648 14783300 14861133 
1541.881 14920157 14964694 15000268 15032776 15065352 15098317 15128895 
1545.257 15151680 15161752 15156263 15135461 15103477 15066440 15030637 
1548.632 15000375 14977125 14958318 14939606 14915046 14880016 14831774 
1552.007 14770468 14697980 14617936 14533851 14449091 14365656 14284812 
1555.382 14206711 14130782 14056393 13982384 13907757 13831615 13753271 
1558.758 13672780 13590349 13507296 13425360 13346704 13274125 13210689 
1562.133 13158879 13120869 13096828 13085342 13083193 13085590 13088036 
1565.508 13087204 13082558 13077063 13076539 13088713 13121285 13181160 
1568.883 13271552 13393503 13544783 13721721 13919417 14132966 14357135 
1572.259 14588105 14822643 15060068 15302245 15554522 15826050 16129369 
1575.634 16479956 16895636 17396414 18004176 18742122 19633928 20699306 
1579.009 21950552 23383978 24974766 26671544 28396888 30052038 31527306 
1582.384 32716170 33529304 33907296 33829368 33315878 32425542 31247058 
1585.760 29886822 28456708 27059344 25781032 24684286 23807728 23167810 
1589.135 22762666 22578420 22594522 22788010 23137388 23625176 24238302 
1592.510 24970262 25821370 26800010 27922842 29215092 30709394 32443340 
1595.885 34454720 36776056 39424936 42397608 45657852 49132872 52709916 
1599.260 56240836 59552004 62461052 64796380 66417104 67228392 67190400 
1602.636 66319668 64682872 62387264 59566936 56369992 52945476 49433368 
1606.011 45956284 42613424 39478360 36599160 34000032 31685706 29646842 
1609.386 27865746 26320286 24987822 23845962 22872964 22048272 21351172 
1612.761 20762120 20263006 19838972 19477470 19168774 18905002 18678722 
1616.137 18482998 18310910 18156298 18014768 17883578 17761790 17650128 
1619.512 17549308 17459774 17380872 17311182 17247728 17186334 17122648 
1622.887 17052536 16972748 16882172 16783838 16682589 16586201 16501732 
1626.262 16433770 16382923 16345125 16312495 16277358 16234029 16182663 
1629.638 16129065 16084274 16061343 16073445 16130952 16241610 16409857 
1633.013 16638007 16925770 17270674 17665296 18098372 18552812 19009416 
1636.388 19448188 19853118 20211682 20516728 20762772 20943834 21052140 
1639.763 21078030 21011572 20847170 20585364 20234412 19809358 19328996 
1643.139 18812576 18278074 17740980 17215814 16716510 16257366 15852617 
1646.514 15513533 15246043 15049403 14914971 14828383 14773656 14735465 
1649.889 14702330 14667277 14627069 14581701 14532062 14480496 14429905 
1653.264 14384878 14350836 14333048 14334818 14356005 14391582 14433114 
1656.640 14469741 14492105 14493967 14474975 14439267 14395682 14353309 
1660.015 14320562 14303228 14304293 14323829 14360848 14413504 14478954 
1663.390 14553611 14632533 14710270 14781356 14842631 14893521 14936438 
1666.765 14976053 15016760 15060988 15106372 15146586 15171575 15171043 
1670.141 15136832 15066542 14964057 14839703 14707949 14584682 14483811 
1673.516 14415077 14381950 14381562 14404780 14438598 14467563 14477446 
1676.891 14457637 14403462 14316258 14204408 14080034 13956967 13848542 
1680.266 13763723 13706503 13675867 13666618 13671957 13685077 13700988 
1683.642 13715939 13728113 13735170 13734834 13722944 13695450 13647956 
1687.017 13577602 13484606 13372199 13247782 13121550 13004666 12908249 
1690.392 12840340 12804152 12797596 12813850 12842095 12871896 12893204 
1693.767 12900472 12891976 12869531 12837127 12798701 12756879 12712175 
1697.143 12664129 12612682 12558861 12506214 12460066 12426206 12410082 
1700.518 12414060 12438557 12481701 12540469 12612126 12694331 12784053 
1703.893 12878085 12971088 13056162 13126510 13175785 13201091 13203381 
1707.268 13187762 13162689 13137716 13122522 13124264 13147919 13195112 
1710.644 13264491 13352443 13454425 13566009 13683387 13804549 13930077 
1714.019 14061713 14201488 14351331 14511250 14679234 14852916 15030390 
1717.394 15212529 15402773 15607526 15833385 16085338 16364712 16667420 
1720.769 16987212 17315658 17647230 17979714 18315098 18658422 19014332 
1724.145 19384318 19764956 20147400 20520840 20873910 21199266 21495552 
1727.520 21767248 22022972 22272898 22524692 22781314 23039458 23290198 
1730.895 23520858 23718790 23872398 23975266 24025978 24028160 23989710 
1734.270 23919624 23826482 23716750 23593614 23457316 23306724 23139754 
1737.646 22955514 22753354 22533448 22295860 22040650 21767404 21476074 
1741.021 21168732 20849604 20525336 20204052 19894352 19602096 19330594 
1744.396 19078422 18841072 18611844 18382976 18149190 17906340 17653894 
1747.771 17394104 17131948 16874070 16629048 16404703 16207965 16042152 
1751.146 15907384 15799174 15710119 15632046 15557498 15481726 15403311 
1754.522 15323136 15243164 15164222 15085006 15003319 14915363 14819770 
1757.897 14716473 14609807 14505650 14409766 14326076 14254474 14189912 
1761.272 14124481 14048319 13952975 13833564 13690314 13527325 13353220 
1764.647 13177155 13007755 12851387 12712041 12589478 12482283 12387124 
1768.023 12300376 12218591 12139270 12060686 11981708 11902517 11824243 
1771.398 11748853 11680343 11622293 11579181 11552507 11541807 11542199 
1774.773 11545158 11540352 11518225 11472012 11400860 11310078 11209516 
1778.148 11110405 11022609 10950500 10892650 10842783 10792955 10737954 
1781.524 10677720 10617097 10566204 10534570 10528672 10549073 10589744 
1784.899 10640868 10692321 10738044 10778093 10818641 10869661 10940235 
1788.274 11036512 11157260 11295354 11437756 11570265 11679495 11756142 
1791.649 11797636 11808586 11800246 11790814 11800259 11849540 11952762 
1795.025 12116878 12336049 12594946 12869797 13135866 13371932 13566674 
1798.400 13718325 13833862 13923502 13995894 14055272 14101437 14132258 
1801.775 14148745 14157030 14168967 14198673 14258154 14351638 14474783 
1805.150 14615379 14759727 14896976 15023584 15142340 15259768 15379535 
1808.526 15498464 15603838 15677961 15701901 15663125 15558780 15395391 
1811.901 15186045 14944820 14682611 14405908 14119063 13828191 13545409 
1815.276 13289799 13084476 12951951 12905521 12946219 13059613 13220496 
1818.651 13398406 13564431 13696836 13781831 13813473 13790728 13716202 
1822.027 13596995 13443960 13273302 13104870 12957943 12846225 12774283 
1825.402 12733529 12706648 12670957 12606960 12503261 12360580 12189494 
1828.777 12006110 11826180 11660343 11511681 11378904 11259494 11154010 
1832.152 11069041 11014448 10999857 11027697 11089504 11162626 11215935 
1835.528 11214997 11133674 10961194 10707292 10400910 10082338 9793384 
1838.903 9566908 9417702 9340665 9314426 9306870 9287027 9231984 9132770 
1842.760 8995727 8839985 8690986 8575842 8514703 8518165 8583249 8694374 
1846.618 8825426 8945304 9023721 9039823 8984825 8867115 8708594 8539989 
1850.475 8391713 8286820 8233945 8227532 8250200 8281126 8301894 8304178 
1854.333 8291191 8276335 8279541 8321577 8419193 8581905 8808495 9086493 
1858.190 9394376 9701536 9973982 10181390 10303933 10338948 10302342 
1861.565 10228053 10157977 10131363 10173927 10291675 10470118 10682555 
1864.940 10899913 11101398 11281094 11447686 11615650 11800055 12005761 
1868.316 12226894 12448761 12654948 12834166 12984044 13109645 13218946 
1871.691 13315894 13397200 13453512 13474138 13455957 13408286 13353460 
1875.066 13321592 13340935 13427267 13576739 13766601 13960334 14119263 
1878.441 14211990 14224633 14159788 14035160 13876138 13707304 13547674 
1881.817 13408653 13294241 13202420 13128884 13068635 13015714 12966957 
1885.192 12921350 12879718 12846699 12828014 12825449 12836793 12849350 
1888.567 12842525 12791129 12673902 12481032 12221856 11924744 11633564 
1891.942 11395727 11250193 11215740 11285245 11427449 11597056 11745383 
1895.318 11835646 11849873 11792079 11682821 11550314 11417060 11294471 
1898.693 11175410 11040232 10860746 10611888 10281229 9874230 9416052 
1902.068 8947386 8514351 8160344 7915507 7791667 7781792 7862069 7999827 
1905.926 8160377 8313253 8436810 8518496 8554243 8544332 8490644 8394819 
1909.783 8257093 8075350 7846388 7568741 7244274 6879589 6491184 6102127 
1913.640 5743829 5447999 5243408 5146656 5160469 5270687 5450386 5664937 
1917.498 5881377 6070775 6213112 6293849 6302927 6233625 6080584 5846608 
1921.355 5547787 5216310 4899983 4656133 4537929 4583415 4801141 5168271 
1925.213 5634763 6131699 6588586 6946239 7168970 7248518 7206256 7086253 
1929.070 6948744 6855724 6859307 6985493 7229394 7551357 7886526 8159604 
1932.927 8312006 8314080 8177228 7947544 7685460 7444870 7250549 7090660 
1936.785 6929234 6724923 6460002 6156606 5879107 5714952 5745942 6015041 
1940.642 6512282 7169545 7883227 8546902 9079280 9443753 9655611 9766880 
1944.500 9846605 9956107 10136129 10394404 10712054 11049517 11354450 
1947.875 11577724 11678629 11633402 11445428 11142191 10771762 10391301 
1951.250 10052565 9786339 9594968 9449272 9303269 9107033 8821962 8435853 
1955.108 7964261 7449754 6957588 6562800 6345803 6380235 6717704 7367955 
1958.965 8281732 9340934 10373246 11180164 11591212 11508889 10946807 
1962.340 10029760 8964055 7976376 7261315 6912993 6926372 7202966 7596742 
1966.198 7970177 8224864 8323624 8282348 8138479 7939592 7724326 7531788 
1970.055 7408658 7413434 7610386 8041918 8698854 9503894 10317027 10973624 
1973.913 11339394 11367818 11116084 10748116 10461763 10420306 10680052 
1977.288 11161378 11684522 12040516 12084806 11807012 11318197 10808035 
1980.663 10463512 10400150 10627593 11057338 11541693 11938008 12152444 
1984.038 12174666 12065398 11918343 11814926 11784641 11796576 11777816 
1987.414 11648181 11370065 10969793 10537363 10194105 10043889 10127453 
1990.789 10399166 10724798 10920779 10805112 10253357 9242069 7862046 
1994.164 6306306 4834947 3706139 3128461 3209268 3927291 5142391 6618100 
1998.021 8070103 9229987 9892487 9960006 9443902 8453282 7150033 5704593 
2001.879 4257598 2909295 1717540 732092 11286 -366423 -320962 197146 1157416 
2006.219 2431104 3791137 4977022 5762100 6034911 5829917 5306629 4692625 
2010.076 4207237 3978819 4034527 4295989 4626343 4889052 4993246 4918564 
2013.933 4703228 4411233 4097531 3777555 3421871 2971170 2361943 1559521 
2017.791 575269 -526846 -1629772 -2592371 -3265409 -3527756 -3304454 
2021.166 -2596316 -1479859 -105381 1338954 2657397 3702154 4405322 4793958 
2025.023 4977937 5125995 5395167 5907381 6701399 7732913 8887876 10014583 
2028.881 10961379 11613565 11901765 11815342 11394837 10716924 9885960 
2032.256 9014027 8209230 7562200 7117262 6869636 6761548 6702339 6588270 
2036.114 6341789 5931327 5388232 4800754 4293521 3992433 3993105 4336156 
2039.971 4985519 5838027 6746331 7542137 8079148 8259714 8055779 7509046 
2043.828 6713931 5797042 4891228 4111237 3547059 3262056 3298285 3683122 
2047.686 4417331 5466588 6746663 8119890 9415030 10465963 11151453 11426407 
2051.543 11332159 10978342 10517560 10095465 9815411 9702680 9703857 9703173 
2055.401 9567085 9191282 8542337 7658113 6642351 5628165 4740999 4075330 
2059.258 3679596 3557736 3687556 4028669 4533758 5145506 5794539 6395956 
2063.115 6859043 7103473 7088797 6825872 6390822 5908521 5525083 5369179 
2066.973 5520565 5985406 6696203 7527163 8328283 8953675 9297724 9313197 
2070.830 9016066 8482420 7830499 7190859 6684209 6390452 6332501 6474823 
2074.688 6733295 7005614 7203403 7279480 7245312 7162985 7124129 7215101 
2078.545 7483664 7924194 8476829 9048781 9546049 9901606 10093006 10143265 
2082.403 10106473 10044124 10007431 10021756 10089436 10189772 10294919 
2085.778 10373698 10396934 10334158 10157846 9841766 9371985 8753808 8019629 
2089.635 7229247 6458160 5784404 5269500 4942897 4802781 4818943 4949802 
2093.493 5155446 5411620 5710019 6054907 6448887 6884427 7336339 7765418 
2097.350 8126672 8383844 8517901 8534740 8461931 8342123 8218625 8126335 
2101.208 8082475 8084611 8111271 8135623 8130740 8082326 7990357 7868748 
2105.065 7737319 7611335 7493192 7373038 7231524 7054363 6842321 6619046 
2108.922 6429074 6324837 6348033 6515026 6804082 7162376 7517305 7797287 
2112.780 7950089 7951692 7803261 7526097 7144945 6685343 6169165 5621017 
2116.637 5073792 4567388 4141869 3824940 3614167 3472972 3336105 3125893 
2120.495 2782015 2282548 1655734 975925 340485 -159580 -466180 -568615 
2124.352 -503535 -338705 -152157 -7888 50865 7680 -133480 -358123 -647712 
2128.692 -979685 -1335076 -1691056 -2030721 -2343872 -2634597 -2919098 
2132.067 -3222223 -3566775 -3959348 -4375220 -4764436 -5049431 -5146879 
2135.442 -4986972 -4530811 -3776912 -2769102 -1588883 -356074 786107 1681350 
2139.300 2179631 2170387 1608040 544388 -872412 -2412906 -3811033 -4823786 
2143.157 -5285546 -5152473 -4500692 -3513318 -2418268 -1444658 -761137 
2146.532 -460171 -550284 -967300 -1601671 -2317556 -2965083 -3405992 
2149.907 -3517110 -3220022 -2508019 -1456952 -242586 886462 1651613 1799721 
2153.765 1166735 -281247 -2430135 -5040452 -7785007 -10295915 -12208343 
2157.140 -13203332 -13036818 -11590728 -8913442 -5256997 -1044275 3201631 
2160.515 6985001 9935038 11883751 12855137 13045856 12758729 12318240 
2163.891 11995684 11954707 12210352 12661326 13131122 13446338 13493537 
2167.266 13247522 12771665 12186451 11612109 11146658 10833413 10664550 
2170.641 10596512 10568968 10512234 10366633 10068120 9571278 8844965 
2174.016 7900087 6792304 5629222 4541651 3655160 3042886 2709684 2582235 
2177.874 2559798 2553417 2535090 2554258 2731754 3196057 4033325 5234841 
2181.731 6680865 8174150 9503301 10506079 11123987 11393877 11422178 
2185.106 11321828 11173668 11002753 10791636 10520025 10205807 9916535 
2188.482 9766038 9880380 10344894 11163772 12252366 13443098 14531884 
2191.857 15317915 15663927 15514349 14911392 13983589 12910802 11889342 
2195.232 11091537 10625255 10520388 10721038 11106513 11526207 11841702 
2198.607 11956782 11847781 11542444 11111695 10630598 10154692 9714996 
2201.983 9322900 8990386 8743133 8617010 8644536 8828334 9124122 9438796 
2205.840 9658251 9685910 9484936 9093417 8624605 8216477 7991627 8008207 
2209.698 8244159 8613998 9009796 9336830 9557907 9690063 9787482 9914292 
2213.555 10108836 10377354 10702969 11056074 11421124 11797618 12197399 
2216.930 12624238 13061124 13466654 13786852 13973842 14009709 13915893 
2220.305 13756006 13615029 13581932 13727558 14093862 14684825 15471443 
2223.681 16395858 17375576 18319366 19136184 19759244 20167476 20396796 
2227.056 20545464 20754308 21177626 21946030 23139378 24772318 26803140 
2230.431 29153036 31733536 34461276 37268856 40098544 42893396 45593544 
2233.806 48135892 50458240 52512568 54263400 55688328 56766712 57474448 
2237.182 57780364 57657660 57091660 56093020 54697664 52963672 50956188 
2240.557 48734232 46347740 43844376 41274780 38705872 36218552 33894524 
2243.932 31799260 29960408 28356322 26930620 25606462 24323000 23052880 
2247.307 21811820 20646284 19607796 18728696 18006678 17404236 16867222 
2250.683 16345739 15816811 15289307 14802694 14406704 14146794 14046574 
2254.058 14104432 14293511 14569379 14877458 15158585 15357359 15429082 
2257.433 15345689 15108410 14744458 14307276 13860309 13462924 13154557 
2260.808 12947552 12830907 12782698 12785348 12833036 12935982 13106018 
2264.184 13347099 13641974 13952970 14234185 14446490 14575238 14635288 
2267.559 14667836 14717634 14817430 14969712 15147814 15302341 15384287 
2270.934 15362946 15237264 15036794 14812589 14615545 14487552 14446743 
2274.309 14488038 14591997 14732199 14888169 15049971 15219679 15406499 
2277.685 15620875 15865607 16130758 16393403 16620276 16778526 16842328 
2281.060 16805534 16684767 16517071 16349792 16229367 16184961 16222224 
2284.435 16322361 16450258 16567830 16645877 16674422 16660910 16624581 
2287.810 16587079 16560510 16544722 16525147 16480498 16390391 16242163 
2291.186 16034337 15777323 15489494 15192911 14909403 14659404 14459409 
2294.561 14322459 14255349 14259578 14326624 14440482 14577953 14714183 
2297.936 14827305 14902764 14935811 14932834 14904252 14862509 14815798 
2301.311 14765351 14707302 14634835 14544455 14439571 14333181 14245031 
2304.687 14198599 14212259 14295741 14445615 14645512 14873303 15102948 
2308.062 15313016 15488411 15621636 15711015 15759621 15773876 15764568 
2311.437 15746539 15739245 15762059 15829412 15942665 16089622 16242510 
2314.812 16368428 16438505 16441774 16388640 16310370 16249314 16243564 
2318.188 16316883 16474804 16706483 16998020 17340750 17734834 18183878 
2321.563 18679774 19188894 19645278 19956968 20028482 19788558 19213370 
2324.938 18338812 17253808 16080810 14947649 13961221 13187039 12642166 
2328.313 12301146 12113689 12023334 11984815 11970656 11970788 11985848 
2331.688 12017408 12065009 12125227 12194155 12271017 12359113 12461736 
2335.064 12579608 12707726 12834500 12946444 13031698 13086163 13113109 
2338.439 13119893 13114751 13100964 13076100 13033711 12968680 12880766 
2341.814 12777735 12671922 12575587 12494858 12427466 12361860 12284904 
2345.189 12184807 12059194 11914907 11767197 11632740 11525074 11451357 
2348.565 11410902 11397425 11402282 11416986 11435392 11450420 11455921 
2351.940 11445188 11413643 11359776 11289570 11213899 11147269 11102857 
2355.315 11087698 11098804 11123491 11142896 11136569 11089097 10994692 
2358.690 10857847 10691736 10513105 10339804 10182968 10047030 9929774 
2362.066 9822285 9714288 9596534 9464285 9319194 9169321 9027947 8908668 
2365.923 8822640 8775330 8763276 8777245 8802216 8823873 8831528 8822002 
2369.781 8799488 8774268 8757912 8760327 8785725 8830239 8884126 8932487 
2373.638 8960005 8955318 8914600 8842118 8751910 8662784 8596416 8569571 
2377.495 8592040 8661789 8766939 8887959 9002522 9090731 9139993 9147178 
2381.353 9118624 9068085 9012511 8969182 8951164 8964366 9006977 9068100 
2385.210 9132197 9182049 9203447 9192862 9156497 9112537 9083886 9090990 
2389.068 9143132 9235556 9349038 9456743 9535159 9571707 9571078 9551647 
2392.925 9539650 9555097 9604891 9679690 9756283 9809120 9819428 9782773 
2396.782 9711638 9629174 9559272 9518935 9511705 9527655 9549949 9558449 
2400.640 9538377 9482488 9392135 9275415 9146615 9023403 8927139 8879365 
2404.497 8898501 8994958 9166232 9396154 9655912 9913020 10137753 10311944 
2408.355 10430298 10499456 10530424 10534547 10516570 10477851 10418782 
2411.730 10344118 10265233 10198509 10159614 10156639 10185966 10233240 
2415.105 10278675 10304003 10300482 10271166 10227283 10183384 10150954 
2418.480 10133157 10127894 10129831 10137355 10152492 10182294 10232925 
2421.856 10305540 10394476 10486539 10566559 10624632 10655062 10660753 
2425.231 10647694 10620422 10581284 10531249 10474375 10421948 10393793 
2428.606 10414304 10504565 10671542 10899540 11152174 11379237 11531343 
2431.981 11572487 11493059 11309965 11060994 10794144 10555849 10380486 
2435.357 10286476 10278163 10348504 10480763 10654608 10846419 11032134 
2438.732 11189946 11305121 11371165 11391800 11379010 11344878 11300105 
2442.107 11247790 11184499 11106708 11015065 10920531 10843886 10811244 
2445.482 10846281 10960999 11149081 11388646 11647135 11891349 12095344 
2448.858 12245782 12341862 12391428 12402737 12382994 12335806 12263288 
2452.233 12170119 12067468 11969717 11894218 11852318 11846260 11864544 
2455.608 11885053 11882451 11834251 11731461 11581806 11407994 11242950 
2458.983 11118121 11054512 11057176 11112799 11195804 11278513 11339663 
2462.359 11371321 11380804 11384022 11397307 11428501 11470442 11505213 
2465.734 11509197 11464288 11365505 11225642 11070125 10928447 10821932 
2469.109 10758929 10730701 10718660 10703803 10675794 10637516 10604356 
2472.484 10594262 10622391 10691341 10791282 10903778 11009532 11095202 
2475.860 11158035 11205223 11248703 11299330 11362921 11438576 11519574 
2479.235 11596538 11661416 11706961 11729181 11724312 11691679 11633182 
2482.610 11556869 11473635 11399269 11346418 11322253 11324449 11342125 
2485.985 11359141 11361094 11341816 11303287 11255504 11211532 11179125 
2489.361 11160209 11151451 11146774 11147182 11161014 11203466 11292406 
2492.736 11436641 11631131 11854631 12073666 12252618 12365939 12403375 
2496.111 12374652 12303587 12219861 12149666 12108575 12100278 12120701 
2499.486 12160807 12213661 12273495 12338463 12405304 12470162 12525989 
2502.862 12565062 12580906 12572336 12541771 12497760 12452142 12417336 
2506.237 12404857 12423963 12480547 12575989 12705941 12860598 13024341 
2509.612 13178154 13303422 13385129 13415745 13396841 13337232 13251819 
2512.987 13155678 13061952 12978396 12909480 12853443 12806157 12760875 
2516.363 12709675 12643440 12554487 12440029 12305368 12164767 12042694 
2519.738 11966671 11963981 12049862 12224388 12469310 12752255 13033181 
2523.113 13276036 13454704 13557941 13588308 13557870 13481590 13373431 
2526.488 13244654 13106690 12972760 12859640 12786659 12770279 12817565 
2529.864 12921269 13058784 13196962 13301253 13347005 13327467 13254666 
2533.239 13157208 13067964 13012587 13001892 13027315 13067623 13097234 
2536.614 13096404 13058234 12991211 12913527 12845949 12804303 12794476 
2539.989 12813083 12850769 12898778 12952596 13011381 13078884 13156051 
2543.365 13239732 13319694 13382543 13413670 13403662 13349171 13257608 
2546.740 13140911 13017181 12904860 12821716 12781688 12794017 12860019 
2550.115 12974260 13121990 13282371 13431109 13546969 13616219 13636431 
2553.490 13616140 13572624 13526867 13497115 13494177 13521497 13575831 
2556.865 13649744 13735099 13825550 13914757 13998678 14072845 14132961 
2560.241 14175572 14200671 14209102 14204985 14192441 14175246 14154434 
2563.616 14130256 14102628 14073700 14047858 14031046 14028170 14040451 
2566.991 14063674 14087939 14101095 14093316 14060707 14009468 13952520 
2570.366 13909003 13895398 13922416 13990428 14088503 14199050 14300931 
2573.742 14377287 14419810 14431237 14424864 14419873 14436232 14487883 
2577.117 14578133 14698879 14832237 14956563 15052974 15112443 15136926 
2580.492 15138976 15136864 15146366 15175904 15224355 15280896 15331384 
2583.867 15363405 15371394 15358200 15333107 15307649 15291828 15290597 
2587.243 15303179 15326717 15355131 15385377 15415467 15446258 15478628 
2590.618 15515363 15558723 15611942 15677024 15755108 15842726 15931861 
2593.993 16010664 16066564 16089782 16078381 16040538 15992651 15954252 
2597.368 15943160 15968297 16028015 16112128 16206237 16296450 16374033 
2600.744 16435470 16482240 16515473 16536642 16546622 16548635 16549336 
2604.119 16559670 16591106 16651200 16736722 16835340 16925850 16987110 
2607.494 17006216 16985150 16940476 16898160 16880924 16900018 16947912 
2610.869 17000566 17025138 16995688 16900252 16748829 16569424 16398596 
2614.245 16270781 16207257 16212445 16274773 16374063 16489400 16604615 
2617.620 16711788 16809676 16900564 16986996 17070028 17147812 17217162 
2620.995 17275256 17318910 17346350 17358718 17356702 17345592 17331836 
2624.370 17324690 17332646 17362320 17416566 17491954 17582218 17678712 
2627.746 17775598 17871906 17971090 18081022 18207476 18352134 18509178 
2631.121 18665058 18801512 18900882 18949662 18943020 18885990 18792388 
2634.496 18679508 18567394 18472816 18407328 18377318 18383252 18421248 
2637.871 18485100 18565948 18655088 18742758 18821132 18882638 18923180 
2641.247 18940778 18937206 18917348 18888220 18856856 18828422 18804870 
2644.622 18784698 18763448 18737642 18705148 18668894 18636022 18616590 
2647.997 18618732 18646202 18695180 18754882 18809430 18843200 18843950 
2651.372 18807730 18738370 18645582 18542052 18439478 18345266 18263272 
2654.748 18193316 18134954 18087480 18051160 18027614 18017206 18017344 
2658.123 18023478 18027192 18018290 17986656 17923676 17824420 17688342 
2661.498 17519550 17327898 17126084 16929518 16752521 16606644 16497804 
2664.873 16426815 16387688 16371304 16367365 16366204 16361633 16349977 
2668.249 16329532 16300738 16265029 16223744 16180113 16137365 16100524 
2671.624 16074082 16061094 16061567 16072817 16090624 16109878 16127516 
2674.999 16142646 16156074 16168693 16179968 16185760 16181031 16159654 
2678.374 16119644 16062789 15997550 15935346 15888700 15866887 15874965 
2681.750 15910696 15967881 16037257 16108278 16170226 16214252 16232764 
2685.125 16220890 16176976 16106065 16018802 15930701 15859541 15818875 
2688.500 15815752 15846856 15900280 15959144 16007008 16033920 16037969 
2691.875 16024657 16004013 15983453 15966685 15950002 15927246 15890274 
2695.250 15836818 15770214 15699517 15636858 15591654 15568809 15566337 
2698.626 15577363 15593017 15606677 15615177 15620414 15628098 15643859 
2702.001 15671602 15710877 15757971 15805447 15846223 15873842 15884668 
2705.376 15878776 15859887 15833450 15806273 15785182 15774990 15777525 
2708.751 15791612 15813529 15836542 15854925 15863661 15861021 15849181 
2712.127 15832782 15819382 15817182 15832389 15867556 15921695 15989445 
2715.502 16060866 16125385 16172044 16193073 16184175 16147608 16089845 
2718.877 16020928 15952807 15896814 15861085 15850920 15867712 15909549 
2722.252 15972065 16049508 16134115 16218577 16293736 16351631 16386107 
2725.628 16393216 16372308 16326107 16261300 16185110 16106149 16032208 
2729.003 15968686 15920181 15888432 15874093 15875064 15888046 15907178 
2732.378 15926318 15939223 15940936 15929425 15907260 15879212 15853446 
2735.753 15837688 15838088 15857143 15892291 15938386 15987260 16030539 
2739.129 16061416 16076941 16077377 16067598 16053213 16041487 16037956 
2742.504 16044369 16059991 16080873 16102036 16118232 16126962 16128041 
2745.879 16124144 16118027 16112834 16109204 16106401 16101476 16092485 
2749.254 16078688 16061934 16046185 16036900 16037676 16051117 16076755 
2752.630 16112570 16155612 16204307 16257368 16316095 16380301 16449163 
2756.005 16519066 16583163 16633486 16662611 16665898 16643975 16602950 
2759.380 16553016 16507512 16478501 16474608 16497890 16544746 16606558 
2762.755 16672201 16732389 16780154 16815032 16839332 16857966 16874848 
2766.131 16891638 16906760 16917518 16922232 16923320 16926360 16940754 
2769.506 16974414 17032194 17111410 17203878 17296672 17379154 17444520 
2772.881 17493510 17533286 17573916 17622578 17681522 17745810 17806944 
2776.256 17855034 17885400 17898404 17900206 17898826 17901652 17910834 
2779.632 17926370 17944910 17965226 17989852 18024870 18077204 18151932 
2783.007 18248868 18361480 18479764 18592942 18695208 18786362 18870706 
2786.382 18956494 19048408 19147868 19251968 19354326 19448842 19533344 
2789.757 19606420 19670316 19725026 19768104 19794738 19800320 19783332 
2793.133 19749308 19709260 19678034 19668534 19688496 19737360 19807614 
2796.508 19889014 19973456 20059350 20151680 20258664 20387852 20541624 
2799.883 20714148 20893830 21067274 21223708 21359332 21477630 21585674 
2803.258 21691020 21798018 21904776 22005526 22092968 22161700 22210676 
2806.634 22243564 22266894 22288626 22314056 22348122 22393098 22452214 
2810.009 22529754 22631036 22761490 22923320 23115514 23331164 23560034 
2813.384 23789978 24010434 24213978 24400212 24573972 24745246 24927262 
2816.759 25134516 25379802 25671168 26012006 26399430 26826058 27281540 
2820.135 27756928 28246148 28750558 29275730 29831770 30428412 31074180 
2823.510 31771772 32520324 33316034 34155924 35039520 35970236 36953012 
2826.885 37992640 39089672 40241876 41442936 42686512 43969832 45296364 
2830.260 46675996 48121800 49647516 51261112 52964640 54751932 56610420 
2833.635 58526372 60484884 62473340 64482176 66502192 68525368 70544952 
2837.011 72555152 74555192 76547008 78537968 80535592 82546056 84569592 
2840.386 86598704 88618160 90606592 92540424 94397040 96156544 97804200 
2843.761 99328224 100720672 101975288 103089120 104059688 104886960 
2846.654 105571216 106112976 106510752 106764648 106874920 106845680 
2849.547 106685808 106409816 106035144 105580312 105058840 104480712 
2852.440 103847336 103158240 102412800 101614704 100771976 99897536 99003464 
2855.816 98099200 97187016 96264184 95324656 94363688 93381720 92385096 
2859.191 91384176 90390984 89412544 88451840 87505704 86569168 85637480 
2862.566 84710760 83793392 82894128 82023528 81192144 80409856 79685208 
2865.941 79026296 78440064 77930752 77498720 77137576 76836128 76579456 
2869.317 76355488 76156456 75985784 75855104 75782736 75786960 75882400 
2872.692 76074904 76360872 76730128 77167376 77656792 78184904 78739960 
2876.067 79315656 79910088 80527632 81179672 81881416 82650296 83500672 
2879.442 84437584 85455304 86539192 87666944 88817800 89977744 91142128 
2882.818 92314392 93500688 94705488 95925928 97152480 98373496 99580216 
2886.193 100770968 101955304 103149648 104372120 105638496 106955224 
2889.086 108321528 109730672 111174080 112643536 114132600 115635816 
2891.979 117146352 118656856 120160536 121654984 123144752 124641936 
2894.872 126163408 127725480 129338144 131001800 132709848 134453760 
2897.765 136229136 138042704 139911376 141858384 143904864 146061312 
2900.658 148322608 150667760 153066672 155488064 157909104 160319904 
2903.551 162724432 165136640 167576816 170065232 172619008 175249488 
2906.444 177962144 180753536 183611280 186513376 189429728 192328816 
2909.337 195180800 197966880 200681424 203332592 205935888 208507712 
2912.230 211055168 213572576 216041712 218433648 220719856 222877376 
2915.124 224893280 226767648 228507152 230122400 231619840 233000064 
2918.017 234254816 235369104 236324048 237099120 237677120 238047728 
2920.910 238206032 238158800 237918896 237505904 236942064 236248688 
2923.803 235442304 234535184 233533056 232440448 231262512 230005392 
2926.696 228680512 227301120 225879632 224427440 222948944 221442320 
2929.589 219900368 218312112 216664544 214946512 213150736 211276976 
2932.482 209329264 207319184 205260848 203170240 201061344 198944416 
2935.375 196823248 194695936 192554928 190389024 188186320 185934720 
2938.268 183624096 181247568 178803632 176296336 173736784 171143968 
2941.161 168541632 165954960 163406880 160911568 158471840 156079008 
2944.054 153714304 151355872 148982912 146582464 144151840 141698496 
2946.947 139237472 136787856 134365744 131983536 129647088 127354608 
2949.840 125100536 122877536 120679400 118504000 116352664 114232152 
2952.733 112149024 110108608 108110752 106148888 104210024 102279040 
2955.626 100341664 98390224 96425016 94456096 92498768 90570712 88688136 
2959.002 86863544 85104576 83415904 81799280 80257064 78789568 77395296 
2962.377 76069464 74803600 73587120 72409648 71264752 70150176 69068984 
2965.752 68028128 67035532 66098420 65223128 64413996 63673832 63004600 
2969.127 62405916 61874012 61399960 60970908 60572596 60193384 59826428 
2972.503 59473584 59144448 58851060 58604268 58408872 58259856 58146064 
2975.878 58051524 57962232 57867752 57764996 57653132 57533708 57404672 
2979.253 57259496 57088816 56883116 56636004 56347716 56025236 55682932 
2982.628 55337328 55006224 54702336 54433576 54202516 54006184 53838468 
2986.004 53692488 53561012 53440536 53330964 53233856 53154868 53099888 
2989.379 53074200 53084108 53134152 53229544 53378352 53589600 53873296 
2992.754 54239932 54696868 55247772 55891956 56627756 57451520 58362728 
2996.129 59363584 60457344 61645336 62924304 64281196 65693112 67126960 
2999.505 68543872 69902656 71163936 72294832 73270816 74075688 74701784 
3002.880 75149184 75421752 75526864 75472224 75267064 74920016 74442008 
3006.255 73847336 73155400 72392120 71587976 70776632 69990352 69258752 
3009.630 68605320 68047488 67598248 67266000 67059448 66986472 67054972 
3013.006 67274296 67652264 68197912 68919864 69827624 70932136 72245688 
3016.381 73782224 75558832 77594936 79912368 82533208 85477848 88756864 
3019.756 92365360 96278184 100445480 104792792 109228440 113649400 117954016 
3023.131 122045744 125839920 129261848 132246880 134735840 136676096 
3026.024 138023504 138745584 138829232 138279920 137124688 135407904 
3028.917 133184832 130517824 127469928 124105032 120486424 116678496 
3031.811 112747512 108758200 104773600 100850072 97034512 93361264 89853304 
3035.186 86522752 83374008 80406312 77615552 74994072 72531920 70215120 
3038.561 68028552 65958208 63993840 62133580 60385460 58766248 57296388 
3041.936 55994460 54868352 53909824 53096436 52394736 51769640 51197296 
3045.312 50671356 50205208 49829424 49580944 49490788 49577040 49839576 
3048.687 50261184 50816788 51479092 52228548 53053548 53952584 54928600 
3052.062 55986636 57130824 58362592 59681172 61081460 62555140 64085728 
3055.437 65649360 67214992 68747976 70214192 71585184 72842080 73973152 
3058.813 74970304 75826832 76529416 77061088 77401456 77529984 77431216 
3062.188 77097816 76529544 75735168 74727792 73529760 72168112 70679584 
3065.563 69106784 67495848 65890408 64326740 62829004 61410184 60074040 
3068.938 58821156 57652756 56571628 55581400 54684236 53876312 53151972 
3072.313 52503724 51929148 51432944 51026820 50725432 50539868 50471916 
3075.689 50513808 50651712 50873636 51175332 51564600 52054612 52658052 
3079.064 53374996 54186584 55054504 55928560 56756388 57492564 58103084 
3082.439 58564060 58853576 58948080 58817860 58434376 57777048 56845172 
3085.814 55662032 54274148 52741228 51123416 49469172 47810216 46162544 
3089.190 44533644 42929060 41361384 39848432 38411864 37070000 35834072 
3092.565 34706040 33682112 32753590 31914752 31161280 30492754 29909706 
3095.940 29411344 28996870 28664360 28413160 28243158 28154262 28144276 
3099.315 28206226 28328812 28495090 28688202 28889692 29085598 29263632 
3102.691 29414424 29528816 29598570 29614940 29570546 29460202 29282012 
3106.066 29035758 28723120 28348652 27918144 27441718 26934738 26416446 
3109.441 25906390 25421146 24969102 24547508 24144594 23744510 23332462 
3112.816 22900796 22451728 21994594 21543664 21109726 20699580 20313750 
3116.192 19950222 19605124 19276976 18965986 18671942 18392008 18122206 
3119.567 17856772 17594344 17341418 17112126 16926682 16804772 16757298 
3122.942 16781156 16858448 16960504 17055680 17119120 17136444 17108462 
3126.317 17044914 16962260 16875280 16794998 16728226 16677910 16644800 
3129.693 16628888 16627356 16636321 16648544 16656362 16651466 16631128 
3133.068 16596172 16551854 16505741 16462868 16425764 16392440 16358996 
3136.443 16322495 16283769 16247349 16219232 16204465 16204221 16213762 
3139.818 16224777 16229272 16222496 16206663 16190609 16187826 16209910 
3143.194 16262453 16342739 16439816 16535554 16611820 16653400 16653102 
3146.569 16611440 16537044 16442582 16341336 16244501 16159996 16091729 
3149.944 16040867 16007520 15991801 15992982 16009903 16039196 16073568 
3153.319 16103929 16120033 16114142 16084140 16034665 15976500 15924035 
3156.695 15891654 15889427 15920114 15980447 16062405 16157202 16257649 
3160.070 16358454 16458232 16553812 16643059 16721206 16783790 16827614 
3163.445 16853418 16864582 16866832 16863884 16856684 16840460 16808932 
3166.820 16754987 16677342 16580980 16478859 16386595 16320020 16288817 
3170.196 16295969 16335974 16397148 16466210 16528599 16571429 16581075 
3173.571 16547840 16462656 16322961 16135551 15917670 15697950 15509808 
3176.946 15384966 15344079 15390590 15510812 15677096 15855808 16018720 
3180.321 16147260 16237678 16295807 16332092 16354732 16366385 16362356 
3183.697 16334092 16275294 16183171 16062196 15922837 15777038 15637085 
3187.072 15513229 15413265 15343077 15308011 15310433 15349824 15418937 
3190.447 15505177 15591128 15661066 15706111 15727310 15736638 15752712 
3193.822 15794476 15872223 15984260 16118078 16253879 16373120 16465297 
3197.198 16529631 16574688 16610967 16644038 16671864 16684568 16668089 
3200.573 16613722 16521024 16402222 16277172 16166154 16084097 16035410 
3203.948 16014200 16008986 16008064 16006285 16006006 16014107 16038226 
3207.323 16079659 16132180 16182026 16214035 16215181 16181685 16119340 
3210.698 16044067 15976200 15935224 15935892 15983611 16075714 16199945 
3214.074 16338123 16469028 16571954 16630717 16636122 16588902 16497878 
3217.449 16379546 16252346 16134284 16036805 15966702 15924960 15911484 
3220.824 15926169 15970549 16047223 16156213 16293226 16446929 16600262 
3224.199 16733550 16828824 16874384 16866524 16809328 16712956 16589729 
3227.575 16452193 16311491 16177360 16059112 15966596 15907284 15887357 
3230.950 15906511 15958263 16030068 16105365 16168226 16207699 16220955 
3234.325 16214484 16200203 16193077 16203297 16234566 16279403 16323818 
3237.700 16350884 16346265 16305169 16232686 16144548 16059430 15994925 
3241.076 15960380 15955258 15969580 15990321 16006608 16014423 16018325 
3244.451 16028967 16054621 16101053 16164036 16231066 16286362 16315775 
3247.826 16312536 16278921 16224174 16162550 16107228 16067792 16049584 
3251.201 16053058 16076358 16114816 16161680 16206920 16236911 16238989 
3254.577 16202457 16126098 16019391 15905026 15810598 15764270 15783304 
3257.952 15868379 16002072 16153069 16284572 16366305 16380416 16329834 
3261.327 16233547 16121607 16026044 15970904 15966376 16006246 16071832 
3264.702 16137987 16182167 16191781 16167685 16123982 16082574 16065566 
3268.078 16086550 16147304 16237656 16340423 16439278 16525013 16598828 
3271.453 16669596 16748507 16839290 16935044 17017114 17060674 17042768 
3274.828 16952928 16797404 16597603 16386677 16198339 16060377 15987836 
3278.203 15984260 16041318 16144324 16273968 16411355 16537800 16636353 
3281.579 16696217 16712537 16687701 16631937 16557114 16475670 16394319 
3284.954 16314708 16235739 16155759 16076859 16005982 15950395 15914399 
3288.329 15893931 15877418 15848123 15791591 15704297 15596151 15487647 
3291.704 15404148 15363073 15369290 15412239 15472407 15528956 15571504 
3295.080 15601485 15631586 15676046 15743382 15831279 15925502 16009597 
3298.455 16070290 16104693 16121088 16133063 16151566 16179584 16211040 
3301.830 16234100 16240451 16229767 16213870 16209595 16232777 16290182 
3305.205 16374301 16467087 16546275 16593909 16604196 16581122 16537635 
3308.581 16486377 16436104 16389698 16345385 16300954 16259503 16226476 
3311.956 16208639 16210111 16225792 16245805 16255278 16242316 16203027 
3315.331 16142290 16072424 16007766 15958758 15927849 15909826 15895352 
3318.706 15877429 15851606 15821105 15794264 15779538 15784610 15812606 
3322.082 15860638 15921818 15986912 16046129 16090108 16112711 16110817 
3325.457 16087193 16047405 16000811 15958104 15926978 15910557 15907845 
3328.832 15914610 15926726 15943313 15967041 16004499 16060498 16136715 
3332.207 16227357 16320603 16400030 16449992 16461642 16433069 16370628 
3335.583 16285928 16193500 16106410 16036294 15991207 15975738 15991468 
3338.958 16035160 16099006 16171267 16236944 16283842 16303767 16296489 
3342.333 16268382 16230408 16193319 16164737 16145218 16130291 16112106 
3345.708 16084613 16045569 15998105 15948946 15907397 15880754 15872275 
3349.083 15880393 15899174 15919866 15934387 15936457 15923595 15898939 
3352.459 15869785 15846238 15837621 15849670 15880037 15920188 15956419 
3355.834 15974451 15964715 15926642 15867645 15801996 15742855 15697420 
3359.209 15663449 15629806 15581525 15506336 15403782 15284772 15172378 
3362.584 15093843 15074167 15125757 15247079 15420150 15617744 15807979 
3365.960 15963906 16068809 16118368 16122708 16100308 16072486 16057635 
3369.335 16064562 16090453 16121656 16139094 16124913 16069956 15977597 
3372.710 15864203 15752824 15667176 15622073 15620237 15652418 15701681 
3376.085 15748808 15780684 15790969 15781458 15758032 15727470 15695540 
3379.461 15667340 15647275 15641471 15655590 15693037 15751788 15821319 
3382.836 15885888 15928492 15935067 15901294 15833050 15743816 15649233 
3386.211 15561316 15483702 15415593 15352117 15293960 15247582 15227287 
3389.586 15248970 15324681 15455134 15629008 15823053 16009908 16164225 
3392.962 16267793 16313301 16304364 16251190 16168091 16070079 15972042 
3396.337 15886383 15822545 15785651 15777199 15792411 15825836 15868951 
3399.712 15917312 15968539 16022854 16081512 16142929 16203105 16254872 
3403.087 16291372 16309869 16311042 16301947 16290795 16283749 16283199 
3406.463 16284937 16280508 16263295 16230434 16185235 16135689 16093319 
3409.838 16065558 16057666 16068161 16093513 16128697 16169721 16214188 
3413.213 16260609 16305218 16345033 16375249 16394040 16401501 16403245 
3416.588 16405104 16414514 16433090 16460139 16489606 16516330 16536757 
3419.964 16551809 16566519 16585816 16611310 16639903 16661629 16665809 
3423.339 16643383 16592616 16520841 16442167 16372766 16326183 16306678 
3426.714 16309315 16320452 16324125 16304830 16254297 16173197 16071402 
3430.089 15962696 15863383 15786111 15740300 15728721 15751965 15807856 
3433.465 15894238 16008247 16144378 16292987 16436124 16553074 16620787 
3436.840 16624499 16562691 16451459 16324889 16224207 16188353 16238896 
3440.215 16375300 16572382 16790878 16989972 17140698 17236554 17287322 
3443.590 17316058 17342378 17373902 17402544 17407752 17368492 17274926 
3446.966 17133404 16967358 16808104 16683249 16607473 16576631 16574671 
3450.341 16579298 16573178 16550751 16518371 16490960 16484240 16507829 
3453.716 16562080 16638681 16724570 16805852 16870490 16910710 16923376 
3457.091 16909754 16876080 16832206 16792720 16772347 16782800 16828028 
3460.467 16902724 16992054 17076542 17137506 17163446 17152374 17112402 
3463.842 17056400 16997944 16947602 16910366 16887174 16877792 16880142 
3467.217 16892130 16909816 16926810 16933810 16923960 16893878 16848442 
3470.592 16800784 16768232 16766140 16802202 16871550 16959302 17045570 
3473.968 17111146 17147054 17153508 17139468 17118666 17101354 17093124 
3477.343 17095144 17106024 17126226 17160308 17213522 17289958 17386130 
3480.718 17491662 17588600 17657792 17685450 17667938 17613172 17536442 
3484.093 17454676 17382116 17324368 17281560 17248204 17221614 17200740 
3487.469 17188744 17189136 17203902 17230600 17261862 17290912 17312602 
3490.844 17328096 17346286 17380860 17446112 17550952 17696692 17872704 
3494.219 18060498 18234186 18368560 18443190 18449132 18388356 18278544 
3497.594 18148776 18034226 17967742 17972916 18055294 18202006 18381056 
3500.969 18553008 18677936 18729370 18699410 18601294 18462390 18317704 
3504.345 18196492 18116620 18080446 18077874 18091648 18105070 18105794 
3507.720 18090998 18063254 18030096 18000338 17984336 17989632 18024940 
3511.095 18093924 18198254 18330288 18474858 18610292 18713716 18766376 
3514.470 18764588 18718708 18653716 18600972 18587484 18626360 18711138 
3517.846 18818480 18914762 18969412 18964454 18899046 18788752 18658478 
3521.221 18531962 18426202 18347468 18293874 18262000 18252214 18270308 
3524.596 18324926 18423294 18563192 18734130 18913878 19079028 19208734 
3527.971 19292322 19330120 19331458 19307692 19270300 19224844 19174520 
3531.347 19122050 19074780 19044798 19046568 19092310 19186198 19320906 
3534.722 19478792 19635190 19766018 19851668 19882744 19857796 19782614 
3538.097 19665744 19516432 19344058 19158004 18967880 18784738 18616766 
3541.472 18469782 18342848 18232272 18131062 18035176 17945918 17870070 
3544.848 17818914 17803868 17830300 17897148 17993624 18105822 18218774 
3548.223 18323440 18415998 18501212 18584308 18671000 18761892 18851260 
3551.598 18928744 18981118 18995964 18965296 18884198 18756124 18588334 
3554.973 18393578 18187590 17988366 17810806 17669102 17568018 17508526 
3558.349 17482518 17479518 17489166 17502388 17515498 17528726 17545298 
3561.724 17569398 17602214 17644594 17695224 17753390 17817192 17885788 
3565.099 17954046 18015276 18056560 18062948 18021030 17924336 17778956 
3568.474 17603294 17424854 17274728 17177792 17144352 17166524 17222444 
3571.850 17280052 17312066 17298604 17238686 17145592 17043020 16956950 
3575.225 16907026 16901280 16937218 17002280 17079580 17151876 17206566 
3578.600 17233580 17230630 17198532 17144604 17080464 17020748 16979496 
3581.975 16966180 16979506 17007712 17027886 17015774 16950468 16825476 
3585.351 16653514 16462196 16287057 16163763 16111294 16134478 16218329 
3588.726 16339939 16475284 16607676 16732899 16854316 16978060 17108462 
3592.101 17239632 17363144 17465270 17538048 17580502 17600446 17609070 
3595.476 17619262 17636808 17661588 17686612 17702968 17703170 17683958 
3598.852 17645812 17593058 17529080 17457362 17380682 17302178 17226430 
3602.227 17162854 17119050 17102030 17111200 17140290 17174216 17194508 
3605.602 17184488 17133760 17041464 16919064 16784926 16664295 16579039 
3608.977 16546816 16576339 16665827 16805036 16978156 17166700 17353868 
3612.353 17523800 17664616 17766498 17822390 17828766 17787902 17707900 
3615.728 17606556 17509192 17444280 17437152 17504318 17645330 17845928 
3619.103 18076564 18306324 18504864 18653714 18746766 18789576 18791470 
3622.478 18764214 18715208 18652340 18583018 18520244 18480054 18481418 
3625.854 18537722 18652522 18814174 19000092 19179756 19326018 19421334 
3629.229 19462746 19460340 19431142 19390858 19350562 19312690 19276518 
3632.604 19239238 19203776 19177810 19175356 19208374 19288458 19416612 
3635.979 19587982 19788694 20000104 20201220 20372622 20497804 20567330 
3639.354 20580316 20546146 20480930 20405930 20340686 20299014 20282878 
3642.730 20288006 20302798 20320036 20337402 20362842 20407618 20484956 
3646.105 20598174 20739458 20890098 21027808 21133720 21202174 21241000 
3649.480 21271748 21315372 21387572 21487870 21599358 21695798 21748714 
3652.855 21735880 21650400 21497410 21295928 21067906 20835690 20616208 
3656.231 20422462 20259860 20132082 20037168 19972180 19929150 19899862 
3659.606 19875226 19847392 19814396 19778932 19745182 19717682 19697058 
3662.981 19679378 19655180 19618192 19564974 19502272 19442022 19401298 
3666.356 19393770 19423866 19482386 19552116 19607836 19628630 19601916 
3669.732 19530022 19424636 19304454 19186710 19083230 18996592 18925700 
3673.107 18865012 18814034 18777092 18760710 18772410 18815042 18884182 
3676.482 18969120 19053592 19122428 19162918 19166662 19128344 19046466 
3679.857 18919050 18747560 18534960 18291496 18032332 17777334 17546618 
3683.233 17356460 17214016 17117934 17058970 17027270 17014194 17017656 
3686.608 17037658 17074700 17124850 17175994 17209988 17208654 17159750 
3689.983 17063880 16935862 16800164 16685566 16613957 16594250 16622748 
3693.358 16685257 16762871 16839394 16907282 16965786 17022322 17084574 
3696.734 17160334 17251472 17356756 17469874 17582538 17682840 17761492 
3700.109 17807312 17815210 17784926 17725488 17652772 17587352 17546108 
3703.484 17538472 17559734 17595770 17622012 17616732 17567638 17476070 
3706.859 17357920 17237386 17136446 17070256 17038820 17028740 17018284 
3710.235 16986578 16918716 16814308 16682664 16544292 16421052 16331593 
3713.610 16288100 16294688 16347403 16439797 16561072 16703414 16858120 
3716.985 17019104 17181264 17340120 17492680 17636572 17770176 17891486 
3720.360 17998748 18088844 18159016 18205638 18225084 18217964 18186642 
3723.736 18137342 18080672 18028228 17990128 17975232 17985296 18017586 
3727.111 18063874 18115164 18161228 18196056 18216526 18222256 18213614 
3730.486 18191596 18156442 18109282 18049230 17979538 17903330 17825350 
3733.861 17747856 17671222 17594444 17515148 17435834 17362136 17305188 
3737.237 17276758 17285122 17330538 17400008 17471374 17518212 17516964 
3740.612 17456836 17344326 17200600 17059478 16953168 16907986 16933600 
3743.987 17024528 17162244 17324212 17490126 17649196 17797652 17939262 
3747.362 18074262 18199642 18303460 18371128 18387564 18347586 18256582 
3750.738 18135150 18012186 17918990 17880316 17907506 17996052 18128512 
3754.113 18276240 18410302 18506536 18548428 18528278 18450096 18323430 
3757.488 18164642 17992356 17828356 17691272 17595206 17546210 17540780 
3760.863 17563812 17599066 17627152 17638228 17630282 17613762 17601902 
3764.239 17607814 17633392 17671338 17704626 17714712 17690362 17632572 
3767.614 17555968 17482126 17431106 17413144 17422314 17441586 17448740 
3770.989 17427862 17376546 17309806 17252274 17233130 17271086 17372616 
3774.364 17526502 17711036 17900314 18071194 18206714 18298620 18344618 
3777.740 18347594 18314744 18257578 18192174 18140682 18123494 18158860 
3781.115 18251874 18395086 18566988 18738064 18879024 18967152 18993664 
3784.490 18964628 18897150 18816712 18747934 18712762 18724028 18787462 
3787.865 18896230 19036780 19185122 19313822 19394668 19405776 19338602 
3791.240 19199998 19013834 18814430 18639270 18520514 18473424 18497636 
3794.616 18574240 18675026 18768466 18830006 18845628 18817736 18760060 
3797.991 18693968 18640214 18614446 18618974 18647314 18682276 18706302 
3801.366 18705870 18679068 18636718 18599452 18587158 18614876 18682500 
3804.741 18776154 18870472 18940080 18969392 18958016 18921758 18886894 
3808.117 18877164 18903422 18958278 19018006 19048886 19023202 18926116 
3811.492 18765146 18565326 18362414 18190894 18074018 18018436 18015604 
3814.867 18046246 18090954 18134782 18171970 18207254 18249832 18309302 
3818.242 18391818 18497766 18621922 18753026 18881484 18995902 19088450 
3821.618 19153880 19191010 19198810 19180220 19137402 19074836 18997518 
3824.993 18915056 18837322 18777132 18746290 18752884 18796288 18868690 
3828.368 18951118 19018944 19047392 19017574 18922162 18771146 18586858 
3831.743 18403448 18255436 18171078 18162578 18226628 18339760 18472324 
3835.119 18588098 18660344 18674898 18633414 18553480 18461062 18383538 
3838.494 18342128 18344176 18385578 18449760 18518080 18572390 18603422 
3841.869 18609616 18600236 18584420 18571686 18565776 18563854 18559354 
3845.244 18547128 18524714 18499848 18481680 18483478 18512222 18565978 
3848.620 18631870 18688756 18712892 18688150 18609472 18487432 18345504 
3851.995 18211938 18113576 18065644 18069066 18111470 18171570 18230266 
3855.370 18272446 18295398 18302336 18302556 18304456 18311916 18324156 
3858.745 18338336 18351742 18365800 18386458 18422766 18482624 18570310 
3862.121 18681186 18802834 18918310 19009610 19061704 19067966 19031232 
3865.496 18964568 18885198 18815264 18772264 18769682 18809212 18884140 
3868.871 18978536 19073346 19150160 19199106 19217712 19215048 19202650 
3872.246 19192844 19190560 19193858 19193520 19180852 19150258 19105762 
3875.622 19058268 19022586 19011182 19027968 19066452 19115218 19159054 
3878.997 19188214 19200348 19200524 19195498 19189560 19178938 19154262 
3882.372 19102524 19014080 18886848 18728492 18553202 18378404 18219848 
3885.747 18092106 18005856 17973726 18007590 18118662 18309724 18572364 
3889.123 18880196 19194674 19469914 19667406 19765580 19765550 19688812 
3892.498 19568216 19435596 19314046 19214002 19136256 19080548 19050278 
3895.873 19054986 19105912 19208036 19356820 19532040 19705102 19845676 
3899.248 19931920 19955432 19921942 19844510 19738816 19615706 19481464 
3902.624 19341308 19203620 19082254 18996052 18959546 18979290 19047192 
3905.999 19142072 19237896 19313066 19358266 19382394 19404172 19447434 
3909.374 19527924 19648662 19797620 19954362 20096600 20210292 20288340 
3912.749 20335444 20356454 20357910 20341914 20310554 20264878 20213286 
3916.125 20164832 20133174 20125146 20139838 20165174 20182238 20168954 
3919.500 20110988 20002942 19854928 19685862 19519266 19378146 19278924 
3922.875 19229508 19231214 19278276 19361128 19469382 19589642 19708624 
3926.250 19813952 19895888 19949802 19975162 19979720 19972162 19965922 
3929.625 19972058 19998224 20048904 20122922 20213834 20313600 20411156 
3933.001 20494762 20555572 20586854 20586866 20559306 20510098 20447020 
3936.376 20377858 20306698 20234074 20158400 20076768 19988516 19893384 
3939.751 19794400 19697250 19607344 19529572 19469086 19429064 19414530 
3943.126 19426812 19467378 19532276 19614638 19701126 19776660 19826424 
3946.502 19840618 19815792 19756694 19674026 19581818 19494356 19426328 
3949.877 19388068 19391362 19445886 19560810 19740000 19977412 20254924 
3953.252 20541300 20795840 20978994 21059810 21027888 20896058 20699604 
3956.627 20484546 20299050 20176414 20132830 20160760 20238336 20335578 
3960.003 20426078 20491372 20524946 20529568 20514396 20487004 20455348 
3963.378 20421830 20387766 20351566 20310978 20263730 20208496 20145540 
3966.753 20079508 20019184 19975602 19961138 19982986 20040092 20121832 
3970.128 20208518 20280318 20322722 20334772 20328456 20326928 20352832 
3973.504 20421246 20528046 20654870 20770802 20845708 20860634 20815028 
3976.879 20725404 20621494 20531834 20478570 20466778 20490070 20531516 
3980.254 20573902 20603224 20615864 20613018 20602166 20588902 20577774 
3983.629 20568376 20556572 20535684 20500356 20447120 20376764 20296640 
3987.005 20221444 20169354 20160432 20208594 20318274 20478142 20666156 
3990.380 20852226 21009186 21119478 21180670 21202508 21201184 21188344 
3993.755 21166658 21124606 21044764 20911586 20722654 20494570 20261916 
3997.130 20067946 19954470 19947096 20049206 20239816 20482248 20731880 
4000.506 20948336 
##END=
