##TITLE=Tecor_PETG_White_Filament_r3_ATR-Corrected
##JCAMP-DX=5.01  $$ Nicolet v. 1
##DATATYPE=INFRARED SPECTRUM
##ORIGIN=Curtin University
##OWNER=Nicolet
##LONGDATE=2024/07/19
##TIME=09:25:25
##SPECTROMETER/DATA SYSTEM=Nicolet iS50
##DATA PROCESSING=
Ratio against background
%Transmittance->Absorbance
ATR Correction
Truncated
ElementMultiply or ElementDivide
##COMMENTS=
Number of sample scans: 32
Collection length: 47.28 sec
Sample gain: 1.0
Background collected on: Fri Jul 19 09:24:01 2024 (GMT+08:00);
Number of background scans: 32
Background gain: 1.0
Sample spacing:  1.000
Number of scan points: 16672
Resolution points: 8192
Number of FFT points: 65536
Apodization: N-B strong;
Phase correction: Mertz;
Laser frequency: 15798.3 cm-1
Number of rejected sample scans: 0
Number of rejected background scans: 0
Bench serial number: AUP1200105;
##RESOLUTION=4.000
##XUNITS=1/CM
##YUNITS=ABSORBANCE
##FIRSTX=400.163452
##LASTX=4000.187744
##FIRSTY=0.038593
##MAXX=4000.187744
##MINX=400.163452
##MAXY=1.481060
##MINY=-0.021921
##XFACTOR=1.000000
##YFACTOR=1.000000E-008
##NPOINTS=7468
##DELTAX=0.482125
##ZPD=8192
##XYDATA=(X++(Y..Y))
400.163 3859286 3818299 3798883 3801927 3824243 3858966 3896382 3925791 
404.020 3937356 3924950 3887962 3832112 3768070 3708663 3664840 3642725 
407.877 3642082 3657375 3679963 3701160 3714370 3716319 3706798 3688098 
411.734 3664045 3639787 3621368 3615345 3627478 3661140 3715275 3783887 
415.591 3856584 3921439 3968290 3992138 3994557 3983190 3968859 3961891 
419.448 3968704 3990541 4024203 4064696 4107817 4152213 4199236 4251766 
423.305 4311701 4378340 4447443 4512193 4564770 4598706 4610160 4598792 
427.162 4567309 4520648 4464883 4406395 4351186 4304615 4270955 4253141 
431.019 4252271 4267652 4296666 4335185 4378360 4420836 4457369 4483627 
434.876 4496672 4495740 4482529 4461183 4437367 4416989 4404422 4401313 
438.733 4405851 4413492 4418124 4414050 4397505 4367698 4326689 4278734 
442.590 4228924 4182073 4141718 4109714 4086189 4069765 4057939 4047757 
446.447 4036311 4021748 4003729 3983754 3964639 3949518 3940328 3936923 
450.304 3936697 3935616 3929796 3917441 3899866 3881482 3868112 3864820 
454.161 3873643 3892685 3916560 3938373 3952206 3955331 3949015 3937960 
458.017 3928329 3925525 3932248 3947844 3968811 3990263 4007449 4017093 
461.874 4017852 4010239 3995986 3977338 3956839 3936858 3919521 3906785 
465.731 3900223 3900966 3909475 3925472 3947819 3974649 4003360 4030979 
469.588 4054413 4071074 4079427 4079545 4073293 4064114 4056114 4053059 
473.445 4057144 4068477 4085071 4103709 4121114 4135130 4145318 4153001 
477.302 4160451 4170018 4183210 4200299 4220434 4242168 4263981 4284781 
481.159 4303930 4321247 4336751 4350733 4363779 4377053 4392272 4411540 
485.016 4436770 4469122 4508475 4553422 4601687 4650957 4699731 4747929 
488.873 4796937 4849122 4907050 4972628 5046604 5128604 5217525 5312283 
492.730 5412189 5517271 5627960 5744484 5866436 5992330 6119614 6245114 
496.587 6365554 6478143 6580784 6672035 6750799 6815947 6866108 6899728 
500.444 6915278 6911673 6888529 6846270 6785927 6708929 6616789 6511127 
504.301 6393703 6266743 6133123 5996352 5860276 5728619 5604351 5489365 
508.158 5384385 5289215 5203227 5125796 5056520 4995221 4941600 4894987 
512.015 4854122 4817282 4782629 4748690 4714718 4680856 4647854 4616761 
515.871 4588376 4563025 4540367 4519614 4499715 4479633 4458447 4435522 
519.728 4410438 4383203 4354217 4324356 4294855 4267014 4241786 4219392 
523.585 4199052 4179140 4157627 4132701 4103371 4069833 4033334 3995830 
527.442 3959273 3925132 3894047 3865912 3840105 3815892 3792594 3769707 
531.299 3746689 3722839 3697158 3668454 3635564 3597726 3554802 3507441 
535.156 3456918 3404985 3353486 3304069 3257962 3215846 3177885 3143847 
539.013 3113287 3085777 3061034 3038999 3019686 3002980 2988342 2974729 
542.870 2960663 2944655 2925692 2903760 2880027 2856643 2836067 2820273 
546.727 2810013 2804527 2801774 2799175 2794355 2785980 2773807 2758532 
550.584 2741073 2721970 2701067 2677565 2650579 2619799 2585962 2551011 
554.441 2517626 2488644 2466174 2451241 2443355 2440931 2441674 2443230 
558.298 2443643 2441712 2437033 2429985 2421434 2412448 2403964 2396509 
562.155 2390077 2384173 2378036 2371006 2362809 2353778 2344724 2336692 
566.012 2330455 2326277 2323737 2321924 2319867 2316925 2313062 2308811 
569.869 2304934 2301992 2299924 2297982 2294894 2289336 2280407 2268067 
573.725 2253207 2237506 2223046 2211876 2205631 2205308 2211077 2222364 
577.582 2237825 2255583 2273430 2289221 2301178 2308282 2310368 2308158 
581.439 2302992 2296525 2290380 2285967 2284435 2286694 2293515 2305492 
585.296 2322917 2345540 2372380 2401665 2430922 2457324 2478145 2491200 
589.153 2495205 2489977 2476493 2456743 2433402 2409463 2387664 2370035 
593.010 2357518 2349864 2345864 2343866 2342363 2340626 2338806 2337822 
596.867 2338759 2342191 2347706 2353866 2358578 2359971 2357101 2350475 
600.724 2341924 2334030 2329192 2328860 2333135 2340956 2350637 2360674 
604.581 2370193 2379080 2387658 2396181 2404403 2411495 2416300 2417968 
608.438 2416373 2412476 2408105 2405457 2406431 2412124 2422597 2437032 
612.295 2454098 2472430 2490901 2508738 2525430 2540591 2553871 2564985 
616.152 2573819 2580561 2585736 2590138 2594725 2600479 2608271 2618852 
620.009 2632789 2650475 2671979 2697024 2724915 2754629 2785107 2815501 
623.866 2845463 2875257 2905704 2938118 2974214 3016257 3067225 3131006 
627.723 3212056 3314546 3440849 3589631 3754327 3922502 4076889 4198112 
631.579 4268716 4277356 4221834 4109873 3957262 3784123 3610462 3452411 
635.436 3320095 3217342 3142913 3092566 3061102 3043839 3037229 3038797 
639.293 3046688 3059271 3074952 3092242 3109940 3127305 3144036 3160119 
643.150 3175698 3191035 3206534 3222828 3240806 3261359 3285149 3312179 
647.007 3341686 3372290 3402413 3430880 3457381 3482660 3508255 3536003 
650.864 3567400 3603177 3643135 3686318 3731342 3776756 3821170 3863306 
654.721 3901892 3935669 3963519 3984731 3999325 4008214 4013127 4016310 
658.578 4020022 4026182 4036091 4050492 4069720 4093959 4123354 4157957 
662.435 4197560 4241525 4288743 4337773 4387133 4435656 4482708 4528283 
666.292 4572867 4617198 4662086 4708205 4756119 4806244 4858907 4914334 
670.149 4972566 5033478 5096758 5162130 5229465 5299041 5371546 5447997 
674.006 5529460 5616681 5709819 5808253 5910548 6014662 6118159 6218442 
677.863 6312971 6399415 6475769 6540515 6592706 6632048 6658971 6674546 
681.720 6680418 6678614 6671481 6661530 6651361 6643507 6640271 6643517 
685.577 6654490 6673741 6701188 6736351 6778608 6827508 6882918 6945062 
689.433 7014427 7091637 7177322 7272096 7376636 7491695 7618165 7757067 
693.290 7909406 8076101 8257918 8455443 8669099 8899129 9145549 9407957 
697.147 9685410 9976333 10278572 10589681 10907195 11229014 11553472 
700.522 11879320 12205509 12530901 12854214 13174108 13489547 13800222 
703.897 14106809 14410982 14715062 15021436 15332022 15647908 15969443 
707.272 16296673 16629997 16970866 17322240 17688854 18077052 18494574 
710.647 18950508 19455082 20019792 20657568 21382852 22211508 23160558 
714.021 24247654 25490340 26905190 28506860 30306974 32312986 34527044 
717.396 36944856 39554776 42337108 45263432 48296140 51387340 54476900 
720.771 57489644 60332020 62889920 65030956 66614936 67514224 67641280 
724.146 66973744 65564944 63533844 61038612 58246160 55307616 52344328 
727.521 49443736 46661540 44027332 41551236 39230400 37054544 35010000 
730.896 33082432 31258118 29524436 27869678 26282846 24753694 23272978 
734.270 21833076 20428592 19056810 17717942 16414990 15153284 13939774 
737.645 12782143 11687960 10663864 9714895 8844058 8052162 7337941 6698333 
741.502 6129134 5625425 5182129 4794312 4457279 4166470 3917291 3704965 
745.359 3524523 3370908 3239284 3125313 3025363 2936689 2857374 2786306 
749.216 2722956 2667251 2619353 2579482 2547709 2523809 2507211 2497059 
753.073 2492372 2492286 2496216 2503937 2515422 2530627 2549194 2570318 
756.930 2592738 2615001 2635762 2654147 2669838 2683088 2694479 2704648 
760.787 2714137 2723356 2732714 2742773 2754319 2768326 2785701 2807045 
764.644 2832407 2861297 2892828 2926004 2960012 2994363 3028862 3063387 
768.501 3097705 3131235 3163157 3192451 3218196 3239747 3256818 3269414 
772.358 3277773 3282233 3283185 3281181 3277028 3271864 3267179 3264584 
776.214 3265624 3271531 3283151 3300965 3325234 3356217 3394278 3439839 
780.071 3493231 3554517 3623334 3698960 3780548 3867524 3959931 4058640 
783.928 4165324 4282111 4411145 4554149 4712142 4885503 5074273 5278516 
787.785 5498601 5735073 5988148 6256707 6537296 6823145 7103842 7365677 
791.642 7592789 7768947 7879576 7913630 7865108 7733904 7525926 7252762 
795.499 6930761 6579780 6221503 5877463 5566891 5304725 5100066 4955480 
799.356 4867385 4827394 4824430 4847019 4885243 4931848 4982400 5034670 
803.213 5087659 5140710 5192990 5243573 5291711 5337126 5380124 5421381 
807.070 5461533 5500865 5539242 5576287 5611734 5645750 5678905 5711923 
810.927 5745177 5778259 5809864 5838073 5860964 5877252 5886757 5890417 
814.784 5889941 5887174 5883561 5879878 5876340 5872911 5869772 5867538 
818.641 5867220 5869904 5876385 5886909 5901131 5918368 5937975 5959617 
822.498 5983417 6009812 6039303 6072117 6108108 6146783 6187489 6229742 
826.355 6273436 6318908 6366864 6418200 6473730 6533988 6599091 6668725 
830.212 6742204 6818683 6897420 6978030 7060702 7146220 7235840 7330815 
834.068 7431985 7539245 7651362 7766093 7880644 7992319 8099125 8200117 
837.925 8295335 8385391 8470950 8552152 8628488 8698864 8762018 8816948 
841.782 8863235 8901031 8930899 8953473 8969183 8978313 8981110 8978190 
845.639 8970807 8960903 8950924 8943389 8940308 8942803 8950900 8963640 
849.496 8979403 8996386 9013076 9028566 9042754 9056278 9070449 9086876 
853.353 9107280 9133103 9165253 9204004 9248903 9299075 9353453 9411237 
857.210 9472227 9537102 9607379 9685351 9773699 9875143 9992167 10126747 
861.067 10280403 10454287 10649598 10867842 11111259 11383029 11687315 
864.442 12029040 12413448 12845473 13329026 13866265 14456935 15097849 
867.817 15782472 16500686 17238674 17979008 18701098 19381968 19997514 
871.191 20524132 20940622 21230070 21381464 21390670 21260712 21001104 
874.566 20626456 20154608 19604642 18995110 18342820 17662202 16965380 
877.941 16262558 15562743 14874171 14204605 13561140 12949757 12374897 
881.316 11839084 11343054 10886200 10467276 10085153 9739168 9429098 9154668 
885.173 8914883 8707420 8528555 8373516 8237396 8116147 8007342 7910452 
889.030 7826508 7757203 7703953 7667123 7645724 7637616 7640048 7650333 
892.887 7666299 7686440 7709770 7735494 7762755 7790465 7817442 7842490 
896.744 7864646 7883125 7897299 7906446 7909651 7905727 7893409 7871549 
900.601 7839322 7796411 7742991 7679613 7607095 7526394 7438596 7344946 
904.458 7246952 7146317 7044839 6944158 6845557 6749690 6656560 6565639 
908.314 6476105 6387214 6298590 6210468 6123802 6040093 5961197 5888926 
912.171 5824803 5769744 5724014 5687202 5658424 5636548 5620403 5609053 
916.028 5601831 5598445 5598904 5603489 5612637 5626883 5646768 5672766 
919.885 5705144 5743926 5788831 5839264 5894451 5953530 6015710 6080399 
923.742 6147252 6216132 6287047 6359996 6434924 6511633 6589766 6668871 
927.599 6748440 6827903 6906700 6984211 7059824 7132917 7203003 7269745 
931.456 7333080 7393291 7450913 7506691 7561336 7615379 7668966 7721799 
935.313 7773154 7822069 7867555 7908867 7945659 7978060 8006590 8031933 
939.170 8054809 8075732 8095018 8112868 8129496 8145314 8160988 8177355 
943.027 8195357 8215799 8239325 8266394 8297475 8333237 8374654 8423045 
946.884 8479793 8546040 8622319 8708225 8802456 8903006 9007640 9114417 
950.741 9222075 9330321 9439769 9551739 9667845 9789686 9918544 10055295 
954.598 10200378 10354011 10516272 10687327 10867554 11057600 11258332 
957.972 11470682 11695556 11933500 12184506 12447784 12721691 13003787 
961.347 13291009 13579927 13867098 14149354 14424059 14689207 14943492 
964.722 15186220 15417147 15636232 15843435 16038448 16220592 16388795 
968.097 16541775 16678342 16797690 16899622 16984686 17053950 17108728 
971.472 17150130 17178784 17194610 17196902 17184508 17156212 17110938 
974.847 17048008 16967152 16868452 16752152 16618614 16468182 16301204 
978.221 16118164 15919705 15706797 15480694 15242995 14995496 14740066 
981.596 14478548 14212628 13943894 13673887 13404278 13136883 12873763 
984.971 12616986 12368520 12129898 11902205 11686007 11481658 11289521 
988.346 11110114 10944354 10793386 10658324 10539971 10438628 10354058 
991.721 10285617 10232612 10194404 10170706 10161512 10166929 10187033 
995.095 10221700 10270621 10333378 10409538 10498782 10600930 10715836 
998.470 10843255 10982868 11134277 11297181 11471584 11657955 11857406 
1001.845 12071619 12302767 12553556 12827177 13127476 13459116 13827658 
1005.220 14239424 14701249 15219972 15802066 16453440 17179670 17986722 
1008.595 18881886 19874882 20978458 22208268 23581700 25115552 26822590 
1011.970 28707396 30761776 32960240 35256164 37579404 39836488 41914452 
1015.344 43689640 45041196 45867868 46104200 45731640 44780876 43324996 
1018.719 41466124 39320008 37002136 34617796 32256106 29987616 27864382 
1022.094 25921482 24179312 22646256 21321062 20195184 19254806 18482582 
1025.469 17859130 17364378 16978588 16683231 16461611 16299202 16183794 
1028.844 16105479 16056506 16031118 16025348 16036719 16064009 16106895 
1032.219 16165403 16239606 16329138 16433047 16549742 16677202 16813276 
1035.595 16955950 17103538 17254694 17408222 17562892 17717152 17869140 
1038.970 18016744 18157764 18290266 18412582 18523462 18621824 18706562 
1042.345 18776342 18829518 18864228 18878698 18871632 18842506 18791832 
1045.720 18721234 18633204 18530902 18417808 18297402 18172964 18047448 
1049.096 17923434 17803148 17688348 17580376 17480084 17387948 17304112 
1052.471 17228634 17161692 17103804 17055942 17019496 16996186 16987922 
1055.846 16996544 17023792 17071234 17140200 17231810 17346908 17486038 
1059.221 17649426 17837054 18048864 18284976 18545932 18832730 19146676 
1062.597 19489152 19861270 20263534 20695902 21157864 21648994 22169214 
1065.972 22719156 23300154 23914016 24562648 25247756 25970766 26732754 
1069.347 27534798 28378100 29263994 30193806 31168514 32188482 33253372 
1072.722 34362324 35514256 36708304 37943776 39220008 40535684 41888240 
1076.098 43273312 44684760 46115176 47556564 49001272 50442564 51874600 
1079.473 53292184 54690420 56064368 57409244 58720852 59996076 61233300 
1082.848 62432168 63593356 64718032 65807588 66863812 67889368 68888048 
1086.223 69864944 70825712 71775648 72718456 73655512 74585576 75505320 
1089.599 76410040 77294256 78151832 78975680 79757192 80485872 81149688 
1092.974 81735704 82231448 82625840 82909544 83075120 83116416 83028360 
1096.349 82807056 82450376 81958544 81334520 80583712 79713184 78730488 
1099.724 77642984 76457512 75180840 73820224 72384160 70882784 69327704 
1103.100 67731712 66108672 64473284 62841384 61230348 59659368 58149348 
1106.475 56722664 55402124 54209948 53166212 52287440 51585304 51065432 
1109.850 50726628 50560524 50551720 50678448 50913636 51226484 51584112 
1113.225 51953352 52302336 52601992 52827256 52958016 52979768 52883912 
1116.601 52667452 52332212 51883780 51330156 50680576 49944780 49132392 
1119.976 48252944 47315748 46329944 45304208 44246720 43164972 42065852 
1123.351 40955864 39841360 38728692 37624228 36534064 35463612 34417380 
1126.726 33398772 32410308 31453950 30531418 29644444 28794670 27983418 
1130.102 27211226 26477570 25780764 25118170 24486636 23882968 23304390 
1133.477 22748672 22214188 21699686 21203966 20725720 20263482 19815518 
1136.852 19380010 18955130 18539092 18130280 17727362 17329368 16935820 
1140.227 16546752 16162644 15784205 15412091 15046620 14687669 14334744 
1143.603 13987237 13644850 13307920 12977500 12655263 12343054 12042402 
1146.978 11754064 11477774 11212340 10955972 10706761 10463207 10224486 
1150.353 9990501 9761791 9539247 9323771 9116141 8916898 8726437 8545063 
1154.210 8373147 8211168 8059689 7919264 7790326 7673120 7567595 7473445 
1158.068 7390184 7317278 7254224 7200740 7156795 7122595 7098631 7085541 
1161.925 7084149 7095515 7120954 7162219 7221578 7301812 7406037 7537402 
1165.783 7698574 7891121 8115073 8368441 8647136 8945086 9254600 9566991 
1169.640 9873241 10164629 10433269 10672459 10876816 11042368 11166453 
1173.015 11247668 11285827 11281918 11237998 11157054 11042818 10899495 
1176.391 10731565 10543544 10339905 10124989 9902994 9677938 9453636 9233665 
1180.248 9021283 8819488 8630917 8457983 8302795 8167177 8052542 7959816 
1184.105 7889326 7840747 7813234 7805551 7816355 7844411 7888781 7948787 
1187.963 8023963 8113862 8217840 8335065 8464451 8604896 8755428 8915318 
1191.820 9084192 9261911 9448496 9643911 9847946 10060196 10279930 10506306 
1195.678 10738359 10975145 11215805 11459697 11706466 11956050 12208799 
1199.053 12465305 12726349 12992764 13265249 13544250 13829911 14122117 
1202.428 14420620 14725159 15035741 15352711 15676816 16009201 16351217 
1205.803 16704252 17069470 17447678 17839328 18244596 18663674 19097032 
1209.179 19545670 20011130 20495406 21000722 21529130 22082278 22661372 
1212.554 23267142 23900164 24560938 25250140 25968548 26716918 27495852 
1215.929 28305658 29146376 30017800 30919680 31851714 32813572 33804736 
1219.304 34824484 35871752 36945288 38043896 39166652 40313176 41483588 
1222.680 42678456 43898592 45144640 46417116 47716324 49042420 50395656 
1226.055 51776584 53186184 54626052 56098420 57605968 59151768 60738688 
1229.430 62369012 64043792 65762632 67523512 69323248 71157840 73022856 
1232.805 74913600 76824632 78749056 80677768 82599032 84498528 86360272 
1236.181 88167616 89904176 91554448 93103928 94538760 95845904 97013400 
1239.556 98031168 98891992 99591696 100129136 100505496 100723352 100786672 
1242.931 100701072 100474512 100118088 99646016 99074688 98421424 97702864 
1246.306 96934072 96128504 95298160 94454232 93607440 92767936 91944952 
1249.682 91146624 90380032 89651480 88967216 88333624 87757120 87243376 
1253.057 86796488 86417936 86106016 85855672 85658840 85504792 85380480 
1256.432 85270664 85158216 85024552 84850624 84618488 84312488 83920584 
1259.807 83434544 82849600 82163728 81376976 80491416 79511792 78445920 
1263.183 77304936 76102656 74854096 73573608 72273632 70963824 69651744 
1266.558 68343704 67046016 65765636 64510136 63286860 62101884 60959148 
1269.933 59860100 58803988 57788712 56811684 55870628 54963888 54090268 
1273.308 53248728 52437980 51656084 50900416 50167824 49454900 48758304 
1276.684 48075064 47402740 46739544 46084208 45435772 44793364 44155972 
1280.059 43522292 42890988 42260776 41630860 41001056 40371884 39744192 
1283.434 39118688 38495420 37873576 37251388 36626624 35997124 35361420 
1286.809 34719024 34070472 33417008 32760120 32101146 31441032 30780288 
1290.185 30119184 29457882 28796708 28136092 27476636 26819084 26164314 
1293.560 25513434 24867796 24228974 23598734 22978870 22371132 21777206 
1296.935 21198856 20638140 20097534 19580000 19088914 18627584 18198840 
1300.310 17804488 17444898 17118868 16823674 16555318 16308922 16079001 
1303.686 15859933 15646212 15432848 15215647 14991581 14758968 14517504 
1307.061 14268111 14012606 13753286 13492516 13232502 12975205 12722296 
1310.436 12475195 12235134 12002999 11779293 11564010 11356723 11156620 
1313.811 10962794 10774397 10590775 10411368 10235675 10063022 9892618 
1317.187 9723530 9555005 9386615 9218428 9050927 8884791 8720627 8558724 
1321.044 8399053 8241442 8085924 7933041 7784050 7640797 7505551 7380581 
1324.901 7267914 7169287 7086230 7020349 6973573 6948254 6947165 6973313 
1328.759 7029806 7119736 7246183 7412272 7621085 7875442 8177344 8527279 
1332.616 8923514 9361518 9833685 10329475 10835890 11338317 11821362 
1335.991 12269905 12669939 13009317 13278213 13469534 13579105 13605736 
1339.367 13551271 13420440 13220599 12961042 12652369 12305598 11931318 
1342.742 11539090 11137110 10732021 10329162 9932742 9546215 9172523 8814197 
1346.599 8473387 8151760 7850333 7569481 7308990 7068223 6846473 6643186 
1350.457 6458151 6291466 6143370 6014014 5903236 5810446 5734681 5674766 
1354.314 5629550 5598117 5579913 5574821 5583182 5605725 5643544 5698142 
1358.172 5771332 5865349 5982719 6126207 6298762 6503335 6742693 7019180 
1362.029 7334351 7688658 8081134 8509205 8968718 9454179 9959003 10476013 
1365.886 10997765 11516859 12026106 12518498 12987268 13425693 13827194 
1369.262 14185420 14494558 14749771 14947729 15086992 15168247 15194173 
1372.637 15169029 15098241 14987653 14843097 14669986 14473082 14256406 
1376.012 14023094 13775565 13515529 13244252 12962757 12672164 12373877 
1379.387 12069683 11761694 11452265 11143786 10838611 10538963 10247003 
1382.763 9964903 9694763 9438698 9198638 8976246 8772799 8589170 8425919 
1386.620 8283378 8161833 8061529 7982712 7925497 7889751 7875062 7880691 
1390.478 7905813 7949764 8012390 8094205 8196605 8321710 8472143 8650839 
1394.335 8860788 9104854 9385706 9705683 10066591 10469437 10914107 11399141 
1398.192 11921749 12478130 13064162 13676299 14312391 14972296 15658011 
1401.568 16373359 17123022 17911320 18740564 19609326 20510656 21430448 
1404.943 22346606 23228780 24039612 24737004 25277806 25622002 25737098 
1408.318 25602054 25209692 24567800 23698348 22635150 21420466 20100954 
1411.693 18723602 17332448 15965809 14654849 13422839 12285227 11250429 
1415.069 10320754 9493824 8763799 8122675 7561350 7070525 6641337 6265775 
1418.926 5936916 5648987 5397327 5178135 4988335 4825255 4686656 4570538 
1422.783 4475172 4399046 4340814 4299210 4273007 4261031 4262219 4275851 
1426.641 4301567 4339499 4390199 4454312 4532434 4624771 4731055 4850521 
1430.498 4981969 5123949 5274839 5432902 5596289 5763056 5931262 6098990 
1434.356 6264566 6426528 6583696 6735081 6879707 7016607 7144759 7263204 
1438.213 7371265 7468659 7555704 7633222 7702584 7765314 7823109 7877480 
1442.071 7929802 7981351 8033338 8087075 8143997 8205542 8273074 8347606 
1445.928 8429646 8519133 8615405 8717350 8823667 8933006 9044141 9156032 
1449.785 9267769 9378313 9486434 9590535 9688689 9778856 9859116 9927901 
1453.643 9984221 10027570 10057931 10075524 10080722 10073997 10055801 
1457.018 10026728 9987339 9938202 9879753 9812275 9735966 9651040 9557983 
1460.875 9457622 9351244 9240552 9127530 9014340 8903245 8796623 8697074 
1464.733 8607464 8530948 8470837 8430376 8412387 8419020 8451439 8509797 
1468.590 8593228 8699945 8827399 8972320 9130583 9297088 9465552 9628564 
1472.448 9777758 9904336 9999768 10056465 10068334 10031128 9942640 9802613 
1476.305 9612671 9376156 9097840 8783664 8440403 8075305 7695774 7309185 
1480.163 6922561 6542366 6174234 5822735 5491167 5181584 4894867 4631017 
1484.020 4389355 4168895 3968471 3786901 3623011 3475623 3343526 3225471 
1487.877 3120141 3026274 2942650 2868216 2802228 2744312 2694537 2653436 
1491.735 2621846 2600760 2591130 2593681 2608799 2636657 2677269 2730805 
1495.592 2797806 2879371 2977433 3094838 3235516 3404585 3608295 3853689 
1499.450 4147759 4496063 4900777 5358661 5859238 6383885 6906303 7394469 
1503.307 7813940 8132239 8323211 8371126 8273082 8039549 7692531 7261967 
1507.165 6780879 6280827 5788395 5323320 4898222 4519463 4188592 3903916 
1511.022 3661848 3457915 3287520 3146287 3030196 2935718 2859568 2798719 
1514.879 2750402 2712061 2681551 2657185 2637804 2622695 2611458 2603835 
1518.737 2599568 2598357 2599873 2603821 2609935 2617988 2627620 2638330 
1522.594 2649373 2659935 2669139 2676366 2681289 2683832 2684133 2682269 
1526.452 2678167 2671449 2661597 2648079 2630540 2609074 2584141 2556531 
1530.309 2527103 2496596 2465483 2433992 2402138 2369990 2337728 2305739 
1534.167 2274614 2245020 2217508 2192525 2170243 2150626 2133431 2118254 
1538.024 2104602 2091932 2079778 2067744 2055725 2043833 2032472 2022212 
1541.881 2013688 2007440 2003780 2002736 2004121 2007530 2012572 2018940 
1545.739 2026452 2035069 2044763 2055416 2066663 2077919 2088368 2097278 
1549.596 2104155 2108943 2112149 2114752 2117929 2122854 2130350 2140779 
1553.454 2153989 2169431 2186355 2204021 2221814 2239334 2256395 2273015 
1557.311 2289356 2305727 2322484 2340026 2358641 2378465 2399421 2421359 
1561.168 2444095 2467711 2492545 2519321 2548871 2581965 2619031 2660025 
1565.026 2704532 2752000 2802097 2855053 2911771 2973810 3043046 3121440 
1568.883 3210567 3311614 3425317 3552106 3692339 3846342 4014451 4196825 
1572.741 4393161 4602419 4822393 5049497 5278535 5502696 5713770 5902703 
1576.598 6060365 6178352 6249835 6270146 6237105 6151224 6015670 5836211 
1580.456 5620866 5379319 5122149 4859767 4601542 4355060 4125848 3917358 
1584.313 3731287 3567888 3426452 3305529 3203078 3116637 3043454 2980742 
1588.170 2925872 2876721 2831817 2790402 2752294 2717615 2686490 2658879 
1592.028 2634539 2613080 2594246 2578024 2564745 2554985 2549337 2548281 
1595.885 2551981 2560386 2573298 2590593 2612321 2638722 2670075 2706588 
1599.743 2748137 2794277 2844330 2897457 2953007 3010563 3070102 3131915 
1603.600 3196488 3264483 3336486 3412933 3494065 3579712 3669270 3761720 
1607.458 3855650 3949484 4041762 4131228 4217018 4298492 4375015 4445688 
1611.315 4509062 4563112 4605314 4632970 4643607 4635357 4607344 4559847 
1615.172 4494444 4413847 4321759 4222349 4119875 4018094 3920026 3827785 
1619.030 3742708 3665643 3597114 3537623 3487482 3446797 3415272 3392102 
1622.887 3376022 3365447 3358851 3354938 3352862 3352248 3353079 3355537 
1626.745 3359793 3365900 3373741 3383048 3393390 3404238 3415059 3425383 
1630.602 3434834 3443304 3450871 3457909 3464815 3472026 3479798 3488251 
1634.459 3497296 3506932 3517218 3528376 3540745 3554615 3569927 3586358 
1638.317 3603184 3619582 3634792 3648424 3660498 3671452 3681990 3692936 
1642.174 3705041 3718965 3735274 3754437 3776786 3802469 3831269 3862634 
1646.032 3895681 3929385 3962822 3995439 4027100 4058116 4089023 4120538 
1649.889 4153312 4187986 4225055 4265061 4308458 4355633 4406742 4461826 
1653.747 4520676 4583174 4649392 4719631 4794467 4874542 4960382 5052284 
1657.604 5150240 5254189 5364076 5480144 5602895 5733039 5871220 6017786 
1661.461 6172642 6335254 6504765 6680235 6860690 7045246 7233131 7423565 
1665.319 7615930 7809731 8004825 8201492 8400327 8602168 8807770 9017538 
1669.176 9231410 9448828 9668962 9890914 10114066 10338204 10563668 10791327 
1673.034 11022488 11258675 11501509 11752477 12012605 12282400 12561759 
1676.409 12850152 13146722 13450615 13760987 14077035 14397879 14722383 
1679.784 15049253 15377238 15705398 16033462 16361856 16691509 17023418 
1683.159 17358190 17695694 18035314 18376258 18718374 19062684 19411596 
1686.535 19768656 20137978 20523684 20929372 21358220 21812938 22296196 
1689.910 22810608 23358794 23943276 24566340 25230498 25938910 26696086 
1693.285 27508276 28383132 29328650 30351854 31457370 32647258 33921956 
1696.660 35282604 36733584 38284216 39948876 41744976 43689808 45797288 
1700.036 48075840 50528584 53155832 55958712 58942372 62117040 65496300 
1703.411 69093768 72918984 76974352 81253960 85744016 90423696 95265440 
1706.786 100233448 105281688 110352048 115375504 120276024 124976472 
1709.679 129404112 133492624 137180912 140410416 143124800 145274608 
1712.572 146825152 147764512 148106032 147884032 147144656 145937248 
1715.465 144309552 142308960 139985664 137394896 134595472 131644608 
1718.358 128591440 125473288 122315432 119134400 115942856 112753376 
1721.251 109579744 106436048 103334656 100284520 97290912 94356568 91483368 
1724.627 88673656 85930376 83256232 80652400 78117680 75648600 73240592 
1728.002 70889456 68592576 66349144 64159512 62023628 59939980 57904840 
1731.377 55912680 53957344 52033424 50137620 48269164 46429636 44621888 
1734.752 42848892 41112592 39413268 37749676 36119516 34520300 32950122 
1738.128 31408352 29895934 28415394 26970550 25566130 24206974 22897626 
1741.503 21641744 20441834 19299050 18213444 17184102 16209799 15289319 
1744.878 14421901 13607338 12845719 12137166 11481212 10876599 10321115 
1748.253 9811683 9344777 8916530 8523194 8161184 7827183 7518339 7232339 
1752.111 6967503 6722809 6497505 6290968 6102077 5929140 5769783 5621283 
1755.968 5481072 5347169 5218581 5095192 4977576 4866494 4762648 4666361 
1759.826 4577537 4495778 4420381 4350546 4285288 4223574 4164449 4107120 
1763.683 4051073 3996238 3942768 3890912 3840866 3792628 3746151 3701504 
1767.541 3658897 3618877 3581933 3548343 3517770 3489169 3461103 3432154 
1771.398 3401398 3368822 3335205 3301782 3269679 3239375 3210647 3182786 
1775.255 3155036 3127103 3099317 3072600 3047966 3026193 3007489 2991481 
1779.113 2977539 2964897 2952923 2940969 2928207 2913522 2895626 2873538 
1782.970 2846952 2816794 2785131 2754769 2728383 2707647 2692792 2682533 
1786.828 2674554 2666456 2656472 2643910 2629068 2612969 2596755 2581401 
1790.685 2567291 2554600 2543075 2532300 2521637 2510245 2497143 2481502 
1794.542 2462879 2441716 2419215 2397329 2378100 2363223 2353422 2348412 
1798.400 2347015 2347632 2348710 2349093 2348100 2345371 2340692 2333987 
1802.257 2325212 2314488 2302204 2288955 2275448 2262281 2249916 2238574 
1806.115 2228391 2219521 2212125 2206174 2201291 2196677 2191173 2183750 
1809.972 2173899 2162060 2149518 2137854 2128252 2120626 2113514 2104443 
1813.830 2090992 2072074 2048893 2025015 2005667 1996114 1999984 2018012 
1817.687 2047542 2083493 2119770 2151152 2174369 2188621 2194956 2195382 
1821.544 2191694 2184932 2175244 2162205 2145283 2124320 2099750 2072668 
1825.402 2044644 2017434 1992770 1972022 1956016 1944900 1937983 1933955 
1829.259 1931068 1927546 1921891 1913207 1901207 1886214 1868723 1849518 
1833.117 1829188 1808052 1786152 1763165 1738327 1710656 1679166 1643311 
1836.974 1603424 1561034 1518867 1480418 1449102 1427516 1416590 1415428 
1840.832 1421467 1431168 1440862 1447436 1448735 1443722 1432333 1415266 
1844.689 1393742 1369438 1344277 1320218 1298989 1281696 1268702 1259436 
1848.546 1252678 1246894 1240747 1233296 1224154 1213546 1201956 1190206 
1852.404 1179061 1169214 1161245 1155334 1151147 1147850 1144207 1138979 
1856.261 1131484 1121840 1111169 1101168 1093422 1088843 1087052 1086641 
1860.119 1085399 1081469 1073832 1062879 1050153 1037610 1027063 1019263 
1863.976 1013616 1008580 1002047 992157 977826 959142 937505 915393 895828 
1868.316 881972 876322 880154 892945 912343 934545 955077 969730 975580 
1872.655 971398 957637 935896 908215 876442 842180 806678 771469 738414 
1876.995 709898 688065 674476 669528 672286 680834 693000 706870 721246 
1881.334 735531 749581 763331 776845 790097 803459 817643 833376 850742 
1885.674 868600 884436 894785 896272 887106 867978 842402 815721 793625 
1890.014 780215 777043 782409 792638 803264 810732 813175 810651 804438 
1894.353 796347 787662 779057 770638 762476 754697 747695 741870 737452 
1898.693 733926 730443 725796 719134 709858 698235 685070 671843 660238 
1903.032 652168 649028 651800 660144 672674 686803 699573 708184 711173 
1907.372 708721 702582 695178 688708 684194 681119 677935 673121 666192 
1911.712 658367 652281 651258 657945 673565 696985 725773 756717 786842 
1916.051 814147 837485 856534 871322 882041 889149 893576 896924 901111 
1920.391 907969 918646 933289 950737 969267 986636 1001025 1010353 1012910 
1924.730 1006638 989583 960525 919989 871040 819433 772460 737077 717712 
1929.070 714520 723029 735847 745007 745361 736437 723126 714427 720418 
1933.410 749077 803612 881199 973583 1068881 1154665 1220775 1261378 1275871 
1937.749 1268641 1247269 1220646 1196161 1178541 1168698 1164718 1162536 
1941.607 1158775 1151658 1142086 1132797 1127198 1127654 1134320 1144300 
1945.464 1153170 1156260 1150577 1135588 1113468 1088232 1064402 1045241 
1949.322 1032338 1025263 1022553 1022315 1023707 1026827 1033150 1044074 
1953.179 1060162 1080121 1100391 1115268 1118818 1106437 1077542 1035932 
1957.036 989663 948847 921565 909953 908209 903104 878214 819904 723856 
1961.376 597930 461632 340171 257836 230481 262087 344139 460015 589153 
1965.716 712861 815944 888356 923874 920766 880852 811367 724704 637021 
1970.055 564312 518543 503100 511713 530198 542349 535719 506057 457682 
1974.395 401852 351214 316962 305404 320048 362803 435192 536804 662943 
1978.734 801874 936257 1046890 1119299 1148543 1141799 1115122 1088493 
1982.592 1077669 1089761 1119402 1152506 1171440 1162425 1119431 1046162 
1986.449 953053 853059 756971 672155 601935 548448 513360 499080 506763 
1990.789 534550 575775 620409 657172 677651 679007 664359 641073 616651 
1995.128 594973 574660 549777 513529 461951 396708 325283 258558 205958 
1999.468 171975 153561 141621 123296 87680 29334 -48828 -136393 -216809 
2003.808 -271851 -284917 -245339 -149545 -2219 185058 395675 611425 815108 
2008.147 992146 1129877 1217290 1244682 1203991 1091183 909846 672688 402219 
2012.487 127462 -121632 -321659 -460439 -539945 -572691 -576085 -564743 
2016.344 -546178 -519058 -477186 -414830 -332749 -240900 -155910 -96068 
2020.202 -75174 -96729 -153659 -230189 -308572 -373731 -417441 -438257 
2024.059 -441091 -432886 -421458 -414706 -420129 -445290 -497146 -578990 
2027.917 -689242 -818334 -950684 -1066931 -1150201 -1190263 -1186895 
2031.292 -1149094 -1092357 -1032276 -980324 -940081 -907904 -874646 -830046 
2035.149 -766561 -682247 -580711 -470332 -361584 -265102 -188929 -137130 
2039.007 -109192 -100572 -103486 -109412 -110545 -101735 -80889 -49607 
2042.864 -10571 32610 77949 125021 176111 234579 304871 391090 496280 620965 
2047.686 762345 912964 1061030 1191100 1287683 1338431 1337815 1288054 
2051.543 1199336 1087207 969612 863016 779446 723979 694412 682733 678831 
2055.883 674446 665976 655099 647940 651361 670750 707085 756628 811977 
2060.222 864788 908019 938384 956498 966494 973324 981388 992644 1006492 
2064.562 1020287 1030941 1036706 1038063 1037010 1036601 1038956 1044244 
2068.419 1049618 1050626 1042360 1021916 989489 949251 908367 875059 856240 
2072.759 855698 873311 905531 946554 990395 1032261 1069293 1100195 1124706 
2077.099 1142396 1152407 1153114 1143066 1121429 1089270 1049341 1006198 
2080.956 965334 932357 911681 905954 915429 938040 969488 1004348 1037071 
2085.296 1063096 1079579 1085943 1083472 1074443 1061022 1044349 1024054 
2089.153 998994 967960 931221 890954 851637 818704 797360 790738 799294 
2093.493 820417 849769 882626 915517 946603 975924 1003955 1030644 1054407 
2097.832 1072462 1081706 1080055 1067459 1046343 1020930 996195 976149 
2101.690 962966 956796 955812 957298 958602 957801 954349 948775 943106 
2106.029 939889 942579 954158 976810 1010796 1054173 1102286 1148860 1187278 
2110.369 1212330 1221622 1216365 1200606 1180127 1159978 1143063 1129086 
2114.226 1115019 1096354 1069012 1031046 983589 930170 876120 826771 785905 
2118.566 755159 733906 719888 710517 703429 697258 691461 686150 681070 
2122.906 675677 668673 658725 644442 625208 601341 574017 544826 515354 
2127.245 486863 459990 434523 409944 385467 360496 334444 307275 279295 
2131.585 251495 225022 201540 182754 169856 162960 160737 159973 156175 
2135.924 144642 121722 86331 40586 -10383 -59634 -100239 -127581 -141209 
2140.264 -144922 -146669 -155414 -179086 -221322 -279854 -346284 -408376 
2144.121 -453406 -471996 -461467 -428043 -384622 -347991 -333504 -351026 
2147.979 -401685 -479014 -571465 -667389 -758812 -844483 -927934 -1015966 
2151.836 -1113093 -1220257 -1333261 -1446165 -1554548 -1658684 -1763079 
2155.211 -1874000 -1991818 -2104595 -2184604 -2192109 -2085483 -1839839 
2158.587 -1461993 -998732 -523917 -116123 169862 315808 340615 285782 197881 
2162.926 113101 49349 6639 -26543 -63212 -109264 -160186 -202165 -218921 
2167.266 -198593 -139347 -49993 51691 145412 212872 243322 233649 189542 
2171.605 121876 44233 -30364 -91371 -132391 -150840 -149060 -132997 -111280 
2175.945 -93495 -88689 -102521 -136595 -187187 -246671 -304655 -350069 
2179.802 -374313 -372979 -347105 -303429 -252165 -205258 -172645 -160560 
2183.660 -170085 -198450 -240919 -292101 -347324 -403320 -456257 -501771 
2187.517 -533700 -546093 -534396 -498224 -442399 -377129 -314469 -265226 
2191.375 -234892 -222019 -218590 -213440 -196185 -162029 -113142 -57712 
2195.232 -7076 28973 45387 43292 29159 11403 -2534 -8828 -7424 -1238 6808 
2200.536 15428 26905 45562 76978 124331 187230 260103 333444 395827 437611 
2205.358 452975 442964 414658 380249 352854 343519 357641 393733 444009 
2209.698 497144 541781 569916 578302 569052 547148 518858 489059 461011 
2214.037 436540 418019 408838 414220 439790 489414 562814 654791 755184 
2218.377 851216 930074 982053 1002374 991673 955239 901684 841157 783981 
2222.716 739199 713800 711780 733784 776502 833622 896807 957289 1007428 
2227.056 1042270 1059723 1060617 1047836 1025863 999467 974216 954796 945127 
2231.396 946885 959224 977966 996697 1007895 1005712 987142 954104 912541 
2235.735 871621 840527 826947 834572 862992 907973 962942 1020342 1073290 
2240.075 1116320 1145722 1159959 1159157 1144906 1120099 1088028 1052640 
2243.932 1017505 985943 960710 944089 937432 941090 953958 973646 996025 
2248.272 1016530 1030586 1034919 1027826 1009718 982520 949316 913405 878614 
2252.611 849075 829387 824150 837297 870729 923289 990241 1064128 1136643 
2256.951 1200740 1252391 1291241 1319520 1340050 1354285 1361171 1357209 
2260.808 1338445 1302555 1250836 1189055 1126452 1073293 1038475 1027013 
2264.666 1039395 1071795 1117779 1170269 1223441 1273368 1318621 1359624 
2268.523 1397871 1434997 1472114 1509268 1545336 1578366 1606349 1627947 
2272.381 1643135 1653530 1661893 1670689 1681328 1693100 1703283 1708193 
2276.238 1704865 1692579 1673483 1652234 1634441 1624748 1625260 1635233 
2280.095 1651762 1671152 1690462 1708460 1725330 1741756 1757960 1772965 
2283.953 1784711 1790982 1790420 1783281 1771405 1757506 1744250 1733373 
2287.810 1725409 1719917 1716036 1712863 1709705 1705657 1699461 1689325 
2291.668 1673433 1650611 1621175 1587258 1552643 1521546 1497560 1482461 
2295.525 1475771 1475062 1477017 1478617 1477946 1474447 1468627 1461438 
2299.383 1453682 1445644 1437272 1428386 1419095 1409762 1400983 1393400 
2303.240 1387595 1383930 1382796 1384455 1389206 1397041 1407220 1418404 
2307.097 1428695 1436183 1439470 1438265 1433490 1426811 1420192 1415202 
2310.955 1412670 1412577 1414433 1417720 1422018 1427111 1432906 1439287 
2314.812 1446231 1453786 1462543 1473446 1487634 1505804 1527844 1552791 
2318.670 1579354 1606747 1635713 1668740 1709251 1759928 1820496 1886298 
2322.527 1948067 1993789 2011800 1994137 1938976 1851139 1740798 1620742 
2326.385 1503542 1398998 1312680 1245889 1196754 1161771 1137338 1120776 
2330.242 1110454 1105297 1104261 1106051 1109209 1112603 1115662 1118660 
2334.099 1122215 1126905 1132543 1138192 1142325 1143532 1141144 1135694 
2337.957 1128737 1122421 1118696 1118769 1122849 1130152 1139334 1149045 
2341.814 1158079 1165704 1171621 1175938 1179055 1181592 1184389 1188068 
2345.672 1192936 1198585 1203905 1207182 1206753 1201514 1191455 1177849 
2349.529 1162886 1149241 1139066 1133549 1132695 1135378 1139953 1144633 
2353.386 1148022 1149298 1148153 1144758 1139714 1133988 1128892 1125823 
2357.244 1125951 1129932 1137463 1147384 1157856 1166941 1173222 1176120 
2361.101 1175956 1173632 1169961 1165434 1159867 1152739 1143620 1132684 
2364.959 1120969 1110026 1101576 1096768 1095787 1097826 1101530 1105522 
2368.816 1109047 1112177 1115618 1120299 1126896 1135449 1145389 1155804 
2372.674 1165785 1174643 1182104 1188081 1192684 1195904 1197890 1198914 
2376.531 1199500 1200397 1202290 1205459 1209682 1214026 1217288 1218468 
2380.388 1217118 1213725 1209573 1206281 1205263 1207256 1212166 1219148 
2384.246 1226964 1234520 1241064 1246435 1250824 1254590 1258158 1261671 
2388.103 1265105 1268221 1270768 1272395 1272957 1272396 1270888 1268762 
2391.961 1266507 1264476 1262708 1260972 1258641 1254952 1249382 1241738 
2395.818 1232333 1221832 1211006 1200145 1189337 1178301 1166932 1155688 
2399.676 1145662 1138488 1135661 1138004 1145159 1155560 1167110 1177916 
2403.533 1187060 1194912 1202807 1212213 1223793 1236750 1249044 1257850 
2407.390 1260661 1256182 1244619 1227465 1206777 1184293 1160973 1137035 
2411.248 1112480 1087702 1063777 1042648 1026529 1017189 1015382 1020674 
2415.105 1031592 1046008 1061750 1076869 1089932 1099757 1105668 1107273 
2418.963 1104586 1098188 1088985 1078158 1066826 1055717 1045343 1036075 
2422.820 1028589 1023718 1022576 1025853 1033188 1042709 1051261 1055140 
2426.677 1051143 1037829 1016147 989246 961587 937374 919605 909149 905049 
2431.017 905245 907618 910894 914831 920029 927198 936892 949016 962994 
2435.357 978135 993863 1009730 1025231 1039582 1051582 1059860 1063212 
2439.214 1061120 1054088 1043641 1031843 1020605 1011267 1004278 999371 
2443.072 995858 993056 990571 988313 986268 984426 982747 981166 979927 
2447.411 979589 980927 984559 990420 997676 1004608 1009247 1010069 1006578 
2451.751 999658 991228 983663 978836 977412 978433 979898 979204 974330 
2456.090 964519 950714 935337 921739 913171 911946 918534 931520 947498 
2460.430 961913 969910 967664 953170 927061 892719 855520 821915 797897 
2464.770 787712 792852 811675 839839 871283 899518 918972 926237 920321 
2469.109 902985 877725 849261 822319 800817 787320 782920 787140 798561 
2473.449 815024 834089 853405 870938 885214 895544 902039 905765 908259 
2477.788 911333 916347 923839 933248 943135 951625 957200 959020 957439 
2482.128 953527 948708 944037 939920 936068 932057 927745 923913 922057 
2486.468 924014 931158 943342 958926 974851 987563 994339 993874 986963 
2490.807 975854 963425 952076 943072 936331 930805 925293 919338 913297 
2495.147 908488 906580 908906 915997 927497 942374 959263 976930 994372 
2499.486 1010661 1024836 1035580 1041318 1040656 1032999 1018928 1000543 
2503.344 981401 965678 957275 958682 970457 990950 1016718 1043450 1067069 
2507.683 1084728 1095269 1099367 1098948 1096489 1093969 1092558 1092255 
2511.541 1092263 1091472 1089050 1084861 1079661 1074720 1071401 1070782 
2515.398 1073310 1078609 1085981 1094435 1103279 1112188 1121445 1131584 
2519.256 1143304 1157072 1172907 1190117 1207429 1223061 1234880 1240898 
2523.113 1239622 1230439 1213989 1192225 1168259 1145735 1128246 1118583 
2526.970 1117900 1125601 1139338 1155707 1170924 1181778 1186426 1184491 
2530.828 1177140 1166133 1153469 1140557 1127997 1115789 1103723 1092086 
2534.685 1082099 1075892 1076190 1085398 1104958 1134609 1172096 1213929 
2538.543 1255650 1293120 1323114 1343851 1355064 1357622 1353123 1343610 
2542.400 1330862 1316466 1301750 1287645 1274858 1263799 1254672 1247531 
2546.258 1242256 1238515 1235976 1234195 1232713 1231204 1229507 1227689 
2550.115 1226153 1225283 1225309 1225900 1226277 1225132 1221172 1213756 
2553.972 1203532 1192492 1183750 1180738 1186003 1200258 1221852 1247041 
2557.830 1270821 1288424 1296600 1294562 1284159 1269230 1254547 1244476 
2561.687 1241964 1247958 1261486 1280053 1300384 1319239 1334105 1343482 
2565.545 1347124 1345923 1341356 1335299 1329308 1324452 1321058 1319015 
2569.402 1317841 1317218 1317043 1317652 1319485 1323053 1328432 1335280 
2573.260 1342994 1350841 1358251 1365042 1371464 1377812 1384473 1391465 
2577.117 1398547 1405070 1410367 1413745 1414675 1412889 1408375 1401400 
2580.974 1392588 1382985 1373907 1366845 1363254 1363959 1369171 1377947 
2584.832 1388790 1399569 1408297 1413514 1414472 1411472 1405276 1397124 
2588.689 1388197 1379397 1371298 1364074 1357865 1352739 1349115 1347584 
2592.547 1349008 1354224 1363782 1377564 1394781 1413782 1432429 1448585 
2596.404 1460661 1468071 1471360 1471965 1471837 1472581 1474983 1478582 
2600.261 1482042 1483496 1481369 1474963 1464912 1452858 1441246 1432532 
2604.119 1428437 1429663 1435732 1445073 1455713 1465474 1472754 1476711 
2607.976 1477264 1475304 1472118 1469237 1468002 1469351 1473496 1480097 
2611.834 1488339 1497208 1505801 1513423 1519837 1525103 1529467 1533254 
2615.691 1536663 1539758 1542467 1544615 1546122 1546995 1547395 1547697 
2619.549 1548378 1549825 1552293 1555642 1559424 1562863 1565106 1565632 
2623.406 1564492 1562471 1561091 1562172 1567238 1576964 1590745 1606764 
2627.263 1622306 1634535 1641239 1641497 1635841 1626146 1614971 1604766 
2631.121 1597387 1593515 1592887 1594452 1596947 1599257 1600683 1601100 
2634.978 1600737 1599897 1598985 1598144 1597479 1596939 1596486 1596140 
2638.836 1595988 1596085 1596350 1596632 1596587 1595778 1593779 1590236 
2642.693 1585048 1578332 1570477 1562016 1553570 1545619 1538598 1532801 
2646.551 1528424 1525717 1524910 1526290 1530063 1536158 1544187 1553268 
2650.408 1562274 1569859 1574819 1576415 1574466 1569343 1561840 1552936 
2654.265 1543423 1533853 1524468 1515259 1506216 1497483 1489291 1481971 
2658.123 1475675 1470286 1465163 1459334 1451682 1441287 1427766 1411474 
2661.980 1393438 1375014 1357657 1342413 1329745 1319565 1311374 1304582 
2665.838 1298744 1293771 1289725 1286742 1284838 1283640 1282611 1281064 
2669.695 1278567 1274970 1270691 1266366 1262837 1260746 1260428 1261765 
2673.552 1264366 1267640 1271030 1274127 1276651 1278566 1279863 1280578 
2677.410 1280800 1280636 1280211 1279625 1278994 1278201 1277102 1275446 
2681.267 1273008 1269635 1265479 1260827 1256165 1251951 1248697 1246584 
2685.125 1245747 1246034 1247184 1248838 1250727 1252562 1254200 1255596 
2688.982 1256866 1258109 1259533 1261191 1263057 1264888 1266467 1267460 
2692.840 1267678 1267076 1265814 1264073 1262142 1260220 1258567 1257393 
2696.697 1257130 1258312 1261501 1267247 1275654 1286414 1298636 1310989 
2700.554 1322072 1330536 1335689 1337322 1335867 1332265 1327456 1322447 
2704.412 1317980 1314436 1312005 1310616 1310188 1310467 1311390 1312784 
2708.269 1314606 1316728 1319041 1321327 1323324 1324704 1325258 1324930 
2712.127 1323975 1322911 1322446 1323309 1326017 1330664 1337032 1344486 
2715.984 1352316 1359848 1366601 1372363 1377180 1381242 1384841 1388250 
2719.842 1391852 1396011 1401002 1407026 1414083 1421773 1429603 1436833 
2723.699 1443016 1447812 1451240 1453471 1454862 1455531 1455642 1455076 
2727.556 1453943 1452424 1450952 1449945 1449707 1450210 1451089 1451721 
2731.414 1451675 1450868 1449749 1449198 1450234 1453524 1459045 1466145 
2735.271 1473597 1480061 1484590 1486706 1486730 1485430 1483671 1482251 
2739.129 1481685 1482313 1484146 1487147 1491050 1495424 1499514 1502400 
2742.986 1503189 1501262 1496638 1489894 1482264 1475092 1469714 1466859 
2746.844 1466748 1468950 1472765 1477319 1481829 1485732 1488622 1490396 
2750.701 1491063 1491002 1490746 1490970 1492266 1494956 1498923 1503565 
2754.558 1508172 1512050 1514830 1516704 1518171 1519862 1522107 1524706 
2758.416 1527018 1528192 1527404 1524383 1519490 1513484 1507458 1502226 
2762.273 1498337 1495929 1494772 1494615 1495266 1496649 1498709 1501300 
2766.131 1504076 1506640 1508509 1509422 1509415 1508805 1508055 1507612 
2769.988 1507735 1508490 1509766 1511460 1513527 1516107 1519469 1524060 
2773.845 1530235 1538163 1547761 1558471 1569316 1578908 1585754 1588547 
2777.703 1586696 1580611 1571857 1562783 1556178 1554265 1558137 1567340 
2781.560 1580020 1593527 1605182 1613113 1616645 1616420 1613746 1610182 
2785.418 1606832 1604295 1602430 1600892 1599485 1598283 1597745 1598471 
2789.275 1600994 1605504 1611825 1619421 1627677 1635805 1643232 1649416 
2793.133 1654063 1656985 1658191 1658073 1657101 1655922 1655269 1655723 
2796.990 1657709 1661462 1667086 1674527 1683579 1693856 1704543 1714528 
2800.847 1722607 1727705 1729207 1727405 1723360 1718664 1714974 1713564 
2804.705 1714782 1718244 1722923 1727651 1731693 1734754 1737147 1739483 
2808.562 1742359 1746057 1750511 1755459 1760549 1765661 1770840 1776324 
2812.420 1782330 1788943 1796051 1803341 1810388 1816785 1822095 1826090 
2816.277 1828449 1829141 1828175 1825882 1822782 1819540 1816836 1815127 
2820.135 1814603 1815255 1816950 1819709 1823749 1829585 1837664 1848253 
2823.992 1861193 1875858 1891357 1906787 1921501 1935260 1948246 1960676 
2827.849 1972720 1984189 1994690 2003681 2010904 2016413 2020837 2024929 
2831.707 2029661 2035692 2043415 2052763 2063538 2075414 2088051 2101075 
2835.564 2114124 2126634 2138116 2148264 2157105 2165194 2173468 2183133 
2839.422 2195215 2210311 2228354 2248659 2270163 2291745 2312291 2331207 
2843.279 2348173 2363072 2376162 2387817 2398707 2409746 2422107 2436955 
2847.136 2455380 2477836 2504002 2532695 2562119 2590179 2615054 2635532 
2850.994 2651505 2663844 2674192 2684552 2696849 2712310 2731452 2753755 
2854.851 2778207 2803436 2828320 2852191 2875076 2897401 2919864 2943016 
2858.709 2967034 2991647 3016340 3040581 3064260 3087699 3111753 3137491 
2862.566 3166016 3198149 3234330 3274695 3319296 3368159 3421382 3478999 
2866.424 3540765 3606023 3673656 3742189 3810390 3877387 3943233 4008743 
2870.281 4075419 4144777 4218005 4295425 4376278 4458967 4541312 4621010 
2874.138 4696189 4765379 4827968 4883880 4933341 4976877 5014965 5048113 
2877.996 5076940 5102157 5124764 5145969 5167116 5189266 5213029 5238329 
2881.853 5264447 5290181 5314313 5336044 5355423 5373295 5391264 5410989 
2885.711 5433617 5459384 5487371 5515783 5542481 5565651 5584200 5598123 
2889.568 5608106 5615171 5620003 5622644 5622459 5618296 5609102 5594232 
2893.426 5573888 5548909 5520692 5490648 5459869 5428898 5397795 5366548 
2897.283 5335189 5304168 5274465 5247364 5224124 5205798 5192844 5185004 
2901.140 5181620 5181549 5183733 5187279 5191598 5196541 5202166 5208497 
2904.998 5215490 5222757 5229594 5234958 5237663 5236565 5230664 5219350 
2908.855 5202388 5180059 5153089 5122489 5089630 5055862 5022425 4990301 
2912.713 4959950 4931535 4904791 4879360 4855039 4831978 4810681 4792089 
2916.570 4777146 4766546 4760588 4758765 4760013 4762878 4765895 4767907 
2920.427 4768393 4767633 4766319 4765790 4767611 4773244 4784109 4801285 
2924.285 4825404 4856631 4894433 4937760 4985017 5034355 5084070 5132729 
2928.142 5179655 5224801 5268795 5312635 5357628 5404911 5455548 5510321 
2932.000 5569761 5634041 5702916 5775753 5851577 5929149 6007283 6085101 
2935.857 6162264 6238907 6315496 6392625 6470738 6549822 6629668 6709906 
2939.715 6790609 6872345 6956226 7043709 7136237 7234585 7338881 7448258 
2943.572 7561361 7676558 7792515 7908466 8024238 8140190 8256991 8375288 
2947.429 8495579 8618181 8743124 8870383 8999790 9131023 9263702 9397210 
2951.287 9530741 9663270 9793715 9920961 10044138 10162681 10276631 10386607 
2955.144 10494012 10600612 10708395 10819064 10933443 11051345 11171664 
2958.520 11292454 11411594 11527123 11637605 11742316 11840859 11932962 
2961.895 12018239 12095951 12165277 12225479 12276307 12317952 12351110 
2965.270 12376587 12395000 12406549 12410968 12407647 12395915 12375271 
2968.645 12345488 12306435 12258111 12200370 12133142 12056296 11969884 
2972.021 11874217 11769768 11657209 11537097 11409918 11276338 11137141 
2975.396 10993502 10846985 10699125 10551152 10403360 10255018 10104601 
2978.771 9950192 9790447 9625129 9455297 9283122 9111041 8940891 8773217 
2982.628 8607350 8441661 8274482 8104972 7933581 7762009 7592666 7427630 
2986.486 7268206 7114312 6964710 6817853 6672337 6527866 6385331 6246516 
2990.343 6113559 5988323 5871517 5763015 5661562 5565526 5473338 5383824 
2994.201 5296470 5211215 5128187 5047600 4969204 4892552 4817117 4742433 
2998.058 4668417 4595583 4524886 4457609 4394838 4337268 4284668 4236151 
3001.916 4190122 4144660 4098038 4049038 3997147 3942674 3886341 3829275 
3005.773 3772473 3716785 3662680 3610425 3560038 3511569 3464986 3420072 
3009.630 3376665 3334394 3292839 3251673 3210762 3170270 3130617 3092322 
3013.488 3055774 3020992 2987558 2954601 2921132 2886394 2850122 2812858 
3017.345 2775593 2739593 2705857 2674743 2645914 2618346 2591102 2563406 
3021.203 2535330 2507578 2481220 2457257 2435841 2416290 2397113 2376637 
3025.060 2353575 2327675 2299903 2272139 2246678 2225406 2209212 2197891 
3028.917 2190231 2184630 2179588 2174117 2167929 2161229 2154456 2147865 
3032.775 2141425 2134769 2127365 2118703 2108597 2097202 2085028 2072943 
3036.632 2061897 2052883 2046626 2043608 2043809 2047018 2052773 2060680 
3040.490 2070809 2083635 2100090 2121386 2148531 2181840 2220787 2263953 
3044.347 2309374 2354938 2398990 2440685 2480063 2517838 2554956 2592487 
3048.205 2630916 2670337 2710339 2750313 2789497 2827227 2862873 2895924 
3052.062 2925986 2952661 2975688 2994927 3010222 3021443 3028506 3031324 
3055.919 3029814 3024200 3014761 3002244 2987598 2972038 2956766 2942930 
3059.777 2931464 2922961 2917699 2915764 2916960 2921162 2928209 2938039 
3063.634 2950664 2965961 2983384 3002112 3020536 3036932 3049384 3056643 
3067.492 3058278 3055004 3048432 3040619 3033377 3027788 3023862 3020735 
3071.349 3017192 3012242 3005562 2997756 2990000 2983575 2979356 2977656 
3075.207 2978081 2979997 2982684 2985820 2989322 2993158 2997131 3000907 
3079.064 3003694 3004957 3004363 3002234 2999144 2995751 2992157 2987874 
3082.921 2981500 2971458 2956149 2934883 2907879 2876309 2841874 2806195 
3086.779 2770441 2735208 2700474 2666146 2632275 2599205 2567772 2539028 
3090.636 2514016 2493603 2478163 2467718 2461903 2459918 2460907 2463859 
3094.494 2467929 2472617 2477796 2483793 2490942 2499567 2509501 2520192 
3098.351 2530616 2539756 2546953 2552132 2555816 2558884 2562172 2566173 
3102.208 2570658 2574903 2577954 2579047 2577770 2573956 2567791 2559213 
3106.066 2547970 2533629 2515772 2494629 2470956 2446157 2421963 2399937 
3109.923 2380760 2364359 2349654 2335145 2319332 2301178 2280282 2256909 
3113.781 2231769 2205809 2180024 2155463 2133038 2113662 2098068 2086792 
3117.638 2079898 2077031 2077646 2081021 2086548 2093631 2101904 2110683 
3121.496 2119066 2125824 2129588 2129171 2124128 2114973 2103314 2091462 
3125.353 2081880 2076680 2076790 2082086 2090993 2101229 2110100 2115216 
3129.210 2114857 2108380 2096255 2079915 2061454 2043181 2027263 2015187 
3133.068 2007375 2003311 2001565 2000281 1997532 1992031 1983259 1971514 
3136.925 1957687 1942930 1928055 1913387 1898621 1883167 1866381 1848094 
3140.783 1828739 1809571 1792224 1778428 1769566 1766208 1768051 1774031 
3144.640 1782367 1791119 1798363 1802525 1802527 1798059 1789470 1778046 
3148.498 1765648 1754537 1746921 1744260 1746927 1753782 1762522 1770111 
3152.355 1773609 1771150 1762394 1748608 1732226 1716117 1702597 1692906 
3156.212 1686983 1683767 1681727 1679664 1676764 1673069 1668938 1665007 
3160.070 1661679 1659293 1657882 1657584 1658557 1660953 1664759 1669650 
3163.927 1674901 1679550 1682726 1683969 1683313 1681307 1678780 1676274 
3167.785 1673926 1671333 1667805 1662861 1656514 1649537 1643324 1639502 
3171.642 1639347 1643361 1651057 1661065 1671535 1680602 1686724 1689206 
3175.500 1687939 1683530 1677010 1669637 1662644 1657153 1653845 1653083 
3179.357 1654549 1657583 1661183 1664293 1666188 1666569 1665690 1664427 
3183.214 1663868 1665081 1668718 1674898 1683088 1692114 1700385 1706510 
3187.072 1709185 1707861 1702569 1694079 1683511 1672150 1661085 1651163 
3190.929 1642939 1636725 1632853 1631686 1633506 1638378 1645864 1654991 
3194.787 1664078 1671444 1675597 1675935 1672790 1667542 1662004 1657986 
3198.644 1656510 1657671 1660667 1664147 1666899 1668245 1668238 1667684 
3202.501 1667624 1669024 1672154 1676811 1682092 1686935 1690274 1691495 
3206.359 1690373 1687347 1683084 1678561 1674617 1671996 1670967 1671476 
3210.216 1673040 1675036 1676870 1678361 1679722 1681654 1685118 1690996 
3214.074 1699582 1710511 1722597 1734094 1743115 1748027 1747857 1742506 
3217.931 1732717 1719925 1705813 1692259 1680808 1672713 1668547 1668419 
3221.789 1671693 1677291 1683907 1690244 1695275 1698567 1700260 1701055 
3225.646 1701774 1703251 1705832 1709431 1713497 1717229 1719856 1721012 
3229.503 1720706 1719425 1717948 1717153 1717507 1718988 1721109 1722960 
3233.361 1723531 1722172 1718730 1713778 1708381 1703774 1700826 1699788 
3237.218 1700019 1700305 1699114 1695392 1688660 1679472 1668956 1658590 
3241.076 1649515 1642480 1637703 1635056 1634397 1635847 1639624 1645838 
3244.933 1654078 1663201 1671360 1676582 1677397 1673564 1666201 1657878 
3248.791 1651535 1649765 1653899 1663569 1676981 1691510 1704606 1714554 
3252.648 1720808 1723812 1724603 1724192 1723040 1721210 1718244 1713694 
3256.505 1707330 1699413 1690501 1681411 1672932 1665728 1660183 1656681 
3260.363 1655505 1656887 1660914 1667535 1676301 1686482 1697060 1706952 
3264.220 1715118 1720638 1722972 1721934 1717709 1710754 1701892 1691987 
3268.078 1681860 1672115 1663013 1654666 1647106 1640618 1635927 1634161 
3271.935 1636552 1644075 1656857 1673967 1693432 1712533 1728632 1739597 
3275.792 1744511 1743471 1737475 1727970 1716221 1703228 1689759 1676639 
3279.650 1664979 1656241 1651932 1653264 1660381 1672232 1686487 1700108 
3283.507 1710068 1714250 1711925 1703948 1692423 1680146 1669827 1663550 
3287.365 1662394 1666451 1674974 1686719 1700255 1714094 1726956 1737781 
3291.222 1745751 1750434 1751718 1750053 1746189 1741132 1736040 1731985 
3295.080 1729619 1729254 1730722 1733640 1737498 1741910 1746822 1752342 
3298.937 1758574 1765393 1772082 1777467 1779952 1778075 1771069 1759254 
3302.794 1744103 1727974 1713514 1702796 1696796 1695105 1696249 1698215 
3306.652 1699239 1698355 1695587 1691853 1688383 1686300 1686157 1687846 
3310.509 1690799 1694120 1696998 1698844 1699124 1697673 1694332 1689291 
3314.367 1682914 1675959 1669546 1664777 1662663 1663705 1667849 1674408 
3318.224 1682370 1690747 1698815 1706418 1713824 1721665 1730568 1741055 
3322.082 1753206 1766499 1780041 1792585 1802702 1809321 1811781 1810248 
3325.939 1805567 1799278 1793033 1788236 1785660 1785338 1786713 1789127 
3329.796 1792056 1795622 1800374 1806994 1815795 1826332 1837398 1847317 
3333.654 1854430 1857854 1857608 1854608 1850130 1845248 1840387 1835178 
3337.511 1828847 1820700 1810726 1799674 1789057 1780410 1774885 1772834 
3341.369 1773795 1776820 1780899 1785372 1789958 1794624 1799168 1803051 
3345.226 1805264 1804805 1800868 1793370 1783176 1771745 1760861 1752042 
3349.083 1746162 1743359 1743059 1744546 1746966 1749723 1752380 1754588 
3352.941 1755954 1756026 1754333 1750727 1745365 1738810 1732005 1725975 
3356.798 1721586 1719357 1719289 1720977 1723701 1726674 1729118 1730425 
3360.656 1730122 1727868 1723439 1716563 1706923 1694373 1679014 1661442 
3364.513 1642717 1624553 1608923 1597698 1592221 1593070 1599716 1610922 
3368.371 1624885 1639813 1654148 1666773 1676939 1684149 1687893 1687840 
3372.228 1683911 1676590 1667006 1656867 1648025 1642041 1639539 1640215 
3376.085 1642711 1645254 1646168 1644479 1639983 1633154 1624942 1616287 
3379.943 1607924 1600375 1594171 1589981 1588475 1590310 1595613 1603727 
3383.800 1613182 1621960 1628076 1630293 1628676 1624609 1620597 1619353 
3387.658 1623090 1632605 1647142 1664444 1681367 1694842 1702583 1703791 
3391.515 1699214 1690940 1681778 1674229 1670134 1669962 1673214 1678616 
3395.373 1684897 1691350 1698215 1706311 1716585 1729517 1744459 1759634 
3399.230 1772672 1781325 1784314 1782024 1776414 1770575 1767621 1770108 
3403.087 1779122 1794349 1814480 1837702 1862374 1887389 1912128 1936468 
3406.945 1960371 1983782 2006654 2028940 2050629 2071799 2092589 2113079 
3410.802 2133267 2153166 2172808 2192379 2212106 2231991 2251792 2270774 
3414.660 2288167 2303302 2316214 2327922 2340348 2355769 2376039 2402026 
3418.517 2432964 2466865 2500968 2532656 2560255 2583333 2602570 2619182 
3422.375 2634393 2649044 2663423 2677576 2691700 2706315 2722183 2740033 
3426.232 2760158 2782048 2804632 2826390 2845993 2862501 2875644 2885652 
3430.089 2892952 2897855 2900349 2900246 2897303 2891588 2883621 2874273 
3433.947 2864702 2856068 2849301 2844828 2842547 2841739 2841116 2838834 
3437.804 2833068 2822309 2805998 2784703 2760400 2735745 2713478 2695318 
3441.662 2681381 2669914 2657969 2642271 2620428 2591754 2557507 2520297 
3445.519 2483376 2449541 2420521 2396917 2378277 2363708 2352130 2342442 
3449.376 2333344 2323175 2310091 2292418 2269216 2240985 2209699 2178595 
3453.234 2151309 2130577 2117630 2111657 2110176 2109832 2107594 2101477 
3457.091 2091085 2077321 2062150 2047859 2036504 2029515 2027578 2030348 
3460.949 2036524 2044003 2049962 2051445 2046136 2032778 2011845 1985373 
3464.806 1956479 1928560 1904382 1885644 1872567 1864627 1860850 1860470 
3468.664 1862927 1867853 1874618 1882050 1888459 1892052 1891558 1886835 
3472.521 1879000 1869964 1861730 1855626 1851548 1848169 1843507 1835812 
3476.378 1824595 1810822 1796826 1785601 1779634 1780265 1787417 1799786 
3480.236 1815369 1832218 1848759 1863881 1876684 1886302 1891669 1891791 
3484.093 1886162 1875342 1860860 1845429 1831971 1823105 1820048 1822416 
3487.951 1828200 1834361 1837856 1836471 1829551 1818111 1804644 1792182 
3491.808 1783696 1781109 1784903 1794050 1806433 1819335 1830274 1837477 
3495.666 1840321 1839261 1835646 1831255 1827860 1827009 1829443 1835398 
3499.523 1844417 1855435 1866997 1877494 1885410 1889734 1890359 1888034 
3503.380 1884510 1881960 1882513 1887475 1896848 1909387 1922825 1934562 
3507.238 1942501 1945582 1944072 1939229 1932996 1927290 1923681 1923191 
3511.095 1926377 1933511 1944689 1959478 1977032 1995547 2012489 2025072 
3514.953 2030920 2028826 2019354 2004875 1988929 1975082 1966274 1963567 
3518.810 1966293 1972468 1979673 1986123 1991311 1996076 2002200 2011532 
3522.667 2025289 2043238 2064035 2085349 2104943 2120980 2133067 2141841 
3526.525 2148958 2156232 2165014 2175814 2187874 2199583 2208864 2213924 
3530.382 2213739 2208499 2199602 2189326 2180235 2174585 2173908 2178432 
3534.240 2187352 2199008 2211499 2223186 2232832 2240092 2245142 2248552 
3538.097 2250833 2252377 2253172 2253182 2252548 2251700 2251698 2253849 
3541.955 2259349 2268720 2281466 2295837 2309212 2318944 2323051 2320982 
3545.812 2313904 2304200 2294685 2287684 2284022 2283140 2283330 2282698 
3549.669 2280382 2276693 2273242 2272117 2274802 2281346 2290137 2298429 
3553.527 2303485 2303702 2299317 2292253 2285259 2280870 2280210 2282708 
3557.384 2286546 2289584 2290612 2289774 2288792 2289855 2294727 2303851 
3561.242 2315900 2328216 2337733 2341872 2339385 2330388 2316199 2298591 
3565.099 2279290 2259615 2240632 2223097 2207680 2195090 2185987 2180551 
3568.957 2178711 2179941 2183186 2187308 2190831 2192112 2189275 2180712 
3572.814 2165256 2142896 2115228 2085277 2057255 2035377 2022760 2020236 
3576.671 2026307 2037315 2048699 2056411 2058022 2053144 2043387 2031368 
3580.529 2019731 2010075 2002809 1997248 1991867 1985101 1976001 1963941 
3584.386 1949125 1932130 1913881 1895365 1877748 1862148 1849649 1841129 
3588.244 1837046 1837449 1842028 1850050 1860506 1872205 1884041 1894906 
3592.101 1904195 1911729 1917963 1924006 1931135 1940535 1952879 1967978 
3595.958 1985026 2002767 2020129 2036447 2051599 2065657 2078464 2089087 
3599.816 2096003 2097372 2091849 2079469 2061912 2042538 2025289 2013854 
3603.673 2010375 2014829 2025357 2038684 2051217 2059893 2062771 2059099 
3607.531 2049202 2034193 2015874 1996620 1979216 1966703 1961866 1966538 
3611.388 1981256 2004717 2034226 2066247 2097228 2124168 2145403 2160259 
3615.246 2169024 2172374 2171352 2167073 2160995 2154892 2150597 2149875 
3619.103 2154015 2163250 2177134 2194452 2213834 2233953 2254006 2273362 
3622.960 2291530 2307806 2321345 2331380 2337565 2340119 2340186 2339083 
3626.818 2338052 2337644 2337491 2336581 2333670 2328110 2320438 2312154 
3630.675 2305540 2302843 2305432 2313578 2326245 2341739 2358106 2373843 
3634.533 2388155 2400626 2411316 2419929 2425877 2428243 2426019 2418532 
3638.390 2406050 2389587 2371040 2352467 2335739 2321787 2310403 2300413 
3642.248 2289918 2277010 2260780 2241414 2220625 2201130 2185931 2177452 
3646.105 2176883 2183785 2196239 2211406 2226383 2238667 2246773 2250136 
3649.962 2248999 2243886 2235411 2224099 2210381 2194722 2177612 2159494 
3653.820 2140979 2122242 2103711 2085716 2068946 2054406 2043350 2036832 
3657.677 2035419 2038695 2045324 2053244 2060393 2065062 2066526 2064980 
3661.535 2061295 2056428 2050995 2044824 2037225 2027116 2013906 1997571 
3665.392 1978897 1959323 1940619 1924322 1911392 1902087 1896040 1892316 
3669.250 1889625 1886662 1882123 1875196 1865376 1852784 1838196 1822732 
3673.107 1807758 1794368 1783340 1774809 1768430 1763528 1759387 1755246 
3676.964 1750882 1746062 1740845 1735406 1730101 1725436 1722187 1721266 
3680.822 1723205 1727882 1734372 1740716 1744448 1743319 1736243 1723872 
3684.679 1708722 1694632 1685622 1684671 1692593 1707605 1725982 1743019 
3688.537 1754416 1757858 1753293 1742719 1729128 1715239 1702619 1690974 
3692.394 1678906 1664611 1646889 1626085 1604043 1583679 1568060 1559177 
3696.251 1557686 1562230 1570462 1579512 1587031 1591867 1594080 1594709 
3700.109 1594966 1595669 1596694 1597113 1595426 1590083 1580365 1566607 
3703.966 1550392 1533977 1520025 1510469 1506130 1506599 1510266 1514975 
3707.824 1518608 1519748 1517812 1513084 1506271 1498228 1489687 1481020 
3711.681 1472699 1465344 1459924 1457593 1459099 1464342 1472096 1480063 
3715.539 1485411 1485765 1479968 1468627 1454151 1439947 1429519 1425403 
3719.396 1428721 1439040 1454873 1474294 1495464 1516679 1536807 1554477 
3723.253 1568641 1578412 1583514 1584740 1583849 1583243 1584969 1590174 
3727.111 1598374 1607311 1614106 1615725 1610606 1598784 1582217 1563964 
3730.968 1547217 1534512 1526984 1524322 1525019 1526926 1527823 1525747 
3734.826 1519511 1508752 1494356 1478271 1463357 1452676 1448928 1453239 
3738.683 1465025 1481866 1500413 1517404 1530910 1540880 1549238 1558863 
3742.541 1572435 1591258 1614561 1639664 1662873 1680775 1691386 1694475 
3746.398 1691558 1684952 1677015 1669477 1662992 1657434 1652113 1646138 
3750.255 1638682 1629328 1617900 1604702 1590533 1576689 1564952 1557117 
3754.113 1554881 1559187 1570127 1586724 1607337 1629654 1651552 1670955 
3757.970 1686630 1697755 1704139 1706019 1703884 1698337 1690031 1679495 
3761.828 1667257 1653883 1640142 1627054 1616129 1608804 1606566 1610073 
3765.685 1618960 1631770 1646185 1659394 1669229 1674134 1673793 1668696 
3769.542 1659952 1648720 1635972 1622490 1609043 1596566 1586207 1579064 
3773.400 1576021 1577081 1581601 1588167 1595380 1602152 1608194 1613934 
3777.257 1620207 1627619 1636095 1644751 1652018 1656201 1656184 1651815 
3781.115 1643940 1634380 1625287 1618596 1615664 1616908 1621824 1629134 
3784.972 1637157 1644079 1648393 1649199 1646507 1641102 1634301 1627651 
3788.830 1622470 1619406 1618648 1619881 1622611 1626598 1631677 1637937 
3792.687 1645392 1653598 1662074 1670120 1677394 1683958 1690575 1698058 
3796.544 1706980 1717035 1727068 1735184 1739589 1739161 1734230 1726384 
3800.402 1718269 1712557 1711107 1714417 1721458 1730091 1737849 1742247 
3804.259 1741691 1735249 1723047 1706054 1686012 1665319 1646916 1633389 
3808.117 1626805 1627622 1634889 1646097 1657895 1666930 1670686 1668053 
3811.974 1659462 1646531 1631531 1616797 1604420 1596048 1592740 1594971 
3815.832 1602538 1614269 1628227 1641907 1652756 1658855 1659486 1655197 
3819.689 1647929 1639917 1633605 1630474 1631127 1635246 1641809 1649436 
3823.546 1656771 1662265 1664458 1662057 1654201 1640839 1623212 1603521 
3827.404 1584813 1569931 1561063 1558788 1562378 1569966 1579503 1589286 
3831.261 1598675 1607810 1617320 1627577 1638477 1649074 1657865 1663257 
3835.119 1664069 1659748 1650521 1637379 1621717 1605373 1590310 1578543 
3838.976 1571693 1571004 1576659 1587904 1603084 1619606 1634770 1646032 
3842.833 1651626 1650830 1644208 1633378 1620939 1609848 1603051 1602583 
3846.691 1609192 1621865 1638095 1654201 1666579 1672416 1670719 1662232 
3850.548 1649414 1635086 1621826 1611076 1602978 1596954 1592346 1588936 
3854.406 1587291 1588315 1592511 1599662 1608350 1616705 1622985 1626518 
3858.263 1628089 1629635 1633492 1641354 1653325 1667755 1681892 1692635 
3862.121 1698029 1697647 1693075 1687067 1682687 1682198 1686586 1695231 
3865.978 1706480 1718107 1728262 1735650 1739789 1740848 1739524 1736528 
3869.835 1732470 1727762 1722523 1716699 1710135 1702676 1694255 1684836 
3873.693 1674480 1663294 1651418 1639151 1627142 1616323 1608095 1603938 
3877.550 1605071 1611912 1623750 1638745 1654343 1667907 1677658 1682996 
3881.408 1684855 1685116 1685832 1688407 1693022 1698613 1703387 1705315 
3885.265 1703238 1696960 1687494 1676700 1666633 1659191 1655676 1656714 
3889.123 1662202 1671350 1682999 1695394 1706712 1715207 1719588 1719228 
3892.980 1714489 1706336 1696304 1685867 1676418 1668857 1663941 1662035 
3896.837 1663336 1667988 1675654 1685567 1696408 1706588 1714604 1719319 
3900.695 1720563 1719000 1715974 1713143 1711957 1713162 1716835 1722352 
3904.552 1728381 1733587 1736559 1736499 1733079 1726806 1718924 1711289 
3908.410 1705928 1704438 1707723 1715483 1726400 1738486 1749528 1757849 
3912.267 1762754 1764321 1763582 1761808 1760387 1760224 1761803 1765049 
3916.125 1769474 1774124 1777844 1779636 1778754 1775286 1770322 1765698 
3919.982 1763711 1766146 1773714 1785314 1798285 1809157 1814739 1813162 
3923.839 1804831 1791900 1777850 1766242 1759296 1757725 1760609 1765900 
3927.697 1771665 1776565 1780281 1783381 1786586 1790476 1794999 1799234 
3931.554 1801903 1801505 1797012 1787936 1774670 1758440 1741034 1724588 
3935.412 1711076 1701828 1697203 1696383 1697684 1699091 1698891 1696278 
3939.269 1691556 1685792 1680382 1676289 1673830 1672558 1671932 1671596 
3943.126 1672183 1674749 1680628 1690389 1703427 1717815 1730861 1740001 
3946.984 1743847 1742448 1737613 1731839 1727637 1726552 1728984 1734192 
3950.841 1740989 1748171 1754853 1760650 1765350 1768622 1770148 1769583 
3954.699 1766873 1762507 1757519 1752966 1749869 1748744 1749474 1751462 
3958.556 1754207 1757362 1760823 1764709 1768954 1773108 1776426 1777995 
3962.414 1777204 1773944 1768920 1763084 1757474 1752658 1748823 1745638 
3966.271 1742996 1741044 1740671 1743154 1749634 1760713 1775900 1793577 
3970.128 1811540 1827314 1839172 1846271 1849169 1849087 1847954 1847274 
3973.986 1847950 1849612 1851208 1850793 1846491 1837194 1823208 1806184 
3977.843 1789237 1775897 1769120 1770347 1778927 1792134 1805984 1816546 
3981.701 1821086 1818906 1811819 1803037 1796547 1795565 1801745 1814610 
3985.558 1831925 1850245 1865996 1876170 1879081 1874566 1863947 1849558 
3989.416 1834219 1820493 1810199 1804018 1801456 1801220 1801825 1802029 
3993.273 1801324 1799884 1798376 1797550 1797861 1799482 1802509 1806928 
3997.130 1813234 1821965 1833296 1846665 1860279 1871219 1876347 1873023 
##END=
