##TITLE=Tecor_PETG_White_Filament_r2_ATR-Corrected
##JCAMP-DX=5.01  $$ Nicolet v. 1
##DATATYPE=INFRARED SPECTRUM
##ORIGIN=Curtin University
##OWNER=Nicolet
##LONGDATE=2024/07/19
##TIME=09:13:47
##SPECTROMETER/DATA SYSTEM=Nicolet iS50
##DATA PROCESSING=
Ratio against background
%Transmittance->Absorbance
ATR Correction
Truncated
ElementMultiply or ElementDivide
##COMMENTS=
Number of sample scans: 32
Collection length: 47.28 sec
Sample gain: 1.0
Background collected on: Fri Jul 19 09:12:30 2024 (GMT+08:00);
Number of background scans: 32
Background gain: 1.0
Sample spacing:  1.000
Number of scan points: 16672
Resolution points: 8192
Number of FFT points: 65536
Apodization: N-B strong;
Phase correction: Mertz;
Laser frequency: 15798.3 cm-1
Number of rejected sample scans: 0
Number of rejected background scans: 0
Bench serial number: AUP1200105;
##RESOLUTION=4.000
##XUNITS=1/CM
##YUNITS=ABSORBANCE
##FIRSTX=400.163452
##LASTX=4000.187744
##FIRSTY=0.043583
##MAXX=4000.187744
##MINX=400.163452
##MAXY=1.602032
##MINY=-0.034895
##XFACTOR=1.000000
##YFACTOR=1.000000E-008
##NPOINTS=7468
##DELTAX=0.482125
##ZPD=8192
##XYDATA=(X++(Y..Y))
400.163 4358250 4388276 4401896 4395785 4369782 4326461 4271174 4210660 
404.020 4151478 4098276 4053201 4016024 3984996 3957889 3932719 3908253 
407.877 3883680 3858586 3832789 3806387 3780211 3756019 3736651 3725670 
411.734 3726494 3741545 3771347 3814061 3865604 3920187 3971377 4013348 
415.591 4041960 4055545 4055239 4044630 4029141 4014951 4008032 4012945 
419.448 4032310 4066370 4113292 4169695 4231570 4295155 4357577 4417063 
423.305 4472896 4524974 4573377 4617978 4658383 4693855 4723465 4746091 
427.162 4760393 4764794 4757773 4738249 4706388 4664276 4616305 4568879 
431.019 4529273 4504060 4497433 4509952 4539005 4579196 4624287 4668827 
434.876 4709458 4744996 4775759 4802251 4823952 4838827 4843726 4835670 
438.733 4813381 4778437 4735385 4690931 4652128 4624483 4610323 4608195 
442.590 4613329 4619026 4618588 4607000 4582099 4544779 4498453 4447984 
446.447 4398441 4354144 4318048 4291572 4274795 4266772 4265952 4270445 
450.304 4278240 4287284 4295517 4300924 4301681 4296456 4284723 4267070 
454.161 4245374 4222585 4202298 4187843 4181448 4183413 4191751 4202387 
458.017 4210031 4209472 4196942 4171307 4134556 4091525 4048964 4013962 
461.874 3992409 3987554 3999325 4024111 4056024 4087805 4112575 4125262 
465.731 4123530 4108175 4082679 4052327 4023009 4000104 3987575 3987569 
469.588 4000299 4024369 4057165 4095300 4135077 4172947 4205890 4231799 
473.445 4249815 4260447 4265439 4267416 4269295 4273594 4281929 4294708 
477.302 4311209 4329926 4349096 4367175 4383186 4396818 4408391 4418597 
481.159 4428408 4438918 4451317 4466840 4486660 4511832 4543044 4580508 
485.016 4623868 4672223 4724236 4778295 4832680 4885749 4936204 4983319 
488.873 5027266 5069294 5111844 5158330 5212642 5278456 5358531 5454198 
492.730 5565262 5690314 5827361 5974393 6129933 6292931 6462381 6636622 
496.587 6812742 6986250 7151381 7301790 7431666 7536707 7614726 7665703 
500.444 7691169 7693273 7673835 7633630 7572316 7488805 7382033 7251928 
504.301 7100097 6930199 6747833 6559901 6373691 6195829 6031392 5883379 
508.158 5752584 5638069 5537744 5449129 5369887 5298165 5232597 5172190 
512.015 5116226 5064193 5015893 4971448 4931289 4895888 4865388 4839317 
515.871 4816400 4794821 4772756 4748998 4723468 4697346 4672745 4651981 
519.728 4636762 4627569 4623464 4622291 4621227 4617493 4608818 4593768 
523.585 4571737 4542887 4507980 4468195 4424999 4379926 4334260 4288719 
527.442 4243253 4197097 4149087 4098264 4044452 3988560 3932557 3878954 
531.299 3830029 3787184 3750500 3718821 3690176 3662438 3633786 3603117 
535.156 3569971 3534422 3496896 3458019 3418623 3379695 3342253 3307103 
539.013 3274518 3244073 3214750 3185311 3154860 3123357 3091815 3062024 
542.870 3035926 3014819 2998812 2986683 2976213 2964974 2951037 2933471 
546.727 2912447 2888830 2863741 2838023 2812106 2786086 2759998 2734130 
550.584 2709056 2685625 2664698 2646957 2632790 2622321 2615482 2612031 
554.441 2611411 2612661 2614230 2614137 2610235 2600865 2585400 2564613 
558.298 2540684 2516641 2495625 2480017 2470863 2467727 2468989 2472490 
562.155 2476190 2478727 2479553 2478826 2477011 2474472 2471178 2466652 
566.012 2460167 2451139 2439560 2426256 2412910 2401736 2394923 2393929 
569.869 2398843 2408228 2419302 2428589 2432887 2430142 2420019 2403946 
573.725 2384611 2365085 2347963 2334690 2325409 2319257 2314954 2311482 
577.582 2308494 2306465 2306402 2309456 2316460 2327627 2342448 2359842 
581.439 2378383 2396668 2413644 2428844 2442524 2455601 2469360 2485030 
585.296 2503221 2523473 2544165 2562671 2576002 2581677 2578508 2567073 
589.153 2549648 2529651 2510749 2495952 2486951 2483984 2486038 2491411 
593.010 2498211 2504824 2510043 2513087 2513557 2511347 2506715 2500315 
596.867 2493075 2486090 2480277 2476086 2473311 2471180 2468654 2464842 
600.724 2459412 2452783 2446070 2440744 2438238 2439534 2444992 2454230 
604.581 2466327 2479957 2493632 2505837 2515221 2520762 2521969 2519055 
608.438 2513046 2505679 2499129 2495590 2496783 2503586 2515882 2532691 
612.295 2552452 2573466 2594271 2613873 2631726 2647653 2661594 2673474 
616.152 2683120 2690439 2695566 2699007 2701794 2705286 2710948 2719951 
620.009 2732929 2749855 2770187 2793244 2818559 2846184 2876650 2910666 
623.866 2948629 2990250 3034540 3080324 3127170 3176523 3232390 3301267 
627.723 3390944 3508369 3656979 3834304 4030633 4229260 4408728 4546635 
631.579 4624194 4630453 4564628 4436170 4262398 4064659 3864182 3678703 
635.436 3520387 3395404 3304560 3244844 3211132 3197654 3199060 3210869 
639.293 3229555 3252275 3276762 3301115 3323871 3344107 3361502 3376364 
643.150 3389445 3401804 3414490 3428410 3444213 3462220 3482454 3504642 
647.007 3528248 3552553 3576783 3600340 3623027 3645290 3668211 3693354 
650.864 3722393 3756618 3796500 3841488 3890052 3940020 3988978 4034805 
654.721 4075850 4111109 4140118 4162861 4179782 4191755 4200142 4206819 
658.578 4213949 4223659 4237627 4256765 4281075 4309850 4342019 4376551 
662.435 4412773 4450454 4489650 4530456 4572855 4616648 4661659 4707941 
666.292 4755937 4806448 4860383 4918376 4980471 5046048 5113991 5183090 
670.149 5252466 5321916 5391936 5463527 5537858 5615960 5698590 5786210 
674.006 5879125 5977542 6081538 6190795 6304418 6420616 6536739 6649528 
677.863 6755448 6851239 6934282 7002811 7055971 7093719 7116776 7126506 
681.720 7124944 7114773 7099213 7081800 7066042 7055054 7051283 7056307 
685.577 7070892 7095159 7128750 7171093 7221462 7279114 7343281 7413315 
689.433 7488769 7569568 7656187 7749616 7851406 7963465 8087893 8226832 
693.290 8382254 8555963 8749482 8963989 9200122 9457867 9736291 10033462 
697.147 10346504 10671833 11005586 11344146 11684629 12025197 12365079 
700.522 12704395 13043724 13383569 13724048 14064664 14404479 14742367 
703.897 15077458 15409440 15738709 16066331 16393837 16723038 17055800 
707.272 17394144 17740362 18097274 18468506 18858734 19273814 19720856 
710.647 20208382 20746296 21345888 22019746 22781578 23645860 24627448 
714.021 25741190 27001512 28422082 30015242 31791458 33758188 35918584 
717.396 38269956 40802216 43496852 46326508 49255500 52240748 55232300 
720.771 58172680 60993796 63612248 65924120 67804888 69117864 69736152 
724.146 69573584 68613616 66920628 64626896 61901736 58917648 55825340 
727.521 52741440 49746660 46890216 44196492 41672080 39311800 37103496 
730.896 35031384 33078348 31227296 29462070 27768030 26132688 24546142 
734.270 23001566 21495392 20027234 18599476 17216616 15884544 14609700 
737.645 13398486 12256759 11189418 10200229 9291549 8464251 7717616 7049354 
741.502 6455835 5932322 5473391 5073271 4726164 4426368 4168258 3946284 
745.359 3754960 3589067 3443936 3315748 3201816 3100523 3011149 2933489 
749.216 2867417 2812671 2768762 2735082 2711003 2695955 2689295 2690090 
753.073 2696961 2708104 2721506 2735470 2749083 2762500 2776799 2793578 
756.930 2814162 2839006 2867417 2897648 2927458 2954854 2978614 2998613 
760.787 3015579 3030708 3045123 3059605 3074596 3090448 3107770 3127598 
764.644 3151327 3180275 3215222 3255916 3300990 3348139 3394692 3438244 
768.501 3477195 3511000 3540092 3565530 3588473 3609839 3630020 3648927 
772.358 3666263 3681729 3695354 3707626 3719442 3731979 3746421 3763727 
776.214 3784564 3809248 3837942 3870847 3908329 3951037 3999770 4055281 
780.071 4118058 4188156 4265184 4348567 4437823 4532984 4634811 4744810 
783.928 4865066 4997828 5145127 5308481 5488803 5686551 5901926 6135150 
787.785 6386483 6656061 6943438 7246820 7562266 7882941 8198541 8495225 
791.642 8756201 8962915 9097098 9143198 9090958 8937553 8688790 8359029 
795.499 7969814 7547290 7119107 6711198 6345071 6035956 5792057 5614798 
799.356 5499893 5439009 5421524 5436380 5473384 5524201 5582725 5644924 
803.213 5708613 5772824 5837310 5902138 5967383 6032960 6098412 6162977 
807.070 6225535 6284807 6339533 6388811 6432274 6470243 6503574 6533395 
810.927 6560702 6586078 6609468 6630361 6648017 6661957 6672248 6679593 
814.784 6685202 6690381 6696117 6702792 6710115 6717401 6723984 6729610 
818.641 6734723 6740412 6748156 6759368 6774997 6795323 6819918 6847980 
822.498 6878634 6911315 6945976 6983103 7023539 7068216 7117912 7173017 
826.355 7233501 7298941 7368649 7441845 7517855 7596254 7676965 7760282 
830.212 7846784 7937275 8032512 8133067 8239075 8350196 8465603 8584068 
834.068 8704203 8824687 8944449 9062826 9179550 9294685 9408439 9520961 
837.925 9632169 9741579 9848285 9950966 10047968 10137543 10218024 10288082 
841.782 10346934 10394544 10431527 10459114 10478901 10492549 10501545 
845.157 10507011 10509700 10510097 10508542 10505357 10500954 10495716 
848.532 10489978 10483842 10477211 10469884 10461812 10453272 10445067 
851.907 10438546 10435340 10437066 10444912 10459413 10480391 10507163 
855.282 10538937 10575240 10616243 10662857 10716601 10779241 10852419 
858.656 10937385 11034890 11145382 11269286 11407398 11561176 11732851 
862.031 11925420 12142416 12387675 12665087 12978487 13331476 13727404 
865.406 14169328 14659858 15200867 15793066 16435413 17124202 17852280 
868.781 18608154 19375550 20133380 20856528 21517456 22088508 22544608 
872.156 22865936 23039966 23062522 22937556 22675856 22293060 21807428 
875.531 21237976 20603234 19920474 19205562 18472822 17735040 17003276 
878.905 16286823 15593159 14928004 14295644 13699248 13141088 12622774 
882.280 12145320 11709145 11314085 10959436 10644010 10366150 10123744 
885.655 9914216 9734462 9580918 9449840 9337664 9241442 9159225 9090216 
889.512 9034608 8993159 8966601 8955137 8958054 8973736 8999874 9033865 
893.369 9073211 9115749 9159743 9203748 9246483 9286693 9323086 9354493 
897.226 9379940 9398746 9410578 9415250 9412609 9402266 9383597 9355614 
901.083 9317295 9267662 9206159 9132817 9048363 8954229 8852405 8745234 
904.940 8635147 8524343 8414669 8307419 8203329 8102657 8005349 7911152 
908.797 7819871 7731442 7646081 7564276 7486769 7414490 7348343 7289115 
912.654 7237218 7192649 7154958 7123423 7097259 7075888 7059167 7047420 
916.510 7041313 7041642 7048994 7063620 7085319 7113591 7147877 7187765 
920.367 7233165 7284213 7341178 7404212 7473192 7547705 7627097 7710648 
924.224 7797721 7887797 7980461 8075330 8171887 8269566 8367753 8465938 
928.081 8563717 8660857 8757133 8852161 8945286 9035586 9122037 9203762 
931.938 9280291 9351718 9418669 9482126 9543112 9602470 9660797 9718420 
935.795 9775570 9832500 9889487 9946670 10003870 10060382 10114959 10165977 
939.652 10211890 10251696 10285337 10313892 10339411 10364566 10392154 
943.027 10424650 10463960 10511401 10567906 10634264 10711256 10799721 
946.402 10900346 11013380 11138394 11274207 11418927 11570404 11726567 
949.776 11885973 12048022 12212964 12381732 12555453 12735122 12921226 
953.151 13113753 13312377 13516790 13727140 13944282 14169782 14405684 
956.526 14654104 14916734 15194376 15486942 15793467 16112427 16442098 
959.901 16780820 17127084 17479376 17835904 18194286 18551348 18903172 
963.276 19245372 19573624 19884192 20174382 20442728 20689016 20913902 
966.651 21118514 21303988 21471210 21620636 21752346 21866150 21961700 
970.025 22038474 22095824 22132882 22148760 22142526 22113616 22061834 
973.400 21987584 21891620 21774822 21637884 21481070 21304268 21107154 
976.775 20889626 20652194 20396204 20123848 19837842 19541120 19236316 
980.150 18925526 18610204 18291230 17969116 17644302 17317354 16989190 
983.525 16661191 16335246 16013695 15699273 15394823 15103136 14826685 
986.899 14567509 14327163 14106762 13906965 13728182 13570507 13433762 
990.274 13317379 13220567 13142329 13081750 13038193 13011467 13001813 
993.649 13009746 13035724 13079938 13142134 13221690 13317844 13430001 
997.024 13557912 13701738 13861886 14038734 14232384 14442647 14669169 
1000.399 14911804 15171027 15448239 15745862 16067390 16417170 16800342 
1003.774 17222854 17691422 18213660 18797872 19452692 20186654 21007566 
1007.148 21922236 22936486 24055566 25284854 26630494 28099822 29701036 
1010.523 31442254 33329592 35364520 37540592 39839552 42227052 44648584 
1013.898 47026208 49258100 51222336 52787220 53827960 54247368 53994764 
1017.273 53076528 51554292 49531932 47136552 44499908 41744336 38974716 
1020.648 36275300 33709944 31324210 29147918 27197832 25479910 23991476 
1024.022 22722936 21659576 20783178 20073528 19509776 19071446 18739266 
1027.398 18495602 18324798 18213286 18149650 18124588 18130812 18162882 
1030.773 18216800 18289770 18379766 18485248 18604948 18737730 18882682 
1034.148 19039092 19206496 19384554 19572980 19771216 19978222 20192286 
1037.523 20410960 20631258 20849908 21063710 21269820 21465948 21650298 
1040.899 21821446 21978126 22118942 22242358 22346740 22430470 22492168 
1044.274 22530950 22546602 22539808 22512258 22466722 22406882 22337172 
1047.649 22262188 22186116 22112180 22042268 21976898 21915526 21857272 
1051.024 21801616 21749022 21701192 21660926 21631586 21616490 21618318 
1054.400 21638796 21678716 21738216 21817256 21916054 22035400 22176738 
1057.775 22342038 22533636 22753898 23005032 23288886 23606902 23960168 
1061.150 24349538 24775652 25239164 25740644 26280644 26859408 27476940 
1064.525 28132752 28826028 29555824 30321374 31122330 31959050 32832376 
1067.901 33743520 34693660 35683596 36713700 37783876 38893804 40043068 
1071.276 41231124 42457176 43719844 45017004 46345796 47703024 49085604 
1074.651 50491136 51917844 53364332 54828824 56308312 57798164 59292148 
1078.026 60783172 62264376 63729884 65175332 66597544 67993880 69361440 
1081.402 70696792 71996280 73257008 74477720 75659672 76806512 77923528 
1084.777 79016320 80089632 81146288 82187024 83210728 84215280 85198256 
1088.152 86157544 87091424 87998432 88876528 89722368 90530328 91292016 
1091.527 91996160 92629072 93175608 93620432 93949056 94148624 94208040 
1094.903 94118048 93871176 93462048 92888072 92150424 91254280 90208936 
1098.278 89026608 87721312 86307072 84797136 83203376 81536664 79807104 
1101.653 78024784 76200048 74344168 72469376 70589784 68721488 66883100 
1105.028 65095656 63382024 61765968 60270864 58918404 57727468 56712984 
1108.404 55885196 55249048 54803468 54540972 54447276 54501392 54676120 
1111.779 54939252 55255240 55587292 55899668 56159608 56339032 56415628 
1115.154 56373452 56203068 55901540 55471636 54920984 54260636 53503544 
1118.529 52663080 51751976 50781620 49761940 48701572 47608136 46488416 
1121.905 45348600 44194408 43031312 41864704 40700224 39543860 38401892 
1125.280 37280468 36185168 35120432 34089236 33093074 32132244 31206318 
1128.655 30314740 29457188 28633732 27844786 27090758 26371834 25687718 
1132.030 25037540 24419908 23832948 23274472 22741998 22232916 21744468 
1135.406 21273982 20818946 20377138 19946734 19526292 19114728 18711250 
1138.781 18315346 17926772 17545592 17172168 16807034 16450736 16103585 
1142.156 15765357 15435325 15112346 14795138 14482787 14174984 13872285 
1145.531 13575809 13287000 13007039 12736435 12474835 12221132 11973783 
1148.906 11731303 11492753 11257921 11027392 10802304 10584060 10373954 
1152.282 10172960 9981663 9800228 9628578 9466545 9313929 9170622 9036643 
1156.139 8912049 8796944 8691440 8595488 8509033 8431866 8363833 8304808 
1159.997 8254880 8214370 8183926 8164503 8157348 8164101 8186721 8227636 
1163.854 8289678 8376027 8489992 8634566 8812022 9023376 9267931 9543069 
1167.711 9844168 10164776 10497000 10831937 11160285 11472890 11761321 
1171.087 12018371 12238336 12417323 12553145 12645242 12694325 12702085 
1174.462 12670842 12603343 12502596 12371913 12214923 12035604 11838259 
1177.837 11627470 11407986 11184550 10961856 10744416 10536546 10342289 
1181.212 10165280 10008661 9874827 9765368 9680974 9621502 9586119 9573608 
1185.070 9582560 9611721 9660086 9727062 9812344 9915823 10037375 10176735 
1188.927 10333341 10506296 10694497 10896708 11111735 11338545 11576372 
1192.302 11824700 12083258 12351892 12630500 12918954 13216984 13524140 
1195.678 13839793 14163151 14493349 14829604 15171395 15518580 15871541 
1199.053 16231084 16598342 16974570 17360894 17758142 18166696 18586612 
1202.428 19017682 19459664 19912376 20375868 20850450 21336652 21835204 
1205.803 22347034 22873212 23415036 23974028 24551968 25150762 25772322 
1209.179 26418400 27090410 27789250 28515470 29269308 30051032 30861092 
1212.554 31700316 32569792 33470654 34403704 35369060 36366004 37392984 
1215.929 38447852 39528248 40631856 41756564 42900372 44061252 45237032 
1219.304 46425436 47624324 48832096 50047900 51271544 52503240 53743040 
1222.680 54990452 56244468 57503820 58767992 60037996 61316796 62609220 
1226.055 63921196 65258700 66626848 68029456 69469192 70948176 72468640 
1229.430 74033312 75645152 77306784 79019632 80783280 82595216 84450608 
1232.805 86342672 88262504 90199152 92139392 94067960 95967952 97821560 
1236.181 99610712 101317192 102922272 104405976 105746672 106921944 
1239.074 107910432 108695056 109265720 109620808 109766496 109714520 
1241.967 109479000 109074296 108514152 107812592 106985048 106049656 
1244.860 105026952 103938688 102806064 101648160 100481256 99319064 98173296 
1248.235 97054472 95972112 94934696 93949360 93021680 92155792 91354968 
1251.610 90621904 89958880 89367328 88847224 88396296 88009440 87678568 
1254.986 87393136 87140416 86906176 86674648 86428920 86150976 85822632 
1258.361 85426608 84948112 84376064 83703880 82929304 82053528 81080432 
1261.736 80015736 78866992 77643720 76357560 75022016 73651608 72260600 
1265.111 70861840 69465960 68081328 66714508 65370900 64055384 62772584 
1268.487 61526744 60321320 59158748 58040332 56966388 55936552 54950188 
1271.862 54006428 53104288 52242320 51418560 50630260 49874048 49145992 
1275.237 48441984 47757864 47089760 46434204 45788332 45149984 44517792 
1278.612 43891128 43269956 42654516 42045060 41441492 40843336 40249684 
1281.988 39659380 39071256 38484188 37897168 37309224 36719388 36126748 
1285.363 35530496 34930216 34325956 33718288 33108104 32496268 31883394 
1288.738 31269524 30654188 30036532 29415814 28791652 28164304 27534684 
1292.113 26904282 26274828 25648048 25025562 24408666 23798552 23196278 
1295.489 22602996 22020010 21448894 20891648 20350716 19829046 19330022 
1298.864 18857314 18414546 18004784 17629988 17290536 16984938 16709809 
1302.239 16460201 16230193 16013561 15804462 15597920 15390059 15178213 
1305.614 14960647 14736500 14505513 14267944 14024527 13776501 13525489 
1308.990 13273506 13022730 12775335 12533243 12298038 12070766 11851989 
1312.365 11641794 11439864 11245589 11058193 10876805 10700618 10528885 
1315.740 10361050 10196681 10035512 9877315 9721923 9569059 9418373 9269401 
1319.597 9121686 8974780 8828444 8682790 8538346 8396184 8257797 8125087 
1323.455 8000210 7885372 7782882 7694999 7624081 7572634 7543519 7539946 
1327.312 7565554 7624444 7721100 7860287 8046989 8286179 8582550 8939867 
1331.170 9360435 9844210 10388142 10985634 11626309 12296144 12977977 
1334.545 13652322 14298360 14895268 15423572 15866457 16210985 16448779 
1337.920 16576330 16594811 16509397 16328457 16062601 15723862 15324812 
1341.295 14878012 14395520 13888566 13367385 12841082 12317600 11803633 
1344.671 11304615 10824672 10366737 9932663 9523427 9139447 8780771 8447283 
1348.528 8138796 7855114 7595940 7360781 7148915 6959271 6790519 6641144 
1352.385 6509676 6394853 6295800 6212098 6143677 6090632 6053115 6031137 
1356.243 6024670 6033749 6058798 6100833 6161634 6243714 6350150 6484163 
1360.100 6648903 6847111 7080916 7351788 7660452 8006812 8389866 8807575 
1363.958 9256816 9733289 10231570 10745267 11267162 11789474 12304147 
1367.333 12803029 13278179 13722019 14127508 14488381 14799345 15056404 
1370.708 15257221 15401335 15490295 15527442 15517570 15466262 15379313 
1374.083 15262146 15119426 14954835 14771080 14569955 14352714 14120148 
1377.459 13872962 13612011 13338478 13053985 12760578 12460695 12156943 
1380.834 11852016 11548537 11248978 10955559 10670365 10395290 10132102 
1384.209 9882475 9648048 9430368 9230869 9050842 8891305 8752935 8636124 
1388.067 8541000 8467472 8415394 8384661 8375299 8387420 8421414 8477878 
1391.924 8557761 8662383 8793494 8953137 9143674 9367631 9627618 9926192 
1395.781 10265791 10648515 11075909 11548628 12066202 12626916 13227934 
1399.157 13865773 14537150 15239637 15972440 16736473 17534144 18368340 
1402.532 19241088 20151812 21095618 22061548 23031502 23979642 24872840 
1405.907 25672188 26335680 26821744 27093428 27122370 26892204 26400632 
1409.282 25659978 24695964 23545266 22251838 20863024 19425708 17983150 
1412.658 16572565 15223774 13958578 12790969 11727892 10770449 9915296 
1416.033 9156226 8485413 7894506 7375338 6920243 6522190 6174722 5871989 
1419.890 5608702 5380172 5182362 5011832 4865731 4741678 4637650 4551968 
1423.748 4483252 4430417 4392746 4369762 4361305 4367292 4387762 4422676 
1427.605 4471910 4535211 4612181 4702272 4804778 4918869 5043573 5177757 
1431.463 5320196 5469504 5624202 5782735 5943488 6104712 6264676 6421516 
1435.320 6573448 6718770 6856017 6984115 7102473 7210981 7309936 7399992 
1439.177 7482030 7557033 7626074 7690248 7750670 7808421 7864613 7920395 
1443.035 7976995 8035800 8098256 8165843 8239882 8321300 8410505 8507395 
1446.892 8611342 8721438 8836756 8956402 9079651 9205659 9333353 9461193 
1450.750 9587124 9708728 9823376 9928764 10023056 10105012 10173958 10229494 
1454.607 10271366 10299320 10313234 10313305 10300247 10275275 10240041 
1457.982 10196180 10145045 10087453 10023709 9953685 9877187 9794069 9704527 
1461.840 9609169 9509084 9406028 9302473 9201575 9107154 9023284 8953939 
1465.697 8902478 8871429 8862399 8876298 8913492 8974082 9057834 9163964 
1469.555 9290814 9435460 9593558 9759424 9926196 10086343 10231962 10355236 
1473.412 10448597 10504970 10517956 10482319 10394372 10252672 10058222 
1476.787 9814687 9527904 9205189 8854500 8483681 8100090 7710420 7320712 
1480.645 6936458 6562467 6202835 5860647 5538062 5236281 4955881 4696975 
1484.502 4459461 4243003 4047016 3870498 3712082 3570096 3442818 3328682 
1488.360 3226453 3135278 3054629 2984176 2923710 2873201 2832817 2802929 
1492.217 2784235 2777525 2783601 2803122 2836621 2884570 2947718 3027230 
1496.074 3124975 3243585 3386501 3558049 3763505 4009142 4302030 4649226 
1499.932 5056460 5525877 6053696 6627927 7227199 7821177 8372782 8842257 
1503.789 9192308 9393457 9428633 9295873 9008642 8593407 8085271 7522415 
1507.647 6941040 6371473 5836243 5349768 4919295 4546524 4229164 3962483 
1511.504 3740461 3556677 3404933 3279614 3175843 3089577 3017516 2957091 
1515.362 2906438 2864265 2829838 2802677 2782483 2768785 2760899 2757903 
1519.219 2758785 2762574 2768576 2776280 2785419 2795673 2806630 2817710 
1523.076 2828203 2837502 2845210 2851200 2855482 2858037 2858623 2856681 
1526.934 2851414 2842071 2828238 2810019 2788053 2763292 2736654 2708691 
1530.791 2679443 2648553 2615510 2580089 2542648 2504082 2465826 2429271 
1534.649 2395523 2365127 2338052 2313874 2292097 2272343 2254426 2238390 
1538.506 2224254 2211994 2201464 2192472 2184932 2178954 2174819 2172791 
1542.364 2172996 2175228 2178887 2183107 2187072 2190156 2192188 2193433 
1546.221 2194525 2196173 2199055 2203529 2209744 2217602 2226929 2237537 
1550.078 2249288 2262116 2275985 2290785 2306342 2322358 2338494 2354275 
1553.936 2369232 2382946 2395108 2405564 2414531 2422457 2430142 2438576 
1557.793 2448824 2461826 2478309 2498548 2522429 2549436 2578826 2609714 
1561.651 2641291 2672954 2704483 2736126 2768746 2803631 2842457 2886878 
1565.508 2938302 2997559 3064878 3140007 3222493 3312134 3409250 3514825 
1569.365 3630430 3757872 3898853 4054593 4225810 4412620 4614730 4831327 
1573.223 5061109 5301622 5548908 5796912 6037474 6260636 6455614 6612088 
1577.080 6721406 6777520 6777329 6720602 6609701 6449226 6245772 6007756 
1580.938 5744915 5467705 5186423 4910290 4646754 4401081 4176543 3974638 
1584.795 3795708 3639255 3504235 3389134 3291991 3210413 3141723 3083151 
1588.653 3032195 2986784 2945415 2907101 2871214 2837324 2805154 2774589 
1592.510 2745798 2719330 2696099 2677249 2663888 2656835 2656430 2662496 
1596.367 2674520 2691887 2714105 2740875 2772157 2808010 2848357 2892922 
1600.225 2941247 2992778 3047020 3103693 3162817 3224649 3289595 3358023 
1604.082 3430259 3506507 3586805 3671144 3759345 3850981 3945334 4041348 
1607.940 4137615 4232551 4324607 4412302 4494531 4570322 4638864 4699208 
1611.797 4750165 4790124 4817178 4829188 4824147 4800486 4757436 4695360 
1615.655 4615914 4522069 4417817 4307746 4196534 4088372 3986666 3893780 
1619.512 3811160 3739429 3678556 3628077 3587243 3555130 3530755 3513151 
1623.369 3501356 3494498 3491723 3492234 3495302 3500267 3506628 3513932 
1627.227 3521875 3530044 3538055 3545377 3551523 3556163 3559351 3561511 
1631.084 3563564 3566584 3571614 3579239 3589539 3602031 3615888 3630229 
1634.942 3644476 3658403 3672106 3685871 3699844 3713920 3727793 3741047 
1638.799 3753383 3764800 3775651 3786464 3797949 3810663 3825090 3841544 
1642.656 3860180 3881045 3903992 3928581 3954148 3979887 4005142 4029698 
1646.514 4054004 4079081 4106285 4136817 4171153 4208965 4249171 4290414 
1650.371 4331616 4372462 4413609 4456461 4502637 4553436 4609345 4670081 
1654.229 4734811 4802758 4873594 4947657 5025914 5109554 5199728 5297150 
1658.086 5402163 5514683 5634487 5761290 5894986 6035490 6182860 6337172 
1661.944 6498541 6667048 6842684 7025234 7214244 7408944 7608425 7811761 
1665.801 8018157 8227203 8438580 8652179 8867703 9084635 9302311 9520108 
1669.658 9737758 9955537 10174302 10395139 10619239 10847501 11080600 
1673.034 11319139 11563964 11816222 12077410 12348845 12631328 12924591 
1676.409 13227350 13537562 13853119 14172323 14494352 14819081 15146820 
1679.784 15477875 15812126 16149108 16488220 16828988 17171382 17515764 
1683.159 17862658 18212434 18565332 18921438 19281136 19645452 20016306 
1686.535 20396360 20788764 21196692 21623214 22071242 22543794 23044222 
1689.910 23576308 24143866 24750652 25399744 26093874 26835698 27628652 
1693.285 28477534 29388698 30369302 31426260 32565042 33789076 35100456 
1696.660 36501752 37998176 39599180 41318740 43173708 45181072 47355068 
1700.036 49705052 52235896 54950000 57850812 60945724 64247216 67771224 
1703.411 71533976 75547936 79819000 84344872 89115624 94114240 99317064 
1706.786 104692232 110197544 115778352 121367624 126888456 132258704 
1709.679 137394304 142210800 146621872 150538640 153872512 156544800 
1712.572 158499376 159714096 160203152 160010240 159195120 157822016 
1715.465 155953520 153652112 150983664 148018912 144830032 141483552 
1718.358 138033072 134516352 130957320 127372016 123775184 120184168 
1721.251 116619160 113100376 109644344 106261584 102956392 99729248 96579592 
1724.627 93508120 90517096 87609344 84786144 82046096 79384784 76796224 
1728.002 74274608 71815864 69418112 67080980 64804084 62585604 60421520 
1731.377 58306140 56233104 54196996 52194448 50224792 48289408 46390832 
1734.752 44531424 42712428 40933444 39192760 37487948 35816812 34178084 
1738.128 32571942 30999998 29465086 27970638 26520134 25116500 23762080 
1741.503 22458592 21207530 20010392 18868942 17785186 16761056 15797907 
1744.878 14896145 14054911 13271964 12543960 11867043 11237372 10651786 
1748.253 10108050 9604885 9141506 8717107 8330290 7978631 7658846 7366944 
1752.111 7098920 6851168 6620789 6405744 6204644 6016519 5840772 5676949 
1755.968 5524696 5383732 5253651 5133734 5022879 4919689 4822718 4730750 
1759.826 4643199 4559932 4481153 4407001 4337101 4270537 4206081 4142712 
1763.683 4080134 4018983 3960639 3906702 3858089 3814697 3775105 3737172 
1767.541 3698710 3658304 3615810 3572255 3529285 3488457 3450733 3416130 
1771.398 3384051 3353655 3324248 3295608 3267859 3241361 3216335 3192831 
1775.255 3170760 3150051 3130678 3112747 3096207 3080820 3065991 3051010 
1779.113 3035197 3018286 3000444 2982302 2964467 2947436 2931301 2915847 
1782.970 2900848 2886279 2872453 2859800 2848589 2838540 2828677 2817546 
1786.828 2803659 2786091 2764803 2740625 2714883 2689012 2663983 2640275 
1790.685 2618064 2597553 2579271 2564026 2552606 2545159 2540882 2537979 
1794.542 2534066 2526902 2515181 2498908 2479306 2458334 2437996 2419698 
1798.400 2403975 2390705 2379317 2369326 2360437 2352516 2345336 2338385 
1802.257 2330810 2321767 2310658 2297595 2283424 2269636 2257894 2249526 
1806.115 2245163 2244524 2246393 2249019 2250415 2248764 2242857 2232345 
1809.972 2217974 2201420 2185057 2171348 2162158 2158061 2158246 2160623 
1813.830 2162551 2161797 2157390 2149965 2141640 2135266 2133396 2137482 
1817.687 2147461 2162034 2179206 2197147 2214468 2230362 2244152 2254877 
1821.544 2261069 2261152 2253972 2239505 2219150 2195607 2171979 2151066 
1825.402 2134236 2121389 2111030 2101114 2089739 2075798 2058987 2039689 
1829.259 2018341 1995271 1970592 1944485 1917546 1891024 1866635 1845938 
1833.117 1829766 1817785 1808266 1798818 1786991 1771429 1752329 1731432 
1836.974 1711419 1694933 1683710 1677924 1676230 1676278 1675509 1671932 
1840.832 1664461 1652944 1637835 1619781 1599386 1577222 1553963 1530680 
1844.689 1508793 1489889 1475086 1464550 1457137 1450395 1441237 1426721 
1848.546 1404877 1375367 1339503 1299886 1259521 1221260 1186976 1157599 
1852.404 1133030 1112837 1096342 1083192 1073150 1066143 1061985 1060329 
1856.261 1060518 1061691 1062696 1062367 1059536 1053390 1043585 1030637 
1860.119 1015844 1001357 989543 982332 980538 983409 988613 992725 992325 
1864.458 985053 970486 950522 928878 910286 899087 898056 907568 925532 
1868.798 947869 969603 986181 994514 993698 984948 971099 955512 941088 
1873.137 929578 921140 914720 908769 901929 893484 883660 873171 862930 
1877.477 853496 845303 838709 834547 834132 839103 850643 868558 890764 
1881.817 913454 932011 942503 942896 933964 918772 901422 885285 871694 
1886.156 859759 847213 832035 814086 795613 780850 773991 777532 790527 
1890.496 808887 826388 837291 838182 829205 813757 797037 783948 777653 
1894.835 778713 785809 796612 809155 822315 835858 849614 863086 875117 
1899.175 884218 889189 889847 887087 882315 877049 871686 865460 856753 
1903.515 843736 825437 802228 775891 749046 724407 704069 689210 680253 
1907.854 677105 679577 687599 701130 719975 743393 770266 798920 827483 
1912.194 853990 876682 894168 905662 910808 910133 904653 895802 884830 
1916.533 872482 858928 843855 827064 809003 790937 774818 762249 753952 
1920.873 749023 745133 739358 729911 717428 705417 699603 705976 728382 
1925.213 766524 815313 866076 908964 936306 944905 937220 920500 904467 
1929.552 898140 907466 933580 973125 1019444 1064651 1101886 1126388 1136220 
1933.892 1132041 1116228 1092044 1062758 1031071 999445 969717 943607 923218 
1938.231 910917 909404 921029 947310 988140 1040916 1100547 1159955 1210974 
1942.571 1245939 1259421 1249414 1218293 1172299 1120181 1071771 1035759 
1946.428 1018109 1020908 1042531 1078322 1122059 1167025 1207366 1238043 
1950.286 1255294 1256097 1238621 1202648 1150352 1086449 1018247 953857 
1954.143 900176 860841 834693 816154 796818 768064 724204 663904 591113 
1958.483 513720 441715 385309 353165 351857 385332 454214 554244 675343 
1962.823 800920 910024 980932 997139 952840 855469 724801 587979 471493 
1967.162 394526 363970 374518 413041 463799 514167 556356 587653 607986 
1971.502 616963 613640 597638 571254 542220 522623 527094 567636 649792 
1975.841 769175 912993 1062361 1197997 1303489 1368348 1387815 1361399 
1979.699 1291895 1185533 1052310 907758 771586 665361 608016 610307 671065 
1984.038 776252 901736 1018857 1101912 1134009 1110767 1039947 938177 825579 
1988.378 720202 634018 571309 530212 505801 493139 489994 497460 518542 
1992.718 555087 605802 664665 722291 767800 792999 794385 773521 735899 
1997.057 687650 632744 572129 504234 427500 343488 258233 181210 121975 
2001.397 86499 73820 75949 80982 78557 64582 44205 29842 36569 75651 148462 
2006.701 245602 349921 443302 513440 556853 577388 581448 572557 548244 
2011.040 501151 423591 313924 180358 41327 -79029 -158978 -186233 -163278 
2015.380 -107140 -44497 -4141 -8739 -68923 -181528 -331776 -497889 -657572 
2019.719 -793336 -896080 -965625 -1008645 -1035739 -1056615 -1077377 
2023.095 -1098389 -1115997 -1123818 -1117151 -1094732 -1060242 -1020798 
2026.470 -983834 -954697 -934103 -918255 -901106 -876658 -841736 -797280 
2030.327 -747397 -697102 -650975 -611455 -579130 -553329 -533361 -519408 
2034.185 -511632 -509836 -512954 -518795 -524565 -527768 -526450 -518407 
2038.042 -500913 -470059 -421820 -353114 -264688 -161975 -55283 43271 122787 
2042.382 177246 207371 219344 221697 222381 225347 230856 238216 248884 
2046.721 268761 308374 378870 486573 627473 785943 937515 1056775 1124398 
2051.061 1132729 1086628 1001013 895745 790771 701739 637480 599287 582862 
2055.401 580285 583705 587353 588877 589234 591877 600934 619536 647792 
2059.740 682671 717607 744421 755807 747980 722218 685020 646306 616023 
2064.080 600771 601855 615270 633807 650501 661764 668721 676572 691422 
2068.419 717450 754080 795903 834324 861073 871541 866948 854357 844325 
2072.759 847967 873152 922834 994077 1079398 1168928 1252701 1322581 1373284 
2077.099 1402864 1412021 1403432 1380783 1347948 1308092 1263804 1216981 
2080.956 1169393 1123002 1080424 1044617 1018237 1002718 997749 1000983 
2084.813 1008673 1016529 1021223 1021082 1016563 1009595 1002820 998512 
2088.671 997819 1000652 1005973 1012199 1017770 1021354 1021842 1018509 
2092.528 1011256 1000747 988797 978196 972200 973420 982717 998711 1018058 
2096.868 1036666 1051293 1061097 1067601 1074130 1083857 1098061 1115217 
2100.725 1131455 1141985 1143390 1135443 1121589 1107902 1100967 1105079 
2104.583 1120762 1144223 1168527 1185956 1190173 1177716 1149040 1107811 
2108.440 1059855 1012361 972399 946434 939120 952563 985491 1033009 1087129 
2112.780 1138301 1177808 1200056 1203764 1192071 1170741 1145680 1120259 
2116.637 1094323 1063756 1023089 967435 895315 809294 715606 622446 537513 
2120.977 466095 410789 371599 347102 335532 334944 342994 356107 369200 
2125.316 376121 371015 349868 311993 260136 199424 135532 72447 11562 -48786 
2130.138 -111711 -180173 -255094 -334725 -415237 -491696 -559479 -615076 
2133.996 -655964 -680356 -686612 -673296 -640632 -591394 -532028 -472356 
2137.853 -423733 -396411 -396543 -424675 -475287 -538586 -602913 -657877 
2141.710 -696326 -715262 -715677 -702131 -681655 -662843 -654942 -666980 
2145.568 -705553 -773798 -869599 -986160 -1112430 -1236374 -1346908 -1437403 
2149.425 -1506228 -1556983 -1597635 -1639252 -1693990 -1774753 -1892409 
2152.801 -2054214 -2261011 -2505470 -2770395 -3030905 -3257059 -3418471 
2156.176 -3489464 -3453255 -3305672 -3056101 -2727487 -2354660 -1978478 
2159.551 -1638956 -1367917 -1183067 -1085917 -1062059 -1085786 -1125539 
2162.926 -1150973 -1141663 -1091248 -1010430 -922013 -853197 -825934 -847829 
2166.784 -910549 -992676 -1067312 -1111818 -1114508 -1077439 -1013638 
2170.159 -941515 -877498 -830844 -801662 -782779 -764419 -738682 -703570 
2174.016 -663852 -629217 -610986 -617982 -653953 -716695 -799179 -891662 
2177.874 -983889 -1066883 -1133579 -1178133 -1195974 -1182863 -1135875 
2181.249 -1054028 -939979 -801463 -652189 -509204 -391484 -315314 -289705 
2185.106 -314068 -377608 -461238 -542116 -599036 -617784 -594157 -534353 
2188.964 -452083 -364271 -286170 -227665 -191602 -175296 -172195 -175460 
2192.821 -180009 -183900 -188344 -196569 -212315 -237823 -272796 -313791 
2196.679 -354467 -386234 -400800 -391764 -357079 -300398 -230653 -160265 
2200.536 -102039 -65463 -53610 -62423 -81636 -97878 -99373 -79238 -37642 
2204.876 18725 79246 133157 173177 197324 209064 215077 222861 237162 258958 
2209.698 285042 309139 324631 326187 311613 282163 241949 197392 155232 
2214.037 122406 104802 107294 133305 184710 261102 359371 473228 593257 
2218.377 707720 803752 869897 898031 885486 835626 758098 666627 576447 
2222.716 501220 450031 425794 425205 439964 459791 475607 482077 478927 
2227.056 470748 464717 468103 485219 515522 553938 592281 622386 639044 
2231.396 642516 638189 635319 643685 669883 714782 772965 833896 885579 
2235.735 917995 926076 910940 879073 839605 801609 771251 751140 740422 
2240.075 736685 737547 742270 751769 768259 793619 828418 870998 917720 
2244.414 963290 1002183 1029536 1041812 1037823 1018471 987071 948629 909186 
2248.754 874523 848637 832617 824322 818738 809956 793214 767126 734672 
2253.094 702749 680325 675635 693668 734796 794776 866423 941686 1014084 
2257.433 1079321 1135275 1181135 1216412 1240238 1251483 1249907 1236405 
2261.291 1213880 1186579 1159350 1136425 1120572 1112929 1113629 1122502 
2265.148 1139549 1165030 1198887 1240003 1285582 1331406 1372730 1405327 
2269.005 1426965 1437873 1440544 1439026 1437430 1438934 1445014 1455169 
2272.863 1467439 1478874 1486415 1487579 1481346 1468460 1451860 1436311 
2276.720 1427431 1430497 1448602 1481704 1526101 1575385 1622188 1660489 
2280.578 1687138 1702940 1711852 1719383 1730366 1747382 1770092 1795582 
2284.435 1819987 1839788 1853314 1860789 1864076 1865519 1867078 1869619 
2288.292 1872779 1875384 1875802 1872788 1865466 1853695 1837984 1819230 
2292.150 1798593 1777255 1756044 1735363 1715009 1694358 1672480 1648811 
2296.007 1623206 1596320 1569291 1543627 1520378 1500209 1483120 1468710 
2299.865 1456646 1446767 1439128 1433898 1430880 1429222 1427641 1424766 
2303.722 1419668 1412323 1403805 1395881 1390449 1388803 1391216 1397026 
2307.580 1404738 1412763 1419676 1424589 1426928 1426651 1423890 1419380 
2311.437 1414534 1411458 1412568 1420036 1434808 1456043 1481199 1506619 
2315.294 1528809 1545683 1557313 1565831 1574548 1586592 1604027 1627436 
2319.152 1656415 1690571 1730204 1776402 1829985 1890029 1952353 2009136 
2323.009 2050122 2065051 2046439 1992069 1905602 1795910 1674868 1554955 
2326.867 1446653 1356913 1288624 1241000 1210853 1193993 1186297 1184355 
2330.724 1185483 1187643 1189116 1188760 1186159 1181821 1177121 1173805 
2334.582 1173492 1176927 1183622 1192057 1200089 1205822 1208061 1206789 
2338.439 1202946 1198097 1193842 1191445 1191557 1194266 1199182 1205655 
2342.296 1212917 1219969 1226051 1230351 1232546 1232870 1232038 1231237 
2346.154 1231758 1234443 1239616 1246752 1254837 1262665 1269299 1274407 
2350.011 1278335 1281822 1285651 1290317 1295814 1301589 1306925 1311229 
2353.869 1314246 1316262 1317859 1319686 1322225 1325565 1329332 1332943 
2357.726 1335503 1336172 1334276 1329306 1320787 1308638 1292999 1274561 
2361.583 1254344 1233933 1214927 1198737 1186180 1177357 1171734 1168343 
2365.441 1166488 1165878 1166908 1170517 1177666 1188849 1203722 1221081 
2369.298 1239109 1255980 1270323 1281580 1289970 1296025 1300309 1303049 
2373.156 1304102 1303371 1300959 1297758 1294985 1294180 1296340 1301491 
2377.013 1308503 1315445 1320213 1321303 1318241 1311762 1303315 1294603 
2380.871 1286830 1280652 1276173 1273458 1272709 1274414 1279021 1286478 
2384.728 1295827 1305196 1312111 1314458 1311176 1302671 1290846 1278218 
2388.585 1267259 1259342 1254572 1251988 1250068 1247698 1244293 1240117 
2392.443 1235658 1231230 1226663 1221212 1213930 1204172 1191898 1177839 
2396.300 1163069 1148858 1136176 1125651 1117741 1112905 1111787 1115032 
2400.158 1122820 1134551 1148533 1162304 1173089 1178879 1178882 1174133 
2404.015 1166838 1159910 1155719 1155556 1159125 1165041 1171201 1175784 
2407.873 1177665 1176642 1173173 1168177 1162477 1156621 1150803 1145081 
2411.730 1139453 1134171 1129492 1125992 1124189 1124413 1126562 1130095 
2415.587 1133759 1135831 1134503 1128278 1116635 1100365 1081727 1063903 
2419.445 1050229 1043263 1043957 1051375 1062865 1075146 1085018 1090506 
2423.302 1091217 1088092 1082749 1076658 1070410 1063479 1054490 1041975 
2427.160 1024974 1003722 979794 955651 934240 917949 908434 905926 909705 
2431.499 918287 930134 943921 958888 974789 991530 1008703 1025544 1040641 
2435.839 1052258 1058752 1058946 1052606 1040334 1023482 1003674 982605 
2439.696 961768 942576 926397 914929 909659 911749 921226 936751 955250 
2444.036 972844 985338 989841 985391 973415 957330 941445 929711 924847 
2448.375 927565 936907 950634 966022 980402 991618 997994 998551 992884 
2452.715 981621 966278 949308 933736 922483 917446 919078 926179 936196 
2457.055 946104 953043 955202 951946 943649 931265 916017 899161 881974 
2461.394 865990 852831 844117 841009 843584 850553 859361 866774 869793 
2465.734 866479 856830 842507 826780 813158 804740 803142 808203 818073 
2470.073 829844 840260 846935 848660 845937 840702 835762 833646 835989 
2474.413 842514 851373 859177 862471 858635 847198 829909 810514 793615 
2478.753 783428 782372 790668 806360 826086 846205 863740 877048 885727 
2483.092 890312 891871 891488 890142 888704 888171 889514 893657 900967 
2487.432 911132 922847 934111 942709 946894 945754 939687 930121 919212 
2491.771 909208 901898 898117 898107 901288 906854 913781 921236 928411 
2496.111 934554 938856 940573 939144 934575 927299 918485 909785 902919 
2500.451 899276 899750 904486 913161 925043 939365 955284 972089 988712 
2504.790 1003927 1016218 1024400 1027824 1027041 1023868 1021062 1021569 
2508.648 1027605 1039779 1056920 1076380 1094860 1109323 1118111 1120798 
2512.505 1118154 1111353 1101497 1088970 1074043 1056991 1039010 1022153 
2516.363 1009230 1002901 1004903 1015173 1031816 1051543 1070674 1086274 
2520.220 1096864 1102743 1105730 1108414 1113319 1122255 1136076 1154323 
2524.077 1175801 1198559 1220502 1239520 1253927 1262642 1265161 1261616 
2527.935 1252656 1239229 1222637 1204381 1186384 1170899 1160300 1156572 
2531.792 1160616 1171877 1188046 1205564 1220639 1230228 1233298 1230789 
2535.650 1225247 1219524 1215761 1214259 1213809 1212390 1208709 1202747 
2539.507 1196596 1193302 1195834 1205431 1221214 1240207 1258520 1272812 
2543.365 1281800 1286289 1288657 1291545 1296611 1303658 1310939 1315901 
2547.222 1316748 1312880 1305439 1296485 1288245 1281985 1277988 1275571 
2551.079 1273888 1272649 1272488 1274422 1279506 1287801 1298189 1308248 
2554.937 1315236 1316855 1312339 1302568 1290266 1279092 1272767 1274207 
2558.794 1284859 1304257 1330283 1359202 1386592 1407967 1419785 1420232 
2562.652 1409802 1391165 1368896 1348032 1333064 1326572 1328783 1337559 
2566.509 1349257 1360039 1367192 1369886 1369360 1368393 1370124 1376915 
2570.366 1389589 1406936 1426285 1444221 1457866 1465540 1467318 1464776 
2574.224 1460436 1456605 1454872 1455274 1456705 1457082 1454482 1447513 
2578.081 1436259 1421973 1406957 1393737 1384685 1381127 1383454 1390943 
2581.939 1402272 1415591 1429142 1441425 1451250 1458009 1461543 1462181 
2585.796 1460708 1458047 1455236 1452902 1451497 1450890 1450735 1450596 
2589.654 1450154 1449398 1448712 1448772 1450486 1454488 1461258 1470678 
2593.511 1482052 1494093 1505085 1513076 1516408 1513769 1504870 1490415 
2597.368 1472189 1452651 1434801 1421369 1414525 1415363 1423817 1438533 
2601.226 1457166 1476683 1494044 1506633 1512952 1512926 1507969 1500430 
2605.083 1493177 1488520 1487710 1490454 1495298 1500074 1502873 1502757 
2608.941 1500118 1496488 1494127 1494990 1500324 1510175 1523486 1538593 
2612.798 1553647 1567162 1578287 1586649 1592406 1595793 1597309 1597392 
2616.656 1596658 1595712 1595294 1596036 1598425 1602732 1608933 1616828 
2620.513 1626170 1636512 1647466 1658399 1668728 1677801 1685113 1690294 
2624.370 1693366 1694455 1694068 1692710 1690928 1689339 1688475 1688829 
2628.228 1690641 1693815 1697857 1701723 1704202 1704152 1700987 1694821 
2632.085 1686714 1678243 1671069 1666294 1664385 1664814 1666589 1668515 
2635.943 1669840 1670322 1670317 1670445 1671389 1673558 1677137 1681925 
2639.800 1687797 1694453 1701618 1708856 1715529 1720730 1723568 1723224 
2643.657 1719493 1712622 1703490 1693269 1683313 1674688 1668204 1664193 
2647.515 1662725 1663455 1665841 1669012 1671979 1673753 1673612 1671332 
2651.372 1667296 1662384 1657720 1654197 1652205 1651417 1650906 1649421 
2655.230 1645990 1640095 1631967 1622282 1611979 1601843 1592329 1583348 
2659.087 1574489 1565137 1554746 1542958 1529612 1514852 1498989 1482542 
2662.945 1466100 1450289 1435770 1422910 1411994 1403007 1395904 1390478 
2666.802 1386581 1384041 1382610 1381813 1380890 1378947 1375231 1369257 
2670.659 1361304 1352291 1343607 1336729 1332716 1331881 1333716 1337112 
2674.517 1340768 1343538 1344794 1344372 1342524 1339635 1336116 1332201 
2678.374 1328214 1324449 1321320 1319151 1318248 1318620 1320043 1322177 
2682.232 1324724 1327597 1330973 1335179 1340420 1346635 1353384 1359938 
2686.089 1365593 1369963 1373101 1375509 1377874 1380798 1384490 1388579 
2689.947 1392327 1394832 1395371 1393564 1389535 1383754 1376978 1369966 
2693.804 1363538 1358173 1354180 1351586 1350111 1349313 1348750 1348051 
2697.661 1347307 1346987 1347933 1350942 1356558 1364629 1374405 1384484 
2701.519 1393372 1399781 1403184 1403824 1402542 1400571 1399007 1398613 
2705.376 1399733 1402287 1405913 1410138 1414402 1418141 1420818 1422007 
2709.234 1421551 1419632 1416841 1414038 1412081 1411523 1412419 1414390 
2713.091 1416788 1419060 1421141 1423424 1426800 1432135 1440086 1450500 
2716.948 1462596 1475063 1486476 1495743 1502412 1506621 1509197 1511007 
2720.806 1513010 1515698 1519383 1523992 1529288 1535024 1541019 1547108 
2724.663 1553290 1559484 1565662 1571687 1577385 1582553 1586964 1590404 
2728.521 1592839 1594376 1595281 1595893 1596623 1597685 1599196 1601038 
2732.378 1603000 1604861 1606540 1608118 1609916 1612294 1615665 1620260 
2736.236 1626087 1632872 1640047 1646727 1652068 1655156 1655401 1652609 
2740.093 1647128 1639767 1631714 1624082 1617848 1613481 1610936 1609801 
2743.950 1609503 1609519 1609571 1609651 1609869 1610179 1610517 1610486 
2747.808 1609855 1608495 1606673 1604988 1604235 1605080 1607856 1612332 
2751.665 1617882 1623563 1628525 1632139 1634210 1634727 1633866 1631839 
2755.523 1628728 1624672 1620059 1615482 1612014 1610749 1612708 1618363 
2759.380 1627385 1638560 1649917 1659257 1664695 1665172 1660720 1652639 
2763.238 1643052 1634390 1628743 1627263 1629970 1635781 1642941 1649640 
2767.095 1654593 1657317 1658211 1658137 1658091 1658640 1659868 1661283 
2770.952 1662289 1662411 1661667 1660437 1659394 1659105 1659767 1661089 
2774.810 1662459 1663364 1663541 1663279 1663372 1664790 1668345 1674300 
2778.667 1682329 1691436 1700433 1708025 1713357 1716066 1716448 1715146 
2782.525 1713153 1711411 1710744 1711648 1714227 1718268 1723414 1729134 
2786.382 1735146 1741281 1747523 1753898 1760397 1766776 1772802 1777939 
2790.240 1782008 1784962 1787223 1789381 1792131 1795924 1800986 1807056 
2794.097 1813767 1820603 1827281 1833652 1839771 1845601 1851094 1856006 
2797.954 1860063 1863104 1865195 1866600 1867835 1869438 1871871 1875398 
2801.812 1880264 1886415 1893945 1902743 1912600 1923000 1933225 1942311 
2805.669 1949398 1954003 1956172 1956442 1955805 1955185 1955219 1956065 
2809.527 1957451 1958799 1959608 1959585 1958813 1957616 1956502 1955815 
2813.384 1955829 1956590 1958015 1959781 1961434 1962320 1961793 1959208 
2817.241 1954460 1948041 1941230 1935813 1933724 1936352 1944220 1956640 
2821.099 1972029 1988365 2003835 2017371 2028756 2038538 2047610 2056609 
2824.956 2065755 2074952 2083839 2092253 2100384 2108756 2117904 2128086 
2828.814 2139148 2150330 2160763 2169673 2176792 2182519 2187837 2193903 
2832.671 2201777 2212062 2224846 2239682 2255922 2272876 2289983 2306886 
2836.529 2323471 2339729 2355928 2372316 2389421 2407694 2427559 2449257 
2840.386 2472685 2497537 2523286 2549472 2575778 2602223 2629125 2656936 
2844.243 2686237 2717317 2750295 2784961 2820960 2857695 2894482 2930394 
2848.101 2964414 2995370 3022059 3043547 3059324 3069571 3075339 3078251 
2851.958 3080409 3083710 3089726 3099098 3111760 3127056 3144076 3162045 
2855.816 3180692 3200144 3220868 3243079 3266809 3291493 3316220 3339966 
2859.673 3362148 3382813 3402727 3423207 3445831 3472112 3503159 3539680 
2863.531 3581925 3629874 3683244 3741525 3803837 3869000 3935719 4002799 
2867.388 4069672 4136338 4203748 4273076 4345526 4421548 4500885 4582311 
2871.245 4664341 4745699 4825760 4904791 4983461 5062463 5141849 5220674 
2875.103 5297081 5368813 5433801 5490609 5538859 5579070 5612393 5640208 
2878.960 5664018 5685181 5705108 5725142 5746596 5770479 5797374 5827295 
2882.818 5859843 5894474 5930728 5968416 6007571 6048056 6089357 6130346 
2886.675 6169340 6204519 6234450 6258421 6276600 6289633 6298212 6302627 
2890.532 6302489 6296904 6285061 6266790 6242855 6214968 6185388 6156116 
2894.390 6128412 6102437 6077374 6051886 6024774 5995545 5964531 5933002 
2898.247 5902727 5875773 5853854 5838405 5830025 5828588 5833152 5842206 
2902.105 5853845 5866241 5878339 5889749 5901101 5913498 5928066 5945083 
2905.962 5963693 5981735 5996370 6004629 6004462 5995162 5977572 5953693 
2909.820 5926033 5896874 5867815 5839559 5812189 5785373 5758907 5732720 
2913.677 5707126 5682498 5659049 5636727 5615099 5593487 5571124 5547385 
2917.534 5522078 5495393 5468132 5441491 5417010 5396259 5380633 5371162 
2921.392 5368070 5371108 5379297 5391359 5405842 5421553 5437747 5454159 
2925.249 5471236 5489729 5510638 5534849 5562952 5595004 5630764 5669740 
2929.107 5711522 5756023 5803711 5855480 5912360 5975218 6044321 6119109 
2932.964 6198371 6280310 6363104 6445232 6525799 6604477 6681463 6757289 
2936.822 6832629 6908241 6984941 7063675 7145364 7230964 7320949 7415268 
2940.679 7513231 7613738 7715600 7817924 7920496 8023816 8129018 8237511 
2944.536 8350503 8468778 8592533 8721387 8854501 8990704 9128678 9266759 
2948.394 9403325 9536722 9665651 9789494 9908447 10023738 10137284 10251325 
2952.251 10368045 10489166 10615665 10747880 10885867 11029225 11177585 
2955.626 11330253 11486147 11643641 11800557 11954314 12102494 12243254 
2959.002 12375855 12500559 12618656 12731646 12841070 12947473 13050747 
2962.377 13149935 13243681 13330780 13410574 13482839 13547808 13605557 
2965.752 13655624 13696784 13727161 13744518 13747101 13734040 13705924 
2969.127 13664567 13612805 13553680 13489775 13422652 13352597 13278604 
2972.503 13198906 13111243 13013345 12903519 12780681 12644589 12495904 
2975.878 12336127 12167445 11992417 11813673 11633501 11453689 11275063 
2979.253 11097728 10921057 10744047 10565402 10383947 10198808 10009468 
2982.628 9816056 9619518 9421434 9223995 9029574 8840246 8657354 8481129 
2986.486 8310627 8144196 7979844 7816111 7652368 7488896 7326878 7167767 
2990.343 7012984 6863530 6719943 6582392 6450810 6325066 6204970 6090114 
2994.201 5979769 5872993 5768624 5665749 5563867 5463211 5364508 5268950 
2998.058 5177763 5091819 5011490 4936720 4866900 4801282 4738998 4679043 
3001.916 4620715 4563259 4506202 4449359 4392810 4336865 4281812 4227802 
3005.773 4174477 4121270 4067256 4011819 3954601 3895984 3836963 3778864 
3009.630 3723020 3670535 3621932 3577299 3536081 3497528 3460583 3423985 
3013.488 3386413 3346851 3304391 3258859 3210717 3161114 3111709 3064118 
3017.345 3019639 2979027 2942373 2909246 2879092 2851338 2825524 2801343 
3021.203 2778344 2756048 2733717 2710750 2686593 2661308 2635131 2608777 
3025.060 2582910 2558002 2534245 2511548 2489777 2468913 2448986 2430343 
3028.917 2413363 2398343 2385302 2374181 2364682 2356417 2348949 2341857 
3032.775 2334569 2326572 2317418 2307013 2295675 2284170 2273645 2265256 
3036.632 2259853 2257683 2258390 2261176 2264903 2268879 2272733 2276710 
3040.490 2281591 2288483 2298556 2312868 2332316 2357490 2388661 2425643 
3044.347 2467794 2514033 2563111 2613674 2664591 2715254 2765458 2815469 
3048.205 2865710 2916596 2968488 3021335 3074738 3128002 3179761 3228231 
3052.062 3271157 3306178 3331311 3345480 3348779 3342821 3330230 3314126 
3055.919 3297180 3281382 3267366 3254863 3243104 3231499 3219964 3209256 
3059.777 3200561 3195197 3194173 3197898 3206184 3218278 3233007 3249156 
3063.634 3265229 3279862 3291566 3299287 3302180 3300180 3293877 3284437 
3067.492 3273496 3262666 3253490 3246947 3243519 3243049 3244757 3247268 
3071.349 3248820 3247558 3241987 3231606 3217019 3200437 3184936 3174054 
3075.207 3170639 3176165 3190264 3210831 3234478 3257687 3277311 3291383 
3079.064 3299270 3301303 3298504 3292116 3283216 3272462 3260208 3246309 
3082.921 3230346 3211649 3189579 3163875 3134653 3102739 3069431 3036195 
3086.779 3004264 2974151 2945655 2917952 2890068 2861281 2831542 2801527 
3090.636 2772325 2745128 2720759 2699660 2681777 2667026 2655304 2646706 
3094.494 2641336 2639280 2640245 2643816 2649490 2657061 2666780 2679298 
3098.351 2695267 2714867 2737431 2761305 2784236 2803874 2818736 2828315 
3102.208 2833341 2835094 2835041 2833959 2831731 2827403 2819647 2807467 
3106.066 2790472 2769030 2744118 2716976 2688497 2659248 2629429 2599187 
3109.923 2568838 2539075 2510852 2485136 2462577 2443123 2426070 2410243 
3113.781 2394287 2377414 2359445 2341305 2324402 2310604 2301351 2297200 
3117.638 2297566 2300843 2304593 2306589 2305138 2299711 2291138 2281281 
3121.496 2272442 2266871 2266106 2270738 2280381 2293785 2309206 2324854 
3125.353 2338886 2349931 2357091 2360017 2359042 2355156 2349761 2344291 
3129.210 2339653 2336141 2333009 2328715 2321286 2309116 2291297 2268051 
3133.068 2240812 2211756 2183319 2157633 2135859 2118197 2103833 2091356 
3136.925 2079225 2066341 2052262 2037473 2023125 2010599 2000973 1994535 
3140.783 1990469 1987174 1982557 1974949 1963485 1948584 1931715 1914960 
3144.640 1900113 1888434 1880132 1874820 1871936 1871314 1873430 1879226 
3148.498 1889413 1904005 1921693 1940119 1956170 1967102 1971047 1967736 
3152.355 1958099 1944072 1927606 1910353 1893288 1877067 1862200 1849363 
3156.212 1839419 1833138 1830704 1831588 1834254 1836698 1836946 1833746 
3160.070 1826801 1817020 1806048 1795870 1788152 1783881 1783336 1785954 
3163.927 1790857 1796886 1803195 1809133 1814627 1819836 1825153 1830875 
3167.785 1836866 1842677 1847427 1850251 1850554 1848398 1844580 1840303 
3171.642 1836674 1834312 1832961 1831599 1828788 1823545 1815776 1806630 
3175.500 1798152 1792669 1791886 1796434 1805335 1816629 1827810 1836657 
3179.357 1841804 1842916 1840579 1836074 1830702 1825745 1821962 1819877 
3183.214 1819351 1819947 1820875 1821247 1820207 1817446 1813132 1807994 
3187.072 1802994 1798965 1796134 1794116 1792011 1788835 1784030 1777737 
3190.929 1770767 1764362 1759573 1756957 1756398 1757413 1759436 1762156 
3194.787 1765681 1770279 1775994 1782398 1788450 1792839 1794548 1793198 
3198.644 1789518 1784720 1780339 1777343 1775860 1775172 1774139 1771903 
3202.501 1768301 1763978 1760073 1757564 1756936 1757673 1758712 1758966 
3206.359 1757757 1755267 1752356 1750177 1749449 1750293 1751989 1753576 
3210.216 1754249 1754017 1753828 1755234 1759883 1768782 1781899 1798139 
3214.074 1815485 1831781 1844975 1853705 1857255 1855579 1849041 1838441 
3217.931 1824987 1810288 1796278 1784943 1777820 1775558 1777575 1782175 
3221.789 1786886 1789348 1788037 1783037 1775915 1769354 1766211 1768401 
3225.646 1776296 1788513 1802294 1814498 1822580 1825344 1823060 1817208 
3229.503 1809470 1801252 1793086 1784637 1775394 1765173 1754603 1745169 
3233.361 1738563 1736111 1737910 1742683 1748141 1751810 1752039 1748663 
3237.218 1743026 1737682 1735116 1737222 1744445 1756040 1770498 1786256 
3241.076 1802215 1817834 1832892 1846922 1858966 1867431 1870627 1867539 
3244.933 1858121 1843886 1827370 1811625 1799178 1791426 1788379 1788884 
3248.791 1791123 1793231 1793879 1792443 1788990 1784041 1778468 1773309 
3252.648 1769578 1768432 1770627 1776577 1785816 1796959 1807789 1815717 
3256.505 1818183 1813719 1802138 1784990 1765194 1746422 1732184 1725028 
3260.363 1725786 1733424 1745144 1757240 1766080 1769099 1765518 1756473 
3264.220 1744808 1733996 1727210 1726228 1731040 1739797 1749653 1757672 
3268.078 1761801 1761480 1757682 1752458 1748143 1746491 1748219 1752866 
3271.935 1758996 1764711 1768232 1768328 1764459 1756998 1746985 1735862 
3275.792 1725351 1716947 1711618 1709639 1710396 1712627 1714835 1715725 
3279.650 1714812 1712512 1710234 1709781 1712816 1720188 1731669 1745919 
3283.507 1760845 1774278 1784434 1790460 1792288 1790699 1786926 1782314 
3287.365 1777988 1774884 1773369 1773397 1774507 1775859 1776605 1776104 
3291.222 1774189 1771402 1768933 1768220 1770656 1776936 1786733 1798777 
3295.080 1811124 1821574 1828366 1830470 1827629 1820327 1809506 1796147 
3298.937 1781435 1766533 1752845 1741867 1734948 1733087 1736462 1744346 
3302.794 1755246 1767191 1778453 1787758 1794815 1799812 1803235 1805483 
3306.652 1806402 1805611 1802545 1797192 1790317 1783351 1778226 1776787 
3310.509 1780055 1788056 1799703 1813177 1826423 1837627 1845523 1849439 
3314.367 1849252 1845183 1837730 1827638 1815898 1803698 1792331 1782987 
3318.224 1776490 1773164 1773009 1775661 1780852 1788462 1798482 1810934 
3322.082 1825542 1841672 1858210 1873862 1887388 1897963 1905248 1909510 
3325.939 1911160 1910801 1908833 1905658 1901532 1896947 1892596 1889193 
3329.796 1887410 1887583 1889678 1893273 1897674 1902255 1906424 1909620 
3333.654 1911307 1910699 1907023 1899518 1887958 1872980 1856152 1839903 
3337.511 1826966 1819636 1819171 1825360 1836503 1849903 1862400 1871370 
3341.369 1875072 1873121 1866314 1856363 1845277 1834963 1826655 1820679 
3345.226 1816598 1813493 1810330 1806359 1801555 1796424 1791876 1788731 
3349.083 1787259 1787134 1787347 1786862 1785062 1782014 1778741 1776624 
3352.941 1776880 1779812 1784590 1789268 1791573 1789523 1782397 1770811 
3356.798 1756645 1742263 1729859 1720819 1715436 1713194 1713136 1714260 
3360.656 1715610 1716622 1716733 1715413 1712244 1707157 1700783 1694273 
3364.513 1689351 1687619 1690218 1697173 1707459 1719216 1730244 1738745 
3368.371 1743625 1744688 1742350 1737357 1730510 1722542 1714086 1705809 
3372.228 1698491 1692935 1689729 1688953 1690099 1692093 1693534 1693324 
3376.085 1690714 1685784 1679256 1672241 1665880 1661057 1658328 1657795 
3379.943 1659356 1662719 1667692 1674026 1681394 1689353 1697213 1704179 
3383.800 1709356 1712038 1711806 1708691 1703158 1695921 1688001 1680296 
3387.658 1673644 1668739 1666183 1666693 1671076 1680254 1695003 1715692 
3391.515 1741801 1771857 1803487 1833721 1859700 1879222 1891187 1895762 
3395.373 1894049 1887765 1878733 1868445 1857893 1847714 1838195 1829665 
3399.230 1822411 1816819 1813450 1813012 1816189 1823760 1836138 1853384 
3403.087 1874645 1898393 1922403 1944583 1963251 1978062 1989997 2000986 
3406.945 2013409 2029053 2048595 2071488 2096362 2121797 2146865 2171612 
3410.802 2196645 2222722 2249992 2277814 2305076 2330638 2354396 2377302 
3414.660 2401298 2428561 2460288 2496048 2533622 2569742 2601110 2625646 
3418.517 2643068 2654926 2663767 2672391 2682679 2695556 2711013 2728703 
3422.375 2748295 2769593 2792529 2816516 2840316 2862149 2880115 2892717 
3426.232 2899572 2901543 2900353 2898318 2897440 2899295 2904627 2913806 
3430.089 2926536 2942156 2959591 2977195 2992868 3004625 3011082 3012074 
3433.947 3008875 3003829 2999653 2998169 2999705 3002797 3004718 3002420 
3437.804 2993719 2978031 2956286 2930633 2903269 2875694 2848383 2820919 
3441.662 2792545 2762985 2732771 2703090 2675380 2650513 2628490 2608113 
3445.519 2587488 2564748 2538694 2509455 2478425 2448067 2421132 2399884 
3449.376 2385518 2377664 2374547 2373311 2370750 2364133 2351822 2333756 
3453.234 2311354 2287194 2264159 2244734 2230314 2220934 2215398 2211686 
3457.091 2207566 2201061 2190929 2176759 2158785 2137936 2115445 2092592 
3460.949 2070618 2050583 2032987 2018015 2005459 1995029 1986504 1980093 
3464.806 1976251 1975607 1978430 1984477 1992551 2000837 2007251 2009975 
3468.664 2008147 2001857 1992233 1980825 1969334 1958888 1950119 1943095 
3472.521 1937643 1933494 1930604 1928925 1928540 1929250 1930871 1933005 
3476.378 1935303 1937404 1939178 1940474 1941175 1941117 1940253 1938537 
3480.236 1936084 1933070 1929716 1926081 1921943 1916986 1910823 1903420 
3484.093 1895092 1886680 1879377 1874376 1872612 1874438 1879622 1887240 
3487.951 1896043 1904475 1910989 1914250 1913484 1908643 1900684 1891518 
3491.808 1883650 1879669 1881382 1889387 1902576 1918630 1934456 1947285 
3495.666 1955390 1958511 1957807 1955178 1952537 1951244 1951760 1953884 
3499.523 1956949 1960460 1964008 1967522 1970836 1973623 1975259 1975061 
3503.380 1972639 1968136 1962550 1957456 1954914 1956618 1963677 1976176 
3507.238 1993094 2012421 2031507 2047586 2058390 2062657 2060500 2053627 
3511.095 2044866 2037754 2035498 2040201 2052194 2070009 2090700 2110725 
3514.953 2126732 2136519 2139258 2135676 2127650 2117602 2108273 2102085 
3518.810 2100944 2106043 2117623 2134931 2156127 2178656 2199585 2216295 
3522.667 2226996 2231150 2229359 2223456 2215621 2208115 2202634 2200103 
3526.525 2200569 2203336 2207254 2210970 2213431 2214232 2213728 2213057 
3530.382 2213858 2217602 2225205 2236444 2250122 2264504 2278132 2290338 
3534.240 2301693 2313646 2327790 2344795 2363924 2382846 2398525 2408305 
3538.097 2411146 2408152 2402215 2396968 2395436 2398824 2406229 2415210 
3541.955 2422763 2426753 2426618 2423359 2418917 2415263 2413527 2413736 
3545.812 2414995 2416290 2417096 2417604 2418649 2421139 2425565 2431581 
3549.669 2438124 2443940 2447941 2449564 2449048 2447121 2444523 2442045 
3553.527 2439972 2438257 2436794 2435425 2433996 2432447 2430766 2428965 
3557.384 2427103 2425432 2424192 2423706 2424023 2424806 2425350 2424660 
3561.242 2421680 2415859 2407148 2396096 2383664 2370858 2358589 2347217 
3565.099 2336969 2327752 2319479 2312068 2305447 2299268 2293137 2286343 
3568.957 2278372 2268971 2258320 2247139 2236327 2226762 2218947 2212811 
3572.814 2207995 2203994 2200328 2197010 2194159 2192088 2190822 2189916 
3576.671 2188516 2185458 2179682 2170442 2157510 2141437 2123221 2104137 
3580.529 2085579 2068774 2054683 2043957 2036861 2033514 2033764 2037262 
3584.386 2043612 2052191 2062433 2073678 2085289 2096589 2107003 2115901 
3588.244 2122681 2126775 2127663 2124959 2118492 2108756 2096979 2084875 
3592.101 2074771 2068825 2068680 2074749 2086118 2100532 2115156 2127104 
3595.958 2134503 2136758 2134798 2130662 2126766 2125359 2127952 2134971 
3599.816 2145885 2159403 2173736 2186925 2197226 2203330 2204811 2202212 
3603.673 2197046 2191443 2187618 2187257 2190760 2197414 2205402 2212666 
3607.531 2217702 2220072 2220672 2221211 2223460 2228440 2236054 2244872 
3611.388 2252892 2258376 2260499 2259805 2258334 2258586 2263054 2273162 
3615.246 2288863 2308363 2328734 2346594 2359048 2364680 2363997 2359407 
3619.103 2354634 2353730 2359729 2373597 2393962 2417283 2439261 2455896 
3622.960 2465001 2466683 2462975 2457106 2452041 2449415 2449411 2450957 
3626.818 2452735 2454160 2455732 2458976 2465226 2475105 2487491 2499845 
3630.675 2509112 2512843 2510389 2502959 2493423 2484889 2479569 2477892 
3634.533 2478416 2478476 2475599 2468561 2457850 2445631 2434818 2427919 
3638.390 2425891 2428073 2432032 2434717 2433166 2425685 2412225 2394181 
3642.248 2374371 2355868 2341883 2334584 2335077 2342935 2356532 2373113 
3646.105 2389308 2401583 2407004 2403764 2391639 2371990 2347700 2322401 
3649.962 2299836 2282789 2272623 2268824 2269370 2271302 2271761 2268549 
3653.820 2261014 2249806 2236814 2224312 2214460 2208414 2206494 2207964 
3657.677 2211548 2215637 2218609 2218963 2215432 2207042 2193401 2174874 
3661.535 2152755 2128997 2105974 2085740 2069500 2057327 2048349 2041055 
3665.392 2034140 2026830 2019026 2011368 2004299 1997967 1991953 1985470 
3669.250 1977693 1968449 1958158 1947778 1938356 1930251 1923263 1916324 
3673.107 1908459 1899175 1888991 1879520 1872929 1871215 1875453 1885399 
3676.964 1899441 1915226 1930117 1941978 1949240 1951211 1947740 1939219 
3680.822 1926426 1910520 1892945 1875343 1859232 1845698 1835174 1827574 
3684.679 1822380 1818938 1817015 1816462 1817577 1820520 1825121 1830785 
3688.537 1836513 1841154 1843559 1843021 1839056 1831343 1819880 1804505 
3692.394 1785393 1763098 1738710 1713800 1690396 1670379 1655368 1646133 
3696.251 1642673 1644112 1648992 1655594 1662210 1667405 1670223 1670267 
3700.109 1667871 1663988 1659844 1656627 1655183 1655522 1657163 1659028 
3703.966 1660087 1659745 1658088 1655985 1654538 1654914 1657649 1662518 
3707.824 1668431 1673813 1676911 1676384 1671498 1662611 1650865 1638198 
3711.681 1626908 1619019 1615701 1616867 1621017 1625254 1626647 1622593 
3715.539 1612172 1596341 1578020 1561300 1550261 1547800 1555253 1571827 
3719.396 1595352 1622782 1650984 1677217 1699175 1715072 1723745 1724791 
3723.253 1718893 1708093 1695383 1684342 1677951 1677956 1684273 1695008 
3727.111 1707407 1718712 1727198 1732441 1735212 1736861 1738434 1740346 
3730.968 1742207 1743420 1743483 1742333 1740308 1737744 1734768 1730752 
3734.826 1724898 1716603 1706029 1694453 1684239 1678025 1678104 1685654 
3738.683 1700203 1719890 1741826 1762581 1778858 1787985 1788115 1778832 
3742.541 1760935 1736969 1710706 1686671 1669152 1660993 1662988 1673546 
3746.398 1689313 1706377 1721364 1732291 1739015 1742804 1745891 1750360 
3750.255 1757681 1768296 1781478 1795807 1809274 1819677 1825029 1823943 
3754.113 1816090 1802386 1784970 1766846 1751110 1739925 1734298 1733426 
3757.970 1735586 1738893 1742024 1745016 1748892 1755022 1764555 1777404 
3761.828 1792438 1807905 1822217 1834403 1844286 1852204 1858446 1862469 
3765.685 1863212 1859349 1850096 1836094 1819137 1802063 1787651 1777553 
3769.542 1771935 1769485 1768133 1765858 1761385 1754461 1745324 1734265 
3773.400 1721423 1706759 1690639 1674404 1660428 1651705 1651019 1659522 
3777.257 1676333 1698386 1721345 1741176 1755294 1763428 1767388 1770032 
3781.115 1774107 1781160 1791116 1802646 1814053 1823879 1831363 1836440 
3784.972 1839299 1839672 1836977 1830411 1819569 1804944 1788375 1772464 
3788.830 1760052 1753271 1752707 1757360 1764857 1772230 1777052 1777977 
3792.687 1775205 1770222 1765430 1762998 1764328 1769687 1777932 1786969 
3796.544 1794507 1798703 1798805 1795420 1790266 1785468 1782869 1783108 
3800.402 1785689 1788729 1789949 1787375 1780216 1768903 1755245 1741495 
3804.259 1729947 1722103 1718538 1719011 1722554 1728048 1734284 1740202 
3808.117 1744898 1747809 1748872 1748571 1747988 1748656 1752233 1759551 
3811.974 1770662 1784139 1797620 1808232 1813251 1810963 1800868 1783857 
3815.832 1762040 1738163 1715254 1696393 1684161 1680566 1686683 1702313 
3819.689 1725876 1754463 1784290 1811506 1832870 1846571 1852131 1850393 
3823.546 1842812 1830964 1816104 1799306 1781737 1764935 1750935 1741636 
3827.404 1738613 1742319 1751741 1764756 1778584 1790710 1799492 1804504 
3831.261 1806373 1806139 1804608 1802204 1798668 1793528 1786589 1778338 
3835.119 1769944 1762833 1758508 1757945 1761301 1767909 1776587 1785872 
3838.976 1794209 1800375 1803354 1802487 1797773 1789817 1780071 1770606 
3842.833 1763764 1761373 1764245 1771829 1782210 1792709 1800713 1804610 
3846.691 1804127 1800450 1795637 1791944 1790828 1792729 1796924 1801933 
3850.548 1806078 1808149 1807576 1804654 1800197 1795364 1791356 1789089 
3854.406 1789209 1792015 1797236 1804318 1812202 1819727 1825678 1829111 
3858.263 1829611 1827203 1822260 1815275 1806555 1796166 1784171 1770998 
3862.121 1757836 1746714 1740233 1740942 1750201 1767498 1790303 1814138 
3865.978 1833981 1845685 1846977 1838437 1823146 1805857 1791584 1784176 
3869.835 1785409 1794690 1809652 1826967 1843418 1856606 1865166 1868772 
3873.693 1867733 1862878 1855360 1846725 1838608 1832825 1830885 1833567 
3877.550 1840679 1850975 1862534 1873162 1881167 1885548 1886302 1883897 
3881.408 1878968 1871906 1862852 1851897 1839393 1826405 1814611 1805873 
3885.265 1801556 1801949 1805777 1810830 1814609 1815342 1813015 1809229 
3889.123 1806744 1808544 1816402 1830283 1848052 1866361 1881757 1891836 
3892.980 1896022 1895605 1893074 1891168 1891885 1896126 1903540 1912928 
3896.837 1922945 1932364 1940127 1945502 1947689 1945800 1939179 1927695 
3900.695 1912026 1894132 1876602 1862390 1854045 1852992 1859249 1871301 
3904.552 1886850 1903188 1918197 1930489 1939760 1946416 1951331 1955344 
3908.410 1958886 1961577 1962632 1960777 1954885 1944510 1930397 1914224 
3912.267 1898835 1887271 1881998 1884183 1893188 1906563 1920808 1932211 
3916.125 1937856 1936506 1928672 1916425 1902654 1890285 1881512 1877450 
3919.982 1877930 1881825 1887363 1892509 1895172 1893841 1887805 1877431 
3923.839 1864281 1851064 1840827 1836518 1839926 1851487 1870049 1893064 
3927.697 1917615 1940714 1960082 1974268 1982492 1984659 1981095 1972510 
3931.554 1960353 1946441 1933225 1922932 1917145 1916088 1918577 1922201 
3935.412 1924269 1922619 1916445 1906549 1895017 1884458 1877301 1874972 
3939.269 1877800 1885196 1896119 1909447 1923995 1938389 1951241 1960835 
3943.126 1965554 1964275 1956928 1944649 1929659 1914573 1901692 1892459 
3946.984 1887388 1886018 1887743 1891915 1898258 1906627 1916480 1926468 
3950.841 1934633 1938682 1936747 1928349 1914507 1897841 1881703 1869124 
3954.699 1861934 1860321 1863025 1867956 1873113 1877384 1880728 1883874 
3958.556 1888095 1894465 1903357 1914388 1926536 1938331 1948336 1955251 
3962.414 1958238 1956869 1951317 1942283 1930950 1918658 1906869 1896738 
3966.271 1889064 1884071 1881670 1881460 1883017 1885825 1889418 1893264 
3970.128 1896686 1899058 1899954 1899333 1897621 1895616 1894342 1894638 
3973.986 1896971 1901289 1907152 1913842 1920708 1927015 1932326 1935905 
3977.843 1937485 1936707 1933809 1929617 1925558 1923431 1924984 1930993 
3981.701 1941325 1954423 1968099 1980097 1988761 1993621 1995225 1994919 
3985.558 1994225 1994239 1995496 1998169 2002180 2007728 2015150 2024553 
3989.416 2035670 2047259 2057419 2063984 2065089 2059919 2049152 2034434 
3993.273 2018135 2002222 1988059 1975889 1965551 1956711 1949743 1945560 
3997.130 1945661 1951333 1962956 1979566 1998956 2018005 2033466 2042831 
##END=
