##TITLE=Tecor_PLA-Bicolour_Black_Filament_r2_ATR-Corrected
##JCAMP-DX=5.01  $$ Nicolet v. 1
##DATATYPE=INFRARED SPECTRUM
##ORIGIN=Curtin University
##OWNER=Nicolet
##LONGDATE=2024/07/19
##TIME=15:08:51
##SPECTROMETER/DATA SYSTEM=Nicolet iS50
##DATA PROCESSING=
Ratio against background
%Transmittance->Absorbance
ATR Correction
Truncated
ElementMultiply or ElementDivide
##COMMENTS=
Number of sample scans: 32
Collection length: 47.27 sec
Sample gain: 1.0
Background collected on: Fri Jul 19 15:06:42 2024 (GMT+08:00);
Number of background scans: 32
Background gain: 1.0
Sample spacing:  1.000
Number of scan points: 16672
Resolution points: 8192
Number of FFT points: 65536
Apodization: N-B strong;
Phase correction: Mertz;
Laser frequency: 15798.3 cm-1
Number of rejected sample scans: 0
Number of rejected background scans: 0
Bench serial number: AUP1200105;
##RESOLUTION=4.000
##XUNITS=1/CM
##YUNITS=ABSORBANCE
##FIRSTX=400.163452
##LASTX=4000.187744
##FIRSTY=0.060691
##MAXX=4000.187744
##MINX=400.163452
##MAXY=1.188649
##MINY=-0.036918
##XFACTOR=1.000000
##YFACTOR=1.000000E-008
##NPOINTS=7468
##DELTAX=0.482125
##ZPD=8192
##XYDATA=(X++(Y..Y))
400.163 6069064 5950883 5882697 5863160 5878553 5908215 5929358 5923052 
404.020 5878192 5792802 5672510 5527708 5370503 5212552 5063636 4931141 
407.877 4819523 4730192 4661358 4608493 4565180 4524700 4481647 4433107 
411.734 4378950 4321104 4262132 4203979 4147153 4090912 4033911 3975306 
415.591 3915218 3854828 3795693 3738990 3685002 3633068 3581997 3530761 
419.448 3478893 3426730 3374930 3324340 3275711 3229905 3188172 3152277 
423.305 3124072 3104714 3093619 3087866 3082525 3071956 3051745 3020592 
427.162 2981021 2938897 2901346 2874450 2861177 2860664 2869041 2881272 
431.019 2893235 2903017 2910841 2917756 2924788 2931148 2934493 2931982 
434.876 2921857 2904782 2884041 2864492 2850643 2844761 2845845 2849954 
438.733 2851778 2846775 2832977 2811827 2787692 2766343 2752974 2750617 
442.590 2759293 2776189 2796611 2815361 2828018 2831813 2826140 2812388 
446.447 2793520 2773327 2755538 2742919 2736656 2736030 2738745 2741632 
450.304 2741750 2737410 2728725 2717619 2707057 2700037 2698581 2703079 
454.161 2712293 2723895 2735170 2743796 2748207 2747702 2742193 2731909 
458.017 2717180 2698399 2675997 2650579 2622889 2593727 2563937 2534317 
461.874 2505774 2479435 2456770 2439136 2428489 2425768 2430700 2441471 
465.731 2454793 2466476 2472263 2468863 2454712 2430299 2397972 2361311 
469.588 2324233 2290142 2261388 2238966 2222642 2211228 2203047 2196354 
473.445 2189713 2182206 2173495 2163770 2153585 2143554 2134179 2125609 
477.302 2117627 2109691 2101142 2091408 2080215 2067628 2054022 2039944 
481.159 2025945 2012474 1999846 1988304 1978061 1969336 1962281 1956847 
485.016 1952583 1948639 1943781 1936674 1926228 1911912 1894014 1873592 
488.873 1852302 1832014 1814421 1800703 1791372 1786212 1784384 1784676 
492.730 1785676 1786116 1785059 1781941 1777260 1771896 1767116 1764187 
496.587 1764039 1766992 1772716 1780413 1789207 1798502 1808191 1818567 
500.444 1829996 1842493 1855390 1867396 1876916 1882691 1884366 1882761 
504.301 1879646 1877139 1876863 1879332 1883747 1888289 1890911 1890167 
508.158 1885786 1878848 1871392 1865718 1863707 1866271 1873274 1883674 
512.015 1895837 1907862 1917793 1923768 1924188 1918024 1905162 1886710 
515.871 1864981 1843094 1824179 1810478 1802661 1799603 1798910 1797839 
519.728 1794388 1788009 1779674 1771271 1764548 1760062 1756716 1751897 
523.585 1742449 1725794 1701110 1669549 1634532 1600270 1570761 1548675 
527.442 1534858 1528429 1527340 1529202 1532045 1534681 1536804 1538691 
531.299 1540857 1543638 1547010 1550576 1553710 1555800 1556498 1555863 
535.156 1554367 1552737 1551712 1551692 1552586 1553737 1554153 1552832 
539.013 1549192 1543348 1536084 1528605 1522038 1517018 1513411 1510459 
542.870 1507213 1503090 1498295 1493877 1491312 1491851 1495789 1502114 
546.727 1508672 1512839 1512472 1506769 1496608 1484315 1472896 1465019 
550.584 1462252 1464668 1471143 1479996 1489732 1499531 1509306 1519347 
554.441 1529806 1540292 1549818 1557094 1561339 1562481 1561498 1560126 
558.298 1560249 1563252 1569500 1578267 1588086 1597302 1604706 1609850 
562.155 1613108 1615371 1617657 1620708 1624896 1630199 1636352 1642927 
566.012 1649398 1655098 1659199 1660775 1659094 1653872 1645561 1635409 
569.869 1625209 1616825 1611752 1610631 1613268 1618835 1626349 1635149 
573.725 1645137 1656810 1670809 1687553 1706742 1727283 1747409 1765143 
577.582 1778806 1787476 1791150 1790710 1787623 1783593 1780221 1778785 
581.439 1780146 1784750 1792687 1803732 1817403 1832942 1849366 1865515 
585.296 1880214 1892415 1901471 1907261 1910298 1911652 1912693 1914727 
589.153 1918650 1924660 1932219 1940310 1947794 1953864 1958372 1961854 
593.010 1965338 1969901 1976276 1984611 1994483 2005187 2016061 2026779 
596.867 2037363 2048016 2058765 2069263 2078743 2086258 2091168 2093517 
600.724 2094266 2095118 2098037 2104626 2115643 2130755 2148723 2167898 
604.581 2186712 2204179 2220002 2234489 2248256 2261836 2275546 2289375 
608.438 2303198 2316929 2330670 2344797 2359864 2376418 2394875 2415315 
612.295 2437500 2460858 2484641 2508128 2530840 2552710 2574224 2596322 
616.152 2620243 2647179 2677885 2712374 2749797 2788499 2826338 2861144 
620.009 2891122 2915281 2933599 2947030 2957288 2966573 2977072 2990544 
623.866 3007923 3029124 3053027 3077834 3101594 3122859 3141263 3157691 
627.723 3174086 3192807 3215779 3243758 3275946 3310091 3343245 3372518 
631.579 3396055 3413434 3425691 3434860 3443259 3452825 3464688 3479065 
635.436 3495444 3512961 3530703 3548026 3564617 3580562 3596238 3612220 
639.293 3629089 3647279 3666901 3687652 3708871 3729760 3749657 3768325 
643.150 3786059 3803552 3821581 3840590 3860401 3880208 3898828 3915204 
647.007 3928817 3939970 3949651 3959179 3969675 3981734 3995282 4009833 
650.864 4024863 4040219 4056322 4074015 4094258 4117728 4144490 4173940 
654.721 4204945 4236086 4265960 4293370 4317394 4337414 4353170 4364764 
658.578 4372802 4378302 4382600 4387073 4392828 4400513 4410254 4421802 
662.435 4434826 4449124 4464743 4481854 4500484 4520385 4540872 4561067 
666.292 4580201 4597976 4614692 4631187 4648405 4666974 4686891 4707471 
670.149 4727641 4746458 4763521 4779233 4794645 4811059 4829481 4850227 
674.006 4872773 4895951 4918314 4938624 4956112 4970576 4982322 4991878 
677.863 4999905 5007055 5013986 5021412 5030047 5040515 5053228 5068169 
681.720 5084879 5102516 5120144 5136988 5152709 5167484 5181963 5196982 
685.577 5213341 5231540 5251619 5273224 5295710 5318328 5340432 5361616 
689.433 5381739 5400934 5419516 5437857 5456300 5474990 5493922 5512836 
693.290 5531372 5549194 5566082 5582099 5597602 5613141 5629319 5646516 
697.147 5664765 5683639 5702321 5719868 5735384 5748314 5758488 5766025 
701.004 5771193 5774159 5774912 5773335 5769416 5763493 5756385 5749347 
704.861 5743687 5740346 5739380 5739850 5739894 5737266 5729975 5716855 
708.718 5697819 5673717 5645780 5615136 5582134 5546337 5506735 5462210 
712.575 5412085 5356397 5295919 5231800 5165150 5096633 5026341 4953880 
716.432 4878654 4800185 4718282 4633095 4544994 4454367 4361590 4266966 
720.289 4170884 4073904 3976844 3880793 3787015 3696886 3611812 3533174 
724.146 3462273 3400184 3347584 3304537 3270436 3244132 3224381 3210334 
728.003 3202177 3201408 3210685 3233334 3272443 3330037 3406543 3500718 
731.860 3610114 3731792 3863086 4002107 4147774 4299523 4456860 4618946 
735.717 4784424 4951581 5118616 5283949 5446344 5604816 5758397 5905883 
739.574 6045863 6176841 6297673 6407934 6508349 6600690 6687524 6771704 
743.431 6855776 6941495 7029584 7119784 7211146 7302447 7392680 7481327 
747.287 7568553 7655059 7741863 7829936 7919847 8011553 8104298 8196731 
751.144 8287111 8373560 8454286 8527661 8592252 8646753 8689930 8720589 
755.001 8737642 8740199 8727635 8699606 8656064 8597109 8522984 8434048 
758.858 8330863 8214374 8086024 7947901 7802563 7652884 7501600 7350973 
762.715 7202395 7056290 6912218 6769214 6626240 6482649 6338489 6194576 
766.572 6052312 5913341 5779144 5650744 5528588 5412576 5302291 5197147 
770.429 5096536 4999787 4906123 4814573 4724117 4633808 4543058 4451872 
774.286 4360892 4271167 4183786 4099389 4017913 3938597 3860333 3782216 
778.143 3703950 3626111 3549880 3476579 3406999 3340992 3277370 3214289 
782.000 3149864 3082784 3012739 2940311 2866746 2793358 2721144 2650599 
785.857 2581823 2514774 2449474 2386143 2325067 2266426 2210141 2155845 
789.714 2103115 2051661 2001556 1953225 1907244 1864155 1824177 1787175 
793.571 1752833 1720837 1691157 1664028 1639865 1619017 1601515 1587085 
797.428 1575235 1565456 1557430 1551015 1546102 1542352 1539058 1535162 
801.285 1529568 1521560 1511047 1498650 1485525 1472806 1461184 1450749 
805.141 1441145 1431992 1423343 1415920 1410991 1409801 1413034 1420326 
808.998 1430254 1440782 1449954 1456576 1460551 1462773 1464624 1467348 
812.855 1471555 1477159 1483586 1490194 1496709 1503234 1510155 1517706 
816.712 1525688 1533375 1539766 1543981 1545726 1545457 1544285 1543545 
820.569 1544296 1546919 1550972 1555447 1559160 1561230 1561433 1560228 
824.426 1558613 1557780 1558708 1561899 1567224 1573997 1581168 1587670 
828.283 1592766 1596322 1598983 1602111 1607532 1617008 1631829 1652271 
832.140 1677517 1705788 1734862 1762671 1788010 1810830 1832268 1854304 
835.997 1879152 1908767 1944376 1986381 2034565 2088365 2147247 2210918 
839.854 2279337 2352553 2430505 2512809 2598756 2687328 2777454 2868132 
843.711 2958572 3048076 3135899 3220967 3301792 3376469 3442985 3499654 
847.568 3545617 3581247 3608295 3629728 3649377 3671364 3699708 3737982 
851.425 3789281 3856320 3941515 4047113 4175089 4326922 4503344 4704077 
855.282 4927747 5171942 5433441 5708445 5992918 6282735 6573894 6862616 
859.139 7145475 7419485 7682162 7931573 8166190 8384694 8585870 8768430 
862.995 8931169 9073158 9194034 9294257 9375147 9438578 9486625 9520990 
866.852 9542672 9551787 9547766 9529626 9496392 9447322 9381964 9300140 
870.709 9201749 9086770 8955312 8807810 8645149 8468757 8280508 8082467 
874.566 7876576 7664495 7447482 7226520 7002505 6776409 6549443 6322947 
878.423 6098367 5877061 5660246 5449016 5244484 5047840 4860574 4684425 
882.280 4521354 4373362 4242198 4129169 4034880 3959136 3900990 3858864 
886.137 3830888 3815109 3809791 3813478 3824959 3843070 3866551 3893874 
889.994 3923289 3952960 3981222 4006778 4028895 4047262 4061926 4073038 
893.851 4080753 4085179 4086499 4085036 4081382 4076269 4070403 4064236 
897.708 4057745 4050513 4041866 4031186 4018252 4003347 3987296 3971228 
901.565 3956257 3943247 3932637 3924501 3918600 3914523 3911820 3909957 
905.422 3908378 3906540 3904013 3900655 3896800 3893200 3890935 3891047 
909.279 3894174 3900285 3908598 3917774 3926306 3932943 3936996 3938419 
913.136 3937659 3935393 3932209 3928451 3924233 3919553 3914440 3908982 
916.993 3903320 3897524 3891448 3884749 3876983 3867809 3857156 3845289 
920.849 3832699 3819879 3807064 3794068 3780415 3765471 3748875 3730751 
924.706 3711808 3693164 3676052 3661342 3649506 3640380 3633467 3628191 
928.563 3624157 3621298 3619784 3619761 3621155 3623527 3626126 3628060 
932.420 3628680 3627737 3625516 3622712 3620192 3618718 3618741 3620325 
936.277 3623266 3627283 3632242 3638279 3645868 3655678 3668476 3684857 
940.134 3705118 3729179 3756601 3786674 3818672 3852028 3886538 3922454 
943.991 3960391 4001199 4045628 4094062 4146392 4201968 4259863 4319132 
947.848 4379160 4439854 4501620 4565209 4631383 4700608 4772890 4847710 
951.705 4924068 5000635 5075824 5147777 5214344 5273033 5321096 5355742 
955.562 5374401 5375068 5356482 5318164 5260331 5183716 5089444 4978949 
959.419 4854068 4717155 4571144 4419487 4265944 4114312 3968097 3830367 
963.276 3703653 3589987 3490916 3407475 3340019 3288002 3249900 3223280 
967.133 3205099 3192256 3182196 3173300 3165124 3158182 3153610 3152603 
970.990 3156041 3164221 3176852 3193237 3212482 3233742 3256326 3279810 
974.847 3304064 3329225 3355718 3384213 3415449 3450099 3488535 3530716 
978.703 3576121 3623873 3672912 3722256 3771185 3819292 3866519 3913056 
982.560 3959306 4005811 4053208 4102209 4153423 4207245 4263643 4322118 
986.417 4381729 4441368 4500090 4557439 4613585 4669301 4725709 4783973 
990.274 4844913 4908908 4975945 5045786 5118214 5193105 5270486 5350367 
994.131 5432682 5517183 5603636 5691918 5782233 5875159 5971516 6072080 
997.988 6177385 6287500 6402064 6520597 6642773 6768638 6898682 7033685 
1001.845 7174353 7321065 7473739 7631965 7795351 7963919 8138332 8319998 
1005.702 8510785 8712713 8927473 9156200 9399398 9657094 9929080 10215138 
1009.559 10515187 10829245 11157476 11499989 11856923 12228379 12614575 
1012.934 13015777 13432337 13864557 14312625 14776456 15255815 15750188 
1016.309 16258980 16781406 17316564 17863228 18419784 18984252 19554188 
1019.683 20126906 20699656 21269748 21834694 22392294 22940830 23479156 
1023.058 24006966 24524946 25034786 25539040 26040804 26543290 27049630 
1026.433 27562630 28085134 28620264 29171678 29743728 30341026 30967898 
1029.809 31627574 32321524 33049170 33808060 34594524 35404436 36234076 
1033.184 37080324 37940728 38812840 39693444 40577748 41458940 42328180 
1036.559 43175128 43988888 44759048 45476612 46134748 46728928 47256700 
1039.934 47717184 48110364 48436640 48696444 48890236 49018712 49083020 
1043.310 49084876 49026688 48911556 48743240 48526240 48265888 47968372 
1046.685 47640532 47289644 46922772 46546432 46166296 45787152 45413156 
1050.060 45048084 44695468 44358508 44039620 43739980 43459312 43195904 
1053.435 42947204 42710684 42484700 42269200 42065940 41878484 41711832 
1056.811 41572076 41466124 41401620 41386728 41429868 41539268 41722412 
1060.186 41985436 42332912 42767884 43292288 43907356 44614056 45413068 
1063.561 46304308 47286336 48355732 49506792 50731784 52021540 53366376 
1066.936 54756884 56184352 57640964 59119628 60613836 62117880 63627112 
1070.312 65138108 66648768 68157744 69663680 71164336 72655984 74133632 
1073.687 75591576 77024272 78427008 79795824 81126968 82415824 83656096 
1077.062 84839416 85955320 86992144 87937496 88778768 89503696 90100840 
1080.437 90560416 90875360 91042480 91062848 90941224 90684784 90301376 
1083.813 89798376 89182184 88459160 87636608 86723712 85731712 84673008 
1087.188 83559992 82403728 81213440 79996768 78760440 77511040 76255424 
1090.563 75000344 73751960 72515032 71292552 70085920 68895232 67720080 
1093.938 66559952 65414532 64283680 63167308 62065352 60977740 59904476 
1097.313 58845644 57801352 56771500 55755716 54753184 53763020 52784520 
1100.689 51817684 50863396 49923344 48999776 48095036 47211060 46349356 
1104.064 45510992 44696968 43908576 43147708 42416800 41718724 41056500 
1107.439 40432976 39850628 39311468 38817088 38368600 37966616 37611232 
1110.814 37301800 37037020 36815024 36633484 36489852 36381624 36306448 
1114.190 36262268 36247260 36259764 36298256 36361332 36447700 36556240 
1117.565 36686124 36836836 37008232 37200536 37414276 37650008 37908112 
1120.940 38188268 38489060 38807648 39139552 39478816 39818288 40149968 
1124.315 40465512 40756448 41014460 41231428 41399796 41512888 41565536 
1127.691 41554520 41478880 41339780 41140064 40883364 40573328 40212960 
1131.066 39804368 39348884 38847364 38300444 37708832 37073292 36394672 
1134.441 35673924 34912128 34110704 33271656 32397630 31492012 30558878 
1137.816 29602820 28628910 27642574 26649598 25655984 24667888 23691290 
1141.192 22731864 21794642 20883914 20003360 19156012 18344458 17571030 
1144.567 16837846 16146773 15499359 14896759 14339603 13827977 13361435 
1147.942 12938991 12559204 12220159 11919501 11654544 11422415 11220257 
1151.317 11045506 10896047 10770331 10667358 10586478 10527208 10489056 
1154.693 10471408 10473667 10495310 10536123 10596289 10676393 10777282 
1158.068 10899968 11045352 11214275 11407433 11625566 11869720 12141371 
1161.443 12442675 12776588 13146792 13557726 14014430 14522335 15087156 
1164.818 15714802 16411348 17183098 18036788 18979588 20019316 21164176 
1168.194 22422528 23802474 25311264 26954972 28737990 30662870 32730066 
1171.569 34937672 37280996 39751796 42337616 45021008 47778864 50582208 
1174.944 53396176 56180616 58890772 61478752 63895052 66090996 68021544 
1178.319 69648208 70942128 71886184 72476120 72720656 72639848 72262984 
1181.695 71625320 70765024 69720416 68527808 67220464 65828280 64378096 
1185.070 62894104 61398000 59908824 58442472 57011396 55624372 54286944 
1188.445 53002084 51771236 50595124 49474252 48408952 47399368 46445100 
1191.820 45545212 44698320 43902936 43157740 42461668 41813828 41213052 
1195.196 40657568 40144752 39671136 39232948 38826484 38448776 38097836 
1198.571 37772640 37472828 37198240 36948488 36722656 36519260 36336248 
1201.946 36171116 36021112 35883184 35754092 35630488 35509176 35387208 
1205.321 35262028 35131584 34994304 34848876 34694116 34528756 34351384 
1208.697 34160464 33954476 33731884 33491380 33231860 32952556 32653170 
1212.072 32333952 31995726 31639820 31267860 30881498 30482162 30070942 
1215.447 29648668 29216180 28774574 28325408 27870760 27412980 26954446 
1218.822 26497186 26042748 25592134 25145934 24704534 24268242 23837406 
1222.198 23412394 22993574 22581322 22175988 21778074 21388230 21007252 
1225.573 20635952 20275068 19925016 19585880 19257450 18939372 18631344 
1228.948 18333306 18045496 17768296 17502124 17247200 17003430 16770357 
1232.323 16547263 16333325 16127814 15930247 15740418 15558386 15384425 
1235.698 15218781 15061562 14912620 14771473 14637379 14509405 14386691 
1239.074 14268607 14154948 14045972 13942292 13844647 13753617 13669387 
1242.449 13591585 13519427 13451903 13388105 13327523 13270193 13216622 
1245.824 13167550 13123728 13085683 13053557 13027258 13006581 12991425 
1249.199 12981883 12978277 12981012 12990355 13006325 13028638 13056713 
1252.575 13089916 13127670 13169697 13216051 13267042 13323125 13384779 
1255.950 13452213 13525327 13603655 13686362 13772370 13860554 13949819 
1259.325 14039284 14128390 14216752 14304180 14390409 14475010 14557321 
1262.700 14636336 14710936 14779919 14842135 14896569 14942336 14978635 
1266.076 15004703 15019795 15023281 15014674 14993747 14960533 14915365 
1269.451 14858578 14790474 14711104 14620191 14517203 14401487 14272387 
1272.826 14129536 13972820 13802546 13619240 13423620 13216501 12998667 
1276.201 12770891 12534000 12288831 12036307 11777422 11513221 11244782 
1279.577 10973272 10699912 10426110 10153436 9883562 9618266 9359298 9108266 
1283.434 8866631 8635677 8416555 8210285 8017881 7840257 7678355 7533053 
1287.292 7405196 7295660 7205207 7134481 7083785 7053017 7041492 7047920 
1291.149 7070572 7107406 7156287 7215186 7282191 7355457 7433135 7513256 
1295.006 7593882 7673137 7749571 7822305 7891156 7956458 8018818 8078639 
1298.864 8135815 8189672 8239040 8282587 8319351 8349038 8372170 8389987 
1302.721 8404160 8416328 8427817 8439369 8451125 8462738 8473530 8482642 
1306.579 8489309 8492889 8493064 8489869 8483782 8475588 8466277 8456782 
1310.436 8447750 8439425 8431686 8424173 8416568 8408814 8401197 8394220 
1314.293 8388396 8384016 8380960 8378724 8376644 8374208 8371220 8367977 
1318.151 8365097 8363281 8363047 8364534 8367474 8371371 8375714 8380198 
1322.008 8384842 8389924 8395879 8403157 8412133 8423075 8436272 8452021 
1325.866 8470731 8492831 8518766 8548957 8583699 8623318 8668146 8718500 
1329.723 8774644 8836705 8904480 8977420 9054713 9135369 9218571 9303790 
1333.581 9390933 9480278 9572370 9667701 9766670 9869409 9975864 10085864 
1337.438 10199238 10315926 10435983 10559571 10687029 10818797 10955518 
1340.813 11097859 11246555 11402179 11565071 11735172 11912120 12095226 
1344.188 12283774 12477063 12674597 12876013 13081118 13289744 13501732 
1347.564 13716975 13935344 14156732 14380923 14607434 14835361 15063252 
1350.939 15289211 15511052 15726566 15933818 16131225 16317593 16491979 
1354.314 16653563 16801626 16935668 17055438 17161088 17253164 17332328 
1357.689 17399304 17454610 17498590 17531582 17554224 17567620 17573460 
1361.065 17573824 17570758 17565868 17559988 17553050 17544140 17531776 
1364.440 17514082 17488910 17453916 17406328 17343048 17260650 17155758 
1367.815 17025490 16868000 16683000 16472183 16239394 15990740 15734407 
1371.190 15480472 15240403 15026554 14851394 14726774 14662905 14667615 
1374.566 14745420 14897056 15119082 15404032 15740751 16115144 16511120 
1377.941 16911796 17300660 17662738 17985376 18258564 18475016 18629630 
1381.316 18719154 18741718 18696880 18585594 18410288 18174826 17884212 
1384.691 17544134 17160516 16739272 16286053 15806364 15305422 14788167 
1388.067 14259015 13721730 13179311 12634051 12087835 11542431 10999826 
1391.442 10462313 9932724 9414120 8909829 8423221 7957581 7515941 7100953 
1395.299 6714636 6358232 6032076 5735628 5467568 5226078 5009104 4814564 
1399.157 4640447 4484942 4346293 4222768 4112588 4013958 3925199 3844861 
1403.014 3771827 3705364 3645038 3590522 3541499 3497473 3457807 3421742 
1406.872 3388558 3357670 3328781 3301768 3276743 3253824 3233153 3214711 
1410.729 3198358 3183788 3170599 3158390 3146829 3135819 3125548 3116508 
1414.586 3109400 3104961 3103686 3105607 3110253 3116665 3123788 3130698 
1418.444 3136965 3142795 3148892 3156205 3165588 3177527 3192118 3209177 
1422.301 3228496 3250038 3274038 3300847 3330768 3363881 3399891 3438326 
1426.159 3478724 3520863 3565001 3611754 3662011 3716721 3776797 3843009 
1430.016 3916126 3997007 4086560 4185778 4295613 4416821 4550180 4696654 
1433.874 4857744 5035786 5233912 5455916 5705713 5986869 6302221 6653871 
1437.731 7043449 7472425 7942430 8455140 9011823 9612747 10256594 10940062 
1441.588 11657948 12403489 13168669 13944745 14722551 15492743 16246141 
1444.964 16974082 17668826 18323862 18933940 19495020 20004162 20459372 
1448.339 20859716 21205326 21497380 21737858 21929120 22073434 22172578 
1451.714 22227774 22239692 22208730 22134962 22018174 21857684 21652108 
1455.089 21399740 21098908 20748842 20350256 19905732 19419376 18896248 
1458.465 18341490 17759774 17155260 16531685 15892947 15243152 14586750 
1461.840 13928263 13272044 12622091 11982046 11355325 10745212 10154909 
1465.215 9587352 9044957 8529464 8041887 7582588 7151510 6748322 6372622 
1469.073 6023880 5701530 5404771 5132640 4883972 4657341 4451099 4263436 
1472.930 4092421 3936157 3792970 3661458 3540690 3430048 3329122 3237510 
1476.787 3154709 3080035 3012660 2951781 2896678 2846745 2801443 2760189 
1480.645 2722348 2687258 2654314 2623135 2593650 2566035 2540577 2517460 
1484.502 2496580 2477524 2459633 2442281 2425041 2407784 2390734 2374246 
1488.360 2358708 2344314 2331167 2319247 2308591 2299337 2291685 2285718 
1492.217 2281315 2278000 2275077 2271721 2267297 2261526 2254552 2246860 
1496.074 2239149 2232008 2225798 2220594 2216210 2212408 2208922 2205624 
1499.932 2202498 2199663 2197263 2195453 2194331 2193923 2194107 2194538 
1503.789 2194680 2193848 2191329 2186616 2179569 2170479 2160111 2149422 
1507.647 2139405 2130786 2123990 2119143 2116142 2114808 2114956 2116324 
1511.504 2118535 2121068 2123246 2124368 2123879 2121567 2117579 2112406 
1515.362 2106707 2101103 2095998 2091554 2087704 2084324 2081347 2078793 
1519.219 2076747 2075260 2074187 2073197 2071769 2069413 2065729 2060633 
1523.076 2054325 2047243 2039855 2032593 2025712 2019261 2013165 2007284 
1526.934 2001530 1995950 1990722 1986163 1982604 1980290 1979306 1979428 
1530.791 1980167 1980822 1980682 1979093 1975782 1970810 1964667 1958087 
1534.649 1951764 1946260 1941748 1938129 1935069 1932174 1929146 1925891 
1538.506 1922465 1919042 1915833 1912931 1910415 1908266 1906440 1904887 
1542.364 1903500 1902107 1900445 1898187 1895026 1890785 1885519 1879434 
1546.221 1872908 1866321 1859908 1853762 1847743 1841705 1835485 1829128 
1550.078 1822816 1816843 1811511 1807073 1803536 1800821 1798706 1796934 
1553.936 1795297 1793659 1791940 1790162 1788362 1786602 1784942 1783370 
1557.793 1781781 1779942 1777492 1774058 1769366 1763339 1756289 1748817 
1561.651 1741749 1735957 1732057 1730339 1730629 1732342 1734695 1736852 
1565.508 1738233 1738545 1737914 1736756 1735691 1735394 1736440 1739176 
1569.365 1743620 1749540 1756340 1763298 1769679 1774909 1778678 1781047 
1573.223 1782348 1783054 1783724 1784720 1786247 1788294 1790669 1793110 
1577.080 1795278 1796921 1797723 1797456 1795927 1793112 1789237 1784828 
1580.938 1780658 1777646 1776601 1778047 1781985 1787917 1794833 1801544 
1584.795 1806857 1809941 1810443 1808620 1805240 1801470 1798524 1797444 
1588.653 1798865 1802919 1809196 1816944 1825336 1833662 1841572 1849097 
1592.510 1856534 1864286 1872612 1881476 1890563 1899357 1907418 1914441 
1596.367 1920517 1925900 1931025 1936263 1941824 1947694 1953802 1960028 
1600.225 1966368 1972924 1979811 1987058 1994654 2002429 2010220 2017978 
1604.082 2025797 2033915 2042559 2051823 2061558 2071323 2080666 2089203 
1607.940 2096846 2103878 2110832 2118308 2126689 2136067 2146150 2156427 
1611.797 2166435 2175872 2184681 2193055 2201258 2209471 2217679 2225699 
1615.655 2233210 2239908 2245642 2250372 2254253 2257560 2260669 2264008 
1619.512 2267984 2273023 2279300 2286752 2294980 2303225 2310625 2316357 
1623.369 2320052 2321786 2322136 2322041 2322346 2323592 2325891 2328814 
1627.227 2331744 2334029 2335256 2335295 2334312 2332553 2330240 2327468 
1631.084 2324174 2320353 2316111 2311793 2307937 2305135 2303814 2304158 
1634.942 2305878 2308355 2310682 2311906 2311327 2308539 2303624 2297059 
1638.799 2289682 2282425 2276213 2271658 2269043 2268222 2268788 2270151 
1642.656 2271822 2273501 2275146 2276922 2279007 2281578 2284560 2287751 
1646.514 2290804 2293391 2295190 2296121 2296206 2295631 2294711 2293858 
1650.371 2293557 2294283 2296372 2299947 2304847 2310574 2316555 2322324 
1654.229 2327762 2333215 2339373 2346963 2356474 2367903 2380719 2393999 
1658.086 2406918 2419017 2430380 2441659 2453692 2467048 2481690 2496900 
1661.944 2511416 2524048 2533989 2541317 2546948 2552370 2559144 2568454 
1665.801 2580728 2595660 2612366 2629835 2647111 2663627 2679157 2693808 
1669.658 2707788 2721380 2734730 2747905 2760916 2773694 2786177 2798317 
1673.516 2810096 2821578 2832940 2844500 2856605 2869643 2883886 2899475 
1677.373 2916417 2934667 2954155 2974921 2997014 3020466 3045179 3070809 
1681.231 3096832 3122560 3147326 3170659 3192426 3212935 3232883 3253243 
1685.088 3275051 3299172 3326143 3356116 3388845 3423891 3460731 3498982 
1688.946 3538565 3579713 3622854 3668455 3716738 3767515 3820160 3873811 
1692.803 3927558 3980871 4033716 4086662 4140643 4196685 4255625 4317927 
1696.660 4383751 4453103 4526074 4603089 4684621 4771198 4862939 4959539 
1700.518 5060251 5164320 5271302 5381473 5495864 5616091 5743852 5880403 
1704.375 6026305 6181235 6344393 6514844 6691939 6875635 7066276 7264445 
1708.233 7470507 7684461 7905848 8134059 8368654 8609711 8857898 9114355 
1712.090 9380377 9657007 9944659 10243040 10551189 10867812 11191546 
1715.465 11521217 11855978 12195272 12538560 12885298 13234857 13586673 
1718.841 13940582 14297195 14658143 15025999 15404089 15795954 16204777 
1722.216 16633108 17082788 17555330 18052570 18577162 19133126 19725688 
1725.591 20361206 21046482 21788330 22593472 23468388 24419432 25452856 
1728.966 26574892 27791634 29109034 30533316 32071484 33731924 35524628 
1732.342 37460604 39550464 41802384 44220196 46802324 49542696 52432740 
1735.717 55464232 58631288 61930408 65358264 68907888 72564760 76304248 
1739.092 80091744 83885480 87641040 91315616 94870320 98270712 101485432 
1742.467 104485192 107242904 109734928 111942552 113852896 115458032 
1745.360 116753856 117738768 118414248 118785824 118864856 118668440 
1748.253 118217936 117535880 116643192 115557656 114294336 112867344 
1751.146 111291448 109582696 107757272 105829480 103810408 101707592 
1754.040 99526544 97272656 94953552 92579576 90163504 87718872 85258592 
1757.415 82794000 80334992 77890792 75470864 73084968 70743216 68454984 
1760.790 66228344 64069504 61983120 59972536 58040304 56188004 54416324 
1764.165 52724372 51109732 49568696 48097004 46690704 45347016 44064428 
1767.541 42842336 41680124 40576220 39527236 38527928 37571492 36650524 
1770.916 35757788 34887296 34034432 33196294 32371136 31557876 30755392 
1774.291 29962044 29175272 28391748 27607664 26819486 26024554 25221818 
1777.666 24411886 23597110 22780802 21966650 21157948 20357252 19566238 
1781.042 18786086 18017788 17262630 16522387 15799415 15096344 14415886 
1784.417 13760376 13131607 12530746 11958407 11414841 10900140 10414263 
1787.792 9957075 9528115 9126598 8751150 8400145 8071754 7764591 7477689 
1791.649 7210701 6963707 6736736 6529440 6340737 6168724 6010997 5864885 
1795.507 5727980 5598337 5474602 5356019 5242193 5133030 5028540 4928852 
1799.364 4834181 4744697 4660474 4581377 4507076 4436900 4370179 4306226 
1803.222 4244702 4185502 4128880 4075155 4024588 3977141 3932523 3890154 
1807.079 3849458 3809962 3771579 3734533 3699375 3666653 3636716 3609355 
1810.937 3583798 3558512 3531488 3500630 3464250 3421455 3372670 3319544 
1814.794 3264967 3212523 3165867 3128036 3100814 3084368 3077226 3076571 
1818.651 3078865 3080496 3078486 3070825 3056734 3036517 3011362 2982853 
1822.509 2952710 2922343 2892712 2864286 2837057 2810664 2784729 2758688 
1826.366 2732022 2704131 2674381 2642203 2607223 2569593 2530172 2490475 
1830.224 2452516 2418163 2388808 2364626 2344758 2327254 2309920 2290661 
1834.081 2268195 2242160 2213044 2181805 2149625 2117590 2086789 2058320 
1837.938 2033445 2013311 1998726 1989546 1984343 1980413 1974261 1962485 
1841.796 1942789 1914815 1880474 1843416 1808207 1778848 1757969 1745769 
1845.653 1740350 1738273 1735563 1728894 1716336 1697826 1675069 1651020 
1849.511 1629041 1612135 1602247 1599762 1603539 1611124 1619333 1624948 
1853.368 1625289 1618743 1604935 1584692 1559930 1533158 1507196 1484656 
1857.226 1467613 1457226 1453542 1455449 1461045 1467736 1473269 1475855 
1861.083 1474806 1470320 1463400 1455183 1446567 1437885 1429016 1419565 
1864.940 1409369 1398728 1388624 1380421 1375512 1374766 1378325 1385097 
1868.798 1393145 1399799 1402347 1398586 1387495 1369579 1347136 1323679 
1872.655 1303482 1290197 1285944 1290432 1300950 1312850 1321094 1321668 
1876.513 1312997 1296259 1275214 1254858 1239949 1233505 1236344 1246817 
1880.370 1261745 1277145 1289313 1295250 1292939 1281395 1260632 1231836 
1884.228 1197364 1160762 1126273 1098239 1080173 1073938 1079541 1095078 
1888.085 1117658 1143783 1170386 1195195 1216999 1235327 1250584 1263668 
1891.942 1275831 1288308 1301876 1316249 1329924 1339883 1342719 1335280 
1895.800 1316215 1286575 1250053 1211965 1178028 1152461 1137304 1131941 
1899.657 1133868 1139907 1147303 1154332 1160350 1164946 1167626 1167333 
1903.515 1162800 1153076 1138160 1119445 1099208 1079997 1063806 1051424 
1907.372 1042454 1035805 1030433 1025794 1022051 1019592 1018741 1019011 
1911.229 1019448 1018647 1015781 1010693 1004172 997565 992066 988060 985066 
1915.569 981897 977275 970371 961548 951925 943237 937045 934220 934346 
1919.909 936157 937460 936157 930379 919526 904277 887053 871311 861193 
1924.248 860062 869685 889009 914321 939626 958630 966207 960221 941982 
1928.588 915726 886702 859500 836001 815075 793348 767076 734173 695922 
1932.927 656771 623880 604362 603635 623210 660473 709206 761332 808397 
1937.267 843906 863664 866649 854223 829736 797627 762848 730103 703807 
1941.607 687046 681820 688153 704630 727808 753388 776765 794214 804093 
1945.946 807599 808515 812532 825841 853096 895684 951444 1014230 1075706 
1950.286 1126883 1160415 1171963 1160936 1129996 1084981 1032926 981375 
1954.143 937031 905006 887953 885946 895706 912051 927516 934911 927907 
1958.483 902811 858904 798822 727253 651067 577647 515034 471606 454986 
1962.823 471203 523100 607924 717160 836535 949176 1038732 1093769 1110414 
1967.162 1092781 1050937 997474 942628 891976 844552 795208 737537 667476 
1971.502 585842 499778 420187 359345 327036 328901 365218 432274 524849 
1975.841 638342 769250 914520 1068849 1222958 1362800 1472440 1537205 
1979.699 1549807 1511368 1432709 1330862 1225730 1134881 1070685 1037555 
1983.556 1033910 1053890 1091175 1141449 1202909 1275240 1357428 1445115 
1987.414 1530969 1604078 1653993 1672075 1654291 1601511 1518948 1414604 
1991.271 1298615 1180914 1071602 979702 912052 872009 858226 863579 877403 
1995.611 887374 883653 861434 821835 770943 716298 663130 612856 562014 
1999.950 505659 440179 366941 292519 227175 180281 157021 155024 165351 
2004.290 175218 174015 156531 127414 99770 92119 122211 201731 331232 499593 
2009.112 685165 860011 994076 1062507 1049530 953762 788579 581104 365649 
2013.451 176988 40806 -30415 -40900 -7177 47086 98909 131591 138484 120955 
2018.273 87797 49001 14184 -10164 -21081 -18148 -3549 18743 44457 69219 
2023.095 90188 106392 118887 128850 136803 139733 132371 107936 62263 -3916 
2027.917 -83181 -163118 -229853 -273387 -289830 -282637 -259414 -227763 
2031.774 -190511 -145038 -83924 -229 109373 240126 381566 518926 638458 
2036.114 729641 786921 808370 796061 753954 689028 611437 534627 473263 
2040.453 440560 443736 482133 546047 620381 688209 736383 757959 753793 
2044.793 730244 697668 667608 652151 662853 709633 798524 927740 1084532 
2049.132 1246108 1382689 1466977 1481310 1423498 1306709 1155072 996875 
2052.990 857103 751160 683043 646446 629900 622758 619742 621548 633045 
2057.329 658707 699580 750916 804266 850241 882062 897726 900825 897904 
2061.669 896465 901893 916028 936645 958636 975383 980797 970499 943368 
2066.009 901643 850870 798230 751080 714410 690126 676576 670758 669892 
2070.348 674153 686968 713915 759406 824208 902744 984315 1055626 1105650 
2074.688 1129153 1128698 1113042 1094047 1081585 1080680 1090071 1104096 
2078.545 1115640 1119609 1114546 1103111 1089552 1078284 1071618 1069772 
2082.403 1071346 1074800 1079268 1085289 1093963 1106291 1122480 1141451 
2086.260 1161051 1178409 1190045 1192598 1182730 1158138 1118186 1064930 
2090.117 1003327 940457 883946 839999 811122 796005 790165 788297 786358 
2094.457 783348 780980 782343 789100 800184 811456 817631 814396 800822 
2098.797 779430 755375 733510 716725 705028 696596 689803 685469 686729 
2103.136 698211 722942 760195 804304 846406 877473 892498 892223 883581 
2107.476 876239 878760 894719 921401 951211 975228 987027 985641 975161 
2111.815 963130 956758 960315 973816 993646 1014899 1033460 1047226 1055995 
2116.155 1059973 1058413 1048657 1026807 988905 933251 861333 778503 692277 
2120.495 610507 539197 481066 435045 397528 363661 329592 293665 257135 
2124.834 223913 199205 187639 192221 212151 243040 276640 302718 310153 
2129.174 289508 234239 142221 15948 -137619 -307495 -479955 -639838 -772419 
2133.513 -866517 -915963 -922269 -893653 -843795 -787537 -736956 -698722 
2137.371 -673601 -658268 -649622 -647320 -655919 -682905 -735649 -816211 
2141.228 -918842 -1029190 -1129402 -1202442 -1239604 -1242889 -1225391 
2144.604 -1206001 -1203718 -1229782 -1284986 -1358800 -1433220 -1488521 
2147.979 -1509515 -1489890 -1434858 -1359480 -1286417 -1239998 -1242020 
2151.354 -1306516 -1436319 -1622240 -1845410 -2081903 -2310228 -2516690 
2154.729 -2699295 -2865985 -3030111 -3201005 -3377283 -3540375 -3658196 
2158.104 -3691829 -3610736 -3404861 -3091951 -2712419 -2316540 -1948265 
2161.480 -1636661 -1391416 -1207489 -1069487 -958263 -855667 -749769 -637042 
2165.337 -524208 -425475 -359247 -340066 -373205 -449710 -548823 -642530 
2169.195 -706167 -726065 -706160 -665806 -633642 -636134 -687400 -782903 
2173.052 -901909 -1013396 -1088799 -1111088 -1080734 -1014159 -936730 
2176.427 -872900 -838799 -837869 -863063 -900636 -935452 -953889 -946220 
2180.285 -906149 -832185 -726961 -599616 -463763 -336164 -232051 -161159 
2184.142 -123809 -112992 -116502 -123710 -129473 -136099 -150513 -179689 
2188.000 -224124 -275997 -319184 -335751 -311825 -244540 -143197 -27259 
2191.857 81239 164221 213752 232330 230472 220867 213080 210277 210607 
2196.197 209246 203676 195572 192572 205124 243283 312149 410096 527388 
2200.536 649360 759324 842813 890954 902346 882821 844273 800702 765730 
2204.876 748815 753257 776186 809967 844703 872286 888215 893158 892186 
2209.215 892610 901155 921970 954834 995776 1038168 1075261 1101178 1112997 
2213.555 1110546 1095769 1072374 1044434 1015258 987554 962562 940910 922472 
2217.895 907339 895680 888388 886348 890259 899749 913893 931010 949513 
2222.234 968480 988569 1010769 1036036 1063519 1090232 1110862 1119540 
2226.092 1111806 1087036 1048804 1005231 965447 937277 924095 923945 930485 
2230.431 935782 933716 922773 906498 892062 887185 896696 920318 952986 
2234.771 985866 1010831 1022659 1021629 1012998 1005307 1007037 1024174 
2238.628 1057688 1104171 1156920 1208571 1253631 1290145 1319702 1346848 
2242.486 1376364 1411684 1452856 1496275 1535531 1563248 1573586 1564320 
2246.343 1537607 1500170 1461045 1429507 1412264 1411652 1424990 1445613 
2250.200 1464500 1473459 1466983 1444664 1410833 1374275 1345782 1335738 
2254.058 1351182 1394036 1460062 1539869 1620961 1690812 1739716 1763356 
2257.915 1763017 1745248 1719128 1694091 1676903 1670702 1674540 1684828 
2261.773 1696638 1705869 1709879 1708046 1700916 1689777 1675848 1660289 
2265.630 1643902 1627678 1612703 1600051 1590503 1584495 1582037 1583152 
2269.488 1588111 1597682 1612549 1632878 1657375 1683359 1706947 1724627 
2273.345 1734367 1737196 1736774 1738731 1748345 1768671 1799163 1835894 
2277.202 1872645 1903640 1925160 1937246 1943115 1947848 1956227 1971230 
2281.060 1992781 2018542 2044622 2067592 2085013 2096380 2102349 2104586 
2284.917 2104613 2103842 2103149 2103183 2104199 2106059 2107935 2108325 
2288.775 2105152 2096354 2080549 2057745 2029327 1998149 1967448 1940259 
2292.632 1918626 1903392 1894250 1890341 1890770 1894848 1902107 1912036 
2296.490 1923777 1935905 1946689 1954395 1957795 1956520 1951290 1943510 
2300.347 1934965 1927242 1921404 1917935 1916750 1917509 1919879 1923782 
2304.204 1929205 1936280 1944853 1954545 1964554 1973865 1981271 1985904 
2308.062 1987075 1984783 1979494 1972236 1964257 1957180 1952460 1951516 
2311.919 1955196 1963822 1976853 1992877 2009872 2025546 2038083 2046641 
2315.777 2051781 2055482 2060408 2069237 2083590 2103825 2128803 2157165 
2319.634 2187902 2221388 2259271 2303429 2354459 2409767 2462990 2504601 
2323.491 2523802 2511726 2463844 2381595 2272231 2147289 2020006 1902713 
2327.349 1804315 1729264 1677412 1645059 1626851 1617414 1612563 1609806 
2331.206 1607784 1606123 1604493 1602696 1600593 1598308 1596180 1594734 
2335.064 1594167 1594410 1594825 1594533 1592754 1589150 1583970 1577890 
2338.921 1571786 1566222 1561404 1557159 1553045 1548742 1544082 1539074 
2342.779 1533772 1528224 1522287 1515939 1509304 1502896 1497447 1493787 
2346.636 1492327 1492996 1495056 1497502 1499255 1499720 1498946 1497539 
2350.493 1496218 1495640 1495954 1496996 1498308 1499430 1500077 1500179 
2354.351 1499623 1498086 1495051 1489789 1481698 1470657 1457101 1441933 
2358.208 1426151 1410643 1395748 1381357 1367081 1352571 1337795 1323032 
2362.066 1308716 1295229 1282515 1270328 1258170 1245849 1233557 1222038 
2365.923 1212245 1205289 1201630 1201455 1204462 1210098 1217849 1227272 
2369.781 1237764 1248604 1258685 1266727 1271742 1273378 1272156 1269660 
2373.638 1267657 1267851 1270840 1276253 1282712 1288751 1293334 1296619 
2377.495 1299818 1304701 1312858 1324868 1339910 1356015 1370474 1380993 
2381.353 1386198 1386127 1382120 1376519 1371804 1370321 1373488 1381725 
2385.210 1394306 1409667 1425516 1439643 1450159 1456244 1458191 1457450 
2389.068 1455906 1455550 1457578 1462186 1468643 1475842 1482716 1488925 
2392.925 1494847 1501351 1509306 1518851 1529189 1538743 1545490 1547783 
2396.782 1544645 1536411 1524184 1509752 1494954 1481321 1469845 1461003 
2400.640 1454836 1451062 1449151 1448570 1448699 1449265 1450266 1452390 
2404.497 1456632 1464350 1476493 1493485 1514661 1538448 1562354 1583821 
2408.355 1600536 1611124 1615290 1613756 1608134 1600321 1592051 1584687 
2412.212 1578683 1573837 1569274 1563921 1556732 1547251 1535559 1522425 
2416.070 1508939 1496277 1485244 1476272 1469279 1464014 1460356 1458322 
2419.927 1457971 1459562 1462911 1467579 1472778 1477702 1481717 1484927 
2423.784 1487780 1491017 1495175 1500061 1504664 1507246 1505800 1498848 
2427.642 1485954 1468179 1447813 1428112 1412266 1402828 1401009 1406421 
2431.499 1417428 1431536 1446256 1459823 1471475 1481654 1491256 1501460 
2435.357 1512528 1523913 1534050 1541268 1544260 1543017 1538724 1533609 
2439.214 1529895 1528852 1530188 1532016 1531810 1527475 1518600 1506808 
2443.072 1495497 1488558 1488877 1497294 1512157 1530012 1546815 1559425 
2446.929 1566347 1568030 1566009 1561872 1556326 1548999 1538812 1524875 
2450.786 1507466 1488316 1470406 1457087 1450948 1452897 1462018 1475908 
2454.644 1491421 1505648 1516506 1522912 1524556 1521701 1514633 1503771 
2458.501 1489569 1472785 1454569 1436267 1419306 1404787 1393387 1385231 
2462.359 1379990 1377136 1376042 1376162 1377093 1378587 1380528 1383131 
2466.216 1386655 1391836 1399139 1408972 1421237 1435216 1449542 1462540 
2470.073 1472283 1477226 1476303 1469319 1456836 1440256 1421622 1403283 
2473.931 1387629 1376756 1371808 1373022 1379455 1389555 1401432 1413629 
2477.788 1425567 1437569 1450766 1466160 1484170 1504056 1523795 1540809 
2481.646 1552277 1556475 1552922 1542767 1528409 1512663 1498249 1487345 
2485.503 1481029 1479747 1483224 1490746 1501288 1513474 1525624 1535880 
2489.361 1542369 1543755 1539468 1529947 1516640 1501672 1487253 1475425 
2493.218 1467320 1463467 1463532 1466705 1472059 1478697 1485765 1492694 
2497.075 1499022 1504437 1508815 1512363 1515342 1518347 1521730 1525771 
2500.933 1530250 1534546 1537541 1538190 1535686 1529917 1521647 1512534 
2504.790 1504721 1500475 1501403 1508217 1520205 1535332 1550712 1562905 
2508.648 1568761 1565951 1553381 1531377 1501762 1467371 1431587 1398018 
2512.505 1369563 1348235 1334853 1329056 1329665 1335090 1343909 1355155 
2516.363 1368305 1383269 1399880 1417538 1435232 1451548 1465199 1475413 
2520.220 1482466 1487575 1492356 1498392 1506337 1515752 1525238 1532974 
2524.077 1537779 1539574 1539622 1540154 1543376 1550496 1561059 1573070 
2527.935 1583380 1589232 1588770 1581948 1570226 1555882 1540964 1526826 
2531.792 1513508 1500494 1487271 1474148 1462475 1454381 1452003 1456662 
2535.650 1468271 1485421 1505842 1527460 1548852 1569607 1589964 1610205 
2539.507 1629610 1646593 1658636 1663327 1659189 1646621 1627851 1606641 
2543.365 1587119 1572783 1565642 1566050 1572565 1583010 1594607 1604943 
2547.222 1612080 1614706 1612373 1605490 1595417 1584450 1575382 1570999 
2551.079 1573268 1582681 1597862 1615943 1633140 1645830 1651389 1649218 
2554.937 1640379 1627534 1613990 1602882 1596369 1595432 1599645 1607720 
2558.794 1617838 1628209 1637519 1645308 1651835 1658046 1665121 1673965 
2562.652 1684805 1697038 1709190 1719398 1725987 1728089 1725893 1720813 
2566.509 1714884 1710421 1709041 1711573 1717720 1726297 1735578 1743947 
2570.366 1750044 1753219 1753443 1751427 1748197 1745009 1742859 1742407 
2574.224 1743426 1745165 1746358 1745957 1743484 1739466 1735499 1733655 
2578.081 1735958 1743519 1756057 1772030 1789080 1804888 1817748 1827024 
2581.939 1832878 1835951 1836773 1835532 1832298 1827514 1822232 1818445 
2585.796 1818340 1823782 1834959 1850298 1866437 1879193 1885037 1882257 
2589.654 1871518 1855717 1838743 1824434 1815175 1811637 1813013 1817664 
2593.511 1824079 1831188 1838405 1845292 1851186 1854957 1855529 1852244 
2597.368 1845554 1837166 1829553 1825342 1826188 1832322 1842443 1854399 
2601.226 1866071 1876216 1884821 1892922 1901938 1912712 1925072 1937700 
2605.083 1948508 1955517 1957451 1954238 1946866 1937075 1926781 1917740 
2608.941 1911053 1907423 1907186 1910371 1916785 1926071 1937429 1949902 
2612.798 1962284 1973579 1983064 1990701 1997002 2002820 2009108 2016537 
2616.656 2025257 2034802 2044245 2052455 2058408 2061535 2061897 2060358 
2620.513 2058262 2057216 2058488 2062874 2070093 2079111 2088159 2095432 
2624.370 2099528 2100074 2097686 2093959 2090897 2090358 2093411 2100065 
2628.228 2109187 2118996 2127416 2132751 2134092 2131446 2125797 2118681 
2632.085 2111971 2107276 2105867 2108315 2114479 2123660 2134642 2146081 
2635.943 2156388 2164598 2169819 2171979 2171415 2169014 2165864 2163061 
2639.800 2161371 2160918 2161296 2161601 2160586 2157314 2151266 2142798 
2643.657 2132892 2123133 2114997 2109607 2107331 2107644 2109439 2111431 
2647.515 2112584 2112451 2111182 2109456 2108053 2107479 2107809 2108631 
2651.372 2109184 2108691 2106640 2102887 2097728 2091779 2085666 2080125 
2655.230 2075541 2072128 2069843 2068355 2067144 2065412 2062327 2057042 
2659.087 2048851 2037437 2022729 2005102 1985049 1963235 1940270 1916824 
2662.945 1893493 1870955 1849884 1831043 1814942 1801887 1791870 1784640 
2666.802 1779678 1776545 1774936 1774709 1775766 1777910 1780629 1783062 
2670.659 1784238 1783086 1779103 1772394 1763696 1754438 1746175 1740267 
2674.517 1737360 1737287 1739084 1741180 1741925 1739989 1734710 1726243 
2678.374 1715458 1703670 1692330 1682563 1674947 1669526 1665897 1663556 
2682.232 1662052 1661359 1661568 1663093 1665990 1670078 1674611 1678622 
2686.089 1681180 1681771 1680501 1678147 1675810 1674565 1675010 1676974 
2689.947 1679634 1681844 1682416 1680673 1676595 1670643 1663729 1656786 
2693.804 1650457 1645238 1641223 1638420 1636738 1636170 1636454 1637335 
2697.661 1638290 1638800 1638440 1637128 1635098 1632959 1631409 1631029 
2701.519 1632055 1634262 1637077 1639840 1641903 1643087 1643507 1643682 
2705.376 1644311 1645995 1649089 1653639 1659183 1664901 1669748 1672686 
2709.234 1672892 1670130 1664745 1657744 1650570 1644622 1640969 1639967 
2713.091 1641042 1643039 1644434 1643914 1640795 1635111 1627600 1619430 
2716.948 1611659 1605082 1600000 1596422 1594176 1593244 1593828 1596275 
2720.806 1600926 1607735 1616220 1625348 1633767 1640104 1643267 1642826 
2724.663 1639025 1632834 1625642 1619081 1614522 1612949 1614672 1619401 
2728.521 1626241 1633999 1641366 1647306 1651082 1652576 1652032 1650075 
2732.378 1647420 1644709 1642483 1640972 1640334 1640633 1641841 1643959 
2736.236 1646960 1650643 1654631 1658564 1661893 1664255 1665524 1665780 
2740.093 1665392 1664893 1664707 1665074 1665929 1666885 1667298 1666513 
2743.950 1664123 1660054 1654665 1648794 1643411 1639521 1637751 1638352 
2747.808 1641095 1645288 1650074 1654464 1657747 1659368 1659132 1657075 
2751.665 1653465 1648753 1643494 1638261 1633665 1630204 1628158 1627657 
2755.523 1628515 1630383 1632862 1635519 1638083 1640454 1642594 1644484 
2759.380 1645986 1646820 1646570 1644901 1641506 1636394 1629870 1622518 
2763.238 1615072 1608235 1602520 1598251 1595401 1593868 1593441 1593876 
2767.095 1595148 1597256 1600286 1604190 1608886 1614057 1619315 1624193 
2770.952 1628290 1631394 1633353 1634280 1634378 1633945 1633288 1632873 
2774.810 1633157 1634681 1637920 1643146 1650296 1658791 1667645 1675616 
2778.667 1681442 1684246 1683735 1680197 1674417 1667401 1659935 1652653 
2782.525 1645809 1639589 1634124 1629807 1627210 1626912 1629326 1634482 
2786.382 1641942 1651072 1660991 1670924 1680336 1688778 1695864 1701181 
2790.240 1704232 1704667 1702655 1698906 1694809 1692033 1692185 1696231 
2794.097 1703987 1714395 1725577 1735655 1743274 1748153 1751058 1753410 
2797.954 1756778 1762368 1770387 1780179 1790426 1799595 1806347 1810030 
2801.812 1810587 1808637 1805187 1801322 1798012 1795869 1795188 1795931 
2805.669 1797739 1800256 1803085 1806028 1809029 1812192 1815743 1819880 
2809.527 1824784 1830437 1836876 1844009 1851682 1859662 1867587 1875062 
2813.384 1881499 1886564 1890258 1892960 1895567 1899085 1904329 1911631 
2817.241 1920558 1930077 1938849 1945737 1950274 1952744 1954150 1955643 
2821.099 1958086 1961802 1966432 1971282 1975725 1979466 1982846 1986438 
2824.956 1990791 1996021 2001605 2006697 2010238 2011743 2011400 2009981 
2828.814 2008704 2008522 2009903 2012466 2015241 2017005 2016833 2014343 
2832.671 2009773 2003904 1997651 1991960 1987517 1984772 1984097 1985695 
2836.529 1989614 1995579 2002932 2010679 2017607 2022682 2025388 2026038 
2840.386 2025693 2026027 2028792 2035694 2047690 2065295 2088466 2116862 
2844.243 2150001 2187352 2228278 2271873 2316861 2361448 2403565 2440985 
2848.101 2471652 2493938 2506901 2510360 2504926 2491849 2472890 2450044 
2851.958 2425258 2400083 2375801 2353047 2332197 2313454 2296962 2283156 
2855.816 2272458 2265343 2261967 2261837 2264003 2267028 2269310 2269722 
2859.673 2267625 2263375 2258062 2253278 2250655 2251479 2256436 2265500 
2863.531 2278075 2293169 2309749 2326819 2343782 2360355 2376627 2393167 
2867.388 2410858 2430863 2454337 2482362 2515533 2553867 2596829 2643423 
2871.245 2692568 2743527 2796003 2850330 2907212 2967336 3030710 3096557 
2875.103 3163008 3227578 3287597 3340821 3386141 3423575 3454111 3479359 
2878.960 3500727 3519111 3534629 3546795 3554802 3558079 3556366 3549848 
2882.818 3539005 3524257 3505705 3483179 3456504 3425670 3391424 3355124 
2886.675 3318733 3284197 3253155 3226234 3203148 3182798 3163760 3144974 
2890.532 3126155 3107854 3091354 3078171 3069473 3065623 3066135 3069671 
2894.390 3074654 3079658 3083838 3086986 3089595 3092362 3095868 3100427 
2898.247 3105736 3111185 3116133 3120207 3123611 3127095 3131735 3138790 
2902.105 3148963 3162304 3177940 3194313 3209449 3221582 3229700 3233692 
2905.962 3234634 3234192 3234423 3237104 3243354 3253493 3267214 3283989 
2909.820 3303483 3325867 3351807 3382357 3418415 3460336 3507572 3558663 
2913.677 3611369 3663280 3712116 3756339 3795208 3828902 3858292 3884619 
2917.534 3909165 3933035 3956917 3980851 4004488 4026918 4047091 4063976 
2921.392 4077070 4086481 4093145 4098741 4105279 4114772 4128771 4148323 
2925.249 4173623 4204567 4240770 4281889 4327690 4377949 4432312 4490354 
2929.107 4551458 4615087 4681073 4749827 4822329 4899953 4984044 5075567 
2932.964 5174865 5281757 5395790 5516703 5644893 5781546 5928597 6088221 
2936.822 6262209 6451472 6655598 6872697 7099569 7332146 7565879 7796168 
2940.679 8018820 8230309 8427817 8608983 8771998 8915101 9036362 9133866 
2944.536 9205670 9250144 9266462 9254830 9216662 9154293 9070928 8970011 
2948.394 8854884 8728769 8594339 8453951 8309534 8162639 8014244 7864937 
2952.251 7715017 7564719 7414778 7266446 7121758 6983080 6852770 6732459 
2956.109 6622822 6523316 6432507 6348663 6270116 6195644 6124494 6056299 
2959.966 5990790 5927627 5866496 5807347 5750423 5696306 5645919 5599800 
2963.823 5557970 5519605 5483309 5447433 5410683 5372642 5333903 5295881 
2967.681 5260213 5228496 5201734 5180375 5164308 5153297 5147004 5145032 
2971.538 5147046 5152369 5160237 5169747 5180153 5191229 5203192 5216833 
2975.396 5233126 5253134 5277671 5307481 5343146 5385353 5434809 5492271 
2979.253 5558265 5633048 5716419 5808082 5907829 6015838 6132691 6259416 
2983.111 6396924 6545808 6706090 6877161 7058317 7249048 7449276 7659521 
2986.968 7880213 8111368 8351852 8599002 8848638 9095588 9334368 9559866 
2990.825 9768036 9956142 10122767 10267565 10390876 10493536 10576221 
2994.201 10639492 10683573 10708199 10712983 10697388 10661225 10604787 
2997.576 10528896 10435116 10325363 10201795 10066486 9921332 9768142 
3000.951 9608462 9443742 9275327 9104314 8931428 8756924 8580758 8402452 
3004.809 8221632 8038021 7851800 7663548 7474318 7285464 7098369 6914398 
3008.666 6734542 6559346 6389053 6223364 6061909 5904255 5750309 5600517 
3012.523 5455481 5316134 5183062 5056352 4935493 4819236 4706195 4595058 
3016.381 4485190 4376632 4270040 4166402 4066538 3970873 3879380 3791670 
3020.238 3707296 3625913 3547455 3471826 3399063 3329040 3261578 3196522 
3024.096 3133930 3074077 3017349 2964002 2914032 2866986 2822033 2778361 
3027.953 2735489 2693334 2652367 2613366 2577179 2544338 2515272 2490133 
3031.811 2469105 2452373 2439927 2431162 2424781 2418480 2409556 2395397 
3035.668 2374526 2346884 2314355 2279949 2246996 2218340 2195474 2178501 
3039.525 2166490 2158151 2152401 2148636 2146621 2146029 2146154 2145716 
3043.383 2143319 2137786 2128848 2117242 2104455 2092249 2081999 2074063 
3047.240 2067900 2062391 2056491 2049851 2042891 2036985 2033634 2034037 
3051.098 2038536 2046385 2055992 2065325 2072474 2076058 2075472 2070875 
3054.955 2063029 2053094 2042149 2031149 2020805 2011447 2003381 1996784 
3058.813 1991955 1989213 1988961 1991261 1995682 2001381 2007000 2011250 
3062.670 2013185 2012502 2009861 2006292 2003010 2000686 1999248 1997830 
3066.527 1995174 1990165 1982566 1972870 1962420 1952843 1945451 1940917 
3070.385 1939291 1940153 1943019 1947568 1953534 1960597 1967807 1973739 
3074.242 1976498 1974410 1966685 1954005 1938385 1922928 1910746 1904147 
3078.100 1903669 1908303 1915876 1923919 1930576 1935062 1937716 1939573 
3081.957 1941637 1944211 1946878 1948281 1946968 1941674 1932085 1918646 
3085.814 1902695 1885797 1869736 1855715 1844658 1836876 1832473 1831151 
3089.672 1832651 1836549 1842265 1849094 1856278 1862852 1868005 1871018 
3093.529 1871570 1869491 1865240 1859355 1852729 1846175 1840493 1836182 
3097.387 1833617 1832820 1833699 1835962 1839360 1843571 1848388 1853435 
3101.244 1858338 1862680 1865878 1867387 1866802 1864006 1859394 1853791 
3105.102 1848738 1845761 1846506 1851822 1861670 1874955 1889500 1902619 
3108.959 1911658 1914640 1910757 1900319 1884820 1866391 1847385 1829974 
3112.816 1815843 1805984 1800848 1800175 1803131 1808399 1814475 1819904 
3116.674 1823640 1825429 1825931 1826486 1828748 1834069 1843048 1855101 
3120.531 1868889 1882430 1893921 1902028 1906183 1906477 1903413 1897546 
3124.389 1889273 1878804 1866527 1853051 1839466 1827149 1817476 1811623 
3128.246 1810043 1812370 1817651 1824331 1830846 1835690 1837897 1836981 
3132.104 1833236 1827522 1821238 1815952 1812960 1812828 1815075 1818292 
3135.961 1820361 1819156 1813622 1803893 1791803 1780132 1771829 1769045 
3139.818 1772373 1780625 1791420 1801862 1809701 1813829 1814487 1812866 
3143.676 1810506 1808577 1807587 1807231 1806991 1806327 1805210 1803997 
3147.533 1803439 1804127 1806454 1810283 1815117 1820260 1825045 1828921 
3151.391 1831614 1832963 1832905 1831544 1829219 1826407 1823901 1822453 
3155.248 1822668 1824801 1828778 1834039 1840097 1846454 1853078 1860107 
3159.105 1867701 1875871 1884033 1891168 1895980 1897268 1894477 1887776 
3162.963 1878226 1867250 1856303 1846437 1838026 1830877 1824629 1819081 
3166.820 1814531 1811682 1811468 1814531 1820998 1830107 1840485 1850537 
3170.678 1858964 1864934 1868455 1869954 1869940 1868775 1866447 1862691 
3174.535 1857473 1851028 1844442 1839049 1836299 1837058 1841348 1848136 
3178.393 1855717 1862105 1865825 1866151 1863155 1857456 1849982 1841277 
3182.250 1831791 1821639 1811294 1801330 1792828 1786911 1784594 1786180 
3186.107 1791412 1799469 1809370 1820343 1832050 1844520 1857884 1872003 
3189.965 1886256 1899453 1910202 1917041 1919003 1915657 1907056 1893764 
3193.822 1876673 1856952 1836229 1816447 1800041 1789316 1786121 1791230 
3197.680 1804089 1822773 1844460 1865985 1884704 1898832 1907589 1911263 
3201.537 1910540 1906547 1900251 1892706 1884803 1877179 1870337 1864334 
3205.395 1858932 1853625 1848015 1842037 1836338 1831822 1829706 1830736 
3209.252 1834867 1841167 1848179 1854343 1858643 1860906 1861951 1862845 
3213.109 1864797 1868271 1873214 1878881 1884453 1889196 1892773 1895066 
3216.967 1895998 1895397 1893065 1888928 1883309 1877116 1871807 1868714 
3220.824 1868918 1872605 1879289 1887913 1897601 1907758 1918394 1929717 
3224.682 1941705 1953535 1963808 1970649 1972613 1969113 1960948 1949984 
3228.539 1938550 1928557 1921132 1916385 1913709 1912465 1912425 1913600 
3232.396 1916339 1920425 1925023 1928623 1929563 1926808 1920619 1912504 
3236.254 1904920 1900280 1900062 1904227 1911297 1918815 1924660 1927428 
3240.111 1927072 1924529 1921310 1918744 1917417 1917332 1917922 1918426 
3243.969 1918373 1917405 1915554 1912939 1909800 1906606 1903956 1902669 
3247.826 1903616 1907139 1913041 1920265 1927252 1932352 1934484 1933406 
3251.684 1929925 1925437 1921419 1918699 1917300 1916426 1914885 1911681 
3255.541 1906553 1899849 1892672 1886270 1881694 1879555 1879986 1882638 
3259.398 1886889 1891853 1896611 1900045 1901191 1899303 1894228 1886466 
3263.256 1877257 1868089 1860486 1855358 1852794 1851971 1851631 1850456 
3267.113 1847692 1843204 1837772 1832548 1828846 1827646 1829397 1833914 
3270.971 1840563 1848422 1856591 1864312 1871201 1876983 1881688 1885242 
3274.828 1887696 1888931 1888901 1887771 1885859 1883859 1882519 1882323 
3278.686 1883227 1884395 1884452 1881844 1875535 1865633 1853724 1842441 
3282.543 1834890 1833419 1838988 1850412 1865149 1879846 1891748 1899362 
3286.400 1902885 1903716 1903664 1903965 1904896 1905683 1905090 1902298 
3290.258 1897352 1891178 1885444 1881588 1880316 1881309 1883520 1885454 
3294.115 1885973 1884513 1881304 1876845 1871897 1866981 1862528 1858783 
3297.973 1856155 1854943 1855479 1857622 1860641 1863405 1864685 1863617 
3301.830 1860288 1855782 1852018 1850980 1854189 1862067 1873819 1887662 
3305.688 1901410 1912977 1921017 1924839 1924631 1921046 1915083 1907907 
3309.545 1900685 1894439 1889902 1887321 1886306 1885969 1885043 1882326 
3313.402 1877150 1869504 1860287 1850689 1842269 1836139 1833034 1833067 
3317.260 1835871 1840859 1847284 1854257 1861010 1866617 1870354 1871774 
3321.117 1870919 1868449 1865542 1863616 1864020 1867481 1874111 1883109 
3324.975 1893149 1902677 1910245 1914776 1915679 1912852 1906660 1897740 
3328.832 1886997 1875436 1864242 1854475 1847266 1843319 1843083 1846413 
3332.689 1852764 1860807 1869120 1876026 1880450 1881841 1880826 1878993 
3336.547 1878671 1882145 1891223 1906208 1925930 1947655 1967965 1983494 
3340.404 1991892 1992315 1985543 1973617 1959007 1944045 1930148 1917909 
3344.262 1907149 1897263 1887880 1878899 1870657 1863817 1859020 1856704 
3348.119 1857084 1859958 1864890 1871308 1878570 1885880 1892585 1897942 
3351.977 1901456 1902652 1901474 1898190 1893465 1888220 1883436 1880182 
3355.834 1879179 1880711 1884834 1890964 1898426 1906500 1914530 1922112 
3359.691 1928874 1934498 1938567 1940323 1939089 1934321 1925997 1914927 
3363.549 1902691 1891402 1883203 1879555 1880852 1886182 1893401 1899842 
3367.406 1903178 1901675 1895243 1885056 1873498 1863363 1857477 1857754 
3371.264 1865158 1879240 1898602 1921029 1944099 1965481 1983392 1996755 
3375.121 2005202 2008867 2008224 2003679 1995618 1984219 1969846 1953020 
3378.979 1934762 1916411 1899803 1886505 1877743 1873925 1874590 1878308 
3382.836 1883344 1887711 1890058 1889680 1886859 1882595 1878319 1875336 
3386.693 1874239 1874950 1876524 1877678 1877172 1874345 1869562 1863890 
3390.551 1858934 1856137 1856492 1860079 1866422 1874555 1883737 1893367 
3394.408 1903183 1912739 1921399 1927839 1930791 1929139 1922878 1913286 
3398.266 1902973 1894836 1891466 1893879 1901109 1910509 1918714 1922617 
3402.123 1920514 1912484 1900225 1886160 1872686 1861574 1853704 1849247 
3405.980 1848229 1850628 1856479 1865477 1876809 1888912 1900058 1908645 
3409.838 1913916 1916362 1917411 1918759 1921515 1925577 1929503 1930853 
3413.695 1927230 1917177 1900888 1880185 1858092 1837921 1822663 1814118 
3417.553 1812965 1818666 1829976 1844856 1861177 1876562 1888958 1896755 
3421.410 1899387 1897290 1892067 1885959 1881159 1879357 1881368 1886965 
3425.268 1895264 1905222 1916000 1926965 1937843 1948137 1957156 1963901 
3429.125 1967504 1967331 1963670 1957462 1950147 1943130 1937320 1932777 
3432.982 1928842 1924619 1919565 1913806 1908358 1904798 1904754 1909104 
3436.840 1917710 1929204 1941302 1951442 1957291 1957357 1951385 1940169 
3440.697 1925498 1909715 1895246 1884090 1877781 1876912 1881404 1890299 
3444.555 1902272 1915856 1929722 1942935 1954983 1965832 1975737 1984857 
3448.412 1993181 2000338 2005587 2008114 2007271 2002905 1995583 1986602 
3452.270 1977700 1970453 1966011 1964442 1964844 1965547 1964742 1961108 
3456.127 1954432 1945736 1937166 1931217 1929978 1934530 1944655 1958814 
3459.984 1974790 1990331 2003727 2014083 2021594 2027026 2031518 2036151 
3463.842 2041774 2048865 2057819 2068733 2081757 2096789 2113609 2131588 
3467.699 2150064 2167906 2184111 2197791 2208373 2215645 2219909 2221641 
3471.557 2221588 2220496 2219123 2218182 2218408 2220573 2225437 2233761 
3475.414 2245887 2261558 2279913 2299410 2318142 2334296 2346756 2355335 
3479.271 2360883 2365110 2369959 2376976 2387043 2400077 2415261 2431425 
3483.129 2447535 2462877 2477204 2490351 2502269 2512608 2521023 2527292 
3486.986 2531576 2534664 2537799 2542311 2549363 2559474 2572563 2588069 
3490.844 2605428 2624347 2645039 2668083 2693951 2722754 2753774 2785457 
3494.701 2815751 2842378 2863694 2878726 2887577 2891400 2891834 2890792 
3498.559 2890044 2890572 2892661 2895589 2897985 2898159 2894787 2887405 
3502.416 2876804 2865030 2854993 2849649 2851248 2860372 2875843 2894669 
3506.273 2912780 2925925 2930638 2924857 2908364 2882723 2851072 2817204 
3510.131 2785313 2759009 2740958 2732356 2732909 2740962 2753852 2768656 
3513.988 2782611 2793654 2800738 2803578 2802468 2797916 2790503 2780738 
3517.846 2769049 2755980 2742197 2728304 2714849 2702019 2689686 2677623 
3521.703 2665463 2652945 2640127 2626998 2613522 2599283 2583783 2566511 
3525.561 2547311 2526779 2506173 2487155 2471222 2459135 2450633 2444351 
3529.418 2438471 2431437 2422464 2411886 2400984 2391363 2384356 2380330 
3533.275 2378788 2378518 2378284 2377371 2375745 2374082 2373276 2374075 
3537.133 2376648 2380305 2384035 2386431 2386161 2382127 2373613 2360154 
3540.990 2341713 2318671 2292173 2263884 2236261 2211731 2192511 2179850 
3544.848 2173845 2173318 2176462 2181203 2185945 2189914 2193132 2196090 
3548.705 2199191 2202579 2205825 2208189 2208871 2207476 2204147 2199361 
3552.563 2194000 2188411 2183012 2177743 2172509 2167571 2163637 2161624 
3556.420 2162586 2167074 2174874 2184973 2195947 2206434 2215729 2224058 
3560.277 2232485 2242123 2253632 2266426 2278650 2287512 2290134 2284620 
3564.135 2270800 2250519 2227203 2205083 2188005 2178582 2177654 2184169 
3567.992 2195867 2209871 2223280 2233934 2240427 2242266 2239652 2233316 
3571.850 2224362 2213964 2203349 2193644 2185665 2180040 2177066 2176760 
3575.707 2178807 2182682 2187579 2192297 2195634 2196339 2193701 2187286 
3579.564 2177718 2166128 2154222 2143673 2135818 2131196 2129714 2130603 
3583.422 2132743 2135028 2136604 2136843 2135408 2132022 2126442 2118524 
3587.279 2108268 2096081 2082928 2070171 2059591 2052818 2051033 2054551 
3591.137 2062868 2074263 2086759 2097981 2105936 2109429 2108071 2102378 
3594.994 2093281 2081983 2069537 2056727 2044094 2032173 2021661 2013369 
3598.852 2008289 2006854 2009286 2014859 2022283 2030109 2037102 2042744 
3602.709 2047238 2051430 2056302 2062493 2070103 2078586 2087169 2094858 
3606.566 2100999 2104999 2106431 2104483 2098234 2086820 2070048 2048766 
3610.424 2025264 2002910 1985472 1976115 1976609 1986983 2005447 2029304 
3614.281 2055706 2082180 2107063 2129236 2147884 2162347 2172089 2176948 
3618.139 2177748 2176191 2174669 2175348 2179603 2187057 2195718 2202617 
3621.996 2204712 2200088 2188805 2172725 2155132 2139618 2129202 2125321 
3625.854 2127966 2135702 2146474 2158065 2168795 2177712 2184743 2190556 
3629.711 2196493 2204054 2214667 2229188 2247668 2269219 2292354 2315169 
3633.568 2336148 2354324 2369794 2383227 2395735 2408284 2421277 2434483 
3637.426 2447351 2459182 2469536 2478277 2485660 2491870 2497113 2501304 
3641.283 2504357 2506110 2506908 2507338 2508258 2510357 2514050 2519094 
3645.141 2524568 2529124 2531325 2530076 2524849 2515752 2503805 2490333 
3648.998 2476945 2465077 2455994 2450448 2448953 2451893 2459750 2472832 
3652.855 2491525 2515648 2544209 2575133 2605356 2631555 2650732 2661072 
3656.713 2662815 2657695 2648865 2639479 2632050 2627824 2626666 2627764 
3660.570 2630478 2634499 2640385 2648714 2659661 2672069 2683468 2690402 
3664.428 2689472 2678452 2657194 2627621 2593541 2559446 2529535 2506670 
3668.285 2492074 2485351 2484986 2488894 2494916 2501185 2506332 2509381 
3672.143 2509920 2507740 2502877 2495429 2485544 2473233 2458435 2441086 
3676.000 2421398 2399655 2376647 2353304 2330649 2309649 2291181 2275839 
3679.857 2264006 2255695 2250412 2247046 2243987 2239221 2230989 2218016 
3683.715 2200289 2179083 2156673 2135783 2118911 2107395 2101718 2100879 
3687.572 2103530 2108200 2113850 2119774 2125687 2131255 2135858 2138467 
3691.430 2138040 2133646 2124900 2111924 2095499 2076803 2057249 2038436 
3695.287 2022050 2009691 2002637 2001584 2006335 2015504 2027033 2038355 
3699.145 2047160 2052095 2052859 2050059 2044949 2038682 2032190 2025933 
3703.002 2020270 2015576 2012620 2012335 2015593 2022692 2033288 2046200 
3706.859 2059826 2072561 2083271 2091221 2096211 2098252 2097702 2094949 
3710.717 2090787 2086350 2083059 2082320 2084945 2090787 2098712 2106963 
3714.574 2113970 2118759 2121528 2123214 2125161 2127995 2131503 2134463 
3718.432 2135439 2133356 2128613 2122770 2118187 2116938 2119947 2126382 
3722.289 2134005 2140030 2142345 2140135 2134173 2126322 2118694 2112652 
3726.146 2108585 2105906 2103639 2100959 2097514 2093280 2088407 2082569 
3730.004 2075303 2066032 2054981 2043365 2033688 2029129 2032585 2045536 
3733.861 2067350 2095137 2124416 2150084 2167859 2175264 2172145 2160404 
3737.719 2143654 2125797 2110459 2099876 2094762 2093978 2095089 2094819 
3741.576 2090129 2078744 2060262 2036026 2009151 1983742 1963855 1952479 
3745.434 1950872 1958421 1973095 1992224 2013094 2033607 2052619 2069461 
3749.291 2084297 2097401 2109389 2120474 2130883 2140287 2148108 2153360 
3753.148 2155186 2152905 2146590 2137048 2125738 2114515 2105130 2098605 
3757.006 2095079 2093834 2093511 2092783 2090654 2086621 2080971 2074172 
3760.863 2066853 2059496 2052540 2046328 2041553 2039000 2039677 2044207 
3764.721 2052603 2063869 2076137 2087094 2094402 2096490 2093029 2085014 
3768.578 2074418 2063720 2055118 2050018 2048661 2050163 2052943 2055319 
3772.436 2055923 2054325 2050853 2046557 2042830 2040977 2041655 2044918 
3776.293 2050044 2055779 2060680 2063592 2063817 2061228 2056635 2051026 
3780.150 2045708 2041517 2038860 2037433 2036399 2034730 2031588 2026885 
3784.008 2021369 2016549 2014292 2016326 2023504 2035522 2051063 2067678 
3787.865 2082912 2094415 2100746 2101395 2096842 2088206 2076935 2064581 
3791.723 2052619 2042182 2034235 2029137 2026774 2026510 2027162 2027382 
3795.580 2026047 2022664 2017598 2012085 2007870 2006801 2010253 2018497 
3799.438 2031089 2046324 2062252 2076604 2087530 2093752 2094771 2090672 
3803.295 2082273 2070668 2057210 2043317 2030353 2019365 2011119 2005808 
3807.152 2003266 2002970 2004144 2005968 2007972 2009657 2011036 2012211 
3811.010 2013590 2015596 2018651 2023062 2029047 2036581 2045602 2055802 
3814.867 2067042 2078772 2090339 2100809 2108964 2113649 2114019 2109853 
3818.725 2101918 2091830 2081931 2074517 2071305 2072848 2078405 2086079 
3822.582 2093678 2099317 2101929 2101489 2098828 2094960 2090745 2086272 
3826.439 2081232 2075011 2067235 2058199 2048917 2040827 2035433 2033621 
3830.297 2035470 2040095 2046096 2051957 2056573 2059621 2061539 2063226 
3834.154 2065891 2070331 2076844 2085032 2094032 2102740 2110046 2115166 
3838.012 2117673 2117423 2114572 2109311 2101935 2092922 2082902 2072739 
3841.869 2063346 2055369 2049144 2044193 2039499 2033798 2026098 2016397 
3845.727 2005766 1996190 1990211 1989686 1995405 2006494 2020671 2034968 
3849.584 2046455 2053181 2054420 2050544 2042843 2032854 2022050 2011876 
3853.441 2003962 1999923 2001568 2010104 2025908 2047873 2073624 2099993 
3857.299 2123732 2142445 2154948 2161291 2162299 2158787 2151271 2139841 
3861.156 2124794 2106971 2088460 2072097 2061160 2057906 2062867 2074428 
3865.014 2089156 2102955 2112271 2115051 2111279 2102473 2091083 2079586 
3868.871 2069853 2062960 2059220 2058425 2060187 2063651 2067869 2071672 
3872.729 2073956 2073981 2071809 2068130 2064319 2061730 2061245 2062919 
3876.586 2066283 2070519 2075069 2079984 2085837 2093240 2102310 2112217 
3880.443 2121411 2128133 2131197 2130667 2127767 2124500 2122758 2123217 
3884.301 2125083 2126416 2124907 2119043 2108902 2096203 2083906 2074919 
3888.158 2071369 2073712 2080883 2090744 2100986 2109534 2115082 2116976 
3892.016 2115215 2110084 2102313 2093078 2084142 2077778 2076128 2080631 
3895.873 2091434 2107260 2125274 2141987 2154232 2160006 2158899 2152074 
3899.730 2141912 2130975 2121502 2114657 2110665 2108805 2108005 2107100 
3903.588 2105278 2102042 2097350 2091453 2084768 2077846 2071277 2065846 
3907.445 2062353 2061559 2064133 2070234 2079668 2091347 2103698 2114702 
3911.303 2122481 2125420 2122939 2115377 2103929 2090220 2075958 2062376 
3915.160 2050157 2039407 2030059 2021997 2015521 2011041 2009017 2009579 
3919.018 2012178 2015698 2018495 2019046 2016376 2010431 2002212 1993766 
3922.875 1987384 1985261 1988925 1998601 2013372 2031413 2050407 2068090 
3926.732 2082910 2094137 2101799 2106391 2108416 2108161 2105414 2099912 
3930.590 2091745 2081625 2071293 2062884 2058640 2059684 2065608 2074173 
3934.447 2081935 2085225 2081442 2069910 2052423 2032649 2015236 2004421 
3938.305 2003003 2011474 2028321 2050325 2073606 2094450 2110186 2119554 
3942.162 2122802 2121699 2118784 2116887 2118390 2124378 2134643 2147399 
3946.020 2160238 2170619 2177042 2179481 2179429 2179218 2181220 2186854 
3949.877 2196055 2207339 2218389 2226842 2231066 2230490 2225429 2216837 
3953.734 2205935 2193677 2181098 2169049 2158457 2150080 2144143 2140130 
3957.592 2136567 2131689 2123703 2112076 2097592 2082615 2070265 2063119 
3961.449 2062626 2068045 2076933 2085731 2091381 2091822 2087117 2078835 
3965.307 2069581 2062040 2058155 2058737 2063604 2071890 2082414 2093967 
3969.164 2105629 2116337 2125210 2131288 2133811 2132378 2126908 2117826 
3973.021 2106037 2092700 2079201 2066926 2057314 2051539 2050535 2054596 
3976.879 2063473 2076285 2091944 2109102 2126559 2143248 2158314 2170726 
3980.736 2179337 2182793 2179958 2170443 2154939 2135559 2115401 2098193 
3984.594 2087356 2085003 2091898 2106949 2127848 2151496 2174778 2194978 
3988.451 2210152 2219295 2222334 2219938 2213645 2205248 2196702 2189641 
3992.309 2185056 2183270 2184003 2186491 2190239 2194940 2200661 2207724 
3996.166 2216171 2225639 2235015 2242812 2247336 2247285 2241932 2231612 
4000.023 2217437 2201274 
##END=
