##TITLE=Tecor_PLA-Bicolour_White_Filament_r3_ATR-Corrected
##JCAMP-DX=5.01  $$ Nicolet v. 1
##DATATYPE=INFRARED SPECTRUM
##ORIGIN=Curtin University
##OWNER=Nicolet
##LONGDATE=2024/07/19
##TIME=11:16:06
##SPECTROMETER/DATA SYSTEM=Nicolet iS50
##DATA PROCESSING=
Ratio against background
%Transmittance->Absorbance
ATR Correction
Truncated
ElementMultiply or ElementDivide
##COMMENTS=
Number of sample scans: 32
Collection length: 47.28 sec
Sample gain: 1.0
Background collected on: Fri Jul 19 11:13:13 2024 (GMT+08:00);
Number of background scans: 32
Background gain: 1.0
Sample spacing:  1.000
Number of scan points: 16672
Resolution points: 8192
Number of FFT points: 65536
Apodization: N-B strong;
Phase correction: Mertz;
Laser frequency: 15798.3 cm-1
Number of rejected sample scans: 0
Number of rejected background scans: 0
Bench serial number: AUP1200105;
##RESOLUTION=4.000
##XUNITS=1/CM
##YUNITS=ABSORBANCE
##FIRSTX=400.163452
##LASTX=4000.187744
##FIRSTY=0.064803
##MAXX=4000.187744
##MINX=400.163452
##MAXY=1.230679
##MINY=-0.038185
##XFACTOR=1.000000
##YFACTOR=1.000000E-008
##NPOINTS=7468
##DELTAX=0.482125
##ZPD=8192
##XYDATA=(X++(Y..Y))
400.163 6480321 6389925 6335345 6316092 6324097 6347030 6370085 6378825 
404.020 6361631 6311449 6226527 6110048 5968572 5810413 5643683 5475342 
407.877 5310797 5154502 5010459 4882606 4774122 4686556 4618754 4566372 
411.734 4522537 4479470 4430567 4372255 4304783 4231777 4158536 4089968 
415.591 4028910 3975738 3928900 3886347 3846787 3810421 3778519 3752461 
419.448 3732427 3716712 3701777 3683171 3656786 3619962 3572072 3514467 
423.305 3449878 3381772 3313670 3248922 3190549 3141182 3102746 3076157 
427.162 3060870 3054905 3055123 3057967 3060313 3060158 3056944 3051375 
431.019 3044817 3038703 3033836 3030203 3027503 3024990 3022018 3018336 
434.876 3014219 3010386 3007783 3007460 3010227 3016512 3026157 3038345 
438.733 3051585 3063946 3073245 3077525 3075341 3066001 3049561 3026735 
442.590 2998555 2966177 2930712 2893280 2855108 2817748 2783159 2753623 
446.447 2731406 2718348 2715287 2721672 2735397 2753062 2770620 2784262 
450.304 2791380 2791237 2785115 2775808 2766557 2759757 2755934 2753491 
454.161 2749173 2739487 2722123 2697249 2667734 2638411 2614407 2599301 
458.017 2593674 2594793 2597507 2596009 2585886 2565621 2537090 2504775 
461.874 2474245 2450383 2435981 2430878 2433453 2440577 2449177 2457142 
465.731 2463656 2468917 2473492 2477637 2480891 2482121 2479888 2473014 
469.588 2461036 2444380 2424194 2401896 2378665 2355116 2331262 2306791 
473.445 2281511 2255805 2230775 2208143 2189633 2176388 2168310 2163902 
477.302 2160433 2154633 2143550 2125439 2100241 2069715 2036978 2005886 
481.159 1980167 1962798 1955527 1958739 1971420 1991382 2015547 2040455 
485.016 2062776 2079992 2090750 2095147 2094500 2090787 2086028 2081664 
488.873 2078186 2075301 2072299 2068605 2064132 2059419 2055273 2052399 
492.730 2050929 2050404 2049894 2048255 2045238 2041037 2036378 2032191 
496.587 2029166 2027508 2026945 2027019 2027383 2028056 2029312 2031346 
500.444 2033915 2036151 2036655 2034036 2027551 2017632 2006007 1995354 
504.301 1988505 1987600 1993366 2004927 2020058 2035916 2049800 2059895 
508.158 2065642 2067738 2067847 2068096 2070487 2076414 2086283 2099359 
512.015 2113873 2127415 2137493 2142197 2140681 2133358 2121689 2107636 
515.871 2092991 2078840 2065325 2051879 2037677 2022209 2005624 1988744 
519.728 1972704 1958477 1946465 1936368 1927395 1918743 1910002 1901393 
523.585 1893674 1887809 1884474 1883642 1884985 1887649 1890778 1893833 
527.442 1896657 1899350 1901960 1904227 1905477 1904830 1901517 1895267 
531.299 1886533 1876433 1866428 1857910 1851768 1848193 1846691 1846399 
535.156 1846411 1846138 1845454 1844708 1844445 1845169 1847042 1849773 
539.013 1852529 1854215 1853673 1850057 1843093 1833240 1821663 1809971 
542.870 1799886 1792835 1789635 1790346 1794345 1800552 1807749 1814826 
546.727 1820943 1825566 1828358 1829152 1827959 1825016 1820980 1816899 
550.584 1814118 1813971 1817354 1824309 1833863 1844089 1852617 1857310 
554.441 1856855 1851333 1842195 1831928 1823546 1819620 1821673 1829836 
558.298 1842938 1858907 1875324 1890045 1901542 1909095 1912722 1912985 
562.155 1910807 1907249 1903435 1900410 1898998 1899633 1902150 1905727 
566.012 1908970 1910292 1908381 1902850 1894517 1885475 1878650 1876999 
569.869 1882590 1895923 1915635 1938857 1961988 1981774 1996235 2005108 
573.725 2009803 2012754 2016546 2023109 2033194 2046336 2061222 2076289 
577.582 2090216 2102310 2112504 2121160 2128777 2135758 2142295 2148398 
581.439 2154022 2159195 2164062 2168895 2174013 2179676 2186006 2193009 
585.296 2200529 2208368 2216320 2224326 2232516 2241263 2251091 2262519 
589.153 2275841 2290899 2307022 2323107 2337978 2350782 2361382 2370515 
593.010 2379590 2390151 2403253 2418946 2436099 2452722 2466620 2476204 
596.867 2481041 2482047 2481116 2480454 2481774 2485837 2492342 2500288 
600.724 2508446 2516010 2522768 2529075 2535564 2542780 2550995 2560212 
604.581 2570420 2581775 2594745 2609973 2627947 2648684 2671532 2695241 
608.438 2718312 2739485 2758151 2774547 2789623 2804759 2821283 2840146 
612.295 2861753 2885928 2912097 2939481 2967198 2994418 3020426 3044732 
616.152 3067186 3088089 3108165 3128498 3150200 3174119 3200570 3229221 
620.009 3259236 3289583 3319393 3348302 3376464 3404473 3433042 3462611 
623.866 3493153 3524096 3554525 3583458 3610181 3634414 3656338 3676476 
627.723 3695420 3713680 3731560 3749195 3766678 3784214 3802184 3821082 
631.579 3841342 3863090 3885973 3909168 3931530 3951979 3969867 3985276 
635.436 3999097 4012795 4027964 4045819 4066792 4090379 4115311 4139934 
639.293 4162719 4182654 4199435 4213429 4225481 4236610 4247829 4259989 
643.150 4273772 4289658 4307905 4328431 4350785 4374169 4397610 4420281 
647.007 4441811 4462547 4483423 4505756 4530633 4558507 4588785 4619961 
650.864 4649886 4676401 4697913 4713814 4724581 4731617 4736872 4742395 
654.721 4749954 4760837 4775666 4794475 4816668 4841198 4866704 4891786 
658.578 4915282 4936515 4955414 4972511 4988670 5004796 5021539 5039111 
662.435 5057285 5075579 5093467 5110573 5126748 5142065 5156709 5170873 
666.292 5184696 5198319 5211802 5225174 5238360 5251159 5263272 5274380 
670.149 5284336 5293400 5302226 5311815 5323198 5337056 5353357 5371316 
674.006 5389557 5406611 5421484 5434026 5445087 5456262 5469301 5485534 
677.863 5505376 5528205 5552553 5576669 5598940 5618447 5635101 5649505 
681.720 5662649 5675481 5688603 5702125 5715765 5729041 5741589 5753385 
685.577 5764816 5776579 5789418 5803854 5819911 5837132 5854665 5871637 
689.433 5887498 5902268 5916573 5931385 5947586 5965528 5984778 6004185 
693.290 6022174 6037416 6049258 6058050 6065020 6071854 6080077 6090541 
697.147 6103128 6116833 6130170 6141655 6150309 6155870 6158770 6159956 
701.004 6160531 6161506 6163561 6166974 6171610 6176936 6182052 6185832 
704.861 6187087 6184821 6178474 6168074 6154245 6138005 6120427 6102264 
708.718 6083622 6063967 6042194 6017025 5987366 5952599 5912653 5867902 
712.575 5818883 5765996 5709309 5648514 5583073 5512519 5436682 5355937 
716.432 5271144 5183521 5094238 5004149 4913460 4821702 4727982 4631381 
720.289 4531469 4428706 4324584 4221467 4122068 4028878 3943588 3866855 
724.146 3798341 3737175 3682396 3633514 3590704 3554830 3527162 3509046 
728.003 3501625 3505810 3522263 3551564 3594317 3651102 3722356 3808173 
731.860 3908149 4021405 4146643 4282368 4427020 4579017 4736701 4898229 
735.717 5061441 5223935 5383229 5537085 5683841 5822593 5953274 6076488 
739.574 6193246 6304671 6411771 6515341 6615943 6713920 6809426 6902388 
743.431 6992574 7079617 7163188 7243263 7320300 7395448 7470499 7547573 
747.287 7628695 7715282 7807686 7905055 8005458 8106288 8204873 8299006 
751.144 8387224 8468932 8544102 8612857 8675022 8729824 8775818 8811103 
755.001 8833626 8841565 8833604 8809055 8767775 8710016 8636278 8547219 
758.858 8443642 8326600 8197390 8057639 7909146 7753812 7593421 7429625 
762.715 7263834 7097289 6931139 6766439 6604200 6445361 6290731 6140972 
766.572 5996625 5858112 5725715 5599554 5479442 5364858 5254923 5148452 
770.429 5044194 4941152 4838732 4736884 4636174 4537455 4441613 4349374 
774.286 4261033 4176526 4095417 4017023 3940568 3865256 3790317 3715096 
778.143 3639091 3562041 3483904 3404881 3325348 3245747 3166592 3088412 
782.000 3011828 2937571 2866452 2799195 2736210 2677320 2621628 2567596 
785.857 2513328 2457054 2397600 2334655 2268859 2201550 2134389 2069010 
789.714 2006708 1948428 1894793 1846193 1802801 1764529 1730943 1701212 
793.571 1674215 1648820 1624126 1599776 1575922 1553136 1532018 1512987 
797.428 1496012 1480716 1466534 1453016 1439968 1427469 1415710 1404843 
801.285 1394813 1385375 1376252 1367341 1358907 1351484 1345701 1342099 
805.141 1340899 1341918 1344689 1348615 1353065 1357522 1361489 1364471 
808.998 1365973 1365568 1363056 1358692 1353167 1347516 1342799 1339811 
812.855 1338819 1339543 1341331 1343507 1345615 1347609 1349740 1352350 
816.712 1355623 1359399 1363186 1366353 1368300 1368756 1367809 1365934 
820.569 1363824 1362299 1362144 1364038 1368406 1375345 1384454 1394841 
824.426 1405199 1414081 1420282 1423224 1423211 1421377 1419411 1419071 
828.283 1421682 1427858 1437414 1449628 1463535 1478350 1493583 1509137 
832.140 1525189 1542030 1559931 1579081 1599642 1621737 1645461 1670956 
835.997 1698418 1728220 1760977 1797586 1839092 1886522 1940521 2001090 
839.854 2067518 2138570 2212846 2289376 2367920 2449004 2533509 2622123 
843.711 2714593 2809426 2903984 2995029 3079512 3155345 3221709 3279037 
847.568 3328534 3371661 3409718 3443870 3475387 3506141 3538863 3577224 
851.425 3625419 3687661 3767508 3867530 3989149 4132795 4298191 4484530 
855.282 4690563 4914637 5154535 5407588 5670779 5941015 6215373 6491228 
859.139 6766137 7037716 7303397 7560387 7805856 8037250 8252688 8451134 
862.995 8632307 8796378 8943471 9073371 9185297 9278234 9351224 9403855 
866.852 9436367 9449696 9445099 9423856 9386887 9334712 9267472 9185193 
870.709 9087859 8975582 8848483 8706734 8550442 8379872 8195514 7998354 
874.566 7789825 7571772 7346139 7114739 6879042 6640248 6399458 6158022 
878.423 5917753 5681018 5450530 5229002 5018722 4821305 4637568 4467777 
882.280 4311919 4170087 4042673 3930376 3834046 3754332 3691442 3644938 
886.137 3613697 3596117 3590214 3593922 3605285 3622522 3644108 3668753 
889.994 3695353 3722952 3750635 3777514 3802648 3825077 3843865 3858272 
893.851 3867817 3872486 3872690 3869261 3863248 3855780 3847758 3839796 
897.708 3832049 3824271 3815943 3806389 3794988 3781380 3765623 3748297 
901.565 3730504 3713682 3699316 3688582 3682037 3679413 3679690 3681431 
905.422 3683212 3684111 3683987 3683502 3683737 3685757 3690044 3696206 
909.279 3702997 3708752 3711890 3711569 3708006 3702493 3697028 3693704 
913.136 3694125 3698939 3707728 3719167 3731437 3742757 3751699 3757508 
916.993 3760073 3759851 3757559 3753971 3749673 3744914 3739595 3733254 
920.849 3725222 3714810 3701476 3685041 3665730 3644153 3621149 3597595 
924.706 3574147 3551194 3528795 3506812 3485218 3464158 3444133 3425873 
928.563 3410212 3397798 3388908 3383297 3380236 3378694 3377578 3375994 
932.420 3373405 3369758 3365353 3360793 3356818 3354173 3353503 3355323 
936.277 3359976 3367620 3378219 3391525 3407123 3424453 3442888 3461834 
940.134 3480813 3499553 3518072 3536692 3556038 3576960 3600432 3627390 
943.991 3658493 3694006 3733692 3776903 3822750 3870429 3919538 3970332 
947.848 4023651 4080836 4143158 4211453 4285693 4364857 4447074 4529992 
951.705 4611228 4688748 4761034 4826932 4885405 4935255 4974889 5002368 
955.562 5015708 5013159 4993566 4956573 4902479 4832142 4746686 4647391 
959.419 4535617 4412983 4281499 4143760 4002829 3862158 3725222 3595239 
963.276 3474889 3366191 3270429 3188252 3119635 3064023 3020271 2986826 
967.133 2961809 2943305 2929599 2919477 2912272 2907948 2906849 2909482 
970.990 2916206 2927148 2942051 2960480 2981883 3005805 3031910 3059992 
974.847 3089846 3121204 3153634 3186671 3219830 3252907 3286070 3319928 
978.703 3355379 3393464 3434965 3480230 3528967 3580320 3633068 3685983 
982.560 3738112 3789005 3838821 3888100 3937599 3987988 4039738 4093017 
986.417 4147787 4203979 4261521 4320565 4381172 4443422 4507270 4572493 
990.274 4638805 4705972 4773963 4843041 4913734 4986679 5062448 5141335 
994.131 5223298 5307952 5394751 5483170 5572898 5663986 5756769 5851881 
997.988 5950019 6051775 6157604 6267682 6382017 6500544 6623155 6749930 
1001.845 6881109 7017123 7158553 7306099 7460434 7622232 7792062 7970427 
1005.702 8157742 8354308 8560327 8775890 9001080 9236033 9481172 9737310 
1009.559 10005765 10288303 10586920 10903480 11239328 11594967 11969943 
1012.934 12362926 12772174 13195884 13632645 14081708 14542861 15016259 
1016.309 15501969 15999578 16508007 17025578 17550142 18079594 18612040 
1019.683 19146042 19680638 20215022 20748226 21278860 21804992 22324410 
1023.058 22834982 23335294 23825044 24305430 24779024 25249534 25721300 
1026.433 26198780 26686230 27187550 27706278 28245712 28808996 29399114 
1029.809 30018708 30669824 31353614 32070134 32818252 33595748 34399464 
1033.184 35225588 36069704 36927064 37792392 38659720 39522312 40372392 
1036.559 41201268 41999564 42757668 43466628 44118800 44708584 45232676 
1039.934 45689908 46080556 46405716 46666348 46862908 46995252 47063076 
1043.310 47066404 47006188 46884648 46705388 46473180 46193880 45873944 
1046.685 45520248 45139724 44739036 44324268 43900736 43472844 43044456 
1050.060 42618992 42199896 41790820 41395368 41016808 40657452 40318200 
1053.435 39998388 39696108 39408952 39134884 38873136 38624724 38392648 
1056.811 38181540 37997216 37846176 37735336 37671740 37662756 37715888 
1060.186 37838788 38038836 38322888 38696612 39164332 39728756 40391076 
1063.561 41150984 42006852 42955560 43992496 45111280 46303824 47560684 
1066.936 48871808 50227504 51619704 53042640 54493320 55971092 57476700 
1070.312 59010756 60572408 62158012 63760948 65371764 66979576 68573640 
1073.687 70145176 71688464 73201272 74684056 76138320 77564544 78960464 
1077.062 80319824 81632256 82884064 84059576 85142664 86118120 86972472 
1080.437 87694752 88276352 88711648 88997824 89135096 89126336 88976816 
1083.813 88693232 88283056 87753888 87113160 86368128 85526552 84597072 
1087.188 83590056 82517352 81392344 80228776 79039816 77836760 76628376 
1090.563 75420608 74217144 73020104 71831120 70651728 69483664 68328344 
1093.938 67186520 66057556 64939980 63831532 62730484 61636168 60549468 
1097.313 59472520 58408076 57358444 56324852 55306976 54303264 53311556 
1100.689 52329928 51357256 50393696 49440520 48500024 47574948 46668364 
1104.064 45783248 44922452 44088620 43284200 42511380 41772264 41068788 
1107.439 40402912 39776452 39191028 38647984 38148252 37692272 37280224 
1110.814 36912172 36588232 36308672 36073728 35883192 35736108 35630456 
1114.190 35563152 35530468 35528640 35554512 35606072 35682560 35784252 
1117.565 35912012 36066692 36248692 36457884 36693612 36954892 37240584 
1120.940 37549440 37879796 38229476 38595240 38972696 39355980 39737856 
1124.315 40109756 40462104 40784688 41067288 41300412 41476072 41588420 
1127.691 41634140 41612292 41523892 41371120 41156668 40882992 40552192 
1131.066 40165888 39725468 39232220 38687400 38092276 37448192 36756556 
1134.441 36019212 35238496 34417360 33559464 32668680 31748950 30804002 
1137.816 29837266 28852248 27852898 26844028 25831420 24821852 23822496 
1141.192 22840432 21881970 20952224 20055136 19193404 18368914 17583076 
1144.567 16837094 16132244 15469757 14850827 14276351 13746798 13261998 
1147.942 12821105 12422654 12064683 11744852 11460676 11209682 10989425 
1151.317 10797593 10632014 10490728 10372014 10274541 10197464 10140358 
1154.693 10103337 10086731 10090955 10116250 10162563 10229515 10316487 
1158.068 10422902 10548440 10693283 10858253 11044843 11255129 11491605 
1161.443 11757122 12054703 12387576 12759140 13173072 13633354 14144403 
1164.818 14711046 15338615 16032867 16800002 17646544 18579402 19605692 
1168.194 20732806 21968198 23319286 24793002 26395470 28131366 30003432 
1171.569 32011872 34154116 36424368 38813600 41309448 43895836 46552552 
1174.944 49254640 51971744 54667808 57301300 59826452 62195240 64360352 
1178.319 66277944 67910816 69230304 70218048 70866856 71181056 71176264 
1181.695 70878056 70319888 69539920 68577584 67470536 66252588 64952956 
1185.070 63596516 62204832 60796888 59389688 57998312 56635428 55310912 
1188.445 54031704 52802068 51624268 50499304 49427576 48409340 47444712 
1191.820 46533536 45675164 44868352 44111400 43402456 42739852 42122280 
1195.196 41548904 41019100 40532100 40086608 39680448 39310648 38973524 
1198.571 38665248 38382272 38121800 37881988 37661896 37461124 37279332 
1201.946 37115732 36968724 36835788 36713660 36598628 36487048 36375628 
1205.321 36261524 36142368 36016096 35880776 35734496 35575340 35401484 
1208.697 35211316 35003476 34776820 34530388 34263332 33974888 33664508 
1212.072 33331876 32977102 32600704 32203588 31786994 31352376 30901548 
1215.447 30436606 29960072 29474786 28983808 28490036 27996030 27503660 
1218.822 27014222 26528528 26047182 25570866 25100454 24636886 24181030 
1222.198 23733426 23294122 22862858 22439126 22022588 21613338 21211896 
1225.573 20819232 20436422 20064416 19703768 19354634 19016760 18689688 
1228.948 18372984 18066460 17770234 17484734 17210694 16948902 16700076 
1232.323 16464567 16242278 16032510 15833978 15645054 15464009 15289415 
1235.698 15120368 14956628 14798559 14646937 14502607 14366180 14237867 
1239.074 14117420 14004298 13897859 13797516 13702907 13613865 13530318 
1242.449 13452180 13379207 13311027 13247147 13187163 13130756 13077945 
1245.824 13028949 12984276 12944552 12910469 12882662 12861699 12847950 
1249.199 12841627 12842679 12850848 12865596 12886295 12912226 12942828 
1252.575 12977740 13016929 13060649 13109317 13163388 13223130 13288589 
1255.950 13359481 13435277 13515259 13598676 13684753 13772741 13861908 
1259.325 13951495 14040816 14129262 14216433 14302136 14386261 14468615 
1262.700 14548671 14625318 14696895 14761312 14816460 14860672 14893064 
1266.076 14913706 14923421 14923266 14914040 14895810 14867771 14828442 
1269.451 14776075 14709286 14627351 14530407 14419243 14294991 14158700 
1272.826 14011133 13852601 13683228 13502939 13311735 13109629 12896626 
1276.201 12672681 12437753 12191962 11935866 11670592 11397976 11120354 
1279.577 10840265 10560151 10282022 10007441 9737534 9473245 9215569 8965653 
1283.434 8724793 8494366 8275673 8069858 7877916 7700735 7539206 7394241 
1287.292 7266732 7157475 7067036 6995635 6943173 6909162 6892859 6893204 
1291.149 6908940 6938480 6980052 7031722 7091541 7157676 7228564 7302931 
1295.006 7379630 7457573 7535536 7612070 7685660 7754812 7818407 7875770 
1298.864 7926816 7971968 8011903 8047446 8079345 8108243 8134681 8159062 
1302.721 8181722 8202786 8222192 8239600 8254531 8266528 8275287 8280836 
1306.579 8283507 8283828 8282277 8279104 8274336 8267777 8259313 8249095 
1310.436 8237703 8226036 8215107 8205707 8198157 8192213 8187284 8182623 
1314.293 8177775 8172692 8167790 8163786 8161410 8161095 8162870 8166385 
1318.151 8171083 8176370 8181769 8186962 8191801 8196186 8200107 8203584 
1322.008 8206825 8210202 8214394 8220196 8228444 8239795 8254671 8273159 
1325.866 8295099 8320204 8348149 8378716 8411856 8447728 8486684 8529328 
1329.723 8576443 8628859 8687466 8752856 8825257 8904376 8989491 9079577 
1333.581 9173616 9270859 9370964 9474044 9580500 9690826 9805331 9924027 
1337.438 10046656 10172745 10301878 10433845 10568798 10707270 10850120 
1340.813 10998366 11153010 11314868 11484363 11661529 11845959 12036908 
1344.188 12233523 12435014 12640926 12851214 13066220 13286529 13512641 
1347.564 13744769 13982528 14224987 14470644 14717677 14964135 15208155 
1350.939 15448008 15682152 15909134 16127506 16335815 16532525 16716161 
1354.314 16885224 17038448 17174714 17293218 17393426 17475204 17538758 
1357.689 17584808 17614510 17629496 17631686 17623272 17606344 17582828 
1361.065 17554284 17521970 17486834 17449638 17410866 17370736 17328938 
1364.440 17284488 17235512 17179316 17112600 17031760 16933370 16814568 
1367.815 16673367 16508868 16321366 16112536 15885620 15645640 15399694 
1371.190 15156950 14928477 14726736 14564702 14454801 14407714 14431259 
1374.566 14529598 14702673 14946243 15252128 15608934 16002800 16418386 
1377.941 16839742 17251170 17638002 17987232 18287936 18531344 18710906 
1381.316 18822068 18862238 18830592 18728074 18557268 18322176 18027934 
1384.691 17680406 17285872 16850744 16381413 15884073 15364544 14828163 
1388.067 14279692 13723210 13162239 12599912 12039022 11482161 10931733 
1391.442 10389937 9858736 9340076 8835951 8348646 7880793 7435253 7014850 
1395.299 6621972 6258258 5924399 5620160 5344645 5096446 4873905 4675149 
1399.157 4498166 4340747 4200577 4075270 3962679 3860953 3768760 3685161 
1403.014 3609558 3541446 3480259 3425329 3375878 3331136 3290448 3253401 
1406.872 3219713 3189199 3161597 3136480 3113257 3091225 3069840 3048859 
1410.729 3028421 3009087 2991586 2976658 2964793 2956006 2949889 2945689 
1414.586 2942627 2940064 2937676 2935581 2934198 2934064 2935732 2939476 
1418.444 2945430 2953464 2963349 2974796 2987592 3001564 3016644 3032837 
1422.301 3050276 3069143 3089697 3112245 3137074 3164447 3194619 3227845 
1426.159 3264457 3304931 3349785 3399526 3454545 3514987 3580873 3652160 
1430.016 3729087 3812321 3903140 4003303 4114841 4239725 4379613 4535842 
1433.874 4709516 4901946 5114894 5350867 5613103 5905289 6231233 6594501 
1437.731 6998027 7444062 7933981 8468238 9046218 9666133 10324919 11018237 
1441.588 11740614 12485623 13246059 14014025 14781055 15538312 16276936 
1444.964 16988434 17665246 18301106 18891152 19431912 19921190 20357818 
1448.339 20741620 21073214 21353834 21585078 21768508 21905356 21996494 
1451.714 22042460 22043734 22000936 21914738 21785754 21614184 21399554 
1455.089 21140860 20837008 20487358 20092434 19654120 19175560 18660748 
1458.465 18114006 17539666 16941970 16325215 15693839 15052316 14405021 
1461.840 13755971 13108772 12466724 11833110 11211436 10605507 10019147 
1465.215 9455686 8917611 8406252 7921976 7464538 7033569 6628909 6250638 
1469.073 5898915 5573608 5274103 4999242 4747433 4516965 4306160 4113585 
1472.930 3937973 3778185 3633078 3501489 3382266 3274333 3176681 3088381 
1476.787 3008408 2935708 2869085 2807362 2749503 2694824 2643023 2594161 
1480.645 2548622 2506868 2469277 2436054 2407111 2382118 2360428 2341270 
1484.502 2323717 2306877 2290045 2272809 2255132 2237403 2220192 2204174 
1488.360 2189812 2177321 2166514 2157027 2148420 2140348 2132634 2125274 
1492.217 2118344 2111885 2105856 2100085 2094376 2088536 2082391 2075864 
1496.074 2068913 2061528 2053703 2045501 2037105 2028765 2020836 2013661 
1499.932 2007476 2002343 1998100 1994495 1991226 1988093 1985071 1982263 
1503.789 1979843 1977888 1976389 1975121 1973805 1972148 1970011 1967410 
1507.647 1964467 1961383 1958260 1955110 1951751 1947993 1943723 1938990 
1511.504 1934105 1929584 1926029 1923928 1923519 1924695 1926971 1929595 
1515.362 1931735 1932613 1931707 1928781 1923923 1917400 1909593 1900871 
1519.219 1891570 1882041 1872610 1863745 1855871 1849438 1844652 1841553 
1523.076 1839822 1838956 1838245 1837061 1834842 1831276 1826288 1820034 
1526.934 1812835 1805133 1797443 1790185 1783688 1778135 1773463 1769466 
1530.791 1765757 1761984 1757822 1753169 1748048 1742731 1737473 1732568 
1534.649 1728233 1724589 1721638 1719343 1717521 1715860 1713884 1711018 
1538.506 1706670 1700441 1692321 1682741 1672576 1662971 1654942 1649218 
1542.364 1645952 1644785 1644969 1645624 1645949 1645346 1643508 1640321 
1546.221 1635772 1629950 1622932 1614944 1606310 1597483 1588936 1581093 
1550.078 1574224 1568414 1563541 1559513 1556214 1553661 1551832 1550797 
1553.936 1550382 1550420 1550633 1550818 1550887 1550920 1551052 1551384 
1557.793 1551838 1552128 1551795 1550435 1547832 1544106 1539669 1535128 
1561.651 1531051 1527897 1525795 1524672 1524305 1524420 1524768 1525147 
1565.508 1525400 1525392 1524986 1524123 1522823 1521214 1519541 1518009 
1569.365 1516769 1515815 1515046 1514271 1513421 1512597 1512129 1512540 
1573.223 1514384 1518126 1523941 1531674 1540806 1550494 1559810 1567806 
1577.080 1573814 1577488 1578912 1578480 1576794 1574501 1572094 1569767 
1580.938 1567437 1564860 1561787 1558198 1554354 1550862 1548377 1547453 
1584.795 1548289 1550694 1554180 1558109 1562078 1566028 1570244 1575248 
1588.653 1581500 1589124 1597869 1607046 1615846 1623497 1629490 1633764 
1592.510 1636588 1638445 1639914 1641568 1643785 1646928 1651188 1656696 
1596.367 1663416 1671240 1679948 1689275 1699010 1708984 1719130 1729363 
1600.225 1739512 1749287 1758269 1766020 1772248 1776965 1780556 1783719 
1604.082 1787227 1791762 1797621 1804712 1812604 1820759 1828754 1836499 
1607.940 1844270 1852642 1862236 1873474 1886479 1900930 1916220 1931583 
1611.797 1946375 1960174 1972884 1984673 1995899 2006875 2017853 2028833 
1615.655 2039627 2049901 2059271 2067400 2074154 2079532 2083792 2087231 
1619.512 2090219 2093053 2095943 2098897 2101846 2104669 2107244 2109621 
1623.369 2111944 2114495 2117624 2121509 2126145 2131156 2135964 2139809 
1627.227 2142065 2142411 2140988 2138385 2135391 2132779 2130939 2129787 
1631.084 2128774 2127063 2123931 2119001 2112464 2105014 2097588 2091163 
1634.942 2086279 2083078 2081146 2079873 2078598 2076876 2074554 2071794 
1638.799 2068905 2066298 2064272 2063033 2062604 2062885 2063592 2064417 
1642.656 2065022 2065164 2064822 2064262 2063925 2064407 2066156 2069249 
1646.514 2073325 2077623 2081198 2083348 2083744 2082700 2080968 2079533 
1650.371 2079240 2080574 2083559 2087841 2092886 2098290 2103831 2109551 
1654.229 2115557 2121916 2128522 2135137 2141452 2147363 2152932 2158476 
1658.086 2164555 2171681 2180329 2190864 2203403 2217947 2234268 2251958 
1661.944 2270299 2288444 2305403 2320452 2333228 2343975 2353474 2362861 
1665.801 2373206 2385218 2398979 2413991 2429367 2444251 2458117 2470981 
1669.658 2483360 2496041 2509745 2524949 2541667 2559569 2578145 2596804 
1673.516 2615064 2632505 2648860 2663996 2677893 2690792 2703076 2715405 
1677.373 2728399 2742568 2758128 2774970 2792634 2810706 2828843 2847030 
1681.231 2865583 2884993 2905675 2927849 2951341 2975795 3000718 3025866 
1685.088 3051245 3077224 3104297 3132888 3163180 3195009 3227983 3261710 
1688.946 3296002 3331055 3367434 3405984 3447577 3492875 3542009 3594734 
1692.803 3650360 3707904 3766446 3825307 3884253 3943628 4004250 4067371 
1696.660 4134396 4206525 4284581 4368921 4459350 4555255 4655768 4759984 
1700.518 4867184 4976994 5089448 5205017 5324465 5448796 5579219 5716905 
1704.375 5862913 6018047 6182682 6356777 6539888 6731409 6930804 7137883 
1708.233 7352878 7576343 7808974 8051319 8303492 8565244 8836044 9115425 
1712.090 9403400 9700489 10007609 10325830 10655630 10996787 11348010 
1715.465 11707266 12072218 12440852 12811828 13184714 13559771 13937688 
1718.841 14319211 14705165 15096456 15494484 15901218 16319415 16752252 
1722.216 17203110 17675138 18171298 18694370 19247452 19834268 20459462 
1725.591 21128610 21848120 22624806 23465772 24378128 25368932 26445076 
1728.966 27613244 28879824 30251130 31733746 33335322 35065184 36934616 
1732.342 38956216 41142484 43503340 46044044 48763748 51655920 54710316 
1735.717 57915892 61263172 64744924 68354416 72082112 75911744 79817744 
1739.092 83765088 87711840 91613208 95425672 99109088 102627000 105945336 
1742.467 109031496 111854960 114389024 116613088 118513800 120084312 
1745.360 121322504 122229256 122808360 123067912 123021984 122691224 
1748.253 122101256 121278872 120248208 119028304 117633176 116073712 
1751.146 114360992 112508176 110531000 108445800 106267656 104008320 
1754.040 101676248 99277768 96818992 94307640 91753912 89170128 86569920 
1757.415 83966896 81373984 78803024 76264784 73768984 71324544 68939296 
1760.790 66620040 64372456 62201416 60110800 58103788 56182452 54347672 
1764.165 52598752 50933616 49349024 47841032 46405640 45039064 43737764 
1767.541 42498372 41317200 40190272 39112980 38080580 37088288 36131732 
1770.916 35206940 34310536 33439360 32590422 31760716 30947026 30146060 
1774.291 29354354 28568462 27785260 27002052 26217056 25429574 24639950 
1777.666 23849380 23059512 22271788 21487124 20705990 19928620 19155672 
1781.042 18388740 17630614 16885104 16156422 15448521 14764260 14105238 
1784.417 13471784 12863547 12280034 11721195 11187650 10680531 10201091 
1787.792 9750087 9327488 8932256 8562595 8216486 7892094 7588291 7304614 
1791.649 7041101 6797720 6574041 6368839 6180143 6005511 5842395 5688649 
1795.507 5542728 5403753 5271483 5145990 5027640 4916909 4814275 4720150 
1799.364 4634681 4557568 4487914 4424207 4364522 4306938 4249947 4192741 
1803.222 4135384 4078644 4023576 3971217 3922136 3876429 3833685 3793159 
1807.079 3753984 3715234 3675931 3635077 3591782 3545516 3496325 3444933 
1810.937 3392827 3341750 3293296 3248382 3206887 3167831 3129894 3091929 
1814.794 3053738 3016240 2981357 2951401 2928299 2913000 2905193 2903377 
1818.651 2905466 2909281 2912967 2915060 2914342 2909536 2899243 2882115 
1822.509 2857206 2824442 2784878 2740790 2695246 2651393 2611873 2578164 
1826.366 2550269 2526838 2505588 2483807 2459085 2429777 2395406 2356715 
1830.224 2315402 2273514 2232993 2194955 2159584 2125989 2092832 2058812 
1834.081 2023287 1986656 1950278 1916228 1886646 1863183 1846634 1836596 
1837.938 1831894 1830511 1830130 1828465 1823437 1813666 1798514 1778360 
1841.796 1754426 1728566 1702663 1678265 1656031 1635688 1616425 1597131 
1845.653 1577345 1557055 1536971 1517812 1499894 1482675 1464834 1444842 
1849.511 1421601 1395198 1366982 1339316 1314769 1295199 1281155 1271683 
1853.368 1264965 1258843 1251788 1243319 1233973 1225134 1218210 1214354 
1857.226 1214095 1217259 1223113 1230540 1238340 1245281 1250567 1253777 
1861.083 1255179 1255530 1255811 1256800 1258474 1259834 1259175 1254614 
1864.940 1245017 1230678 1213568 1196834 1183799 1176628 1175531 1178498 
1868.798 1182037 1182273 1176393 1163577 1145060 1123665 1102736 1085184 
1872.655 1072826 1066260 1065346 1069426 1077751 1089385 1103144 1117309 
1876.513 1129743 1138124 1140770 1136879 1127023 1112815 1096457 1079822 
1880.370 1064147 1049502 1035156 1020154 1003910 986796 970024 955728 946196 
1884.710 943298 947925 959494 976099 994759 1012084 1025013 1031584 1031316 
1889.049 1025482 1016546 1007593 1001421 999837 1003086 1009948 1018026 
1892.907 1024489 1026662 1022495 1010758 991233 964420 931726 895224 857831 
1897.246 823127 794896 776538 770087 775535 790429 809993 828140 838881 
1901.586 838024 824226 799818 770020 741542 720568 710911 713045 724115 
1905.926 739340 754378 767028 778697 793923 818672 857601 911737 976857 
1910.265 1044298 1102813 1142206 1155840 1142789 1107612 1058398 1004239 
1914.123 952065 905669 865398 829544 796052 764030 734273 708625 689079 
1918.462 676281 669458 666350 664248 660996 655344 647104 636801 624780 
1922.802 611331 596285 579957 563200 547819 536284 531121 533720 544210 
1927.141 560672 579853 597657 610106 614064 607996 591892 567604 538256 
1931.481 507597 479174 455368 436804 422336 409504 395883 380325 364209 
1935.821 351308 347182 357282 385455 431963 493504 563347 633456 695539 
1940.160 743138 771902 780149 767864 736788 689308 628703 559179 485648 
1944.500 413764 349113 297358 263134 249932 259188 289864 337994 396799 
1948.839 457329 510043 546963 563060 558391 536828 505235 470569 437850 
1953.179 408295 379775 347721 308254 259473 203208 144382 90492 48748 25486 
1958.001 23785 42863 78052 120780 160045 185123 188450 168908 133324 96045 
1962.823 75302 87705 142149 236115 354891 476175 575854 636054 649360 619597 
1967.644 558267 479309 393053 305506 218203 133116 54938 -7398 -43459 -45618 
1972.466 -13631 45083 116902 188698 252749 309806 368131 437493 523393 
1976.806 623399 726068 817306 885907 929050 952620 967060 981555 1000887 
1981.145 1024290 1048801 1071422 1092496 1113945 1137467 1160474 1174679 
1985.003 1166991 1124290 1038903 913201 760314 601272 458230 348713 281146 
1989.342 255098 263862 298018 348573 406904 463617 507606 526147 508356 
1993.682 450174 358631 252080 157369 100950 100511 157676 257514 372557 
1998.021 472657 534616 549507 522917 470655 410041 353354 302653 251351 
2002.361 189117 108558 9439 -98700 -200212 -278378 -320568 -323346 -292896 
2006.701 -243447 -192041 -153284 -135446 -138209 -153600 -168458 -168611 
2010.558 -142924 -87428 -6424 87318 176870 244670 278639 275038 239679 
2014.898 184768 125037 71722 31464 5018 -10078 -17233 -18387 -15509 -11091 
2019.719 -11027 -24012 -58548 -118824 -200382 -288728 -363481 -404411 
2023.577 -401171 -358218 -295557 -242364 -226258 -262754 -348761 -463115 
2027.434 -575627 -657043 -690480 -675462 -627368 -567959 -517644 -486496 
2031.292 -473070 -466272 -452705 -422300 -372096 -305195 -228101 -145291 
2035.149 -58273 35267 137174 246141 355816 454808 530722 574141 581185 
2039.489 555581 507001 448475 393615 353824 336039 342911 371779 415898 
2043.828 463947 502977 519912 506567 462443 397328 330291 285501 285071 
2048.168 341505 452221 599421 755091 890748 985901 1033653 1040540 1021842 
2052.508 995341 974908 965789 964269 959617 939570 895927 828275 744187 
2056.847 656987 580541 525369 495348 488290 496671 511735 525442 533319 
2061.187 533932 528917 520690 512371 506428 504985 509649 521911 542034 
2065.526 569740 603166 639447 675442 707919 734537 753815 765452 770457 
2069.866 771121 771349 776228 791327 821024 866839 925541 989455 1047792 
2074.206 1090088 1109373 1105559 1085426 1061085 1045362 1047387 1068761 
2078.063 1103378 1139321 1163697 1167289 1147819 1110066 1063758 1019071 
2081.920 982948 956758 936540 915340 886725 847334 798736 746171 697177 
2086.260 659001 636870 633173 647662 677899 719912 768044 815476 854250 
2090.600 876524 875971 849812 799772 732493 657654 586075 526430 483384 
2094.939 456809 442932 436468 433588 433241 437488 450098 474483 511766 
2099.279 559921 614357 669621 720874 765721 804260 838354 870303 901250 
2103.618 930251 954489 970099 973867 964416 943287 914384 883602 856798 
2107.958 838744 831851 835997 848623 865675 882384 894464 898511 892788 
2112.298 877043 852906 823367 792228 763458 739982 722984 711648 703035 
2116.637 692984 677566 654053 621957 583380 541956 502240 468001 441814 
2120.977 424271 414644 411003 411025 411691 409467 399714 377470 337737 
2125.316 277435 196349 98257 -9878 -118993 -220953 -310733 -387797 -456289 
2129.656 -522727 -593797 -672883 -758395 -843999 -919919 -976216 -1005901 
2133.513 -1007422 -985442 -949937 -913421 -888354 -883059 -901507 -941689 
2137.371 -997790 -1061187 -1123323 -1176518 -1216549 -1241752 -1253149 
2140.746 -1253263 -1245146 -1230834 -1212085 -1189554 -1164706 -1140107 
2144.121 -1119337 -1106403 -1103926 -1111937 -1126729 -1141575 -1149062 
2147.497 -1143360 -1123390 -1093514 -1063707 -1046553 -1054866 -1098291 
2150.872 -1182818 -1309784 -1477305 -1681645 -1918280 -2181443 -2464444 
2154.247 -2757249 -3047408 -3318245 -3550826 -3724271 -3818522 -3816226 
2157.622 -3707133 -3490697 -3180639 -2802940 -2392512 -1985297 -1610041 
2160.998 -1285206 -1018126 -808379 -652976 -546661 -484236 -458899 -460606 
2164.855 -475861 -489814 -489059 -466152 -421962 -367326 -319605 -298181 
2168.712 -318150 -385949 -496366 -634696 -779305 -908077 -1002537 -1051822 
2172.570 -1053358 -1013278 -943272 -859400 -778189 -714323 -677176 -669538 
2176.427 -685752 -714341 -739541 -746843 -726713 -676922 -603043 -516081 
2180.285 -428417 -350568 -288436 -243369 -213389 -196500 -191331 -197836 
2184.142 -214502 -237490 -259190 -270736 -263956 -236182 -191206 -138750 
2188.000 -90052 -53960 -31971 -18249 -1472 30115 83020 155422 236384 310120 
2192.821 360765 377426 357203 304755 229735 142910 53383 -32825 -111718 
2197.161 -180402 -234518 -269551 -280833 -266342 -227890 -172563 -110633 
2201.018 -54495 -14871 1656 -5596 -31139 -64244 -92085 -102254 -86513 -43166 
2205.840 22307 98150 169794 224061 253537 259249 250229 241213 247747 281675 
2210.662 347123 440275 550559 664420 768651 853346 912331 943126 945288 
2215.001 920417 871725 805459 730618 659338 604017 574989 577436 610071 
2219.341 665223 731619 796948 851287 888180 904979 902046 881334 845947 
2223.681 800536 750790 704240 668456 649001 647775 661292 681422 698160 
2228.020 702557 690662 664395 631566 602548 587346 591883 617260 659673 
2232.360 712710 769624 824983 875267 918948 954956 982944 1002823 1015205 
2236.699 1021946 1025830 1029670 1035093 1041403 1045625 1043007 1028986 
2240.557 1001063 960087 910197 858086 810715 773923 750326 739812 739416 
2244.896 745039 752193 757746 759694 757794 752652 746021 739599 735080 
2249.236 733263 734524 738182 743487 749524 755797 762493 769991 778801 
2253.576 788880 799853 811276 823135 836688 854313 878843 912349 954738 
2257.915 1002832 1050796 1091243 1117814 1126959 1119283 1099287 1073833 
2261.773 1049927 1032554 1023494 1022037 1026044 1033813 1045067 1061068 
2265.630 1083142 1111395 1143156 1173200 1195052 1203513 1196808 1178009 
2269.488 1154292 1135416 1130118 1143746 1176405 1223217 1275897 1325331 
2273.345 1364064 1388066 1396896 1393378 1382038 1368079 1356295 1350793 
2277.202 1354774 1370470 1398951 1439801 1490771 1548142 1606859 1661877 
2281.060 1708868 1745259 1770441 1785582 1793006 1795373 1795251 1794636 
2284.917 1795091 1797860 1803577 1812474 1823868 1836017 1846226 1851334 
2288.775 1848379 1835571 1812793 1782037 1746783 1711580 1680923 1658665 
2292.632 1647274 1647682 1659279 1680025 1706507 1734515 1759206 1775953 
2296.490 1781027 1772415 1750427 1717715 1678997 1639907 1605933 1581277 
2300.347 1568105 1566359 1574262 1589073 1607869 1628389 1649255 1669933 
2304.204 1690506 1710984 1730938 1749512 1765034 1775787 1780165 1777611 
2308.062 1768650 1755451 1741143 1729494 1723906 1726665 1738266 1757394 
2311.919 1781328 1806713 1830351 1850108 1865104 1875813 1883643 1890359 
2315.777 1897633 1906818 1918598 1933209 1950545 1970467 1993151 2019472 
2319.634 2051136 2090466 2139589 2199405 2268013 2339845 2405554 2453360 
2323.491 2471476 2451096 2388680 2287415 2156549 2009745 1862152 1727505 
2327.349 1615396 1530219 1470765 1431988 1406880 1388896 1373351 1358114 
2331.206 1342943 1328716 1316433 1306809 1300040 1296275 1295423 1297477 
2335.064 1301945 1307928 1313733 1317604 1318010 1314437 1307497 1298883 
2338.921 1290588 1284181 1280293 1278397 1277302 1275774 1273177 1269667 
2342.779 1265967 1262966 1261048 1259860 1258585 1256138 1251927 1245984 
2346.636 1238834 1231241 1223677 1216228 1208587 1200582 1192503 1185406 
2350.493 1180765 1180061 1183969 1191984 1202315 1212288 1219212 1221071 
2354.351 1217098 1207778 1194571 1179315 1163748 1149194 1136343 1125391 
2358.208 1115944 1107341 1098504 1088298 1075805 1060598 1043127 1024608 
2362.066 1006780 991328 979175 970259 963476 957275 950360 942423 934269 
2366.405 927830 925146 927741 935704 947733 961203 973181 981044 983305 
2370.745 979723 971198 959513 946746 934920 925755 920373 919322 922454 
2375.084 928922 937482 946744 955638 963551 970449 976659 982386 987526 
2379.424 991492 993508 992992 990183 986193 982911 982345 986075 994510 
2383.764 1006888 1021603 1036923 1051438 1064755 1077136 1089363 1101981 
2387.621 1115004 1127795 1139464 1148978 1156006 1160676 1163857 1166608 
2391.479 1170008 1174788 1181206 1188934 1197236 1204963 1210759 1213435 
2395.336 1212227 1207186 1199373 1190642 1183274 1179060 1178815 1181785 
2399.193 1186139 1189280 1189198 1184867 1176858 1166818 1156904 1148871 
2403.051 1143684 1141498 1142105 1145580 1152674 1164276 1181043 1202296 
2406.908 1225578 1246784 1261107 1264485 1255101 1233978 1205064 1174023 
2410.766 1146653 1127394 1118428 1119177 1127117 1138601 1150066 1158901 
2414.623 1163791 1164800 1163172 1160611 1158933 1159358 1162262 1167127 
2418.480 1172546 1176759 1178436 1176863 1172492 1166537 1160612 1156057 
2422.338 1153479 1152605 1152656 1152739 1152627 1152702 1153833 1156768 
2426.195 1161623 1167455 1172712 1175678 1175415 1172264 1168004 1165135 
2430.053 1166188 1172551 1184130 1199274 1215503 1230094 1241103 1247508 
2433.910 1249200 1246721 1240805 1232071 1221178 1208764 1195627 1182691 
2437.768 1170683 1160002 1150478 1141515 1132459 1123000 1113407 1104775 
2441.625 1098520 1095932 1097760 1103922 1113630 1125757 1139355 1153869 
2445.482 1169144 1185256 1201900 1218192 1232894 1244313 1251231 1253160 
2449.340 1250730 1245573 1239854 1235596 1234254 1236337 1241463 1248778 
2453.197 1257067 1265474 1273433 1280597 1286818 1291723 1294761 1295163 
2457.055 1292360 1286120 1276786 1265373 1253445 1242684 1234534 1229770 
2460.912 1228288 1229098 1230625 1230966 1228466 1221838 1210626 1195001 
2464.770 1175805 1154352 1132176 1110921 1092212 1077529 1068045 1064586 
2468.627 1067463 1076463 1090790 1109152 1130063 1151566 1171773 1188911 
2472.484 1201287 1207802 1208046 1202487 1192690 1181034 1170426 1163598 
2476.342 1162563 1167966 1178914 1193138 1207644 1219432 1226074 1226429 
2480.199 1220442 1209010 1193575 1175734 1157091 1139093 1123335 1111440 
2484.057 1105028 1105342 1112827 1126922 1145994 1167583 1188885 1207499 
2487.914 1221704 1230655 1234271 1233017 1227799 1219850 1210931 1203228 
2491.771 1199237 1201306 1210733 1227283 1248730 1271211 1290191 1301668 
2495.629 1303543 1296036 1281738 1264490 1248251 1235901 1228579 1225969 
2499.486 1226725 1229500 1233248 1237408 1241595 1244928 1246174 1243839 
2503.344 1236982 1225952 1212712 1200560 1193053 1192813 1200531 1214619 
2507.201 1231973 1249177 1263792 1275269 1284633 1293790 1304155 1315577 
2511.059 1326196 1332995 1333184 1325434 1310697 1291978 1273499 1259298 
2514.916 1251819 1251536 1256869 1265063 1273294 1279529 1282687 1282957 
2518.773 1280966 1277571 1273381 1268632 1263358 1257474 1251097 1244617 
2522.631 1238836 1234786 1233720 1236696 1244250 1255919 1270126 1284254 
2526.488 1295315 1300662 1299097 1291362 1279928 1268399 1260231 1257436 
2530.346 1259914 1265515 1270897 1272879 1269701 1261649 1250828 1240283 
2534.203 1232698 1229494 1230348 1233470 1236619 1237755 1235984 1231467 
2538.061 1225187 1218497 1212520 1208122 1205842 1206258 1209900 1217383 
2541.918 1228948 1244199 1261921 1279984 1296138 1308189 1314819 1315879 
2545.775 1312304 1305962 1299038 1293469 1290776 1291516 1295707 1302532 
2549.633 1310942 1319782 1328182 1335713 1342708 1349886 1358471 1369380 
2553.490 1383113 1399295 1416676 1433441 1447572 1457412 1462081 1461558 
2557.348 1456537 1448131 1437515 1425592 1413106 1400713 1388985 1378792 
2561.205 1371036 1366517 1365640 1368252 1373642 1380634 1388110 1395211 
2565.063 1401653 1407761 1414190 1421509 1430038 1439492 1449122 1457800 
2568.920 1464499 1468431 1469371 1467480 1463415 1457742 1451066 1443853 
2572.777 1436481 1429402 1423261 1418855 1416960 1418228 1422806 1430343 
2576.635 1439933 1450365 1460413 1469202 1476523 1482773 1488897 1496070 
2580.492 1505284 1517032 1531092 1546442 1561635 1575005 1585134 1591239 
2584.350 1593281 1591798 1587769 1582078 1575403 1568049 1560240 1552368 
2588.207 1545293 1540320 1538972 1542268 1550159 1561100 1572220 1580079 
2592.064 1581610 1575475 1562553 1545924 1530111 1519556 1517311 1524252 
2595.922 1538781 1557635 1577022 1593836 1606354 1614494 1619257 1622213 
2599.779 1624585 1627115 1630004 1633157 1636425 1639947 1643855 1648247 
2603.637 1653034 1657831 1662315 1666197 1669475 1672422 1675405 1678616 
2607.494 1682022 1685464 1688766 1691983 1695525 1699911 1705502 1712262 
2611.352 1719579 1726442 1732016 1736010 1739117 1742771 1748810 1758485 
2615.209 1771992 1787962 1803896 1816754 1823979 1824157 1817591 1806026 
2619.066 1792085 1778591 1767791 1760983 1758485 1759664 1763455 1768668 
2622.924 1774271 1779647 1784513 1789142 1794048 1799794 1806762 1814900 
2626.781 1823696 1832292 1839742 1845460 1849472 1852361 1855233 1859054 
2630.639 1864551 1871636 1879761 1888013 1895657 1902382 1908453 1914473 
2634.496 1921010 1928127 1935344 1941730 1946269 1948455 1948412 1947133 
2638.354 1946030 1946484 1949357 1954757 1962117 1970308 1978226 1985106 
2642.211 1990528 1994508 1997179 1998542 1998443 1996418 1992083 1985186 
2646.068 1975933 1964839 1952807 1940859 1929944 1920792 1913851 1909246 
2649.926 1906853 1906254 1906868 1907876 1908348 1907301 1903921 1897654 
2653.783 1888364 1876478 1862722 1848085 1833625 1820063 1807929 1797330 
2657.641 1788149 1780040 1772669 1765575 1758173 1749759 1739463 1726416 
2661.498 1709956 1689931 1666796 1641698 1616283 1592153 1570534 1551944 
2665.355 1536125 1522181 1509299 1496835 1484869 1474108 1465582 1460179 
2669.213 1458231 1459273 1462180 1465490 1468031 1469238 1469270 1468979 
2673.070 1469334 1471115 1474557 1479193 1484136 1488319 1490814 1491127 
2676.928 1489303 1485689 1480961 1475835 1470941 1466774 1463639 1461663 
2680.785 1460748 1460534 1460508 1459952 1458208 1454662 1449044 1441417 
2684.643 1432220 1422247 1412550 1404273 1398463 1395975 1397000 1401325 
2688.500 1408022 1415678 1422606 1427282 1428567 1426088 1420395 1412543 
2692.357 1404119 1396732 1391645 1389700 1391059 1395293 1401498 1408592 
2696.215 1415272 1420490 1423503 1423984 1422293 1419089 1415343 1412001 
2700.072 1409619 1408268 1407523 1406633 1404872 1401852 1397643 1392825 
2703.930 1388197 1384500 1382126 1381058 1380850 1380906 1380743 1380046 
2707.787 1378948 1377677 1376597 1375952 1375933 1376605 1378040 1380258 
2711.645 1383330 1387149 1391361 1395365 1398361 1399546 1398411 1394810 
2715.502 1389112 1382166 1374872 1368040 1362317 1357931 1354855 1353045 
2719.359 1352483 1353234 1355434 1359029 1363785 1369236 1374698 1379514 
2723.217 1383263 1385754 1387214 1387980 1388454 1388800 1389092 1389228 
2727.074 1389089 1388768 1388492 1388573 1389312 1390693 1392448 1394085 
2730.932 1394982 1394807 1393597 1391754 1390012 1389020 1389009 1389849 
2734.789 1390883 1391192 1390190 1387500 1383571 1379190 1375451 1373178 
2738.646 1372842 1374360 1377118 1380363 1383325 1385535 1386854 1387429 
2742.504 1387489 1387365 1387140 1386859 1386523 1386049 1385464 1384815 
2746.361 1384193 1383764 1383684 1383973 1384631 1385500 1386268 1386604 
2750.219 1386100 1384481 1381883 1378658 1375523 1373236 1372388 1373237 
2754.076 1375462 1378344 1381087 1382918 1383668 1383531 1383108 1383137 
2757.934 1384211 1386514 1389725 1393196 1396131 1397699 1397221 1394234 
2761.791 1388516 1380028 1369159 1356536 1343382 1331059 1321084 1314636 
2765.648 1312318 1313881 1318327 1324099 1329652 1333621 1335569 1335514 
2769.506 1334345 1333111 1332889 1334402 1337912 1343168 1349421 1355788 
2773.363 1361404 1365535 1368041 1369041 1369149 1369061 1369504 1370737 
2777.221 1372669 1374806 1376442 1376988 1376137 1374056 1371370 1368803 
2781.078 1367027 1366556 1367417 1369594 1372862 1377101 1382135 1387731 
2784.936 1393497 1398854 1403037 1405400 1405633 1403896 1400700 1396970 
2788.793 1393511 1390938 1389664 1389792 1391528 1395080 1400851 1409104 
2792.650 1419748 1432090 1444916 1456642 1465852 1471748 1474337 1474422 
2796.508 1473298 1472257 1472145 1473196 1475102 1477290 1479422 1481320 
2800.365 1483256 1485588 1488643 1492442 1496797 1501219 1505455 1509260 
2804.223 1512718 1516064 1519505 1523070 1526703 1530166 1533254 1535986 
2808.080 1538511 1541027 1543893 1547345 1551552 1556505 1562253 1568719 
2811.938 1575708 1583020 1590278 1597133 1603310 1608743 1613744 1618708 
2815.795 1624289 1630742 1638077 1645821 1653342 1659975 1665418 1669813 
2819.652 1673716 1677924 1683042 1689281 1696328 1703586 1710297 1715920 
2823.510 1720340 1723736 1726622 1729289 1731910 1734257 1735930 1736464 
2827.367 1735563 1733122 1729398 1724721 1719558 1714356 1709618 1705820 
2831.225 1703524 1703281 1705598 1710608 1718010 1726975 1736288 1744422 
2835.082 1750026 1752077 1750173 1744675 1736563 1727248 1718245 1710927 
2838.939 1706220 1704421 1705321 1708244 1712361 1716861 1721249 1725303 
2842.797 1729168 1733158 1737628 1742749 1748617 1755195 1762350 1770062 
2846.654 1778446 1787629 1797734 1808695 1820226 1831752 1842602 1852230 
2850.512 1860242 1866560 1871287 1874702 1876938 1878033 1877918 1876555 
2854.369 1874146 1871284 1868949 1868285 1870262 1875354 1883215 1892829 
2858.227 1902706 1911328 1917769 1921825 1924315 1926507 1929931 1935505 
2862.084 1943642 1953835 1965188 1976758 1987967 1998987 2010455 2023453 
2865.941 2038908 2057382 2078879 2102994 2129182 2157056 2186570 2218104 
2869.799 2252290 2289635 2330453 2374701 2422044 2472012 2524203 2578307 
2873.656 2634232 2691826 2750789 2810355 2869568 2926995 2981275 3031211 
2877.514 3076005 3115442 3149789 3179490 3205037 3226516 3243567 3255297 
2881.371 3260497 3258102 3247455 3228738 3203000 3172134 3138315 3103711 
2885.229 3069919 3037847 3007508 2978507 2950140 2921917 2893632 2865530 
2889.086 2838169 2812195 2788197 2766641 2747638 2731187 2717023 2704775 
2892.943 2694258 2685276 2677828 2672162 2668571 2667280 2668166 2670727 
2896.801 2674074 2677137 2678994 2679391 2678817 2678477 2679954 2684512 
2900.658 2692773 2704229 2717408 2730309 2741200 2748958 2753525 2755909 
2904.516 2757528 2759874 2763924 2769884 2777382 2785482 2793232 2799733 
2908.373 2804464 2807175 2807986 2807337 2806097 2805418 2806790 2811555 
2912.230 2820891 2835361 2854902 2878876 2906281 2935964 2966859 2998040 
2916.088 3028633 3057720 3084416 3108006 3128109 3145149 3160203 3175056 
2919.945 3191770 3212174 3237451 3267916 3303038 3341769 3382862 3425175 
2923.803 3467883 3510590 3553075 3595588 3638399 3682105 3727349 3774769 
2927.660 3824752 3877261 3932049 3988611 4046740 4106837 4170204 4238872 
2931.518 4315385 4402145 4500787 4611910 4734915 4868358 5010457 5159625 
2935.375 5314783 5475621 5642418 5815707 5996089 6183905 6379127 6581270 
2939.232 6789137 7001100 7214854 7427729 7636516 7837719 8027768 8202937 
2943.090 8359548 8494112 8603441 8685036 8737336 8759991 8753993 8721603 
2946.947 8666003 8590963 8500184 8397067 8284528 8164730 8039139 7908807 
2950.805 7774204 7635735 7493767 7349010 7202778 7056873 6913547 6774959 
2954.662 6642901 6518095 6400290 6288500 6181398 6078071 5978243 5882452 
2958.520 5791799 5707248 5629426 5558109 5492583 5431806 5375040 5321849 
2962.377 5272243 5226392 5184263 5145549 5109756 5076352 5045236 5016701 
2966.234 4991351 4969676 4951633 4936427 4922741 4909083 4894450 4878536 
2970.092 4862100 4846292 4832433 4821362 4813252 4807746 4804416 4803242 
2973.949 4804788 4810282 4821304 4839185 4864793 4898270 4939246 4986880 
2977.807 5040343 5098944 5162110 5229560 5301273 5377587 5459222 5547399 
2981.664 5643576 5749170 5865234 5992326 6130339 6278940 6437783 6606863 
2985.521 6786521 6977258 7179063 7391259 7611939 7838393 8067377 8295620 
2989.379 8520346 8739343 8950759 9152739 9343228 9519771 9679977 9821615 
2993.236 9943107 10043607 10122849 10180864 10217825 10233695 10228578 
2996.612 10202752 10157073 10092688 10011172 9914040 9802519 9677617 9540249 
3000.469 9391680 9233878 9069436 8901393 8732571 8564933 8399203 8234692 
3004.326 8069947 7903214 7733144 7559424 7382700 7204444 7026420 6850285 
3008.184 6677124 6507470 6341208 6177856 6016808 5857591 5700037 5544363 
3012.041 5391251 5241646 5096692 4957431 4824553 4698334 4578557 4464694 
3015.899 4356070 4251971 4151792 4055061 3961308 3870024 3780628 3692798 
3019.756 3606325 3521558 3439101 3359853 3284549 3213708 3147242 3084624 
3023.614 3024969 2967279 2910826 2855137 2800151 2746276 2694044 2644283 
3027.471 2597849 2555509 2517792 2484685 2455555 2429295 2404403 2379486 
3031.328 2353790 2327354 2301007 2276170 2253978 2235074 2219040 2204516 
3035.186 2189774 2173290 2154268 2133013 2110610 2088622 2068278 2050241 
3039.043 2034328 2019699 2005395 1990833 1975858 1961064 1947321 1935651 
3042.901 1926598 1920396 1916536 1914270 1912393 1909820 1905494 1898711 
3046.758 1889191 1877140 1863212 1848492 1834097 1821071 1810183 1801711 
3050.615 1795828 1792433 1791466 1792979 1796974 1803184 1810935 1819047 
3054.473 1826116 1830756 1832010 1829712 1824508 1817659 1810676 1804727 
3058.330 1800595 1798352 1797803 1798559 1800220 1802724 1805835 1809307 
3062.188 1812585 1814825 1815100 1812731 1807439 1799644 1790128 1780044 
3066.045 1770472 1762205 1755635 1750762 1747391 1745111 1743490 1742064 
3069.903 1740349 1737932 1734556 1730272 1725430 1720947 1717700 1716495 
3073.760 1717703 1721088 1725827 1730793 1735008 1737841 1739280 1739966 
3077.617 1740590 1741854 1743853 1746110 1747542 1746895 1743074 1735570 
3081.475 1724879 1712209 1699424 1688528 1681126 1677902 1678444 1681149 
3085.332 1683782 1683942 1679804 1670695 1657420 1642123 1627610 1616677 
3089.190 1611263 1611877 1617538 1626217 1635313 1642670 1647085 1648514 
3093.047 1647879 1646642 1646152 1647176 1649872 1653825 1658133 1661943 
3096.905 1664675 1665890 1665505 1663457 1659838 1654733 1648357 1641022 
3100.762 1633104 1625121 1617438 1610387 1604198 1599027 1595009 1592280 
3104.619 1590935 1590838 1591814 1593290 1594745 1595639 1595918 1595915 
3108.477 1596351 1598120 1601777 1607437 1614454 1621808 1628278 1632944 
3112.334 1635587 1636675 1637075 1637632 1638815 1640406 1641359 1640412 
3116.192 1636465 1629099 1618867 1607138 1595919 1587154 1582224 1581695 
3120.049 1585150 1591431 1599053 1606490 1612610 1616806 1618804 1618824 
3123.906 1617198 1614358 1610584 1606128 1601198 1595912 1590435 1585050 
3127.764 1580179 1576385 1574342 1574679 1577754 1583600 1591494 1600409 
3131.621 1608897 1615519 1619297 1619882 1617757 1614055 1610131 1607215 
3135.479 1605981 1606375 1607558 1608278 1607242 1603344 1596152 1585750 
3139.336 1572872 1558718 1544625 1532012 1522280 1516472 1515168 1518412 
3143.194 1525563 1535235 1545711 1555084 1561794 1564879 1564350 1560878 
3147.051 1555865 1550946 1547628 1547000 1549485 1555093 1563080 1572399 
3150.908 1581785 1589939 1595697 1598340 1597590 1593797 1587878 1581111 
3154.766 1574924 1570533 1568700 1569617 1572872 1577609 1582782 1587395 
3158.623 1590750 1592528 1592930 1592453 1591679 1591095 1590808 1590521 
3162.481 1589523 1587221 1583244 1577939 1572400 1568216 1566949 1569511 
3166.338 1575661 1583861 1591639 1596489 1596690 1591898 1583526 1574132 
3170.196 1566510 1562859 1563905 1568915 1576169 1583713 1590250 1595533 
3174.053 1600329 1605776 1612746 1621241 1630164 1637792 1642333 1642668 
3177.910 1638804 1631881 1623838 1616719 1612391 1611751 1614917 1621176 
3181.768 1629358 1638183 1646466 1653408 1658654 1662418 1665179 1667557 
3185.625 1670064 1672795 1675410 1677138 1677157 1674973 1670596 1664764 
3189.483 1658663 1653630 1650671 1650257 1652283 1656064 1660938 1666275 
3193.340 1671677 1676867 1681512 1685258 1687624 1688339 1687554 1685836 
3197.198 1684278 1683857 1685312 1688537 1692762 1696612 1698907 1698830 
3201.055 1696466 1692652 1688665 1685741 1684727 1685937 1689092 1693741 
3204.912 1699370 1705475 1711473 1716688 1720270 1721271 1718991 1713298 
3208.770 1704849 1694977 1685468 1678100 1674088 1673995 1677639 1684321 
3212.627 1693290 1703706 1714988 1726468 1737424 1746874 1753781 1757173 
3216.485 1756531 1751991 1744460 1735362 1726489 1719341 1714858 1713203 
3220.342 1713697 1715012 1715626 1714262 1710271 1703782 1695919 1688313 
3224.199 1682706 1680417 1681933 1686706 1693427 1700389 1706163 1709904 
3228.057 1711750 1712482 1713171 1714608 1716976 1719735 1721954 1722612 
3231.914 1721167 1717846 1713505 1709488 1707194 1707557 1710892 1716909 
3235.772 1724719 1733302 1741648 1748945 1754603 1758232 1759613 1758419 
3239.629 1754507 1747768 1738408 1727002 1714637 1702736 1692975 1686670 
3243.487 1684713 1687008 1692524 1699555 1706185 1710803 1712789 1712433 
3247.344 1711043 1710110 1711050 1714387 1719763 1725817 1730750 1732773 
3251.201 1730685 1724093 1713551 1700334 1686416 1673870 1664725 1660357 
3255.059 1661432 1667397 1676705 1687009 1695766 1700899 1701282 1696945 
3258.916 1689077 1679382 1669565 1661002 1654471 1650398 1649143 1651050 
3262.774 1656412 1665058 1676082 1687623 1697265 1702705 1702617 1697217 
3266.631 1688410 1678932 1671555 1667923 1668049 1670662 1673912 1676351 
3270.489 1677870 1679511 1682983 1689517 1699103 1710064 1719603 1724950 
3274.346 1724414 1718144 1708073 1697132 1688297 1683349 1682696 1685361 
3278.203 1689577 1693442 1695560 1694973 1691274 1684154 1673666 1660227 
3282.061 1644938 1629624 1616639 1608196 1605736 1609339 1617600 1628308 
3285.918 1639008 1647928 1654516 1659287 1663453 1668085 1673654 1679843 
3289.776 1685813 1690582 1693467 1694399 1693743 1691872 1689039 1685213 
3293.633 1680093 1673571 1665831 1657526 1649683 1643186 1638621 1635943 
3297.490 1634679 1634112 1633676 1633152 1632816 1633143 1634687 1637691 
3301.348 1642146 1647620 1653637 1659835 1666211 1672888 1680287 1688609 
3305.205 1697819 1707299 1715895 1722177 1724668 1722247 1714556 1702304 
3309.063 1686999 1670848 1656169 1644695 1637400 1634099 1633615 1634386 
3312.920 1634890 1634184 1632157 1629540 1627677 1628114 1632162 1640712 
3316.778 1653789 1670784 1690289 1710503 1729290 1744823 1755797 1761731 
3320.635 1763123 1761118 1757285 1752939 1748904 1745201 1741319 1736556 
3324.492 1730354 1722667 1713852 1704578 1695402 1686670 1678282 1670048 
3328.350 1661845 1653786 1646371 1640239 1635957 1633727 1633372 1634468 
3332.207 1636480 1639017 1641845 1644786 1647717 1650413 1652619 1654334 
3336.065 1655881 1658032 1661705 1667572 1675711 1685465 1695501 1704433 
3339.922 1711229 1715665 1718231 1719666 1720295 1719782 1716802 1709999 
3343.780 1698510 1682983 1665681 1650103 1639769 1637023 1641980 1652322 
3347.637 1664126 1673051 1675929 1671703 1661583 1648609 1636205 1627301 
3351.494 1623279 1624007 1628059 1633573 1638651 1641910 1642472 1639954 
3355.352 1634220 1625505 1614427 1602244 1590745 1582223 1578852 1582261 
3359.209 1592986 1610242 1631997 1655327 1677157 1694861 1706893 1713066 
3363.067 1714530 1713456 1712315 1713203 1717307 1724401 1733066 1740933 
3366.924 1745721 1745610 1740089 1730062 1717705 1705810 1697176 1694052 
3370.781 1697458 1707317 1722300 1740387 1758921 1775145 1786577 1791348 
3374.639 1788593 1778548 1762592 1742921 1722012 1702154 1684805 1670589 
3378.496 1659450 1650878 1644580 1640568 1639318 1641580 1647581 1656960 
3382.354 1668303 1679526 1688077 1691822 1689465 1680994 1667666 1651794 
3386.211 1636111 1623218 1615041 1612422 1614933 1621293 1629334 1636993 
3390.069 1642688 1645637 1646292 1645821 1645817 1647676 1652059 1658718 
3393.926 1666425 1673635 1678855 1681256 1680960 1678877 1676531 1675311 
3397.783 1676267 1679590 1684647 1690194 1694627 1696440 1694652 1688862 
3401.641 1679538 1667919 1655695 1644790 1636973 1633350 1634232 1638992 
3405.498 1646411 1654689 1662228 1667794 1670759 1671395 1670387 1669013 
3409.356 1668403 1669542 1672932 1678426 1685202 1692083 1697753 1701139 
3413.213 1701963 1700750 1698873 1698152 1700132 1705546 1714030 1724063 
3417.071 1733412 1740050 1742690 1741538 1737749 1733156 1729274 1726651 
3420.928 1724670 1721737 1716268 1707357 1695552 1682828 1671914 1665438 
3424.785 1664777 1669682 1678216 1687465 1694684 1698092 1697516 1694182 
3428.643 1690158 1687488 1687323 1689756 1693741 1697716 1700128 1700067 
3432.500 1697338 1692446 1686241 1679769 1673607 1668272 1663983 1660786 
3436.358 1658878 1658293 1659113 1661212 1664394 1668521 1673376 1678981 
3440.215 1685475 1692975 1701423 1710542 1719711 1728236 1735425 1740978 
3444.073 1744962 1747689 1749596 1750950 1751657 1751313 1749548 1746198 
3447.930 1741692 1737047 1733475 1732133 1733462 1737151 1741986 1746486 
3451.787 1749218 1749555 1747855 1745147 1742925 1742474 1744396 1748658 
3455.645 1754543 1761357 1768776 1776938 1786541 1798292 1812425 1828291 
3459.502 1844291 1857987 1867092 1869859 1865800 1855923 1842756 1829436 
3463.360 1819226 1814589 1816735 1825377 1838903 1854910 1870818 1884569 
3467.217 1894893 1901556 1905253 1907171 1908763 1911426 1916256 1924046 
3471.074 1935228 1949734 1967124 1986445 2006344 2025237 2041664 2054748 
3474.932 2064417 2071626 2077937 2085338 2095345 2108720 2125184 2143631 
3478.789 2162388 2179808 2194486 2205648 2213021 2216839 2217556 2216130 
3482.647 2213826 2212317 2213396 2218634 2228818 2243668 2261749 2280809 
3486.504 2298504 2313226 2324563 2333369 2341486 2350849 2362799 2377594 
3490.362 2394452 2412174 2429585 2446344 2462956 2480587 2500519 2523554 
3494.219 2549459 2577107 2604602 2629765 2650789 2666434 2676389 2681181 
3498.076 2682235 2681566 2681428 2684052 2691008 2702865 2718871 2737186 
3501.934 2755201 2770245 2780271 2784295 2782337 2775282 2764383 2750726 
3505.791 2735186 2718567 2701803 2686113 2672951 2663690 2659123 2658945 
3509.649 2661948 2666374 2670468 2673168 2674387 2674766 2675003 2675252 
3513.506 2674399 2670382 2660771 2643563 2618307 2586378 2550880 2516032 
3517.364 2485945 2463626 2450471 2445701 2446984 2450886 2453568 2451699 
3521.221 2443050 2426893 2404191 2377431 2349993 2325410 2306501 2294630 
3525.078 2289277 2288523 2289678 2290121 2288312 2284057 2278342 2272863 
3528.936 2269270 2268583 2270840 2275376 2280900 2286056 2289468 2290018 
3532.793 2286660 2278678 2265812 2248581 2228414 2207601 2188878 2174630 
3536.651 2166251 2163576 2164904 2167649 2168955 2166753 2160221 2149870 
3540.508 2137209 2124142 2112225 2102520 2095346 2090574 2087824 2086692 
3544.365 2086869 2088021 2089734 2091388 2092256 2091504 2088500 2082779 
3548.223 2074209 2063147 2050188 2036236 2022497 2010198 2000375 1993768 
3552.080 1990606 1990685 1993317 1997761 2003269 2009244 2015268 2020793 
3555.938 2025209 2027787 2027824 2024993 2019679 2012917 2006130 2001062 
3559.795 1998920 2000135 2004349 2010561 2017481 2024079 2029543 2033442 
3563.653 2035464 2035261 2032473 2026800 2018457 2008400 1998269 1990111 
3567.510 1985723 1986255 1991625 2000794 2011966 2023154 2032823 2040051 
3571.367 2044607 2046729 2046909 2045686 2043863 2042219 2041547 2042590 
3575.225 2045614 2050308 2055735 2060527 2063507 2063966 2061985 2058346 
3579.082 2054021 2049551 2044768 2038648 2029823 2017150 2000362 1980362 
3582.940 1959109 1938923 1921812 1908810 1899832 1893799 1889171 1884410 
3586.797 1878421 1870915 1862011 1852372 1842767 1833882 1826306 1820402 
3590.655 1816265 1813885 1813129 1814107 1817349 1823699 1834087 1849105 
3594.512 1868178 1889393 1909204 1923427 1928148 1921301 1903291 1877291 
3598.369 1848503 1822522 1803970 1795212 1796092 1804587 1817853 1833550 
3602.227 1850340 1867933 1886293 1905085 1922794 1937149 1945535 1945965 
3606.084 1937915 1922363 1901619 1878404 1855283 1833962 1815408 1799972 
3609.942 1788055 1780151 1776928 1778932 1786202 1798146 1813461 1830635 
3613.799 1848166 1864953 1880206 1893513 1904460 1912609 1917534 1919185 
3617.656 1917863 1914466 1910280 1906687 1904805 1905167 1907764 1912318 
3621.514 1918353 1925558 1933565 1941965 1950002 1956644 1960686 1961214 
3625.371 1957996 1951664 1943908 1936879 1932854 1933573 1939842 1951371 
3629.229 1966861 1984682 2002766 2019674 2034627 2047598 2059488 2071651 
3633.086 2085611 2102442 2122245 2144069 2165915 2185277 2199834 2208324 
3636.944 2210853 2209154 2205963 2204178 2206389 2213969 2227104 2245050 
3640.801 2266333 2289190 2311860 2332457 2349179 2360602 2365939 2365566 
3644.658 2361331 2356434 2354502 2358749 2370638 2389339 2411886 2433695 
3648.516 2450516 2459557 2460693 2456289 2450558 2447946 2451721 2462970 
3652.373 2480477 2501274 2521674 2538341 2549183 2553457 2551775 2545675 
3656.231 2536828 2526798 2516568 2506521 2496497 2486126 2474952 2462914 
3660.088 2450307 2437945 2426996 2418743 2413999 2413084 2415595 2420325 
3663.946 2425796 2430269 2432278 2430687 2424693 2414047 2398676 2378961 
3667.803 2355741 2330113 2303557 2277554 2253423 2232051 2213796 2198708 
3671.660 2186565 2177170 2170092 2164715 2159805 2153512 2143602 2128113 
3675.518 2106229 2078753 2048338 2018908 1994460 1977683 1969292 1967848 
3679.375 1970265 1973276 1974621 1973756 1972014 1971519 1974075 1980115 
3683.233 1988281 1995858 2000012 1998839 1992277 1982165 1971234 1962317 
3687.090 1956873 1954779 1954243 1952915 1948691 1940656 1929390 1916487 
3690.948 1904115 1894178 1887928 1885934 1887975 1893323 1901087 1909820 
3694.805 1917676 1922547 1922389 1915551 1901560 1881382 1857296 1832490 
3698.662 1810172 1792820 1781651 1776281 1775347 1776967 1779517 1782168 
3702.520 1785029 1788958 1795234 1804713 1817820 1833935 1851509 1868432 
3706.377 1882191 1890687 1892624 1887774 1877292 1863190 1848178 1834718 
3710.235 1824476 1817961 1814517 1812601 1810672 1807673 1803404 1798811 
3714.092 1795361 1794512 1797371 1803953 1813487 1824706 1836115 1846619 
3717.949 1855630 1863074 1869112 1873767 1876641 1877096 1874197 1867168 
3721.807 1855709 1840207 1821621 1801436 1781236 1762542 1746740 1734977 
3725.664 1728040 1726704 1731357 1742029 1757884 1777342 1797932 1816829 
3729.522 1831273 1839409 1840772 1836634 1829519 1822728 1819112 1820385 
3733.379 1826512 1835956 1846004 1854090 1858485 1858700 1855859 1851741 
3737.237 1848248 1846683 1847246 1849352 1851896 1853826 1854792 1855006 
3741.094 1855195 1856262 1858633 1862472 1867391 1872650 1877723 1882156 
3744.951 1885787 1888629 1890580 1891438 1890928 1888722 1884569 1878404 
3748.809 1870278 1860592 1849710 1838274 1826986 1816890 1809054 1804635 
3752.666 1804264 1808142 1815781 1826190 1838262 1851018 1864067 1877411 
3756.524 1891174 1905446 1919671 1932995 1944181 1952244 1956743 1958116 
3760.381 1957358 1955566 1953509 1951287 1948169 1943145 1935282 1924501 
3764.239 1911372 1897193 1883529 1871655 1862328 1855775 1851835 1850367 
3768.096 1851198 1854137 1858631 1863605 1867318 1867974 1864181 1855763 
3771.953 1844094 1831766 1822178 1818252 1821582 1831918 1847039 1863493 
3775.811 1877624 1886419 1888381 1883610 1873671 1861021 1848268 1837664 
3779.668 1830706 1827774 1828463 1831546 1835593 1839249 1841600 1842531 
3783.526 1842538 1842507 1843147 1844752 1846889 1848368 1848032 1845133 
3787.383 1839849 1833458 1827777 1824684 1825145 1829021 1834726 1840192 
3791.240 1843526 1843938 1842013 1839515 1838796 1841482 1848174 1857856 
3795.098 1868316 1877062 1882084 1882565 1879127 1873295 1867004 1861806 
3798.955 1858389 1856779 1856200 1855926 1855308 1854117 1852378 1850192 
3802.813 1847598 1844341 1840217 1835084 1829199 1823044 1817270 1812452 
3806.670 1808754 1805948 1803524 1800832 1797781 1794602 1792086 1791228 
3810.528 1792629 1796251 1801330 1806346 1809639 1810097 1807274 1801945 
3814.385 1795709 1790557 1788432 1790575 1797447 1808554 1823026 1839473 
3818.242 1856336 1872116 1885048 1893529 1896175 1892458 1882862 1869398 
3822.100 1854984 1843115 1836599 1836881 1843416 1853771 1864359 1871439 
3825.957 1872444 1866577 1855157 1840965 1827592 1817986 1814060 1815866 
3829.815 1821983 1830078 1837263 1841255 1840486 1834478 1823937 1810326 
3833.672 1795723 1782275 1771828 1765617 1763938 1766317 1771665 1778312 
3837.530 1785013 1790648 1794794 1797629 1799707 1801656 1804223 1807961 
3841.387 1813181 1819842 1827548 1835295 1841576 1844640 1842965 1835585 
3845.244 1822896 1806676 1789784 1775620 1766902 1765011 1769510 1778327 
3849.102 1788320 1796756 1801855 1803667 1803557 1803822 1806344 1811989 
3852.959 1819946 1828124 1834007 1835463 1831858 1824145 1814636 1806028 
3856.817 1801010 1800990 1806189 1815589 1827409 1839582 1850466 1858740 
3860.674 1864030 1866397 1866371 1864819 1862696 1860793 1859680 1859536 
3864.531 1859885 1859741 1857668 1852396 1842848 1828960 1811559 1792601 
3868.389 1774547 1760092 1751347 1749337 1753882 1763626 1776289 1789514 
3872.246 1801290 1810321 1816228 1819282 1820352 1820410 1820234 1820331 
3876.104 1820830 1821770 1823062 1824769 1827126 1830393 1834778 1840217 
3879.961 1846372 1852632 1858297 1862909 1866431 1869251 1871955 1875218 
3883.819 1879160 1883323 1886511 1887279 1884454 1877683 1867851 1856845 
3887.676 1847204 1841026 1839496 1842212 1847378 1852506 1855212 1853982 
3891.533 1848854 1841184 1833068 1826410 1822490 1821294 1822172 1823989 
3895.391 1825976 1828016 1830538 1834211 1839568 1846362 1853668 1860139 
3899.248 1864523 1865890 1863978 1859113 1851894 1842975 1833048 1822805 
3903.106 1813214 1805542 1801373 1801974 1807859 1818388 1831485 1844271 
3906.963 1853580 1856898 1853096 1842799 1828167 1812395 1799015 1790975 
3910.821 1790070 1796773 1810041 1827440 1845841 1861745 1872226 1875433 
3914.678 1871232 1861207 1848281 1836036 1827683 1824957 1827910 1834827 
3918.535 1843124 1849966 1853463 1853047 1849297 1843549 1837301 1831485 
3922.393 1826258 1821294 1815934 1809956 1803713 1798073 1794352 1793889 
3926.250 1797579 1805794 1818153 1833818 1851423 1869362 1886136 1900453 
3930.108 1911444 1918922 1923122 1924570 1923765 1920746 1915263 1906549 
3933.965 1894209 1878335 1859994 1841230 1824728 1812878 1807405 1808615 
3937.823 1815483 1826031 1837822 1848773 1857365 1862713 1864472 1862456 
3941.680 1856611 1847015 1834195 1819420 1804589 1792119 1784177 1782229 
3945.537 1786423 1795651 1807881 1820631 1831944 1840523 1846262 1849939 
3949.395 1852797 1856080 1860699 1866814 1873898 1880944 1886416 1889016 
3953.252 1887710 1882232 1873376 1862623 1852306 1844703 1841708 1844238 
3957.110 1852030 1863721 1877457 1891198 1903496 1913584 1921353 1927147 
3960.967 1931456 1934491 1936359 1936967 1936472 1935221 1933956 1933619 
3964.824 1935170 1939232 1946165 1955638 1966882 1978742 1989700 1998095 
3968.682 2002369 2001255 1994047 1981089 1963526 1943472 1923521 1906177 
3972.539 1893207 1885465 1882487 1882861 1884594 1885701 1884771 1881098 
3976.397 1875186 1868235 1862174 1859109 1860920 1868888 1883268 1903106 
3980.254 1926218 1949485 1969665 1983755 1990107 1988626 1981031 1970231 
3984.112 1959722 1952629 1950889 1954851 1963449 1974467 1985395 1994094 
3987.969 1999174 2000378 1998267 1993856 1988159 1981834 1974985 1967225 
3991.826 1958313 1948116 1937301 1927354 1920402 1918587 1923609 1935941 
3995.684 1954556 1976966 1999921 2020138 2035269 2044575 2048910 2050364 
3999.541 2051228 2053098 2056323 
##END=
