##TITLE=Tecor_PLA-Bicolour_Black_Filament_r6_ATR-Corrected
##JCAMP-DX=5.01  $$ Nicolet v. 1
##DATATYPE=INFRARED SPECTRUM
##ORIGIN=Curtin University
##OWNER=Nicolet
##LONGDATE=2024/07/19
##TIME=15:46:56
##SPECTROMETER/DATA SYSTEM=Nicolet iS50
##DATA PROCESSING=
Ratio against background
%Transmittance->Absorbance
ATR Correction
Truncated
ElementMultiply or ElementDivide
##COMMENTS=
Number of sample scans: 32
Collection length: 47.29 sec
Sample gain: 1.0
Background collected on: Fri Jul 19 15:41:23 2024 (GMT+08:00);
Number of background scans: 32
Background gain: 1.0
Sample spacing:  1.000
Number of scan points: 16672
Resolution points: 8192
Number of FFT points: 65536
Apodization: N-B strong;
Phase correction: Mertz;
Laser frequency: 15798.3 cm-1
Number of rejected sample scans: 0
Number of rejected background scans: 0
Bench serial number: AUP1200105;
##RESOLUTION=4.000
##XUNITS=1/CM
##YUNITS=ABSORBANCE
##FIRSTX=400.163452
##LASTX=4000.187744
##FIRSTY=0.066278
##MAXX=4000.187744
##MINX=400.163452
##MAXY=1.283340
##MINY=-0.016819
##XFACTOR=1.000000
##YFACTOR=1.000000E-008
##NPOINTS=7468
##DELTAX=0.482125
##ZPD=8192
##XYDATA=(X++(Y..Y))
400.163 6627836 6603561 6584424 6554126 6495809 6399539 6265176 6102859 
404.020 5930180 5766856 5628860 5524312 5452027 5403031 5364150 5322139 
407.877 5267067 5193953 5102620 4996197 4879310 4756520 4631862 4508895 
411.734 4391412 4283694 4190307 4115151 4060182 4024366 4003387 3990251 
415.591 3976955 3956348 3923913 3878924 3824256 3765285 3708144 3657906 
419.448 3617401 3587098 3565566 3550569 3539886 3531762 3524852 3517853 
423.305 3509165 3496815 3478753 3453366 3420002 3379232 3332757 3282960 
427.162 3232471 3183683 3138529 3098352 3063946 3035439 3012348 2993414 
431.019 2976820 2960459 2942508 2921683 2898325 2873807 2850571 2831483 
434.876 2819162 2815397 2820676 2834148 2853594 2875807 2897009 2913456 
438.733 2922125 2921448 2911795 2895593 2876872 2860183 2849328 2846191 
442.590 2849995 2857492 2863879 2864293 2855383 2836375 2809410 2778887 
446.447 2750302 2728732 2717603 2718024 2728849 2747166 2769194 2791161 
450.304 2809982 2823666 2831326 2832978 2829194 2820598 2807583 2790194 
454.161 2768195 2741455 2710327 2675997 2640549 2606640 2576984 2553686 
458.017 2537716 2528706 2525150 2524831 2525336 2524525 2520734 2512771 
461.874 2499965 2482157 2459771 2433674 2406061 2379287 2355649 2336858 
465.731 2323575 2315293 2310661 2308093 2306442 2305347 2305185 2306532 
469.588 2309415 2312810 2314507 2311681 2301785 2283620 2257946 2227497 
473.445 2196349 2168700 2147704 2134646 2128675 2127170 2126556 2123197 
477.302 2114199 2097846 2073756 2042779 2006837 1968654 1931549 1899092 
481.159 1874651 1860791 1858633 1867478 1884649 1905903 1926246 1941061 
485.016 1947138 1943477 1931491 1914604 1897326 1884009 1877811 1879945 
488.873 1889579 1904240 1920664 1935708 1947085 1953731 1955795 1954203 
492.730 1950215 1944937 1939036 1932512 1925337 1917001 1906913 1894512 
496.587 1879469 1861896 1842433 1822390 1803547 1787847 1776869 1771368 
500.444 1770949 1774065 1778447 1781691 1781968 1778459 1771509 1762394 
504.301 1752818 1744462 1738644 1736237 1737779 1743614 1753923 1768578 
508.158 1786939 1807578 1828292 1846357 1859041 1864196 1860740 1848899 
512.015 1830043 1806368 1780339 1754278 1730048 1708898 1691442 1677710 
515.871 1667197 1659017 1652078 1645407 1638439 1631218 1624426 1619110 
519.728 1616284 1616443 1619261 1623599 1627815 1630279 1629892 1626309 
523.585 1619911 1611393 1601387 1589960 1577028 1562226 1545438 1527194 
527.442 1508742 1491759 1477840 1467948 1462034 1459097 1457553 1455842 
531.299 1452949 1448740 1443819 1439240 1436001 1434688 1435343 1437556 
535.156 1440728 1444249 1447575 1450162 1451274 1449933 1444996 1435456 
539.013 1420854 1401588 1379027 1355274 1332734 1313543 1299114 1290018 
542.870 1286041 1286594 1291039 1298939 1310036 1324037 1340329 1357793 
546.727 1374827 1389667 1400823 1407517 1409953 1409194 1406930 1404886 
550.584 1404339 1405749 1408680 1411918 1413870 1412973 1408172 1399131 
554.441 1386423 1371480 1356358 1343313 1334688 1332187 1336692 1348047 
558.298 1365127 1386068 1408621 1430573 1450081 1465882 1477327 1484363 
562.155 1487350 1487002 1484198 1479925 1475180 1470809 1467400 1465167 
566.012 1463975 1463409 1463002 1462430 1461688 1461040 1460947 1461785 
569.869 1463700 1466503 1469789 1473182 1476568 1480190 1484638 1490549 
573.725 1498295 1507759 1518261 1528818 1538504 1546873 1554125 1561032 
577.582 1568582 1577480 1587784 1598825 1609454 1618616 1625814 1631497 
581.439 1636927 1643689 1653045 1665304 1679574 1694032 1706520 1715386 
585.296 1720076 1721365 1721058 1721319 1723883 1729465 1737596 1746880 
589.153 1755600 1762309 1766245 1767461 1766642 1764772 1762861 1761803 
593.010 1762342 1765182 1770962 1780130 1792812 1808537 1826315 1844812 
596.867 1862714 1879163 1893908 1907303 1919892 1931962 1943217 1952681 
600.724 1959081 1961422 1959492 1954233 1947590 1941971 1939582 1941818 
604.581 1948982 1960397 1974877 1991199 2008494 2026312 2044492 2062872 
608.438 2081185 2099012 2116057 2132362 2148453 2165244 2183728 2204568 
612.295 2227855 2253011 2279063 2305026 2330344 2355030 2379694 2405172 
616.152 2432197 2461087 2491586 2522966 2554248 2584417 2612658 2638424 
620.009 2661519 2682102 2700687 2718104 2735355 2753446 2773069 2794404 
623.866 2817005 2839961 2862229 2883027 2902183 2920253 2938317 2957606 
627.723 2979090 3003138 3029446 3057211 3085361 3112868 3138906 3162844 
631.579 3184221 3202677 3218054 3230496 3240623 3249511 3258558 3269084 
635.436 3281983 3297358 3314517 3332183 3348926 3363646 3375893 3386003 
639.293 3394920 3403926 3414280 3427017 3442790 3461836 3483991 3508716 
643.150 3535125 3562072 3588343 3612900 3635119 3654946 3672907 3689824 
647.007 3706495 3723373 3740359 3756892 3772159 3785521 3796763 3806239 
650.864 3814740 3823236 3832554 3843218 3855397 3869089 3884298 3901222 
654.721 3920310 3942089 3966948 3994822 4024995 4056050 4086013 4112676 
658.578 4134093 4149007 4157305 4160144 4159909 4159741 4162908 4172050 
662.435 4188576 4212357 4241839 4274509 4307632 4338880 4366804 4390951 
666.292 4411574 4429314 4444797 4458412 4470373 4480855 4490176 4498860 
670.149 4507557 4516837 4527004 4538055 4549796 4562049 4574908 4588789 
674.006 4604370 4622219 4642573 4665032 4688606 4711914 4733595 4752648 
677.863 4768721 4782107 4793606 4804278 4815063 4826659 4839427 4853414 
681.720 4868437 4884201 4900397 4916811 4933390 4950266 4967719 4986097 
685.577 5005676 5026486 5048216 5070234 5091716 5111859 5130116 5146376 
689.433 5160943 5174463 5187684 5201259 5215575 5230699 5246443 5262414 
693.290 5278185 5293305 5307441 5320404 5332253 5343311 5354235 5365855 
697.147 5379032 5394350 5411868 5430972 5450431 5468650 5484052 5495550 
701.004 5502788 5506256 5507068 5506599 5506061 5506108 5506690 5507136 
704.861 5506383 5503413 5497583 5488870 5477838 5465496 5452917 5440784 
708.718 5429106 5417027 5402929 5384818 5360633 5328883 5288959 5241251 
712.575 5187060 5128174 5066414 5003178 4939150 4874219 4807631 4738294 
716.432 4665145 4587424 4504894 4417789 4326772 4232678 4136367 4038586 
720.289 3939958 3841045 3742472 3645083 3549998 3458598 3372377 3292788 
724.146 3221027 3157916 3103851 3058900 3022961 2995927 2977815 2968812 
728.003 2969189 2979222 2999110 3028958 3068847 3119014 3179964 3252552 
731.860 3337851 3436876 3550231 3677736 3818184 3969346 4128196 4291370 
735.717 4455675 4618541 4778231 4933888 5085280 5232479 5375550 5514274 
739.574 5648184 5776646 5899107 6015373 6125708 6230824 6331753 6429633 
743.431 6525435 6619907 6713494 6806510 6899237 6992078 7085570 7180301 
747.287 7276793 7375346 7475968 7578351 7681992 7786295 7890635 7994363 
751.144 8096747 8196825 8293316 8384551 8468558 8543100 8605923 8654828 
755.001 8687942 8703779 8701396 8680458 8641241 8584579 8511664 8423869 
758.858 8322465 8208532 8082904 7946311 7799601 7643938 7480924 7312616 
762.715 7141368 6969593 6799518 6632963 6471263 6315180 6164921 6020256 
766.572 5880632 5745373 5613875 5485780 5361107 5240182 5123504 5011446 
770.429 4904056 4800866 4701002 4603341 4507033 4411608 4317213 4224491 
774.286 4134311 4047427 3964179 3884441 3807696 3733310 3660732 3589620 
778.143 3519831 3451229 3383541 3316312 3248937 3180868 3111771 3041571 
782.000 2970410 2898456 2825708 2751968 2676953 2600605 2523351 2446304 
785.857 2371095 2299571 2233186 2172628 2117565 2066817 2018775 1972025 
789.714 1925790 1880185 1836055 1794580 1756782 1723126 1693369 1666707 
793.571 1642094 1618596 1595671 1573210 1551470 1530793 1511432 1493417 
797.428 1476551 1460513 1445039 1430034 1415632 1402148 1390016 1379559 
801.285 1370902 1363913 1358183 1353029 1347938 1342503 1336713 1330977 
805.141 1326072 1322948 1322386 1324776 1329903 1336968 1344768 1352029 
808.998 1357764 1361458 1363173 1363320 1362427 1360829 1358511 1355161 
812.855 1350394 1344080 1336570 1328830 1322206 1318096 1317475 1320547 
816.712 1326704 1334650 1342899 1350287 1356361 1361474 1366626 1372971 
820.569 1381278 1391585 1403052 1414257 1423676 1430197 1433537 1434254 
824.426 1433496 1432508 1432186 1432778 1433939 1435055 1435709 1436035 
828.283 1436851 1439460 1445185 1454886 1468591 1485416 1503903 1522439 
832.140 1539860 1555745 1570556 1585406 1601771 1621000 1644117 1671670 
835.997 1703867 1740660 1781930 1827522 1877278 1930973 1988353 2049128 
839.854 2113119 2180261 2250650 2324419 2401622 2482046 2565184 2650232 
843.711 2736251 2822279 2907361 2990563 3070795 3146704 3216684 3279006 
847.568 3332321 3376037 3410806 3438679 3463021 3488000 3518026 3557161 
851.425 3608737 3675320 3758863 3860974 3983141 4126685 4292632 4481270 
855.282 4691962 4922988 5171707 5434822 5708836 5990271 6275823 6562264 
859.139 6846268 7124291 7392694 7647959 7887134 8108113 8309902 8492401 
862.995 8656108 8801638 8929382 9039412 9131515 9205572 9261782 9300770 
866.852 9323456 9330834 9323591 9302019 9265943 9214980 9148818 9067355 
870.709 8970878 8859802 8734537 8595198 8441597 8273261 8089795 7891222 
874.566 7678348 7452991 7217982 6976959 6733945 6492820 6256785 6027958 
878.423 5807184 5594175 5387940 5187325 4991686 4801311 4617535 4442609 
882.280 4279253 4130068 3997103 3881602 3783993 3704103 3641409 3595283 
886.137 3565001 3549671 3548026 3558262 3578006 3604404 3634474 3665415 
889.994 3694996 3721743 3745025 3764975 3782206 3797521 3811625 3824831 
893.851 3836967 3847357 3854964 3858675 3857505 3850915 3838943 3822248 
897.708 3802033 3779896 3757557 3736686 3718638 3704266 3693776 3686698 
901.565 3682014 3678428 3674773 3670346 3665176 3659963 3655810 3653665 
905.422 3653897 3655973 3658611 3660205 3659567 3656442 3651819 3647661 
909.279 3646275 3649471 3657906 3670825 3686300 3701867 3715302 3725151 
913.136 3730959 3733025 3732060 3728719 3723408 3716346 3707809 3698279 
916.993 3688547 3679486 3671740 3665423 3660012 3654513 3647850 3639249 
920.849 3628565 3616210 3602993 3589737 3576982 3564829 3553063 3541332 
924.706 3529421 3517282 3505084 3492946 3480876 3468618 3455738 3441853 
928.563 3426792 3410833 3394646 3379229 3365647 3354871 3347488 3343650 
932.420 3342994 3344702 3347597 3350370 3351818 3351162 3348249 3343720 
936.277 3338875 3335432 3335055 3339000 3347746 3361003 3377881 3397183 
940.134 3417904 3439356 3461392 3484244 3508360 3534182 3562013 3592003 
943.991 3624220 3658726 3695645 3735192 3777582 3822978 3871398 3922683 
947.848 3976565 4032680 4090670 4150220 4211107 4273157 4336215 4400039 
951.705 4464187 4527920 4590142 4649390 4703929 4751832 4791235 4820316 
955.562 4837451 4841147 4830022 4802838 4758504 4696266 4615981 4518284 
959.419 4404812 4278225 4142057 4000593 3858374 3719917 3589224 3469451 
963.276 3362659 3269708 3190372 3123552 3067689 3021141 2982556 2951002 
967.133 2925966 2907201 2894430 2887199 2884829 2886450 2891300 2898861 
970.990 2909042 2922090 2938349 2958054 2981014 3006542 3033564 3060911 
974.847 3087598 3113169 3137872 3162556 3188444 3216822 3248629 3284202 
978.703 3323156 3364540 3407027 3449319 3490465 3530059 3568249 3605542 
982.560 3642547 3679650 3716874 3753944 3790527 3826514 3862287 3898747 
986.417 3937120 3978549 4023755 4072760 4124736 4178394 4232348 4285438 
990.274 4337085 4387253 4436407 4485274 4534749 4585746 4639220 4696131 
994.131 4757329 4823376 4894366 4969818 5048825 5130198 5212917 5296441 
997.988 5380798 5466544 5554488 5645424 5739902 5838308 5940954 6048278 
1001.845 6160907 6279608 6405017 6537421 6676718 6822497 6974394 7132451 
1005.702 7297338 7470273 7652727 7846068 8051166 8268403 8497863 8739708 
1009.559 8994549 9263492 9547978 9849350 10168474 10505492 10859952 11231132 
1013.416 11618500 12021912 12441626 12877944 13330832 13799573 14282759 
1016.791 14778496 15284795 15799889 16322309 16850710 17383348 17917902 
1020.166 18451368 18980270 19501202 20011418 20509260 20994372 21467536 
1023.540 21930460 22385388 22834902 23281800 23728972 24179480 24636342 
1026.916 25102562 25581070 26074774 26586590 27119708 27677360 28262802 
1030.291 28878868 29527578 30209740 30924850 31671048 32445412 33244162 
1033.666 34062860 34896432 35739048 36584048 37423940 38250588 39055660 
1037.041 39831056 40569352 41264024 41909468 42500816 43033612 43503640 
1040.417 43906856 44239488 44498516 44681984 44789556 44822724 44784900 
1043.792 44681028 44517232 44300152 44036376 43732168 43393240 43024840 
1047.167 42632008 42219652 41792788 41356516 40915844 40475644 40040220 
1050.542 39613228 39197448 38794708 38405852 38030784 37668704 37318336 
1053.917 36978300 36647436 36325208 36011904 35708884 35418688 35145028 
1057.293 34892840 34668164 34478156 34330768 34234548 34198296 34230576 
1060.668 34339316 34531496 34812780 35187404 35658096 36226048 36890968 
1064.043 37651092 38503296 39443280 40465880 41565260 42735484 43970620 
1067.418 45264880 46612692 48008516 49446768 50921948 52428764 53962320 
1070.794 55518104 57091896 58679400 60275876 61875988 63474096 65064852 
1074.169 66643916 68208232 69755792 71284696 72791816 74271688 75716128 
1077.544 77114496 78455168 79726752 80919080 82023440 83031936 83936736 
1080.919 84729408 85401304 85944288 86352000 86620760 86749720 86740384 
1084.295 86595712 86319736 85917416 85395040 84760888 84025648 83202160 
1087.670 82304424 81346520 80341352 79299848 78230640 77140256 76033664 
1091.045 74914840 73787328 72654616 71520224 70387504 69259584 68138872 
1094.420 67026944 65924376 64830916 63745712 62667836 61596580 60531740 
1097.796 59473700 58423240 57381392 56349164 55327368 54316656 53317572 
1101.171 52330644 51356460 50395804 49449700 48519428 47606732 46713768 
1104.546 45843240 44998316 44182332 43398564 42649808 41938192 41265012 
1107.921 40630944 40036248 39481344 38967120 38495080 38067268 37685788 
1111.297 37352268 37067264 36829816 36637484 36486712 36373460 36293896 
1114.672 36245016 36224832 36232264 36266764 36327896 36415024 36527384 
1118.047 36664172 36825048 37010284 37220860 37458152 37723424 38017240 
1121.422 38338868 38685932 39054336 39438376 39830916 40223672 40607496 
1124.798 40972580 41308924 41606592 41856432 42050512 42182760 42249172 
1128.173 42247884 42178948 42043904 41845164 41585560 41267792 40894224 
1131.548 40466620 39986040 39452880 38867100 38228480 37537148 36793976 
1134.923 36000912 35161032 34278424 33357746 32403936 31421888 30416458 
1138.299 29392630 28355718 27311536 26266400 25226850 24199384 23190066 
1141.674 22204402 21247138 20322556 19434368 18585846 17779756 17018216 
1145.049 16302589 15633380 15010387 14432815 13899592 13409638 12961870 
1148.424 12555401 12189282 11862349 11573042 11319296 11098544 10907843 
1151.800 10744215 10604826 10487361 10390130 10312126 10252903 10212344 
1155.175 10190461 10187138 10202097 10234900 10285132 10352567 10437401 
1158.550 10540284 10662309 10804911 10969674 11158213 11372135 11613211 
1161.925 11883393 12185154 12521464 12896001 13312899 13776669 14292106 
1165.301 14864106 15497768 16198386 16971694 17823884 18761688 19792216 
1168.676 20922866 22161000 23513742 24987598 26588294 28320312 30186606 
1172.051 32188118 34323164 36586980 38971220 41463368 44046328 46697884 
1175.426 49390372 52090364 54758956 57352512 59824456 62127684 64217412 
1178.802 66053980 67605272 68848136 69769472 70366480 70646576 70626768 
1182.177 70332336 69794632 69048472 68129432 67071672 65906672 64662760 
1185.552 63365204 62036424 60696088 59361124 58045304 56759332 55510920 
1188.927 54305272 53145844 52034820 50973652 49963312 49004236 48096488 
1192.302 47239640 46432984 45675604 44966496 44304412 43687792 43114544 
1195.678 42582112 42087628 41628300 41201800 40806572 40441768 40107056 
1199.053 39802116 39526136 39277652 39054380 38853512 38671948 38506516 
1202.428 38354112 38211556 38075628 37942980 37810532 37675572 37536004 
1205.803 37390392 37237644 37076508 36905124 36720748 36519920 36299000 
1209.179 36054976 35786076 35492156 35174488 34835272 34476840 34101132 
1212.554 33709276 33301786 32878780 32440538 31987674 31521412 31043384 
1215.929 30555498 30059666 29557756 29051540 28542858 28033584 27525714 
1219.304 27021196 26521862 26029200 25544316 25067938 24600476 24142176 
1222.680 23693266 23253972 22824504 22405074 21995840 21596880 21208338 
1226.055 20830416 20463466 20107940 19764324 19432962 19113926 18807008 
1229.430 18511770 18227608 17954014 17690640 17437376 17194224 16961316 
1232.805 16738662 16526222 16323829 16131252 15948273 15774734 15610383 
1236.181 15454876 15307654 15167964 15034938 14907725 14785653 14668338 
1239.556 14555702 14447944 14345396 14248392 14157206 14071985 13992769 
1242.931 13919480 13851969 13790037 13733414 13681871 13635236 13593487 
1246.306 13556747 13525280 13499415 13479391 13465308 13457122 13454658 
1249.682 13457838 13466720 13481627 13502994 13531280 13566685 13609052 
1253.057 13657862 13712358 13771813 13835709 13903856 13976352 14053340 
1256.432 14134790 14220281 14309090 14400275 14493048 14586900 14681782 
1259.807 14777799 14875025 14973043 15070760 15166457 15258050 15343542 
1263.183 15421464 15490973 15551986 15604675 15649171 15685111 15711632 
1266.558 15727399 15730952 15721075 15697068 15658814 15606649 15541127 
1269.933 15462758 15371767 15268168 15151718 15022159 14879262 14722984 
1273.308 14553426 14370827 14175494 13967808 13748121 13516872 13274562 
1276.684 13021797 12759358 12488229 12209620 11925032 11636190 11345059 
1280.059 11053695 10764126 10478213 10197539 9923345 9656502 9397636 9147304 
1283.916 8906068 8674766 8454464 8246483 8052360 7873672 7711893 7568362 
1287.774 7444120 7339930 7256173 7192947 7149879 7126253 7120941 7132560 
1291.631 7159509 7200066 7252514 7315124 7386196 7463965 7546589 7632117 
1295.489 7718558 7803987 7886655 7965158 8038507 8106138 8167881 8223821 
1299.346 8274196 8319342 8359534 8395128 8426467 8454011 8478280 8499891 
1303.203 8519478 8537555 8554522 8570541 8585552 8599315 8611459 8621588 
1307.061 8629357 8634523 8637041 8637014 8634698 8630485 8624813 8618181 
1310.918 8611083 8604027 8597387 8591492 8586510 8582409 8579034 8576083 
1314.776 8573236 8570284 8567189 8564183 8561651 8560096 8559959 8561444 
1318.633 8564489 8568757 8573727 8578860 8583762 8588278 8592485 8596684 
1322.490 8601280 8606682 8613267 8621414 8631440 8643720 8658635 8676543 
1326.348 8697788 8722638 8751308 8784088 8821272 8863343 8910828 8964244 
1330.205 9023898 9089799 9161511 9238309 9319268 9403508 9490429 9579872 
1334.063 9672021 9767386 9866537 9969953 10077874 10190333 10307190 10428301 
1337.920 10553624 10683299 10817634 10957064 11102033 11252908 11409888 
1341.295 11572999 11742029 11916628 12096377 12280919 12469991 12663579 
1344.671 12861848 13065103 13273659 13487750 13707349 13932210 14161794 
1348.046 14395356 14631954 14870478 15109597 15347792 15583350 15814477 
1351.421 16039386 16256447 16464236 16661504 16847018 17019550 17177748 
1354.796 17320274 17445890 17553802 17643692 17715814 17770882 17809904 
1358.172 17833938 17844084 17841462 17827310 17803118 17770626 17731730 
1361.547 17688350 17642192 17594634 17546480 17497986 17448656 17397304 
1364.922 17341838 17279526 17206998 17120684 17017304 16894264 16750026 
1368.297 16584383 16398458 16194691 15976791 15749852 15520550 15297335 
1371.673 15090452 14911671 14773645 14688936 14668590 14720975 14850572 
1375.048 15057324 15336445 15678713 16071305 16498758 16944086 17389956 
1378.423 17819666 18218098 18572300 18871788 19108422 19276238 19371154 
1381.798 19390802 19334520 19203554 19000944 18731534 18401518 18017960 
1385.174 17588334 17120088 16620465 16096385 15554179 14999501 14437148 
1388.549 13870828 13303357 12736790 12172801 11613032 11059316 10513804 
1391.924 9978893 9457099 8951014 8463281 7996523 7553366 7136293 6747441 
1395.781 6388358 6059770 5761520 5492649 5251517 5036142 4844355 4674011 
1399.639 4523027 4389340 4270903 4165667 4071635 3986932 3910066 3839880 
1403.496 3775680 3717142 3664111 3616505 3574118 3536525 3503188 3473420 
1407.354 3446453 3421571 3398074 3375399 3353151 3331221 3309781 3289336 
1411.211 3270586 3254235 3240714 3230117 3222089 3216002 3211199 3207251 
1415.069 3204151 3202238 3202024 3203970 3208127 3214236 3221695 3229927 
1418.926 3238611 3247841 3258109 3270042 3284205 3300817 3319791 3340766 
1422.783 3363369 3387429 3412954 3440201 3469518 3501231 3535611 3572929 
1426.641 3613619 3658213 3707433 3762010 3822538 3889440 3962871 4043019 
1430.498 4130133 4224720 4327574 4439774 4562529 4697353 4845971 5010701 
1434.356 5194359 5400324 5632166 5893287 6186431 6513556 6875988 7274849 
1438.213 7711547 8188139 8707044 9270599 9880120 10535165 11232910 11968176 
1442.071 12733608 13520232 14317952 15116033 15903540 16669826 17405082 
1445.446 18100924 18750826 19350272 19896514 20388306 20825368 21208104 
1448.821 21537352 21814288 22040332 22217008 22345798 22428014 22464728 
1452.196 22456776 22404832 22309336 22170432 21987926 21761332 21490086 
1455.572 21173952 20813510 20410380 19967284 19487650 18975312 18433916 
1458.947 17866798 17277162 16668257 16043533 15406780 14761972 14113073 
1462.322 13464013 12818670 12181013 11555175 10945372 10355607 9789282 
1465.697 9248904 8735990 8251296 7795127 7367632 6968947 6599196 6258194 
1469.555 5945264 5659147 5398039 5159749 4941873 4741973 4557630 4386535 
1473.412 4226637 4076366 3934728 3801429 3676773 3561338 3455645 3359820 
1477.270 3273406 3195456 3124828 3060406 3001439 2947438 2898131 2853205 
1481.127 2812194 2774396 2739051 2705501 2673391 2642635 2613388 2585836 
1484.984 2560079 2536037 2513524 2492370 2472429 2453637 2435985 2419386 
1488.842 2403728 2388878 2374845 2361811 2350173 2340354 2332655 2327059 
1492.699 2323126 2320143 2317276 2313930 2309853 2305167 2300289 2295597 
1496.557 2291318 2287478 2283918 2280449 2277054 2273878 2271111 2268872 
1500.414 2267079 2265377 2263298 2260398 2256419 2251411 2245612 2239371 
1504.271 2232986 2226655 2220465 2214549 2209115 2204468 2200887 2198548 
1508.129 2197308 2196760 2196335 2195536 2194101 2192043 2189679 2187338 
1511.986 2185233 2183335 2181305 2178765 2175436 2171279 2166617 2161931 
1515.844 2157710 2154237 2151490 2149084 2146519 2143200 2138750 2132966 
1519.701 2125972 2118085 2109887 2102069 2095392 2090533 2087983 2087878 
1523.559 2089972 2093714 2098276 2102867 2106876 2109990 2112181 2113648 
1527.416 2114555 2115014 2114991 2114356 2113061 2111179 2109008 2106997 
1531.273 2105545 2104992 2105450 2106863 2109104 2112007 2115525 2119602 
1535.131 2124226 2129243 2134389 2139322 2143785 2147677 2151129 2154441 
1538.988 2157960 2161813 2165752 2169166 2171206 2170999 2168010 2162143 
1542.846 2153844 2143899 2133273 2122753 2112829 2103582 2094780 2085962 
1546.703 2076712 2066780 2056093 2044867 2033429 2022133 2011325 2001177 
1550.561 1991729 1982821 1974236 1965664 1956858 1947604 1937889 1927841 
1554.418 1917798 1908271 1899819 1893023 1888306 1885889 1885736 1887508 
1558.275 1890694 1894694 1899004 1903296 1907436 1911424 1915282 1918902 
1562.133 1921997 1924134 1924867 1923904 1921245 1917295 1912771 1908607 
1565.990 1905688 1904668 1905922 1909457 1915045 1922278 1930719 1939871 
1569.848 1949239 1958351 1966762 1974139 1980433 1985861 1990971 1996504 
1573.705 2003166 2011385 2021120 2031771 2042332 2051593 2058577 2062766 
1577.563 2064270 2063661 2061764 2059310 2056751 2054029 2050879 2046853 
1581.420 2041680 2035418 2028532 2021702 2015629 2010856 2007539 2005495 
1585.277 2004369 2003724 2003278 2002864 2002460 2002061 2001542 2000709 
1589.135 1999333 1997342 1994889 1992456 1990689 1990212 1991429 1994291 
1592.992 1998366 2002982 2007508 2011568 2015201 2018749 2022713 2027376 
1596.850 2032755 2038443 2043900 2048591 2052378 2055503 2058645 2062608 
1600.707 2068070 2075290 2084084 2093857 2103950 2113753 2122977 2131676 
1604.564 2140156 2148757 2157747 2167188 2176894 2186611 2196039 2204956 
1608.422 2213290 2221129 2228686 2236227 2244020 2252353 2261364 2270998 
1612.279 2281048 2291072 2300583 2309133 2316528 2322861 2328655 2334613 
1616.137 2341516 2349913 2359971 2371434 2383693 2396004 2407731 2418466 
1619.994 2428125 2436745 2444465 2451333 2457226 2461903 2465079 2466536 
1623.852 2466260 2464372 2461218 2457109 2452416 2447392 2442298 2437357 
1627.709 2432782 2428835 2425695 2423492 2422192 2421651 2421596 2421769 
1631.566 2421903 2421797 2421314 2420311 2418612 2416009 2412285 2407392 
1635.424 2401466 2394897 2388380 2382690 2378539 2376294 2375994 2377087 
1639.281 2378752 2379980 2379882 2377889 2373994 2368573 2362452 2356524 
1643.139 2351589 2348126 2346253 2345742 2346238 2347365 2348949 2351024 
1646.996 2353833 2357653 2362603 2368556 2375077 2381494 2387141 2391536 
1650.854 2394553 2396498 2398103 2400280 2403936 2409702 2417742 2427767 
1654.711 2439143 2451014 2462564 2473168 2482325 2489868 2495800 2500320 
1658.568 2503846 2506896 2510238 2514607 2520801 2529358 2540571 2554247 
1662.426 2569826 2586399 2602951 2618578 2632724 2645238 2656398 2666787 
1666.283 2677057 2687769 2699280 2711658 2724699 2738014 2751178 2763816 
1670.141 2775716 2786887 2797612 2808383 2819882 2832760 2847612 2864575 
1673.998 2883397 2903320 2923218 2941895 2958459 2972547 2984555 2995512 
1677.855 3006829 3019928 3035831 3055017 3077308 3102090 3128564 3155996 
1681.713 3183932 3212184 3240654 3269285 3297900 3326228 3354072 3381404 
1685.570 3408492 3435796 3463858 3493083 3523537 3555041 3587246 3619886 
1689.428 3653077 3687407 3723797 3763250 3806534 3853836 3904712 3958272 
1693.285 4013540 4069786 4126943 4185564 4246769 4311732 4381355 4455905 
1697.143 4534971 4617685 4703174 4790807 4880598 4973136 5069530 5170989 
1701.000 5278501 5392519 5512970 5639316 5770892 5907158 6048012 6193816 
1704.857 6345498 6504175 6671133 6847459 7033937 7230852 7438148 7655417 
1708.715 7881983 8117087 8360070 8610446 8868161 9133607 9407645 9691484 
1712.572 9986418 10293483 10613158 10945182 11288515 11641634 12002818 
1715.948 12370469 12743346 13120599 13501595 13885783 14272603 14661545 
1719.323 15052553 15446220 15844157 16248985 16664103 17093306 17540398 
1722.698 18009032 18502674 19024868 19579570 20171258 20805086 21486682 
1726.073 22221992 23017274 23879048 24814280 25830292 26934568 28134512 
1729.448 29437106 30848994 32376974 34029032 35815080 37747552 39840388 
1732.824 42107432 44559644 47202724 50035708 53051920 56241112 59592920 
1736.199 63098972 66753196 70549304 74477128 78518256 82644184 86816744 
1739.574 90991448 95122064 99164120 103076112 106818736 110352608 113638472 
1742.949 116638688 119321504 121664320 123655192 125290856 126572928 
1745.843 127504536 128089488 128333984 128249608 127854928 127174664 
1748.736 126235952 125064792 123683096 122109248 120359720 118452040 
1751.629 116405264 114239216 111971560 109615824 107180408 104670728 
1754.522 102091840 99451760 96762752 94040792 91303256 88566296 85842808 
1757.897 83142200 80471504 77837080 75245920 72706376 70227568 67818400 
1761.272 65486600 63238256 61077596 59007340 57028752 55141832 53344948 
1764.647 51635152 50008172 48459216 46983616 45577652 44238628 42964624 
1768.023 41753640 40602876 39507924 38463092 37461720 36497228 35563928 
1771.398 34657456 33774672 32913346 32071286 31246086 30434748 29633978 
1774.773 28840544 28051666 27265182 26479722 25694346 24908542 24122050 
1778.148 23334926 22547620 21761186 20977180 20197636 19424770 18660744 
1781.524 17907592 17167166 16441219 15731758 15040952 14371201 13724867 
1784.899 13104010 12510152 11944257 11406833 10898144 10418271 9967244 
1788.274 9544682 9149758 8780960 8436311 8113682 7811343 7528182 7263908 
1792.132 7018513 6791966 6583489 6391494 6213627 6047396 5890705 5742566 
1795.989 5602845 5472278 5351652 5241327 5140684 5048255 4961857 4879250 
1799.846 4798520 4718585 4639286 4561345 4486177 4415522 4351026 4293940 
1803.704 4244556 4202198 4165029 4130432 4095415 4057377 4014511 3966351 
1807.561 3913599 3857999 3801743 3747056 3695786 3649228 3607873 3571660 
1811.419 3539670 3510382 3481698 3451346 3417326 3378629 3335591 3290197 
1815.276 3245514 3205193 3172339 3148659 3134007 3126341 3122489 3119098 
1819.134 3113480 3104272 3091309 3075376 3057455 3038356 3018411 2997545 
1822.991 2975306 2951432 2925633 2897904 2868333 2837097 2804390 2770595 
1826.848 2736127 2701612 2667708 2635109 2604160 2574910 2547007 2519731 
1830.706 2492213 2463683 2433665 2402215 2369924 2337885 2307332 2279438 
1834.563 2254815 2233414 2214401 2196391 2177867 2157676 2135296 2110979 
1838.421 2085381 2059328 2033189 2006875 1979644 1950664 1919368 1885968 
1842.278 1851585 1818291 1788571 1765018 1749559 1743407 1746406 1757331 
1846.135 1773523 1791446 1806741 1815183 1813346 1799524 1774298 1740800 
1849.993 1703823 1669030 1641218 1623379 1615762 1616246 1620970 1625803 
1853.850 1627247 1623621 1614970 1602885 1589711 1577774 1568742 1563453 
1857.708 1561618 1562419 1564388 1566113 1566167 1563551 1557589 1548244 
1861.565 1535826 1521128 1505175 1489209 1474459 1462162 1453351 1448813 
1865.423 1448735 1453024 1460904 1471429 1483478 1496096 1508450 1519848 
1869.280 1529340 1535662 1537214 1532424 1520349 1501484 1477908 1453341 
1873.137 1432123 1418163 1413493 1417712 1427679 1438823 1446146 1445986 
1876.995 1436844 1419811 1397797 1374771 1354303 1338875 1329298 1325079 
1880.852 1324406 1325214 1325364 1323364 1318473 1310789 1301118 1290731 
1884.710 1280621 1271375 1262696 1253741 1243519 1231815 1219477 1208830 
1888.567 1202700 1203845 1213327 1230086 1250475 1269569 1282152 1284669 
1892.425 1275921 1257846 1234537 1211426 1193666 1185046 1186953 1198433 
1896.282 1216016 1234907 1249649 1255757 1250680 1235000 1212143 1188004 
1900.139 1168866 1159698 1162215 1174600 1192037 1208624 1219347 1221864 
1903.997 1216539 1205674 1191526 1175132 1155640 1131737 1103129 1072730 
1907.854 1046591 1033070 1039409 1068893 1118302 1178542 1236607 1280354 
1911.712 1301823 1300375 1281838 1256416 1234476 1223021 1223645 1233175 
1915.569 1245126 1253108 1252502 1242024 1222934 1198147 1170518 1142214 
1919.427 1114164 1086695 1059724 1033548 1008468 985381 965194 949294 939046 
1923.766 935955 940819 953316 971370 991355 1008667 1019329 1020527 1012204 
1928.106 996113 975478 953229 931323 910317 890469 872543 859260 854916 
1932.445 864677 892429 939001 1000781 1070277 1137115 1191064 1223757 
1936.303 1231008 1212823 1173679 1120550 1062115 1006800 961962 932343 
1940.160 919914 923257 938111 958356 978036 992012 998382 997359 991180 
1944.500 982001 970725 956250 936399 908811 873678 833634 795024 765498 
1948.839 752468 760051 788449 833000 886413 939880 986268 1020638 1041644 
1953.179 1049802 1046929 1033606 1008928 969697 911811 832264 731636 615624 
1957.519 496706 391606 319569 296080 328616 412949 533570 666306 786024 
1961.858 871782 914098 915230 889296 856568 837815 847698 891656 963325 
1966.198 1047751 1123598 1170259 1172053 1124028 1032774 916563 800164 
1970.055 709972 665556 675473 733727 822923 919428 1002960 1061911 1099611 
1974.395 1130683 1177336 1259224 1386897 1555572 1747672 1935637 2092480 
1978.252 2197704 2244177 2236532 2188962 2118671 2042738 1973706 1919903 
1982.110 1884047 1865150 1857957 1856589 1854542 1848388 1837382 1824550 
1985.967 1813938 1808370 1806483 1801979 1784078 1741740 1666055 1556147 
1989.824 1418329 1266249 1115873 981740 872445 790676 733086 695122 673073 
1994.164 667176 680265 716248 776717 858621 952848 1046699 1125704 1178080 
1998.504 1195697 1177279 1125751 1048283 952725 847426 739127 633791 536182 
2002.843 450448 379476 326425 292509 280217 291283 328607 394959 491471 
2007.183 615121 758189 906016 1040782 1142787 1197714 1199473 1154375 
2011.040 1079112 999038 939610 921949 954987 1035247 1146083 1264459 1365325 
2015.380 1429443 1444858 1410484 1332424 1223171 1097626 971749 859399 
2019.237 772729 718504 698587 707366 733212 759935 771978 757297 713325 
2023.577 646063 570397 503841 463462 459666 495452 565272 659157 763574 
2027.917 866325 955757 1023598 1063549 1074517 1058703 1024605 984135 952666 
2032.256 943989 968110 1027369 1116885 1224615 1336496 1437200 1516245 
2036.114 1566504 1586761 1579462 1551071 1509138 1462968 1419073 1381486 
2039.971 1348029 1312263 1264024 1194431 1098616 980290 850306 726076 625137 
2044.311 562130 543617 569494 633161 726632 841800 972640 1112665 1253416 
2048.650 1382666 1485760 1549101 1565239 1534269 1466016 1375416 1280306 
2052.508 1195909 1133449 1097877 1089717 1104781 1137858 1182107 1231274 
2056.365 1278735 1318642 1346004 1359070 1358765 1350461 1341233 1338146 
2060.222 1344771 1360301 1378531 1390994 1389057 1367916 1327621 1273398 
2064.080 1213402 1156397 1109204 1076121 1057891 1053621 1060505 1075164 
2067.937 1093216 1110122 1121575 1124989 1119911 1109462 1098656 1093611 
2071.795 1098389 1113811 1135927 1158120 1172324 1172868 1157710 1129958 
2075.652 1095756 1063298 1039307 1028299 1031218 1046543 1070756 1099776 
2079.510 1129258 1155273 1174108 1182958 1179822 1165036 1140639 1110954 
2083.367 1081245 1056840 1041316 1036303 1040568 1051225 1064063 1075062 
2087.224 1080846 1079444 1069842 1052564 1028539 999455 966784 932051 895910 
2091.564 859207 822362 786850 754972 730803 719202 725229 752162 800460 
2095.904 866731 944631 1025550 1101534 1166336 1216981 1253195 1276756 
2099.761 1289637 1293314 1287561 1271590 1244192 1205942 1159117 1108691 
2103.618 1060936 1022791 999491 993994 1005429 1029931 1060898 1091118 
2107.476 1113707 1124199 1120687 1104301 1078371 1047563 1016646 989855 
2111.333 970269 959948 959233 967545 982690 1001576 1020268 1035083 1043285 
2115.673 1044516 1040244 1034218 1030169 1030744 1035365 1039959 1037263 
2119.530 1019157 978729 913322 825494 723171 617619 521452 445087 395363 
2123.870 373788 377335 398637 428230 455723 471700 468755 443178 394365 
2128.209 325911 243863 155978 69619 -9329 -77894 -134897 -181326 -217690 
2132.549 -244204 -259399 -261241 -247572 -218381 -175415 -123987 -71016 
2136.406 -25301 5154 13250 -4802 -49367 -115910 -196066 -278006 -350034 
2140.746 -402451 -431633 -440502 -438623 -438362 -451654 -484757 -537240 
2144.604 -601648 -667530 -724734 -768770 -800163 -825243 -850680 -882121 
2148.461 -920318 -962681 -1005178 -1046182 -1086841 -1132232 -1187102 
2151.836 -1254100 -1329805 -1407008 -1475531 -1528879 -1565608 -1592022 
2155.211 -1616462 -1644942 -1672871 -1681899 -1640097 -1513288 -1276672 
2158.587 -933620 -519866 -99109 260090 507496 629332 648594 616821 592138 
2162.926 624540 739190 932367 1171448 1406897 1585872 1668772 1637616 
2166.784 1501416 1288951 1041672 799700 594946 443851 348277 297266 273643 
2171.123 258042 234669 193535 132583 57688 -16604 -71218 -84141 -38163 74882 
2175.945 248119 459808 676590 862395 985919 1030008 993512 891741 749537 
2180.285 594333 447888 323191 222865 144091 82492 36868 9745 6571 30730 
2185.106 81960 154286 237358 318634 387130 434901 458865 460008 443611 
2189.446 417163 391598 378298 388848 431270 508016 613329 734251 852410 
2193.786 950055 1013537 1038619 1029635 998237 957310 917441 882743 851929 
2198.125 820576 785914 749141 717066 698923 702998 731756 780491 837698 
2202.465 889057 921916 929747 912801 878196 835121 793145 758026 732046 
2206.804 714230 702974 696268 693509 693645 695404 696190 693650 686564 
2211.144 676827 669588 672568 692671 733783 793379 863613 931915 986339 
2215.484 1018188 1025659 1013577 991628 970431 958484 959316 971903 991518 
2219.823 1013210 1032679 1048642 1061117 1071239 1078976 1083217 1081195 
2223.681 1071021 1052061 1027173 1001648 983233 978826 993340 1027339 
2227.538 1077222 1135458 1192916 1240581 1272324 1285550 1282271 1267038 
2231.396 1246079 1224621 1205652 1189113 1172883 1154149 1131440 1106082 
2235.253 1082766 1067622 1067538 1086291 1124011 1175718 1233062 1285826 
2239.110 1325352 1345829 1346171 1329008 1300077 1265674 1231455 1201048 
2242.968 1175894 1155347 1138136 1122732 1108762 1096555 1088054 1085014 
2246.825 1089026 1099741 1114861 1129613 1138154 1134907 1116398 1082806 
2250.683 1038818 991900 951545 925916 920260 935567 968715 1013614 1063582 
2255.022 1112501 1156677 1194401 1226091 1252881 1276219 1296608 1314257 
2258.880 1328207 1337406 1340591 1337385 1328285 1315629 1303349 1296396 
2262.737 1299544 1315794 1345032 1383891 1426139 1464942 1494691 1513428 
2266.594 1522551 1526735 1531294 1540436 1555545 1575337 1596632 1616518 
2270.452 1633327 1647421 1660199 1673237 1686604 1699020 1707978 1711697 
2274.309 1709868 1704594 1699549 1698743 1704565 1717145 1733854 1750827 
2278.167 1764106 1771573 1773255 1771538 1769975 1772488 1782242 1801623 
2282.024 1831552 1872082 1921946 1978547 2037992 2095525 2146015 2185511 
2285.882 2211649 2224440 2225544 2217837 2204013 2186038 2164772 2140635 
2289.739 2114067 2086132 2058488 2032931 2010446 1991064 1973296 1955238 
2293.596 1935184 1912754 1889174 1866883 1848631 1836218 1829861 1828068 
2297.454 1828040 1827114 1823363 1816539 1807937 1799835 1794703 1794482 
2301.311 1799881 1810493 1824699 1840288 1854852 1866305 1873261 1875497 
2305.169 1873936 1870545 1867612 1867286 1870566 1877306 1885833 1893990 
2309.026 1899609 1901643 1900441 1897772 1896163 1898080 1904901 1916715 
2312.884 1932088 1948979 1965074 1978949 1990242 1999906 2009707 2021753 
2316.741 2037572 2057788 2081826 2108287 2135669 2163225 2191672 2223321 
2320.598 2261158 2307521 2362113 2420744 2474984 2513549 2524931 2500407 
2324.456 2436771 2337249 2210951 2071032 1931565 1804907 1699377 1618340 
2328.313 1560474 1521383 1495456 1477796 1465192 1456313 1450895 1449079 
2332.171 1450570 1454547 1459741 1464937 1469242 1472174 1473554 1473457 
2336.028 1471963 1469314 1465956 1462684 1460369 1459671 1460806 1463340 
2339.885 1466135 1467932 1467652 1464909 1460047 1453970 1447640 1441812 
2343.743 1436595 1431771 1426818 1421525 1415938 1410397 1405358 1401042 
2347.600 1397292 1393754 1389907 1385522 1380787 1376225 1372616 1370608 
2351.458 1370502 1372134 1374911 1378125 1380889 1382421 1382111 1379484 
2355.315 1374340 1366774 1357244 1346579 1335626 1325120 1315347 1306102 
2359.173 1296664 1286264 1274317 1260894 1246526 1232184 1218695 1206460 
2363.030 1195252 1184334 1172897 1160451 1147280 1134366 1123185 1115290 
2366.887 1111791 1113024 1118470 1126932 1136787 1146352 1154153 1159264 
2370.745 1161430 1161173 1159709 1158713 1159862 1164297 1172233 1182862 
2374.602 1194356 1204693 1212137 1215895 1216397 1215018 1213575 1213797 
2378.460 1216603 1222161 1229820 1238695 1247759 1256347 1263965 1270421 
2382.317 1275552 1279527 1282504 1285074 1287838 1291418 1295977 1301209 
2386.175 1306308 1310488 1313396 1315567 1318430 1323970 1333802 1348676 
2390.032 1367617 1388424 1408014 1423720 1433810 1438134 1437837 1434870 
2393.889 1431018 1427502 1424756 1422605 1420703 1418977 1417370 1416086 
2397.747 1414985 1413828 1412034 1409353 1405896 1402471 1400149 1399914 
2401.604 1402107 1406260 1411109 1415428 1418456 1420557 1423007 1427613 
2405.462 1435745 1447695 1462150 1476742 1488655 1495727 1497135 1493905 
2409.319 1488139 1482817 1480319 1482219 1488763 1499006 1511281 1523724 
2413.177 1534584 1542494 1546472 1545928 1540455 1530123 1515200 1496675 
2417.034 1476002 1455438 1437599 1425157 1420348 1424238 1436486 1455204 
2420.891 1477072 1498367 1515524 1526354 1530143 1527727 1521000 1512029 
2424.749 1502224 1492237 1481685 1470118 1457383 1444081 1431566 1421519 
2428.606 1415114 1412613 1413032 1414700 1415715 1414959 1412317 1408971 
2432.464 1406702 1407431 1412171 1421073 1433061 1446381 1458897 1468776 
2436.321 1474477 1475383 1471376 1463396 1452825 1441734 1432263 1426327 
2440.178 1424856 1427809 1433911 1441329 1448175 1453433 1456969 1459941 
2444.036 1463776 1469829 1478456 1488928 1499454 1508193 1513679 1515688 
2447.893 1515024 1513356 1512469 1513680 1517280 1522758 1528989 1534777 
2451.751 1539166 1541769 1542575 1541913 1540113 1537529 1534481 1531399 
2455.608 1528571 1526263 1524234 1521891 1518168 1511849 1502108 1488960 
2459.466 1473454 1457730 1444207 1435045 1431358 1432829 1437715 1443604 
2463.323 1448089 1449705 1448118 1444437 1440207 1436987 1435214 1434335 
2467.180 1432536 1427911 1418933 1405768 1390187 1375615 1366201 1365821 
2471.038 1376686 1399003 1430281 1466338 1501789 1531496 1551377 1559457 
2474.895 1555950 1543148 1524769 1505245 1488588 1477768 1473944 1476470 
2478.753 1482943 1490019 1494283 1493174 1485781 1472993 1457360 1442348 
2482.610 1431108 1426076 1427887 1435878 1448246 1463014 1478600 1494385 
2486.468 1510330 1526784 1543657 1560146 1574493 1584588 1588644 1586072 
2490.325 1577931 1567151 1557572 1553326 1557145 1570082 1590435 1614850 
2494.182 1638660 1657489 1668144 1669608 1662910 1650868 1636991 1624807 
2498.040 1616695 1613831 1615991 1622271 1631286 1641929 1653266 1664810 
2501.897 1675914 1685845 1693346 1697067 1695675 1688273 1674523 1655089 
2505.755 1631168 1604613 1577465 1551914 1529999 1513532 1503710 1501108 
2509.612 1505165 1514308 1525876 1536868 1544412 1546667 1543300 1535624 
2513.469 1526140 1518003 1513969 1515831 1524133 1538246 1556713 1577762 
2517.327 1599517 1620327 1638481 1652443 1660784 1662552 1657368 1645951 
2521.184 1629791 1610913 1591312 1572486 1555004 1538867 1523769 1509779 
2525.042 1497540 1488554 1484436 1486611 1495390 1509997 1528272 1547746 
2528.899 1565769 1580545 1591221 1597955 1601509 1602963 1603218 1603182 
2532.757 1603419 1604585 1607037 1611040 1616366 1622385 1627911 1631649 
2536.614 1632505 1629966 1624192 1616086 1606724 1597367 1588698 1581035 
2540.471 1574086 1567545 1561018 1554515 1548514 1543682 1541035 1541558 
2544.329 1545953 1554643 1567245 1582899 1599991 1616475 1630193 1639359 
2548.186 1642832 1640614 1633639 1623780 1613251 1604321 1598596 1597106 
2552.044 1599844 1606152 1614746 1623988 1632289 1638292 1641161 1641032 
2555.901 1638798 1636159 1634980 1636897 1642503 1651063 1660538 1668314 
2559.759 1671710 1669347 1661351 1649571 1636935 1626535 1620664 1620289 
2563.616 1624834 1633053 1643466 1655402 1669061 1685496 1705670 1729907 
2567.473 1757173 1785148 1810615 1830480 1842533 1846186 1842350 1833249 
2571.331 1821460 1809434 1798826 1790700 1785474 1783469 1785007 1790560 
2575.188 1800259 1813865 1830228 1847416 1862910 1874166 1879094 1876648 
2579.046 1866989 1851515 1832613 1813255 1796526 1785182 1780935 1784275 
2582.903 1794130 1808033 1822248 1833023 1837099 1832985 1821301 1804894 
2586.760 1787988 1775100 1769674 1773131 1784458 1800663 1817730 1831954 
2590.618 1840863 1843806 1841949 1837430 1832559 1829163 1827939 1828690 
2594.475 1830349 1831790 1831720 1829368 1824235 1816336 1806179 1794717 
2598.333 1783382 1773882 1767860 1766621 1770467 1778813 1790113 1802409 
2602.190 1813816 1823135 1830082 1835286 1839993 1845483 1852835 1862620 
2606.048 1874894 1889387 1905485 1922567 1939798 1955991 1969827 1980044 
2609.905 1985620 1986435 1983289 1977907 1972372 1968570 1967375 1968381 
2613.762 1969969 1969945 1966465 1958867 1948022 1936337 1926958 1922868 
2617.620 1925851 1935982 1951677 1970188 1988513 2004260 2016152 2024187 
2621.477 2029175 2032386 2034857 2037186 2039401 2041342 2042762 2043819 
2625.335 2044832 2046421 2049189 2053552 2059513 2066956 2075387 2084265 
2629.192 2092862 2100568 2106642 2110438 2111500 2109843 2105869 2100533 
2633.050 2094929 2090274 2087324 2086363 2087128 2089075 2091627 2094527 
2636.907 2097686 2101408 2105842 2110777 2115677 2119770 2122171 2122531 
2640.764 2120976 2118350 2115831 2114567 2115265 2117926 2121872 2125864 
2644.622 2128635 2129086 2126572 2121137 2113217 2103812 2094011 2085065 
2648.479 2077948 2073340 2071376 2071601 2073149 2074841 2075522 2074432 
2652.337 2071365 2066667 2061092 2055478 2050408 2046071 2042153 2038109 
2656.194 2033329 2027373 2019991 2011156 2000892 1989300 1976387 1962270 
2660.052 1946966 1930745 1913784 1896264 1878230 1859600 1840277 1820303 
2663.909 1799986 1780032 1761303 1744712 1730952 1720253 1712359 1706812 
2667.766 1702959 1700351 1698693 1697834 1697647 1697827 1697990 1697588 
2671.624 1696277 1694014 1691049 1687886 1684918 1682319 1679844 1677063 
2675.481 1673390 1668556 1662614 1656103 1649680 1644029 1639545 1636330 
2679.339 1634167 1632768 1631981 1631725 1632037 1632853 1633939 1634936 
2683.196 1635257 1634496 1632490 1629428 1625751 1622127 1619152 1617258 
2687.053 1616754 1617703 1619998 1623432 1627707 1632336 1636696 1640270 
2690.911 1642599 1643562 1643314 1642233 1640790 1639175 1637296 1634819 
2694.768 1631336 1626666 1620961 1614911 1609412 1605332 1603128 1602852 
2698.626 1603891 1605565 1606967 1607698 1607595 1606912 1606101 1605607 
2702.483 1605730 1606570 1607955 1609505 1610691 1610933 1609593 1606335 
2706.341 1601104 1594398 1587127 1580499 1575560 1572867 1572310 1573163 
2710.198 1574244 1574651 1573893 1572334 1570865 1570652 1572462 1576468 
2714.055 1582007 1587930 1593045 1596519 1598271 1598801 1599030 1599789 
2717.913 1601533 1604191 1607096 1609527 1610845 1610683 1609086 1606337 
2721.770 1602947 1599382 1595971 1592998 1590500 1588476 1586818 1585424 
2725.628 1584185 1583056 1582218 1581949 1582604 1584523 1587799 1592323 
2729.485 1597700 1603492 1609186 1614505 1619313 1623554 1627154 1630002 
2733.343 1631841 1632551 1632178 1631125 1630089 1629706 1630508 1632560 
2737.200 1635321 1638073 1639898 1640371 1639344 1637258 1634674 1632090 
2741.057 1629569 1626863 1623428 1618832 1613082 1606631 1600390 1595326 
2744.915 1592132 1590954 1591336 1592463 1593361 1593336 1592140 1589863 
2748.772 1586911 1583701 1580563 1577562 1574690 1571816 1568905 1566094 
2752.630 1563568 1561634 1560437 1560119 1560623 1561821 1563547 1565569 
2756.487 1567693 1569671 1571306 1572367 1572744 1572482 1571664 1570632 
2760.344 1569730 1569309 1569777 1571155 1573432 1576341 1579426 1582198 
2764.202 1584219 1585191 1585068 1584045 1582492 1580984 1580117 1580439 
2768.059 1582498 1586631 1592922 1601178 1610785 1620760 1629789 1636541 
2771.917 1639796 1638935 1634052 1626000 1616205 1606266 1597685 1591431 
2775.774 1587784 1586532 1587162 1589050 1591788 1595142 1599039 1603412 
2779.632 1607974 1612370 1616095 1618747 1620148 1620448 1620009 1619421 
2783.489 1619280 1620141 1622217 1625612 1630065 1635072 1639968 1643986 
2787.346 1646517 1647326 1646703 1645489 1644958 1646367 1650532 1657547 
2791.204 1666524 1675927 1684011 1689387 1691471 1690609 1687991 1685184 
2795.061 1683484 1683821 1686385 1690922 1696974 1704166 1712234 1721049 
2798.919 1730262 1739320 1747308 1753265 1756533 1757014 1755376 1752834 
2802.776 1750931 1751034 1753946 1759724 1767843 1777322 1787249 1796925 
2806.634 1805907 1814137 1821587 1828293 1834114 1838907 1842597 1845181 
2810.491 1846935 1848254 1849592 1851423 1854096 1857801 1862682 1868842 
2814.348 1876434 1885695 1896789 1909849 1924725 1941097 1958254 1975324 
2818.206 1991310 2005311 2016706 2025181 2030847 2034178 2035866 2036717 
2822.063 2037493 2038868 2041271 2044892 2049731 2055363 2061063 2065927 
2825.921 2068965 2069403 2067013 2062279 2056542 2051576 2049266 2051169 
2829.778 2057773 2068661 2082348 2096957 2110571 2121975 2130682 2137148 
2833.635 2142298 2147249 2152966 2160100 2169130 2180258 2193687 2209581 
2837.493 2227875 2248380 2270582 2294145 2318834 2345155 2374369 2408389 
2841.350 2449458 2499644 2560567 2633316 2718642 2817317 2930520 3059785 
2845.208 3206351 3370181 3548799 3736435 3923989 4099590 4250554 4365210 
2849.065 4435141 4456453 4430505 4363097 4263309 4141781 4008913 3873843 
2852.923 3743513 3622602 3513732 3417842 3334654 3262984 3201196 3147435 
2856.780 3099852 3056890 3017294 2980132 2944900 2911265 2879015 2848053 
2860.637 2818290 2789871 2763030 2738386 2716646 2698704 2685449 2677554 
2864.495 2675541 2679492 2689237 2704409 2724501 2749029 2777524 2809748 
2868.352 2845606 2885126 2928339 2975360 3026145 3080380 3137534 3196822 
2872.210 3257202 3317563 3376798 3433977 3488430 3539807 3588028 3633191 
2876.067 3675471 3715129 3752296 3786981 3819062 3848407 3874620 3897382 
2879.925 3916149 3930404 3939660 3943670 3942457 3936544 3926814 3914518 
2883.782 3900762 3886479 3872075 3857353 3841779 3824704 3805682 3784863 
2887.639 3762838 3740750 3719793 3701119 3685438 3673176 3664401 3659046 
2891.497 3657042 3658234 3662297 3668711 3676587 3684931 3692832 3699838 
2895.354 3706125 3712444 3719842 3729409 3741698 3756742 3774048 3793016 
2899.212 3813248 3834799 3858113 3883728 3911807 3941943 3972949 4003248 
2903.069 4031279 4056237 4078235 4098296 4118017 4139131 4162962 4190388 
2906.927 4221971 4258235 4300062 4348969 4406801 4475442 4556617 4651492 
2910.784 4760669 4884441 5022846 5175752 5342629 5521860 5710358 5903243 
2914.641 6093849 6274480 6437324 6575726 6685043 6763106 6810094 6828125 
2918.499 6820336 6790369 6741956 6678603 6603908 6521500 6435087 6348360 
2922.356 6264584 6186356 6115349 6052293 5997038 5949029 5907461 5871792 
2926.214 5841743 5817428 5799158 5787343 5782235 5783856 5792019 5806434 
2930.071 5826676 5852612 5884134 5921503 5965023 6015171 6072469 6137591 
2933.928 6211298 6294734 6389045 6495860 6616574 6752591 6904468 7072331 
2937.786 7255026 7450761 7656617 7869053 8083973 8296867 8503217 8698611 
2941.643 8879143 9041547 9183505 9303744 9401710 9477486 9531508 9564094 
2945.501 9575620 9566132 9535731 9484705 9413746 9324029 9217360 9096083 
2949.358 8962873 8820703 8672655 8521658 8370428 8221292 8075905 7935407 
2953.216 7800197 7670208 7544879 7423553 7305519 7190259 7077612 6967728 
2957.073 6861025 6758168 6659788 6566261 6477599 6393297 6312413 6233840 
2960.930 6156546 6080005 6004390 5930686 5860372 5795168 5736342 5684658 
2964.788 5639833 5601013 5566717 5535548 5506336 5478402 5451492 5425687 
2968.645 5401345 5378651 5357831 5338936 5321975 5307021 5293922 5282685 
2972.503 5273109 5265212 5259191 5255436 5254779 5258320 5267264 5282742 
2976.360 5305614 5336401 5375154 5421758 5475960 5537617 5606611 5682976 
2980.218 5766584 5857277 5954546 6058025 6167255 6282307 6403850 6533300 
2984.075 6672787 6824837 6991810 7175376 7375971 7592412 7822081 8061223 
2987.932 8305458 8550590 8793025 9030007 9259198 9478479 9685461 9877113 
2991.790 10050051 10200997 10327392 10427876 10502583 10552831 10580607 
2995.165 10587865 10575992 10545893 10497846 10432407 10350589 10254000 
2998.540 10144854 10025369 9897413 9762041 9619610 9470034 9313007 9148721 
3002.398 8977707 8800978 8619675 8434999 8247879 8059117 7869597 7680274 
3006.255 7492359 7307027 7125449 6948291 6775856 6607955 6444261 6284385 
3010.113 6127915 5974572 5824061 5675949 5529677 5384999 5241685 5100247 
3013.970 4961522 4826911 4697863 4575503 4460559 4353077 4252434 4157718 
3017.827 4067744 3981310 3897284 3814709 3732766 3651033 3569575 3488962 
3021.685 3410255 3334846 3263840 3198075 3137606 3081864 3029769 2980281 
3025.542 2932581 2886563 2842505 2801019 2762513 2727069 2694143 2662791 
3029.400 2631827 2600460 2568477 2536532 2505783 2477806 2453857 2434573 
3033.257 2419431 2407019 2395065 2381214 2363686 2341924 2316884 2290981 
3037.115 2267429 2249432 2239101 2236855 2241071 2248628 2255510 2258020 
3040.972 2253582 2241414 2222345 2198568 2172729 2147388 2124524 2105192 
3044.829 2089865 2078552 2071100 2067277 2066814 2069305 2074012 2080034 
3048.687 2086355 2092094 2096654 2099922 2102112 2103677 2105057 2106315 
3052.544 2107182 2106970 2104640 2099329 2090397 2077865 2062358 2045213 
3056.402 2028085 2012867 2000998 1993405 1990170 1990772 1993977 1998274 
3060.259 2002120 2004257 2003780 2000471 1994483 1986722 1978237 1970338 
3064.116 1964012 1959932 1958045 1957652 1957589 1956629 1953822 1948911 
3067.974 1942358 1935237 1928876 1924258 1921939 1921756 1923131 1925395 
3071.831 1928082 1931153 1934916 1939889 1946197 1953727 1961787 1969559 
3075.689 1976114 1981028 1984069 1985343 1984857 1982559 1977953 1970559 
3079.546 1959986 1946521 1930858 1914426 1898756 1885289 1874855 1867814 
3083.404 1863942 1862928 1864494 1868496 1874883 1883502 1893669 1904337 
3087.261 1913952 1921142 1924774 1924461 1920650 1914325 1906742 1899115 
3091.118 1892099 1886098 1881011 1876826 1873564 1871663 1871571 1873723 
3094.976 1878299 1884967 1893000 1901442 1909200 1915607 1920237 1923118 
3098.833 1924511 1924831 1924297 1923096 1921154 1918618 1915695 1912897 
3102.691 1910817 1910176 1911328 1914336 1918547 1922987 1926302 1927322 
3106.548 1925115 1919379 1910341 1898784 1885814 1872810 1860952 1851369 
3110.406 1844740 1841463 1841393 1843988 1848246 1853070 1857258 1859846 
3114.263 1860134 1858058 1853825 1848022 1841337 1834546 1828392 1823429 
3118.120 1820005 1818422 1818358 1819424 1820785 1821611 1821138 1819344 
3121.978 1816700 1814391 1813885 1816566 1823077 1833117 1845248 1857499 
3125.835 1867718 1874454 1877180 1876587 1874229 1871996 1871528 1873551 
3129.693 1877708 1882687 1886553 1887380 1883768 1875461 1863345 1849457 
3133.550 1836324 1826524 1821774 1822728 1828420 1837031 1845940 1852914 
3137.407 1856412 1856234 1853178 1848803 1844638 1841705 1840216 1839739 
3141.265 1839442 1838701 1837379 1835993 1835325 1836166 1838887 1843382 
3145.122 1848935 1854701 1859931 1864221 1867635 1870597 1873569 1876996 
3148.980 1880912 1885167 1889297 1892687 1894586 1894293 1891227 1885152 
3152.837 1876279 1865382 1853635 1842648 1833692 1827944 1825659 1826690 
3156.695 1830245 1835464 1841470 1847595 1853372 1858460 1862606 1865661 
3160.552 1867601 1868725 1869424 1870123 1870993 1871798 1871797 1870138 
3164.409 1866235 1860291 1853314 1847090 1843310 1843048 1846073 1850928 
3168.267 1855306 1857206 1855562 1850980 1845385 1841354 1840920 1844864 
3172.124 1852079 1860351 1866952 1869858 1868447 1863571 1857084 1851074 
3175.982 1846919 1845055 1845026 1846010 1847475 1849559 1852999 1858896 
3179.839 1867966 1880308 1894963 1910285 1924225 1934973 1941297 1942640 
3183.697 1939307 1932027 1922016 1910665 1899312 1889272 1881510 1876699 
3187.554 1875003 1876314 1880057 1885600 1892216 1899263 1906108 1912303 
3191.411 1917373 1921030 1923197 1924227 1924615 1925012 1925969 1927633 
3195.269 1929684 1931554 1932468 1932137 1930656 1928906 1927961 1929143 
3199.126 1933153 1940227 1949799 1960911 1972308 1982933 1991777 1998266 
3202.984 2001861 2002227 1999201 1992889 1983753 1972838 1961360 1950784 
3206.841 1942286 1936781 1934561 1935477 1939002 1944436 1950940 1957737 
3210.698 1963997 1969007 1972249 1973570 1973079 1971388 1969168 1967066 
3214.556 1965428 1964156 1962776 1960963 1958598 1956244 1954937 1956160 
3218.413 1961027 1969995 1982504 1996879 2010891 2022007 2028331 2028905 
3222.271 2023847 2014325 2001897 1988426 1975256 1963448 1953470 1945602 
3226.128 1939790 1936243 1934885 1935749 1938510 1942617 1947084 1951085 
3229.986 1953775 1954826 1954412 1953282 1952303 1952247 1953320 1955088 
3233.843 1956543 1956660 1954572 1950255 1944426 1938486 1933904 1931886 
3237.700 1932501 1935051 1937907 1939305 1937733 1932655 1924464 1914616 
3241.558 1905026 1897906 1894846 1896902 1904156 1915845 1930405 1945745 
3245.415 1959531 1969833 1975285 1975655 1971802 1965570 1959030 1954148 
3249.273 1951872 1952053 1953511 1954641 1953981 1951027 1946291 1941258 
3253.130 1937645 1936905 1939466 1944673 1951051 1956808 1960521 1961665 
3256.988 1960500 1958131 1955718 1954343 1954468 1955940 1958212 1960495 
3260.845 1961957 1962039 1960378 1957139 1952748 1948104 1944522 1943505 
3264.702 1946248 1953358 1964309 1977383 1989846 1998615 2001138 1996151 
3268.560 1984223 1967646 1949870 1934572 1924444 1920861 1923364 1930284 
3272.417 1939163 1948013 1955436 1961167 1965526 1969281 1972926 1976739 
3276.275 1980463 1983793 1986486 1988551 1990275 1991890 1993417 1994856 
3280.132 1995799 1996137 1995956 1995775 1996366 1998303 2001652 2005752 
3283.990 2009445 2011330 2010466 2006886 2001429 1995748 1991414 1989310 
3287.847 1989215 1989948 1989632 1986775 1980733 1972214 1962964 1955247 
3291.704 1950725 1950214 1953088 1957798 1962344 1965353 1966261 1965674 
3295.562 1964822 1965186 1967611 1972152 1977901 1983342 1986923 1987501 
3299.419 1984666 1978826 1970967 1962340 1954033 1946811 1940929 1936399 
3303.277 1933010 1930696 1929624 1930216 1932929 1938184 1945839 1955385 
3307.134 1965467 1974586 1980930 1983252 1980940 1974481 1965062 1954675 
3310.991 1945341 1938941 1936487 1938193 1943248 1950173 1957035 1962028 
3314.849 1963727 1961653 1956292 1949103 1942124 1937605 1937152 1941645 
3318.706 1950431 1961917 1973575 1982906 1987845 1987543 1982230 1973390 
3322.564 1962874 1952747 1944469 1938836 1935812 1934854 1935146 1936052 
3326.421 1937170 1938546 1940480 1943443 1947793 1953564 1960422 1967505 
3330.279 1973662 1977617 1978295 1975135 1968258 1958503 1947380 1936591 
3334.136 1927758 1922226 1920601 1922961 1928661 1936636 1945353 1953155 
3337.993 1958380 1959650 1956244 1948351 1937137 1924687 1913524 1906016 
3341.851 1903699 1906992 1914865 1925388 1936174 1945111 1950828 1952962 
3345.708 1951952 1948806 1944625 1940309 1936520 1933707 1932097 1931813 
3349.566 1932631 1934135 1935369 1935187 1932528 1926932 1918644 1909150 
3353.423 1900442 1894849 1894109 1899009 1908912 1922220 1936514 1949506 
3357.281 1959357 1965287 1967250 1966100 1962908 1958925 1955178 1952378 
3361.138 1950864 1950748 1951852 1953837 1956252 1958712 1960789 1962392 
3364.995 1963159 1962988 1961393 1957910 1951780 1942664 1930493 1916024 
3368.853 1900569 1885970 1874185 1866728 1864337 1866934 1873662 1883391 
3372.710 1894979 1907704 1921046 1934868 1948774 1962141 1973995 1983279 
3376.568 1989107 1991115 1989698 1985977 1981371 1977477 1975479 1976158 
3380.425 1979482 1985101 1992084 1999330 2005500 2009342 2009742 2006255 
3384.282 1999005 1989230 1978861 1970252 1965450 1965696 1970639 1978632 
3388.140 1986810 1992134 1992008 1985256 1972208 1954672 1935323 1916996 
3391.997 1901831 1891125 1884927 1882507 1882479 1883384 1884050 1883828 
3395.855 1882728 1881537 1881587 1884510 1891631 1903646 1920080 1939237 
3399.712 1958527 1975107 1986738 1992536 1992887 1989720 1985134 1981039 
3403.570 1977971 1975257 1971146 1963823 1952462 1937760 1922026 1908862 
3407.427 1901665 1902906 1913196 1931030 1953323 1976198 1995979 2009892 
3411.284 2016466 2015502 2007662 1994273 1976779 1956772 1935845 1915648 
3415.142 1897741 1883785 1874985 1872177 1875514 1884517 1898018 1914302 
3418.999 1931142 1946393 1957931 1964224 1964661 1959597 1950465 1939493 
3422.857 1929208 1921954 1919409 1922254 1930065 1941719 1955378 1969260 
3426.714 1981664 1991448 1997736 2000273 1998966 1994203 1986457 1976429 
3430.572 1964821 1952451 1940020 1928231 1917616 1908830 1902208 1898234 
3434.429 1897037 1898722 1902965 1909239 1916911 1925404 1934292 1943448 
3438.286 1952850 1962659 1972828 1983083 1992740 2000956 2006852 2009757 
3442.144 2009311 2005673 1999086 1990001 1978739 1965429 1950127 1933145 
3446.001 1914889 1896525 1879547 1865827 1857054 1854434 1858164 1867507 
3449.859 1880673 1895430 1909404 1920766 1928587 1933063 1935233 1936871 
3453.716 1939888 1945910 1955852 1969846 1987140 2006239 2025380 2042532 
3457.573 2055870 2064032 2066190 2062446 2053519 2041174 2027559 2015278 
3461.431 2006586 2003274 2006041 2014599 2027637 2043310 2059663 2075219 
3465.288 2089057 2101085 2111451 2120540 2128396 2134798 2139104 2141045 
3469.146 2140690 2138935 2137296 2137605 2141343 2149177 2160655 2174225 
3473.003 2187766 2199372 2207643 2212458 2214436 2215059 2215670 2217438 
3476.861 2220879 2226074 2232768 2240984 2250641 2262104 2275280 2290087 
3480.718 2305837 2321897 2337599 2352921 2368343 2384848 2403459 2424868 
3484.575 2448774 2474286 2499798 2523771 2545064 2563392 2579131 2593170 
3488.433 2606251 2618889 2630967 2642236 2652322 2661516 2670501 2680643 
3492.290 2693179 2709277 2729200 2752560 2778229 2804734 2830615 2854571 
3496.148 2875775 2893753 2908111 2918694 2925264 2927676 2925917 2920351 
3500.005 2911699 2901189 2890345 2880966 2874682 2872795 2875840 2883629 
3503.863 2895135 2908894 2923061 2936226 2947287 2955913 2962029 2966097 
3507.720 2968283 2968667 2967119 2963484 2957655 2949951 2940799 2930921 
3511.577 2920709 2910483 2899946 2888885 2877063 2864693 2852379 2841072 
3515.435 2831613 2824538 2819395 2815081 2809698 2801216 2787744 2768265 
3519.292 2742585 2711822 2677840 2643179 2610559 2582433 2560500 2545530 
3523.150 2537060 2533692 2533243 2533602 2532832 2529877 2524404 2516909 
3527.007 2508083 2498578 2488714 2478492 2467792 2456614 2445304 2434574 
3530.865 2425149 2417587 2411974 2407750 2403846 2399085 2392502 2383576 
3534.722 2372269 2359009 2344260 2328651 2312481 2296285 2280573 2266238 
3538.579 2254079 2245057 2239592 2237672 2238583 2241210 2244241 2246738 
3542.437 2247961 2248004 2247298 2246377 2245741 2245451 2245041 2243785 
3546.294 2240740 2235345 2227421 2217588 2207180 2198022 2191975 2190460 
3550.152 2193955 2201973 2212835 2224332 2233983 2239923 2241171 2237963 
3554.009 2231469 2223576 2216230 2211153 2209612 2212159 2218807 2229044 
3557.866 2241832 2255869 2269383 2280653 2288012 2290441 2287518 2279709 
3561.724 2268091 2254134 2239062 2223867 2208825 2194008 2179536 2165923 
3565.581 2154213 2146166 2143449 2147525 2158614 2175737 2196223 2216599 
3569.439 2232698 2240931 2238990 2226269 2204281 2176373 2146938 2120790 
3573.296 2101898 2092784 2094015 2104093 2120047 2138156 2154662 2166705 
3577.154 2172609 2172157 2166139 2156199 2144202 2131962 2120802 2111768 
3581.011 2105437 2102173 2102059 2105193 2111252 2119877 2130177 2141131 
3584.868 2151365 2159423 2164291 2165438 2162982 2157741 2150788 2143230 
3588.726 2135502 2127470 2118244 2106736 2092249 2074672 2054910 2034626 
3592.583 2015775 2000116 1988687 1981766 1979005 1979704 1983215 1988851 
3596.441 1995912 2003507 2010053 2013836 2013055 2006658 1994498 1977951 
3600.298 1959154 1940742 1924935 1913125 1905528 1901771 1900938 1902426 
3604.156 1905605 1910140 1915546 1921099 1925867 1929125 1930774 1931722 
3608.013 1933408 1937903 1946467 1959247 1974903 1990951 2004424 2013115 
3611.870 2015977 2013737 2008320 2002428 1998512 1998499 2003133 2012305 
3615.728 2025169 2040331 2056142 2070903 2083045 2091631 2096491 2098751 
3619.585 2100100 2102823 2108367 2117038 2127329 2136382 2140937 2138496 
3623.443 2128352 2112352 2094099 2078264 2068816 2068106 2076123 2090828 
3627.300 2108778 2126747 2142078 2154001 2162869 2170301 2177772 2186587 
3631.157 2197076 2208873 2221041 2232810 2243557 2253282 2262509 2272253 
3635.015 2283367 2296527 2311561 2327774 2343699 2357857 2368801 2375919 
3638.872 2379281 2379621 2378075 2375782 2373648 2372395 2372697 2375363 
3642.730 2381288 2391554 2406505 2426009 2448477 2471714 2493095 2510483 
3646.587 2522857 2530680 2535411 2539173 2543648 2549697 2557075 2565007 
3650.445 2572636 2579749 2586644 2594291 2603429 2614255 2625798 2636581 
3654.302 2644574 2648309 2647169 2641680 2633358 2624295 2616473 2611521 
3658.159 2610227 2612776 2618704 2626962 2636136 2644696 2650915 2653632 
3662.017 2652045 2646163 2636542 2624240 2610184 2595373 2580275 2565582 
3665.874 2551590 2539348 2529511 2522918 2519423 2518112 2516899 2513364 
3669.732 2505048 2490815 2470760 2446862 2422072 2399614 2382081 2370794 
3673.589 2365522 2364906 2366353 2367319 2365157 2357964 2344565 2324871 
3677.447 2299612 2270531 2239755 2209866 2183176 2161488 2145445 2134998 
3681.304 2129036 2126063 2124302 2122379 2119170 2114105 2106997 2098070 
3685.161 2087595 2076042 2063731 2051134 2038250 2025277 2012438 2000103 
3689.019 1988880 1979697 1973309 1970336 1970594 1973439 1977473 1981089 
3692.876 1982759 1981507 1976995 1969521 1959678 1948446 1936790 1926024 
3696.734 1917499 1912791 1913350 1920109 1933022 1951075 1972163 1993742 
3700.591 2013505 2029823 2042122 2050687 2056123 2058851 2058895 2055869 
3704.448 2049349 2039646 2027590 2015023 2003858 1995912 1992142 1992762 
3708.306 1997189 2004515 2013946 2024688 2035719 2045633 2052411 2053836 
3712.163 2048074 2034488 2014110 1989905 1965810 1945972 1933243 1928860 
3716.021 1931889 1939940 1950014 1959380 1966218 1970002 1971093 1970488 
3719.878 1969146 1967917 1967174 1967179 1967971 1969661 1972376 1976565 
3723.736 1982666 1991167 2002069 2014975 2028472 2040673 2048965 2051356 
3727.593 2046643 2035313 2019352 2001900 1986184 1974581 1967893 1965482 
3731.450 1965448 1965903 1965330 1963356 1960204 1956426 1952045 1946586 
3735.308 1939310 1930053 1919618 1910420 1905630 1908407 1920496 1941577 
3739.165 1968898 1998400 2025443 2046462 2059265 2063561 2059947 2049802 
3743.023 2034293 2014738 1992305 1968928 1946904 1928644 1916271 1910791 
3746.880 1912192 1919448 1931079 1945994 1963176 1982251 2002503 2022775 
3750.738 2041053 2055084 2062813 2063569 2058130 2049076 2039466 2032310 
3754.595 2029133 2030023 2033408 2037336 2039753 2039599 2036608 2031436 
3758.452 2024838 2017696 2010540 2004051 1999011 1996404 1997265 2002038 
3762.310 2010232 2020474 2030415 2037771 2040823 2039253 2033994 2027143 
3766.167 2020858 2017061 2016498 2019259 2024548 2031633 2039871 2049085 
3770.025 2058935 2068901 2077947 2084642 2087402 2085238 2078137 2067387 
3773.882 2054989 2043565 2035189 2030979 2030833 2033499 2037243 2040468 
3777.740 2042300 2042953 2043328 2044552 2047362 2051554 2055684 2057647 
3781.597 2054991 2046092 2030518 2009434 1985518 1962132 1942728 1930122 
3785.454 1925736 1929801 1941204 1958274 1978754 2000714 2022276 2042232 
3789.312 2059526 2073813 2084836 2092631 2097057 2097960 2094880 2087434 
3793.169 2075469 2059518 2040967 2022033 2005234 1992989 1986687 1986417 
3797.027 1990846 1997695 2004457 2009119 2010483 2008534 2004175 1998707 
3800.884 1993531 1989832 1988490 1990095 1994861 2002716 2012983 2024620 
3804.741 2036043 2045746 2052414 2055508 2055258 2052453 2048166 2043239 
3808.599 2037826 2031785 2024746 2016837 2008543 2001167 1996129 1994515 
3812.456 1996417 2001068 2006705 2011396 2013352 2011713 2006414 1998312 
3816.314 1988557 1978276 1968376 1959461 1951810 1945746 1941485 1939323 
3820.171 1939478 1942130 1947230 1954586 1963802 1974392 1985550 1996339 
3824.029 2005682 2012733 2017001 2018410 2017510 2014992 2011602 2007555 
3827.886 2002712 1996815 1989697 1982167 1975598 1972046 1973258 1980069 
3831.743 1991560 2005355 2018075 2026286 2027685 2021691 2009433 1993353 
3835.601 1975921 1959309 1944547 1931930 1921150 1912066 1904806 1899912 
3839.458 1898028 1899656 1904682 1912747 1923223 1935491 1949051 1963504 
3843.316 1977924 1991330 2002034 2008473 2009382 2004515 1994372 1980731 
3847.173 1965489 1950735 1937978 1928172 1921847 1919443 1921348 1928054 
3851.031 1939590 1955557 1974732 1995155 2014460 2030620 2042183 2048734 
3854.888 2050645 2048936 2044589 2038442 2031092 2022977 2014678 2006909 
3858.745 2000471 1996075 1993944 1994038 1995762 1998445 2001466 2004564 
3862.603 2007651 2010907 2014384 2018095 2021793 2025415 2028986 2032857 
3866.460 2037389 2042960 2049428 2056221 2062173 2065882 2066257 2062932 
3870.318 2056296 2047763 2038982 2031575 2026531 2024082 2023554 2023806 
3874.175 2023318 2020867 2015635 2007374 1996474 1983895 1970923 1959418 
3878.032 1951070 1947543 1949917 1958585 1972693 1990474 2009120 2025689 
3881.890 2037409 2042570 2040767 2032960 2021309 2008314 1996164 1986239 
3885.747 1978501 1971881 1964699 1955445 1943387 1929073 1914248 1901545 
3889.605 1893649 1892827 1900166 1915474 1936981 1962123 1987588 2010100 
3893.462 2026641 2035261 2034913 2026114 2010613 1991309 1971637 1955084 
3897.320 1944158 1940075 1942288 1948944 1957300 1964744 1969419 1970865 
3901.177 1969670 1967403 1965776 1965692 1967400 1970181 1972871 1974398 
3905.034 1974157 1972333 1969552 1966652 1964041 1961677 1958946 1955231 
3908.892 1950180 1944249 1938658 1935372 1936280 1942928 1955700 1973919 
3912.749 1995580 2018273 2039307 2056320 2067706 2072569 2070803 2063007 
3916.607 2050205 2034013 2016334 1999284 1984910 1974921 1970395 1971491 
3920.464 1977319 1986170 1995721 2003684 2008007 2007859 2003476 1996435 
3924.322 1989156 1984375 1984303 1990073 2001084 2015323 2029645 2040799 
3928.179 2046239 2044949 2037427 2025582 2012022 1999172 1988585 1981001 
3932.036 1976302 1974026 1974018 1976330 1981055 1988195 1997171 2006584 
3935.894 2014694 2019876 2020929 2017770 2011140 2002131 1991893 1980993 
3939.751 1969523 1957431 1944887 1932777 1922566 1916025 1914543 1918648 
3943.609 1927722 1940367 1954655 1968790 1981342 1991398 1998044 2000484 
3947.466 1997884 1989976 1977475 1962536 1948627 1939852 1939520 1949182 
3951.323 1967760 1991854 2016660 2037525 2051452 2057841 2058317 2055929 
3955.181 2053580 2053207 2054983 2057860 2059995 2060007 2057365 2052678 
3959.038 2047154 2042372 2039248 2038421 2039586 2042171 2045369 2048275 
3962.896 2049839 2049199 2045660 2039024 2029808 2019407 2009789 2003067 
3966.753 2000717 2003368 2010061 2018938 2027432 2033347 2035098 2032444 
3970.611 2026128 2017602 2008421 2000117 1993423 1988738 1986023 1985199 
3974.468 1985986 1988505 1992743 1998781 2006594 2015955 2026333 2036940 
3978.325 2046790 2054908 2060507 2063159 2062768 2059855 2055045 2049327 
3982.183 2043621 2038955 2036304 2036630 2040657 2048772 2060524 2074711 
3986.040 2089224 2101749 2110052 2112956 2110429 2103863 2095368 2087220 
3989.898 2080823 2076605 2073658 2070589 2065914 2058775 2049493 2039272 
3993.755 2029878 2023121 2020446 2022498 2028984 2039088 2051285 2063687 
3997.613 2074230 2081183 2083298 2080317 2073125 2063665 2054539 
##END=
