##TITLE=Tecor_ABS_White_Filament_r6_ATR-Corrected
##JCAMP-DX=5.01  $$ Nicolet v. 1
##DATATYPE=INFRARED SPECTRUM
##ORIGIN=Curtin University
##OWNER=Nicolet
##LONGDATE=2024/07/19
##TIME=16:39:26
##SPECTROMETER/DATA SYSTEM=Nicolet iS50
##DATA PROCESSING=
Ratio against background
%Transmittance->Absorbance
ATR Correction
Truncated
ElementMultiply or ElementDivide
##COMMENTS=
Number of sample scans: 32
Collection length: 47.28 sec
Sample gain: 1.0
Background collected on: Fri Jul 19 16:38:25 2024 (GMT+08:00);
Number of background scans: 32
Background gain: 1.0
Sample spacing:  1.000
Number of scan points: 16672
Resolution points: 8192
Number of FFT points: 65536
Apodization: N-B strong;
Phase correction: Mertz;
Laser frequency: 15798.3 cm-1
Number of rejected sample scans: 0
Number of rejected background scans: 0
Bench serial number: AUP1200105;
##RESOLUTION=4.000
##XUNITS=1/CM
##YUNITS=ABSORBANCE
##FIRSTX=400.163452
##LASTX=4000.187744
##FIRSTY=0.011048
##MAXX=4000.187744
##MINX=400.163452
##MAXY=0.459463
##MINY=-0.006168
##XFACTOR=1.000000
##YFACTOR=1.000000E-009
##NPOINTS=7468
##DELTAX=0.482125
##ZPD=8192
##XYDATA=(X++(Y..Y))
400.163 11048232 11464687 11855418 12198174 12457030 12593646 12580800 
403.538 12414831 12120411 11750570 11379063 11085184 10936243 10967731 
406.913 11169889 11485911 11822182 12071230 12139766 11973619 11573602 
410.288 10995272 10334343 9700811 9192671 8876441 8780995 8901014 9207043 
414.145 9654742 10189884 10752974 11279764 11707197 11982539 12073599 
417.520 11977305 11722036 11360594 10955592 10562937 10219961 9940614 
420.894 9720738 9548572 9415322 9319367 9265776 9259688 9300629 9378825 
424.751 9477424 9577689 9664734 9730753 9774306 9797990 9805284 9801595 
428.608 9795912 9804370 9849410 9955143 10138470 10399321 10715721 11045886 
432.465 11340016 11553132 11657985 11651086 11552048 11394399 11215570 
435.840 11047468 10911298 10818476 10773133 10775739 10824525 10914198 
439.215 11036074 11177948 11327205 11474720 11616540 11752874 11883173 
442.590 12000439 12089020 12129063 12104990 12018181 11893253 11776567 
445.965 11723305 11777630 11954546 12230650 12549765 12840275 13039929 
449.339 13116855 13077888 12962773 12826496 12719392 12671004 12686542 
452.714 12752959 12850293 12963590 13086620 13219424 13361221 13504325 
456.089 13633266 13730103 13783250 13794247 13779012 13761737 13764167 
459.464 13794922 13844840 13889669 13899010 13848676 13729231 13549519 
462.839 13333977 13113943 12921087 12781109 12711459 12721247 12812065 
466.213 12977637 13203376 13465315 13732851 13973298 14158340 14271060 
469.588 14308793 14282539 14212073 14119532 14023666 13936273 13862253 
472.963 13801869 13752709 13711132 13672801 13632241 13583712 13523880 
476.338 13454814 13387157 13338990 13331816 13383396 13499051 13667420 
479.713 13860457 14040625 14171315 14228363 14208097 14128339 14022908 
483.088 13930180 13881561 13891633 13954631 14047577 14138662 14197909 
486.462 14205955 14159508 14070631 13961447 13856361 13773244 13718189 
489.837 13684562 13656940 13618062 13557810 13478833 13398743 13345576 
493.212 13350547 13436751 13611278 13860825 14153845 14448362 14702456 
496.587 14884674 14980951 14995890 14949141 14868322 14780236 14705451 
499.962 14655125 14632151 14634993 14661536 14711475 14786430 14886795 
503.336 15008540 15141297 15268682 15372823 15440731 15470282 15473477 
506.711 15474920 15505007 15590598 15746115 15968585 16239107 16530018 
510.086 16814574 17075700 17309974 17525044 17733054 17942532 18154516 
513.461 18363546 18564740 18762648 18976806 19240772 19592916 20062212 
516.836 20654724 21346644 22088812 22819954 23487480 24064614 24560540 
520.211 25016454 25491636 26042928 26705760 27483846 28350186 29259278 
523.585 30163140 31026728 31836398 32599006 33332788 34057132 34782184 
526.960 35504888 36211592 36885784 37516776 38105568 38665912 39219528 
530.335 39787604 40382388 41002328 41631916 42248164 42829624 43365920 
533.710 43863112 44343160 44837216 45375212 45974932 46636120 47338976 
537.085 48050380 48733232 49356204 49900884 50362544 50746920 51064568 
540.459 51324912 51534612 51697588 51818064 51902296 51958616 51994640 
543.834 52013600 52011708 51978704 51902504 51775612 51600488 51391304 
547.209 51171040 50963296 50784092 50635452 50503756 50364224 50189136 
550.584 49957088 49659100 49301068 48900284 48479956 48062424 47664732 
553.959 47296476 46960448 46653824 46370208 46100504 45833120 45556052 
557.333 45258304 44932872 44578984 44203928 43822076 43451428 43109388 
560.708 42807764 42549784 42329080 42132028 41941996 41743988 41527940 
564.083 41291200 41036928 40771764 40501792 40228948 39949108 39652964 
567.458 39328176 38964312 38556832 38109900 37636532 37155032 36684180 
570.833 36237240 35817816 35418880 35025208 34618888 34185228 33717880 
574.208 33220824 32706752 32193434 31698316 31233954 30805742 30411684 
577.582 30044050 29692288 29345748 28995920 28637894 28270780 27897778 
580.957 27525278 27160918 26810770 26476964 26155118 25834694 25500858 
584.332 25139550 24742476 24312124 23862936 23419588 23011364 22664374 
587.707 22394836 22205936 22086792 22016936 21971658 21927254 21864860 
591.082 21771776 21640632 21468962 21258926 21018062 20761012 20509110 
594.456 20288236 20123668 20033110 20020636 20073094 20162162 20250532 
597.831 20301634 20289452 20205190 20058324 19873010 19679738 19506412 
601.206 19370856 19278326 19221934 19187276 19157878 19120214 19066188 
604.581 18993894 18906624 18810912 18715434 18629406 18561610 18520144 
607.956 18510470 18534430 18589632 18669348 18763558 18861286 18952458 
611.331 19030452 19092788 19140558 19178106 19210768 19244212 19283066 
614.705 19330588 19389428 19461266 19547658 19650400 19770746 19909438 
618.080 20065194 20233504 20405328 20566608 20699050 20782520 20799002 
621.455 20736248 20591848 20373880 20100278 19795086 19483808 19188806 
624.830 18926418 18705682 18529326 18395110 18297662 18229774 18182704 
628.205 18146432 18110338 18063900 17998542 17908674 17792684 17652274 
631.579 17491952 17317328 17134870 16951406 16774636 16612947 16474873 
634.954 16366743 16290903 16244264 16217982 16200284 16180128 16150985 
638.329 16113760 16075838 16048782 16043391 16065415 16114112 16182730 
641.704 16262125 16344884 16428381 16515665 16613290 16727719 16861842 
645.079 17012676 17172370 17330386 17477318 17607714 17720966 17820626 
648.454 17911802 17998426 18081856 18160196 18229658 18287090 18332176 
651.828 18369228 18407700 18461520 18546204 18676142 18860454 19101142 
655.203 19390800 19714474 20052094 20383476 20692964 20973516 21228076 
658.578 21468464 21711618 21975434 22273768 22614638 22999378 23424488 
661.953 23884144 24372666 24885782 25421022 25976532 26549788 27136810 
665.328 27731478 28326396 28914070 29488384 30046012 30587050 31115012 
668.702 31635694 32155428 32679088 33208474 33742164 34276208 34807032 
672.077 35333924 35861520 36400104 36963700 37566336 38216868 38916540 
675.452 39657072 40423368 41198400 41968884 42730656 43490788 44266424 
678.827 45081804 45961740 46927752 47993716 49164924 50439284 51809864 
682.202 53269784 54816084 56453852 58199864 60083100 62144516 64433896 
685.577 67005328 69913424 73210912 76950456 81190368 86004664 91495632 
688.951 97805168 105123720 113692984 123801944 135774480 149950608 166659312 
692.326 186183808 208717520 234306416 262779600 293663904 326095936 
695.219 358754816 389863648 417325856 439038240 453346080 459462784 
698.112 457645632 449022976 435194784 417818560 398333184 377847616 
701.004 357141792 336722528 316892224 297809952 279541216 262093424 
703.897 245443136 229552208 214378944 199882912 186028432 172785744 
706.790 160132752 148056464 136554080 125631616 115301464 105578152 96474320 
710.164 87996920 80148064 72924864 66322408 60334872 54956248 50178400 
713.539 45987704 42361340 39265556 36655172 34476628 32671704 31182696 
716.914 29956176 28945528 28111922 27424374 26858584 26396028 26022698 
720.289 25727500 25500094 25330036 25205520 25114456 25046378 24995254 
723.664 24961528 24952570 24980926 25061282 25205484 25420178 25704934 
727.039 26053888 26458048 26908910 27400242 27929372 28496464 29104470 
730.413 29758264 30466172 31240240 32096878 33054918 34132656 35343040 
733.788 36689456 38163508 39746104 41410576 43128024 44871984 46621408 
737.163 48361140 50080236 51769996 53422304 55030660 56591136 58106216 
740.538 59586444 61051316 62528612 64051240 65653592 67368112 69222184 
743.913 71235984 73420968 75779496 78305088 80983472 83794904 86717416 
747.287 89730224 92816872 95967672 99180288 102459312 105813392 109253240 
750.662 112787888 116422064 120153456 123970512 127850504 131758792 
753.555 135648816 139462992 143135584 146597296 149779280 152618336 
756.448 155060160 157061424 158589520 159621008 160138848 160131856 
759.340 159593856 158526656 156942560 154867440 152341088 149415888 
762.233 146152144 142612256 138856368 134938512 130906176 126801472 
765.126 122662760 118526064 114424688 110388328 106440192 102596624 98866176 
768.501 95251808 91753104 88368792 85098376 81942408 78901144 75973904 
771.875 73157336 70446064 67833808 65314680 62884144 60539992 58280676 
775.250 56104684 54008760 51988140 50037584 48153148 46333864 44582028 
778.625 42902260 41298652 39772532 38320888 36936260 35609872 34334752 
782.000 33109412 31938594 30832186 29801554 28854974 27993706 27211190 
785.375 26494826 25829520 25202578 24607014 24041908 23511292 23019812 
788.750 22569722 22158242 21777524 21417486 21067978 20722590 20379806 
792.124 20042244 19715490 19405030 19114436 18844684 18594556 18362112 
795.499 18146378 17947632 17767652 17607434 17466210 17339548 17219198 
798.874 17094482 16954612 16791844 16604058 16395919 16178314 15965896 
802.249 15773460 15612163 15486966 15395557 15329581 15277321 15227565 
805.624 15172645 15110603 15044782 14982260 14930727 14895027 14875100 
808.998 14865038 14854199 14830068 14781421 14702069 14592090 14458604 
812.373 14313682 14171532 14044804 13941748 13865087 13812013 13776594 
815.748 13751920 13732661 13715912 13701545 13690651 13683763 13679677 
819.123 13675239 13665337 13644152 13606326 13547653 13465394 13358593 
822.498 13228477 13079039 12918233 12758158 12614376 12504075 12442148 
825.872 12437999 12492372 12596945 12735966 12889886 13040622 13174946 
829.247 13287249 13379307 13458204 13534084 13617690 13718088 13842052 
832.622 13994255 14177060 14390384 14632518 14900431 15190924 15501933 
835.997 15833501 16187495 16565954 16967572 17386286 17808698 18216836 
839.372 18591556 18918640 19193122 19421202 19618096 19802220 19987748 
842.747 20179342 20370022 20543696 20681726 20769618 20802332 20785022 
846.121 20729652 20649766 20554216 20444530 20315480 20158816 19967888 
849.496 19741296 19483058 19200874 18902178 18591252 18269156 17934914 
852.871 17590028 17240692 16899086 16580744 16300166 16065829 15877303 
856.246 15725294 15595024 15472049 15346129 15214535 15080709 14951960 
859.621 14834398 14730703 14638625 14552371 14465849 14375214 14280573 
862.995 14185700 14096917 14020588 13961582 13922432 13904067 13905829 
866.370 13926440 13964058 14015427 14075898 14139004 14197336 14243855 
869.745 14273365 14283913 14276962 14257261 14231412 14206730 14190448 
873.120 14188197 14203967 14239496 14293925 14364280 14444900 14528539 
876.495 14607629 14675361 14727578 14762792 14782668 14791450 14794052 
879.870 14795253 14798779 14807187 14822486 14846419 14881189 14929372 
883.244 14993211 15074021 15171536 15283627 15407156 15538484 15674874 
886.619 15815003 15958713 16106427 16258299 16413482 16569648 16724056 
889.994 16874280 17019396 17160396 17299570 17440196 17585220 17737616 
893.369 17901320 18082972 18293522 18548736 18867174 19266806 19759864 
896.744 20349146 21026472 21775038 22575170 23412430 24284030 25202662 
900.118 26195138 27296604 28542046 29958340 31558566 33341880 35295476 
903.493 37400084 39634288 41976716 44404680 46891632 49402148 51890492 
906.868 54300688 56569976 58634340 60434776 61922360 63061000 63829312 
910.243 64220792 64241780 63910568 63254796 62308224 61107084 59687020 
913.618 58080708 56317692 54425288 52431424 50366036 48262256 46154700 
916.993 44077148 42058892 40122824 38284272 36552032 34930168 33419904 
920.367 32020338 30728994 29540838 28448846 27444164 26518420 25664794 
923.742 24880286 24165152 23521232 22949870 22449614 22014236 21634092 
927.117 21297348 20992570 20711562 20450536 20209960 19993648 19806970 
930.492 19655140 19541954 19468836 19435564 19439204 19476562 19543356 
933.867 19635932 19751822 19889122 20046194 20220938 20409258 20605610 
937.241 20803378 20996816 21182568 21360576 21534398 21708746 21887240 
940.616 22070900 22256890 22440566 22617792 22788354 22957092 23133362 
943.991 23328268 23550990 23805754 24091606 24403894 24738022 25092470 
947.366 25470754 25880476 26330374 26827414 27374892 27973846 28624948 
950.741 29333136 30109408 30971184 31938616 33029948 34257320 35625280 
954.116 37132576 38777804 40564932 42507972 44631532 46967656 49549116 
957.490 52402132 55539480 58957384 62634520 66533872 70606088 74791376 
960.865 79021480 83221096 87308328 91197000 94799984 98033312 100821560 
964.240 103102752 104832472 105986168 106559376 106566240 106036776 
967.133 105012808 103544736 101688208 99501256 97041984 94366584 91527152 
970.508 88570096 85535376 82456792 79363464 76282536 73241000 70267704 
973.882 67392544 64645044 62051268 59630836 57394700 55344232 53472760 
977.257 51767196 50211884 48791280 47491968 46304028 45221256 44240232 
980.632 43359868 42579556 41898312 41312760 40816648 40400740 40053132 
984.007 39761232 39514112 39304420 39130060 38993876 38902548 38864308 
987.382 38885592 38969416 39113568 39310808 39549160 39813632 40087128 
990.756 40352328 40592756 40794088 40945172 41037924 41067264 41029776 
994.131 40922540 40743024 40489180 40162636 39771300 39332612 38874168 
997.506 38431676 38043772 37744784 37557736 37489212 37527668 37646172 
1000.881 37807040 37969072 38093976 38151352 38121140 37995408 37777160 
1004.256 37479672 37124012 36736500 36345276 35976748 35651760 35383544 
1007.630 35176668 35027748 34927572 34864404 34826120 34803000 34788288 
1011.005 34779288 34777552 34788104 34819028 34878908 34975712 35113340 
1014.380 35291796 35505816 35748352 36012328 36294736 36597684 36928272 
1017.755 37296196 37709648 38173032 38685420 39242928 39842288 40484764 
1021.130 41179260 41942064 42793744 43754796 44840288 46055536 47394572 
1024.505 48839232 50359148 51913492 53450140 54907320 56215380 57301592 
1027.880 58096956 58543316 58601472 58255004 57512008 56402144 54971416 
1031.255 53276108 51377280 49337016 47215756 45070676 42954932 40915604 
1034.630 38991688 37212800 35598252 34157304 32891464 31796780 30865936 
1038.006 30090110 29458934 28960180 28578818 28297218 28095854 27954788 
1041.381 27855432 27782462 27724988 27676580 27634776 27601192 27579668 
1044.756 27576220 27597366 27648796 27733502 27850324 27992470 28148620 
1048.131 28303982 28444286 28558904 28643754 28703004 28747282 28791674 
1051.507 28851196 28937908 29058554 29214880 29405100 29626394 29875536 
1054.882 30150290 30448376 30765408 31094982 31428888 31759180 32080986 
1058.257 32394454 32705772 33025328 33364392 33732060 34132408 34564396 
1061.632 35023588 35504980 36005220 36524140 37062312 37619448 38191224 
1065.008 38767864 39335536 39879032 40385192 40845404 41255856 41615008 
1068.383 41922068 42172400 42358220 42469552 42497008 42435452 42285540 
1071.758 42053792 41750176 41385464 40969000 40507808 40007548 39474144 
1075.133 38914844 38338560 37754340 37169696 36588540 36011380 35436556 
1078.509 34862076 34288340 33719356 33162330 32625452 32116138 31637802 
1081.884 31189654 30766434 30360562 29964028 29570558 29176530 28782028 
1085.259 28389780 28004348 27631116 27274594 26937530 26620350 26321256 
1088.634 26037028 25764388 25500994 25247046 25004440 24776794 24567526 
1092.010 24378472 24209288 24057036 23917500 23786570 23660854 23538678 
1095.385 23420048 23305644 23196118 23091482 22991198 22894008 22798654 
1098.760 22703584 22607180 22508220 22405214 22298054 22187648 22077202 
1102.135 21971114 21874176 21790548 21721400 21665058 21617126 21571752 
1105.510 21523658 21469430 21408562 21342534 21274352 21206728 21141886 
1108.886 21081172 21025866 20977654 20938162 20909160 20890898 20881686 
1112.261 20877004 20870924 20855976 20825324 20773488 20696470 20591752 
1115.636 20458306 20296206 20107104 19895040 19666496 19430078 19195224 
1119.011 18970116 18759922 18565940 18385358 18213486 18045842 17879730 
1122.387 17715726 17556996 17407556 17270606 17146928 17033664 16926354 
1125.762 16819778 16710162 16596843 16482480 16372724 16274566 16194196 
1129.137 16135301 16098250 16080204 16075686 16078781 16084356 16089855 
1132.512 16095232 16102435 16113829 16131200 16153947 16179699 16205152 
1135.888 16227826 16247751 16268736 16297214 16340982 16406620 16497400 
1139.263 16612779 16748587 16899432 17060452 17229910 17408926 17601318 
1142.638 17811988 18045072 18303484 18588130 18899712 19239106 19608336 
1146.013 20011018 20451710 20936020 21470326 22061844 22719522 23453356 
1149.389 24273880 25189208 26201644 27304428 28478810 29693936 30908742 
1152.764 32076266 33149384 34085720 34852684 35429416 35806472 35984956 
1156.139 35974492 35790064 35451748 34982552 34408968 33759264 33062588 
1159.514 32346788 31635686 30948174 30296830 29688748 29127284 28614174 
1162.890 28151562 27742310 27389564 27094656 26855144 26664474 26511242 
1166.265 26382432 26265632 26152516 26040950 25934652 25842060 25773112 
1169.640 25736242 25736616 25774760 25848002 25951890 26081470 26233424 
1173.015 26406116 26599602 26816186 27059280 27334212 27647938 28008760 
1176.391 28424624 28901388 29440640 30036658 30676016 31337548 31994078 
1179.766 32615892 33173970 33643296 34005532 34249696 34372256 34375588 
1183.141 34266136 34053392 33748512 33363276 32910292 32403010 31855952 
1186.516 31284768 30706302 30138084 29597648 29100678 28660920 28287176 
1189.892 27983862 27749938 27579770 27465082 27396500 27366184 27368918 
1193.267 27402654 27466852 27561152 27682082 27821714 27967968 28105240 
1196.642 28218996 28298882 28342042 28354036 28347162 28337002 28337278 
1200.017 28356096 28393654 28443006 28492598 28530064 28546266 28536706 
1203.393 28502076 28446270 28374444 28290772 28197308 28094376 27981092 
1206.768 27856602 27721458 27577000 27426222 27272366 27118898 26968938 
1210.143 26824464 26686162 26553306 26423630 26294260 26162072 26025038 
1213.518 25883150 25737940 25592054 25448254 25307452 25168862 25030068 
1216.894 24887982 24741676 24592970 24446682 24309998 24189690 24090668 
1220.269 24013622 23955398 23909614 23869512 23829078 23785296 23738060 
1223.644 23689382 23642650 23601570 23569830 23550496 23546598 23560658 
1227.019 23594308 23648304 23721230 23810124 23910422 24017456 24126458 
1230.395 24234200 24338696 24439528 24537290 24633206 24728906 24825546 
1233.770 24923508 25021682 25117454 25206526 25283910 25345732 25390240 
1237.145 25419610 25439276 25456970 25479964 25512442 25553458 25596400 
1240.520 25630580 25644336 25627986 25577182 25494262 25387382 25268304 
1243.896 25149974 25043106 24954744 24887282 24839696 24807370 24784834 
1247.271 24766126 24746188 24720988 24687666 24645042 24593808 24535642 
1250.646 24474530 24415274 24363700 24325276 24304222 24302766 24319584 
1254.021 24350664 24389542 24428702 24461274 24482812 24491646 24488936 
1257.396 24477546 24460600 24440546 24418376 24394528 24369736 24346188 
1260.772 24327244 24317150 24319232 24333944 24357940 24384392 24404248 
1264.147 24409008 24392160 24351458 24288334 24207144 24114058 24015652 
1267.522 23917930 23827082 23749422 23691290 23658534 23655400 23682966 
1270.897 23738860 23816646 23908224 24004768 24099234 24187292 24268192 
1274.273 24343736 24417212 24492600 24573172 24661540 24759584 24868546 
1277.648 24988320 25118436 25257006 25401202 25547042 25690484 25826858 
1281.023 25952378 26063546 26157710 26233378 26291100 26333390 26365622 
1284.398 26395738 26433098 26487628 26567618 26678606 26821888 26995300 
1287.774 27193246 27407988 27631290 27855338 28073918 28282478 28478970 
1291.149 28664008 28840214 29012044 29184264 29361298 29545146 29735642 
1294.524 29929678 30122550 30309590 30487296 30654254 30812058 30964052 
1297.899 31114876 31269156 31430860 31602680 31786106 31981568 32188404 
1301.275 32405130 32629344 32858230 33089384 33320728 33551730 33782520 
1304.650 34013552 34244420 34472904 34694596 34903860 35095328 35266188 
1308.025 35417604 35554800 35686940 35824004 35974084 36141416 36325012 
1311.400 36519216 36715924 36906052 37082012 37238404 37371652 37479616 
1314.776 37560084 37611092 37630972 37619472 37578696 37513228 37430368 
1318.151 37338704 37246788 37162228 37091184 37037920 37005104 36993960 
1321.526 37003952 37031984 37073260 37121280 37169288 37212076 37247908 
1324.901 37278896 37310412 37349944 37403856 37475388 37564112 37665760 
1328.277 37773728 37881696 37984056 38077736 38160472 38230168 38283740 
1331.652 38317312 38326800 38309724 38266956 38203292 38126928 38048156 
1335.027 37977256 37922984 37891268 37885516 37907268 37956988 38034320 
1338.402 38138368 38267420 38418284 38586972 38768928 38960352 39158188 
1341.778 39360920 39567560 39777168 39987648 40196140 40398816 40592388 
1345.153 40775044 40946452 41108244 41263088 41413232 41560540 41705468 
1348.528 41847740 41986480 42121056 42250128 42372744 42487572 42592384 
1351.903 42685612 42766328 42835140 42894196 42946728 42995916 43043388 
1355.279 43088708 43129032 43160364 43178664 43182048 43170772 43147704 
1358.654 43116968 43082660 43047200 43011140 42973152 42930768 42882140 
1362.029 42826724 42765788 42702044 42638588 42578388 42522668 42471516 
1365.404 42423296 42376060 42327652 42276640 42222236 42163944 42101768 
1368.780 42034816 41961688 41879660 41785052 41673188 41538960 41377380 
1372.155 41183912 40955192 40689684 40387728 40051924 39685760 39293144 
1375.530 38876828 38437768 37974588 37484288 36963912 36412056 35830224 
1378.905 35223560 34599664 33967348 33334590 32707590 32090672 31487282 
1382.281 30901310 30338072 29804162 29306088 28847738 28428766 28043228 
1385.656 27681412 27332452 26987154 26641774 26298180 25962756 25643036 
1389.031 25344528 25067612 24806948 24554130 24300188 24039562 23771626 
1392.406 23500598 23234740 22982142 22749522 22540374 22355654 22195226 
1395.781 22058758 21947596 21863244 21806580 21776512 21769094 21778044 
1399.157 21795782 21815504 21832972 21846262 21855422 21861830 21865210 
1402.532 21864926 21858760 21843666 21817512 21778996 21728874 21669406 
1405.907 21604784 21540652 21483914 21442062 21423026 21433410 21477730 
1409.282 21557340 21670398 21812740 21980104 22169634 22382482 22623554 
1412.658 22901504 23225654 23604224 24040068 24529768 25062178 25619202 
1416.033 26178020 26713394 27201336 27621250 27959516 28210498 28377158 
1419.408 28470772 28508968 28512880 28505260 28507924 28540784 28621590 
1422.783 28766004 28987838 29299302 29711718 30234114 30875104 31641140 
1426.159 32537684 33568216 34734136 36033820 37462860 39014032 40678056 
1429.534 42445156 44305264 46248664 48264904 50342852 52469880 54633492 
1432.909 56822844 59030484 61254464 63497388 65764928 68062896 70395392 
1436.284 72763016 75163736 77595832 80059480 82560424 85109672 87723704 
1439.660 90423208 93231680 96175024 99280856 102576200 106086376 109831400 
1443.035 113822080 118058584 122529288 127213328 132085424 137121152 
1445.928 142303280 147626816 153102560 158758320 164634288 170771936 
1448.821 177192352 183864368 190667248 197355856 203540816 208700896 
1451.714 212232592 213538448 212136272 207756512 200402368 190353584 
1454.607 178118384 164354688 149780672 135092848 120897944 107667256 
1457.500 95713088 85189536 76115928 68412208 61937740 56525996 52008804 
1460.875 48230868 45055472 42366588 40067980 38081752 36347772 34820984 
1464.251 33469666 32271490 31209698 30268374 29431832 28682114 28001424 
1467.626 27374422 26790002 26243206 25734388 25267284 24846412 24474192 
1471.001 24148866 23865656 23618316 23401278 23212354 23053072 22927686 
1474.376 22839900 22790652 22777134 22792686 22830748 22887188 22963954 
1477.752 23069038 23216148 23420346 23695254 24051676 24496750 25036500 
1481.127 25679128 26436596 27326418 28370524 29594802 31026444 32693752 
1484.502 34627372 36861172 39435840 42404156 45836528 49828688 54506952 
1487.877 60028672 66572288 74310832 83369368 93767296 105356224 117768448 
1491.253 130394696 142407792 152842816 160727408 165241504 165867456 
1494.146 162491376 155424432 145337568 133132848 119787112 106209592 
1497.039 93140736 81103768 70402784 61154536 53335744 46832780 41484308 
1500.414 37113512 33548578 30635876 28245260 26271284 24631290 23261710 
1503.789 22113884 21149422 20337334 19652116 19072270 18579080 18156730 
1507.165 17790210 17465938 17170910 16894600 16629716 16374208 16130636 
1510.540 15905922 15706936 15539519 15403681 15294457 15201746 15113865 
1513.915 15019986 14913533 14792757 14660578 14522645 14385829 14256351 
1517.290 14138268 14033641 13942629 13863953 13795467 13735165 13681566 
1520.666 13634623 13595214 13565041 13545556 13536357 13534308 13534523 
1524.041 13530610 13516847 13490231 13451682 13406042 13360374 13322162 
1527.416 13297300 13288378 13295875 13317229 13350225 13392189 13440852 
1530.791 13494103 13549147 13602931 13652917 13698787 13742818 13790511 
1534.167 13848664 13923729 14019155 14133879 14262783 14398446 14533957 
1537.542 14664210 14788423 14907983 15026075 15144673 15263258 15378485 
1540.917 15485230 15579250 15657803 15720716 15770271 15809074 15839150 
1544.292 15861228 15874779 15879521 15876453 15868083 15859177 15853832 
1547.667 15855150 15863344 15875010 15884472 15884001 15867488 15830714 
1551.043 15772503 15695686 15604722 15505923 15404707 15305390 15210548 
1554.418 15120300 15033430 14947725 14861136 14773235 14684396 14596985 
1557.793 14514172 14438856 14372999 14316813 14268777 14226045 14186082 
1561.168 14147418 14109998 14075672 14047506 14028419 14021482 14027762 
1564.544 14046799 14076431 14113815 14155826 14200459 14247510 14299041 
1567.919 14358827 14431498 14521849 14632127 14762849 14911062 15072000 
1571.294 15240951 15414305 15591905 15776748 15974769 16194001 16441958 
1574.669 16726349 17053452 17430118 17864884 18370740 18965098 19670262 
1578.045 20510486 21507812 22676036 24013848 25498538 27081600 28688312 
1581.420 30223070 31578232 32649036 33348550 33621984 33456012 32881520 
1584.795 31968954 30817100 29536502 28235076 27003850 25910540 24998134 
1588.170 24287166 23781938 23476078 23357008 23409492 23617080 23964006 
1591.546 24435578 25021164 25714700 26517414 27437696 28493286 29709286 
1594.921 31117570 32754344 34655252 36849680 39353316 42159164 45230308 
1598.296 48494164 51841828 55132440 58203048 60884608 63018888 64476244 
1601.671 65169276 65061816 64169756 62558100 60330548 57616896 54559172 
1605.047 51297500 47960720 44658728 41480928 38496660 35757040 33296346 
1608.422 31131846 29264128 27677260 26339892 25211642 24248868 23412430 
1611.797 22673362 22014902 21431600 20923776 20492488 20134362 19840866 
1615.172 19598720 19393712 19214564 19054396 18911340 18785344 18676586 
1618.548 18581816 18495926 18412470 18327044 18238600 18150554 18068472 
1621.923 17997874 17941628 17898368 17862364 17826502 17783498 17729598 
1625.298 17664290 17590606 17513794 17439428 17372592 17316722 17274088 
1628.673 17246190 17233928 17238422 17261452 17305808 17374892 17473938 
1632.049 17608144 17782932 18002098 18266820 18575636 18923974 19304294 
1635.424 19707204 20121334 20533878 20929852 21292788 21604930 21848078 
1638.799 22005982 22066460 22023018 21876038 21632610 21305186 20909722 
1642.174 20464184 19987040 19497018 19011694 18547548 18117028 17728980 
1645.550 17386390 17087780 16828944 16605346 16413804 16253868 16125772 
1648.925 16029526 15962232 15917096 15884066 15851965 15811680 15758224 
1652.300 15692202 15619432 15548360 15486937 15440211 15409197 15391556 
1655.675 15382868 15377929 15372538 15363943 15350685 15332755 15311562 
1659.051 15290184 15272668 15263847 15268674 15290757 15331688 15390025 
1662.426 15462633 15544520 15630404 15716003 15797997 15874799 15945388 
1665.801 16009027 16064970 16112193 16149504 16176209 16192246 16198622 
1669.176 16197251 16190844 16182108 16172176 16160652 16143965 16116049 
1672.552 16069761 15998116 15897645 15770035 15622926 15469301 15324465 
1675.927 15202537 15112028 15055114 15026367 15015814 15012298 15006163 
1679.302 14991730 14967232 14934191 14895226 14852256 14805962 14755892 
1682.677 14701300 14642185 14579737 14516349 14454178 14395163 14339766 
1686.052 14287925 14239535 14195048 14156125 14124361 14101820 14089646 
1689.428 14087849 14094552 14107421 14123382 14139177 14150921 14155355 
1692.803 14148982 14129334 14095372 14048231 13991391 13930517 13871614 
1696.178 13820296 13779834 13751609 13735230 13730303 13736840 13755939 
1699.553 13788757 13835137 13892165 13953077 14008968 14051099 14072730 
1702.929 14072688 14054583 14027608 14002861 13990991 13999267 14030582 
1706.304 14082372 14148887 14222306 14295078 14360915 14415186 14455746 
1709.679 14482527 14498279 14507917 14518886 14539805 14578726 14641103 
1713.054 14728470 14837729 14962244 15095018 15231135 15370307 15517241 
1716.430 15680490 15868906 16088052 16337750 16611826 16899488 17189748 
1719.805 17474330 17750010 18019280 18287682 18561762 18846272 19141992 
1723.180 19447130 19757598 20069358 20379832 20687660 20992958 21295658 
1726.555 21594580 21888244 22174394 22450778 22715898 22967902 23204404 
1729.931 23422244 23616832 23783866 23920286 24025348 24101668 24153314 
1733.306 24184350 24197662 24192642 24166900 24116868 24040082 23936958 
1736.681 23809918 23663044 23499130 23318292 23117206 22889864 22630454 
1740.056 22336550 22010418 21660022 21298266 20940164 20598764 20283490 
1743.432 19998010 19739816 19501434 19272902 19044492 18809800 18568346 
1746.807 18325830 18093814 17886164 17716342 17591594 17511272 17465734 
1750.182 17438566 17409722 17361916 17283934 17173016 17034082 16876864 
1753.557 16712820 16551396 16399536 16260991 16137362 16028717 15934169 
1756.933 15851170 15775507 15701232 15622938 15535926 15439296 15335009 
1760.308 15227467 15121071 15017841 14916356 14812863 14702776 14584247 
1763.683 14459657 14335496 14219804 14118419 14032544 13956044 13878673 
1767.058 13788572 13677862 13544273 13395010 13242057 13100082 12981196 
1770.434 12892865 12835158 12802608 12785858 12775246 12762059 12741158 
1773.809 12710743 12672423 12630975 12591418 12558179 12534014 12518449 
1777.184 12507842 12496809 12479423 12451902 12413286 12365483 12313219 
1780.559 12260450 12210294 12164189 12121058 12080906 12044754 12016200 
1783.935 11999100 11997360 12011893 12039348 12074511 12110416 12142729 
1787.310 12170488 12197418 12228697 12269803 12322256 12383778 12448890 
1790.685 12511808 12569398 12623640 12682921 12758419 12861504 12999458 
1794.060 13172271 13372611 13586724 13798401 13993344 14162191 14302964 
1797.436 14421205 14528178 14637830 14762186 14910269 15084595 15282773 
1800.811 15498322 15723364 15949013 16167460 16370900 16550634 16697109 
1804.186 16801358 16856370 16861060 16821980 16752070 16668430 16587995 
1807.561 16520794 16467879 16420566 16363801 16281672 16163632 16007895 
1810.937 15822105 15620040 15417425 15226635 15054462 14901461 14765001 
1814.312 14640676 14527515 14428029 14349026 14299890 14291183 14331332 
1817.687 14424802 14569136 14754210 14961290 15164965 15337806 15455781 
1821.062 15502636 15474674 15380280 15237212 15066203 14885788 14707780 
1824.438 14536424 14370498 14207904 14048335 13895919 13757679 13639961 
1827.813 13545667 13472529 13412483 13354936 13288977 13206710 13103688 
1831.188 12979102 12834114 12671252 12493349 12302745 12101848 11893062 
1834.563 11677807 11457377 11232945 11009199 10793785 10599102 10439830 
1837.938 10328252 10269074 10256463 10272239 10292467 10293620 10261905 
1841.314 10197547 10115486 10038086 9986925 9973028 9992955 10030155 
1844.689 10061990 10069449 10043967 9990415 9923827 9863405 9825328 9817107 
1848.546 9836841 9873829 9914061 9943268 9950701 9930630 9885150 9822874 
1852.404 9760200 9716447 9711578 9759427 9862779 10011369 10184151 10355813 
1856.261 10505916 10624204 10713573 10787963 10863394 10951665 11055917 
1859.636 11171601 11291736 11413136 11540307 11682518 11847986 12036120 
1863.012 12233919 12418134 12564534 12660835 12714886 12755970 12826343 
1866.387 12966062 13196589 13511782 13878119 14245437 14565949 14806200 
1869.762 14957728 15033733 15059074 15057462 15042769 15014671 14965069 
1873.137 14884157 14769325 14627390 14473776 14326050 14198955 14100020 
1876.513 14031910 13993190 13983684 14003986 14056083 14137660 14240766 
1879.888 14350021 14447104 14515634 14546640 14541864 14512324 14472865 
1883.263 14436050 14404428 14371961 14324164 14247932 14137723 14002679 
1886.638 13865109 13756420 13705239 13728013 13819843 13954824 14090658 
1890.014 14182427 14195029 14114828 13951406 13733621 13497427 13273994 
1893.389 13078295 12910651 12757492 12603708 12442416 12279160 12129368 
1896.764 12011860 11935889 11895479 11868513 11824367 11734752 11585160 
1900.139 11380243 11142844 10903672 10690937 10522122 10400750 10320191 
1903.515 10271464 10249794 10258394 10303361 10389777 10511610 10650410 
1906.890 10774774 10848504 10839269 10726772 10506299 10192588 9809171 
1910.265 9387328 8956021 8538538 8150096 7798861 7489607 7226991 7021680 
1914.123 6890364 6855705 6941885 7164141 7517685 7970601 8461525 8907130 
1917.980 9223582 9344232 9247699 8964492 8577118 8201424 7958898 7943865 
1921.837 8201813 8710613 9390301 10115964 10748220 11163879 11283146 
1925.213 11084406 10606161 9933990 9181090 8456808 7849344 7405449 7130140 
1929.070 6995276 6956475 6972335 7022193 7107952 7251790 7482326 7816240 
1932.927 8247329 8744226 9250861 9704689 10049397 10251670 10307789 10247491 
1936.785 10121567 9990922 9908563 9906544 9984472 10115178 10251561 10350028 
1940.642 10386970 10375096 10362562 10420704 10612544 10967360 11456169 
1944.018 11991687 12452023 12717926 12710282 12425429 11926955 11332680 
1947.393 10768460 10333427 10072152 9978466 10012631 10135397 10327574 
1950.768 10599922 10974459 11464695 12049398 12669265 13230397 13636328 
1954.143 13806433 13699199 13310050 12671132 11826661 10832052 9752127 
1957.519 8664991 7667864 6872351 6382857 6270818 6546505 7151036 7960875 
1961.376 8829201 9612844 10207996 10558615 10657831 10529150 10217897 
1964.751 9777796 9278726 8800169 8427171 8235786 8269459 8518702 8917900 
1968.609 9351040 9687344 9806279 9632543 9140426 8358343 7346037 6187204 
1972.466 4976260 3815617 2813535 2081216 1711499 1762140 2239295 3100493 
1976.323 4260434 5629694 7127043 8694455 10281742 11829395 13250645 14434435 
1980.181 15264667 15660182 15596350 15124188 14368137 13496543 12684557 
1983.556 12081260 11773264 11782324 12057857 12500388 12975483 13343380 
1986.931 13479007 13303582 12805169 12052304 11182238 10374065 9796941 
1990.307 9561044 9676413 10047187 10497314 10831180 10885013 10578537 
1993.682 9925238 9014976 7971425 6911374 5899907 4967550 4104403 3302539 
1997.539 2566876 1927944 1424664 1089127 926100 913852 999468 1126819 
2001.397 1239509 1299390 1281431 1175016 979915 707418 380927 33411 -297661 
2005.736 -579094 -794695 -946192 -1047587 -1092950 -1057594 -879490 -495980 
2009.594 133375 986484 1975692 2956602 3792815 4391080 4754018 4971782 
2013.451 5185475 5521190 6029353 6650516 7249994 7663578 7786594 7614935 
2017.309 7263671 6904564 6702152 6737521 6973980 7273364 7456130 7375672 
2021.166 6980776 6329727 5560044 4830359 4270655 3931843 3809246 3851519 
2025.023 4010745 4260368 4600393 5041320 5587562 6215172 6875757 7509360 
2028.881 8058845 8484281 8767329 8895520 8869561 8694186 8397304 8039294 
2032.738 7731809 7609559 7804675 8393524 9346100 10522779 11691123 12583763 
2036.596 12974429 12739390 11892119 10578192 9037599 7534047 6286830 5420909 
2040.453 4953452 4808231 4868329 5015133 5183266 5361725 5577362 5871200 
2044.311 6257081 6706041 7159467 7551674 7860104 8118891 8429162 8917566 
2048.168 9685022 10743437 11990346 13223938 14204482 14721788 14657750 
2051.543 14008853 12876458 11432329 9877275 8401260 7157398 6241870 5704940 
2055.401 5552220 5761638 6286701 7056609 7968928 8900647 9716216 10297372 
2059.258 10572724 10540534 10267319 9872486 9485370 9213284 9102995 9137019 
2063.115 9243505 9332021 9328330 9204511 8989979 8762888 8623170 8660579 
2066.973 8924085 9409200 10056020 10765813 11425188 11937068 12233797 
2070.348 12293529 12133437 11804663 11370533 10898326 10441854 10043119 
2073.723 9726329 9502773 9373695 9333706 9371591 9473097 9621252 9799761 
2077.581 9994118 10191039 10377784 10543257 10670418 10740190 10730541 
2080.956 10620287 10391741 10034241 9546461 8935905 8221755 7434329 6617588 
2084.813 5830198 5143183 4631257 4356199 4353663 4614798 5083393 5659930 
2088.671 6223164 6654302 6866560 6823000 6543366 6095860 5580801 5106296 
2092.528 4772803 4656168 4803242 5225432 5901865 6774123 7755999 8741629 
2096.386 9622424 10307497 10740372 10907216 10836482 10581667 10206941 
2099.761 9764902 9294334 8817467 8353842 7928802 7579260 7347247 7268436 
2103.618 7351039 7571451 7873670 8183937 8438472 8602326 8683488 8731426 
2107.476 8816542 9009751 9351285 9840276 10428921 11034624 11558292 11907121 
2111.333 12015368 11858831 11457519 10875267 10204406 9546679 8992753 
2114.708 8599371 8379020 8299582 8292420 8275698 8177719 7957758 7617520 
2118.566 7199927 6772220 6410353 6173333 6092341 6163549 6351494 6600245 
2122.423 6845277 7022939 7087345 7011806 6797537 6470419 6077557 5669379 
2126.281 5286844 4944250 4621178 4270734 3831258 3255253 2530219 1689559 
2130.138 806616 -28448 -732483 -1258446 -1599467 -1783694 -1846872 -1809405 
2133.996 -1659284 -1359375 -867667 -179056 659368 1535159 2304213 2825606 
2137.853 3007789 2830505 2353962 1689043 968162 306886 -205880 -522708 
2141.710 -620903 -491164 -137003 420389 1132948 1914781 2651088 3218986 
2145.568 3517219 3489889 3147011 2546568 1777990 920435 22850 -902443 
2149.425 -1861279 -2859899 -3863860 -4799559 -5559815 -6039184 -6167991 
2152.801 -5949901 -5463024 -4854928 -4290853 -3913389 -3793941 -3901058 
2156.176 -4082614 -4105439 -3674397 -2523091 -485522 2426340 5993493 9830771 
2160.033 13492160 16594762 18905210 20362934 21058534 21163254 20873074 
2163.408 20351436 19700850 18950542 18086724 17071130 15902545 14622628 
2166.784 13327068 12139714 11169024 10467493 10008268 9679031 9323480 
2170.159 8782096 7950702 6819076 5485216 4125329 2950117 2142935 1817296 
2174.016 1974823 2528307 3327193 4206743 5033430 5736487 6302554 6766172 
2177.874 7170891 7547877 7898607 8196888 8405109 8497127 8464158 8338578 
2181.731 8179341 8066733 8076173 8269987 8673309 9265640 9980454 10714644 
2185.589 11331653 11703362 11723252 11352867 10627440 9668455 8658213 
2188.964 7806900 7301533 7263805 7718988 8593255 9740290 10973540 12111964 
2192.821 13021531 13619903 13886378 13839489 13526507 13009523 12366636 
2196.197 11689502 11098478 10720668 10681932 11062242 11873212 13034227 
2199.572 14380472 15690515 16743641 17361848 17459838 17044772 16217319 
2202.947 15116418 13887567 12647029 11470612 10402579 9482777 8763467 
2206.322 8318426 8225401 8534101 9230475 10223924 11346858 12394104 13168946 
2210.180 13539450 13465227 13010541 12308983 11530116 10824196 10295457 
2213.555 9985665 9888890 9963845 10163425 10440974 10759182 11080974 
2216.930 11373134 11601035 11745475 11806436 11813242 11818789 11881889 
2220.305 12047661 12330531 12706365 13124741 13528765 13878591 14167847 
2223.681 14427320 14704783 15046971 15471827 15964670 16483402 16984090 
2227.056 17445430 17898610 18426232 19150448 20206128 21700996 23687174 
2230.431 26148808 29001058 32117468 35348840 38560504 41644168 44530520 
2233.806 47180108 49573040 51690912 53505352 54968916 56022252 56606668 
2237.182 56681252 56240332 55324396 54018776 52445164 50733956 49004076 
2240.557 47337796 45766832 44274164 42805588 41285984 39656500 37880828 
2243.932 35969564 33973620 31977002 30077700 28365130 26901252 25710318 
2247.307 24772332 24034896 23421912 22855274 22267528 21616864 20890954 
2250.683 20106584 19301594 18523082 17816890 17218088 16744765 16396210 
2254.058 16152704 15985306 15851883 15712803 15531381 15284913 14969227 
2257.433 14602036 14219646 13875719 13622678 13505662 13546199 13738249 
2260.808 14047350 14419479 14791140 15106164 15323944 15429655 15430276 
2264.184 15356142 15248221 15151546 15106061 15135885 15246410 15423297 
2267.559 15633641 15836557 15992161 16072810 16067589 15985770 15847351 
2270.934 15679767 15502736 15329867 15166894 15021540 14905431 14843583 
2274.309 14864477 14994035 15241858 15593326 16010748 16443707 16843496 
2277.685 17180722 17449366 17665316 17851564 18024928 18182924 18308296 
2281.060 18378688 18382108 18332540 18271168 18253144 18327824 18515094 
2284.435 18791872 19094690 19338272 19441672 19354236 19071958 18638278 
2287.810 18128876 17632022 17224094 16956494 16846556 16881514 17025882 
2291.186 17231036 17443812 17616214 17710230 17704594 17597166 17408944 
2294.561 17174742 16940800 16747730 16624847 16580682 16606063 16678512 
2297.936 16772209 16866648 16950134 17018470 17071028 17104300 17111688 
2301.311 17083160 17012654 16902870 16767751 16630661 16517738 16449248 
2304.687 16433906 16466847 16532730 16612705 16692640 16766470 16837538 
2308.062 16913772 17003498 17110076 17229554 17353374 17470484 17572072 
2311.437 17653282 17713256 17754302 17779062 17789870 17790218 17785264 
2314.812 17783740 17797594 17840118 17922886 18050396 18218548 18414634 
2318.188 18622416 18829620 19033820 19245896 19489296 19789932 20163502 
2321.563 20603384 21070978 21499508 21803896 21902820 21739538 21296632 
2324.938 20602362 19723486 18752450 17786816 16913034 16191961 15650859 
2328.313 15287823 15076221 14978847 14957269 14979955 15024750 15077873 
2331.688 15131414 15182308 15229852 15278281 15334577 15407470 15504347 
2335.064 15626570 15768114 15914606 16047494 16146937 16198821 16196260 
2338.439 16141895 16045317 15921459 15786387 15656317 15545658 15463637 
2341.814 15415302 15398856 15404470 15418358 15423423 15405859 15359418 
2345.189 15286540 15197617 15106302 15024264 14955456 14896020 14835058 
2348.565 14760260 14664117 14546937 14418118 14290520 14177815 14088378 
2351.940 14023322 13976813 13938820 13899467 13851088 13789327 13713390 
2355.315 13622798 13519123 13404346 13281620 13156566 13036143 12926761 
2358.690 12833729 12757521 12695932 12643266 12594301 12544766 12492754 
2362.066 12437476 12378693 12313467 12237682 12147206 12039500 11917572 
2365.441 11789504 11669328 11572903 11514036 11500995 11534595 11608046 
2368.816 11709872 11825482 11940202 12042183 12123314 12179758 12211733 
2372.191 12223682 12222586 12217749 12217367 12228684 12255848 12297597 
2375.567 12350116 12405526 12453627 12484292 12488659 12461605 12402162 
2378.942 12315254 12209813 12097318 11989336 11894411 11817090 11758022 
2382.317 11717292 11696508 11700713 11738465 11816743 11936619 12088137 
2385.692 12249734 12391179 12483156 12505371 12455693 12350268 12218785 
2389.068 12095513 12007927 11969253 11978319 12022408 12086555 12159793 
2392.443 12236833 12317357 12399363 12474424 12528324 12543454 12508147 
2395.818 12424787 12311753 12200131 12124315 12108508 12157248 12252324 
2399.193 12358067 12431996 12439001 12361816 12205638 11996457 11771700 
2402.569 11571852 11431046 11371508 11402537 11519681 11709483 11950104 
2405.944 12215146 12477133 12709584 12891544 13009307 13058691 13045306 
2409.319 12980429 12880122 12759577 12630995 12501889 12376389 12255056 
2412.694 12139348 12032989 11944878 11886913 11873752 11916426 12019753 
2416.070 12176738 12369455 12571276 12752542 12889059 12966828 12984993 
2419.445 12954631 12891467 12811881 12725611 12636148 12543652 12448608 
2422.820 12356458 12277521 12224960 12208865 12231938 12287781 12361292 
2426.195 12435568 12499385 12550043 12593399 12642876 12710375 12802180 
2429.571 12915538 13038652 13155307 13249016 13307690 13326894 13309130 
2432.946 13265160 13209169 13160754 13137392 13153879 13216370 13320405 
2436.321 13449752 13580063 13686062 13749563 13766768 13749765 13724483 
2439.696 13722609 13768977 13874595 14032471 14219210 14403998 14556649 
2443.072 14655294 14692662 14672738 14608787 14517717 14416186 14318155 
2446.447 14234306 14172122 14137032 14129380 14147040 14183046 14228933 
2449.822 14274267 14310727 14334528 14345335 14347002 14345707 14348527 
2453.197 14362139 14391249 14438500 14501930 14577757 14657490 14731489 
2456.573 14789507 14825343 14836015 14825960 14802524 14774944 14749913 
2459.948 14729339 14710404 14687415 14653830 14606423 14546349 14478310 
2463.323 14408183 14340181 14273481 14202705 14118659 14011827 13877480 
2466.698 13717103 13541458 13368999 13222245 13123482 13088363 13120243 
2470.073 13208221 13329389 13452278 13545372 13587083 13570152 13505920 
2473.449 13420095 13343865 13306873 13327233 13407138 13535595 13693526 
2476.824 13860026 14018044 14157263 14273092 14363004 14425153 14458270 
2480.199 14463162 14446399 14421295 14407599 14426068 14491476 14606949 
2483.574 14760512 14927842 15076230 15174089 15200085 15150074 15036554 
2486.950 14890090 14750685 14659626 14650598 14741289 14926098 15176592 
2490.325 15445066 15675446 15817003 15836906 15730292 15520591 15254217 
2493.700 14986629 14766758 14622321 14557444 14552549 14574721 14592043 
2497.075 14583455 14545342 14489772 14437282 14409110 14417931 14466289 
2500.451 14544393 14637897 14731107 14810917 14870925 14909605 14928704 
2503.826 14931832 14923437 14906788 14886267 14864638 14844264 14826410 
2507.201 14809472 14791015 14765891 14730478 14683766 14630460 14581099 
2510.576 14550515 14556092 14612186 14724398 14888394 15088185 15298220 
2513.952 15488691 15632613 15711686 15718589 15658939 15548786 15411534 
2517.327 15271625 15153674 15076799 15053459 15088751 15177047 15306197 
2520.702 15456838 15607556 15740041 15841393 15907768 15939984 15941333 
2524.077 15910948 15843213 15728012 15559049 15337260 15080977 14822617 
2527.453 14604617 14466343 14432095 14504125 14660518 14864483 15075529 
2530.828 15262037 15407397 15511652 15584214 15634079 15665317 15672814 
2534.203 15646752 15579200 15469803 15325273 15162222 14997342 14846141 
2537.578 14720125 14627901 14578097 14580864 14645533 14778203 14973987 
2540.954 15215289 15472698 15710872 15898507 16015038 16056463 16033679 
2544.329 15967611 15880823 15792979 15718797 15666669 15642593 15649406 
2547.704 15686614 15745843 15810752 15855724 15852297 15777389 15621887 
2551.079 15396413 15133361 14879100 14685644 14597137 14640613 14820794 
2554.455 15118004 15493598 15896343 16271971 16571859 16760821 16823512 
2557.830 16765594 16611638 16399737 16172310 15967989 15814908 15726583 
2561.205 15705016 15742749 15825443 15937457 16060982 16177669 16268723 
2564.580 16317738 16314425 16258236 16162345 16048398 15945636 15879255 
2567.956 15865665 15908267 15996728 16113300 16236834 16349884 16441291 
2571.331 16505761 16542237 16552692 16540132 16510786 16472688 16437776 
2574.706 16417220 16421074 16453421 16513756 16595433 16691614 16797374 
2578.081 16911164 17033936 17166572 17305872 17441412 17558610 17640156 
2581.457 17672994 17651616 17579642 17469490 17339224 17207446 17091372 
2584.832 17004392 16955128 16948460 16983806 17054236 17146886 17244192 
2588.207 17328478 17385272 17410032 17407610 17393766 17388290 17408960 
2591.582 17464612 17554040 17664796 17777528 17873368 17938602 17968140 
2594.958 17966934 17947908 17927820 17924510 17951702 18017728 18122094 
2598.333 18256950 18407974 18557934 18690626 18794740 18866650 18909846 
2601.708 18932464 18944736 18953160 18961232 18967898 18971590 18971678 
2605.083 18972208 18980284 19004778 19052210 19125218 19220578 19329600 
2608.458 19440690 19542078 19624324 19680126 19705762 19700598 19666120 
2611.834 19606620 19528432 19440186 19351292 19271272 19208050 19167360 
2615.209 19153008 19167378 19209616 19277522 19365476 19465562 19567980 
2618.584 19664092 19748232 19821548 19889240 19959254 20038312 20125980 
2621.959 20215716 20294792 20350630 20376224 20375194 20360966 20352582 
2625.335 20367652 20415408 20494196 20592504 20695916 20793070 20880688 
2628.710 20964356 21052226 21149988 21254446 21353976 21431436 21472230 
2632.085 21470746 21433086 21376390 21321188 21284814 21275192 21290742 
2635.460 21322388 21360104 21397740 21433874 21471364 21511978 21554746 
2638.836 21594230 21621968 21631982 21624964 21608144 21594788 21598372 
2642.211 21626580 21679062 21745848 21811946 21861816 21885808 21881402 
2645.586 21853584 21812268 21768432 21729948 21701990 21686272 21682086 
2648.961 21687552 21699910 21715846 21730448 21739236 21738084 21726640 
2652.337 21707036 21685634 21670320 21667804 21680432 21705436 21734654 
2655.712 21757706 21764072 21746676 21703616 21636942 21552932 21458842 
2659.087 21360508 21262150 21165466 21071000 20978208 20885844 20793180 
2662.462 20698874 20601670 20500930 20394682 20283468 20168086 20051058 
2665.838 19936696 19830118 19737358 19664342 19616290 19596192 19603778 
2669.213 19635114 19680854 19728768 19764824 19777484 19760168 19715466 
2672.588 19653996 19593142 19552530 19547232 19583194 19654508 19744246 
2675.963 19828788 19884676 19896108 19858362 19780716 19681654 19583916 
2679.339 19508362 19467812 19464724 19492428 19538302 19587900 19629288 
2682.714 19655596 19665368 19661034 19646840 19627572 19606038 19583046 
2686.089 19558234 19530338 19497902 19462104 19425118 19390746 19364242 
2689.464 19349140 19347262 19356984 19373596 19391482 19405294 19412306 
2692.840 19414060 19414450 19418200 19428754 19445482 19464492 19480050 
2696.215 19488984 19491108 19491956 19499804 19522286 19561592 19613376 
2699.590 19666356 19706442 19723064 19712842 19681954 19643136 19611496 
2702.965 19598420 19606926 19631102 19659842 19680756 19685264 19673090 
2706.341 19649886 19625386 19609366 19607840 19621912 19647858 19679740 
2709.716 19710994 19736330 19750888 19751572 19735258 19700662 19648328 
2713.091 19582722 19511524 19443770 19389256 19355394 19344928 19358426 
2716.466 19390774 19437406 19491202 19546478 19596464 19635658 19658102 
2719.842 19659756 19639966 19601924 19552326 19500412 19454998 19421944 
2723.217 19402910 19395800 19396938 19403678 19415460 19434958 19466404 
2726.592 19514204 19578646 19657542 19744460 19832246 19912616 19979502 
2729.967 20029486 20060898 20074474 20072862 20059188 20038702 20016174 
2733.343 19995670 19979854 19969094 19962116 19957982 19956158 19959120 
2736.718 19971486 19997142 20038852 20093958 20156096 20215398 20262814 
2740.093 20293342 20308090 20312958 20315974 20322968 20333010 20338986 
2743.468 20329806 20294720 20229666 20139980 20039260 19946848 19879566 
2746.844 19847988 19851562 19879576 19916674 19946744 19959508 19953744 
2750.219 19936578 19920432 19918824 19941598 19991266 20063208 20146502 
2753.594 20226946 20290440 20326670 20331524 20306486 20259886 20203520 
2756.969 20151318 20115168 20104006 20122110 20167646 20234674 20313910 
2760.344 20395412 20469408 20528260 20567314 20585706 20586322 20573894 
2763.720 20556150 20539338 20530618 20533916 20551390 20582196 20625414 
2767.095 20678440 20739322 20807880 20883646 20966918 21057220 21152602 
2770.470 21249338 21343396 21430298 21506856 21571844 21626950 21676176 
2773.845 21724770 21776650 21833700 21893584 21950206 21995328 22020418 
2777.221 22021244 21999198 21962988 21927050 21908260 21920686 21972514 
2780.596 22063578 22185088 22321484 22455962 22572004 22658116 22708556 
2783.971 22723394 22708430 22673722 22632608 22600978 22594076 22623006 
2787.346 22694104 22804102 22943046 23095242 23244392 23378158 23492004 
2790.722 23589016 23675984 23760622 23844350 23922926 23986992 24025686 
2794.097 24035026 24019620 23993450 23977844 23991990 24048012 24146970 
2797.472 24277548 24421424 24558740 24674920 24763698 24827138 24873268 
2800.847 24912782 24952790 24997824 25049044 25105394 25167644 25236844 
2804.223 25316024 25409756 25519182 25644414 25782234 25925718 26068124 
2807.598 26200902 26318432 26416802 26496662 26561522 26619938 26681800 
2810.973 26759296 26862246 26997426 27167734 27369088 27594480 27832574 
2814.348 28071074 28298536 28506254 28690396 28853598 29004070 29157194 
2817.724 29331424 29545904 29816188 30151618 30552192 31010902 31514622 
2821.099 32049998 32605846 33176058 33759600 34359200 34977584 35617572 
2824.474 36279696 36965160 37677480 38425240 39221356 40082316 41023772 
2827.849 42057388 43187536 44411688 45720840 47103040 48547228 50043312 
2831.225 51583472 53161620 54771552 56405240 58056584 59719752 61393892 
2834.600 63083120 64795696 66542552 68333456 70174200 72064136 73995816 
2837.975 75958640 77939240 79926056 81909392 83882232 85836952 87765696 
2841.350 89654528 91486512 93242368 94901576 96447128 97866968 99154112 
2844.726 100307104 101325744 102210984 102961496 103575792 104053576 
2847.619 104397696 104616120 104722472 104733840 104665248 104528200 
2850.512 104325272 104050896 103693680 103241576 102687096 102030680 
2853.405 101282664 100462256 99591328 98690800 97777152 96859776 95943000 
2856.780 95027640 94113672 93202240 92294240 91390584 90489768 89588896 
2860.155 88682392 87766584 86841616 85912776 84990520 84089544 83223560 
2863.531 82403184 81634272 80917232 80248760 79624280 79039960 78494376 
2866.906 77987992 77522880 77100376 76722832 76391768 76109000 75878120 
2870.281 75702104 75585152 75529424 75536344 75605736 75738072 75934080 
2873.656 76195448 76524200 76921384 77384912 77908760 78485768 79109520 
2877.031 79775928 80487856 81250256 82069976 82949112 83880632 84850336 
2880.407 85837616 86823736 87798976 88765824 89738144 90736664 91778736 
2883.782 92871816 94009120 95172960 96341464 97498056 98638200 99771008 
2887.157 100914104 102087448 103302544 104559664 105847792 107149824 
2890.050 108450072 109740648 111023216 112307784 113608312 114937816 
2892.943 116304944 117713776 119165824 120660624 122198456 123779040 
2895.836 125401320 127061752 128755360 130478296 132227104 134002480 
2898.729 135806992 137643008 139513408 141418800 143359728 145339856 
2901.623 147366768 149452112 151608944 153845840 156161984 158546512 
2904.516 160979360 163438384 165907424 168377616 170852032 173339856 
2907.409 175848704 178379760 180926896 183477824 186020144 188547056 
2910.302 191058720 193562304 196061824 198556144 201033520 203473536 
2913.195 205854016 208156064 210368432 212487392 214510128 216430192 
2916.088 218230608 219885312 221365376 222646768 223716640 224577952 
2918.981 225245264 225740464 226084784 226294768 226381792 226353408 
2921.874 226215968 225973840 225627568 225172160 224594672 223877552 
2924.767 223006864 221979984 220810080 219527296 218169696 216772864 
2927.660 215358832 213932656 212480928 210986720 209436048 207828496 
2930.553 206175760 204497184 202807824 201111616 199396944 197643232 
2933.446 195829184 193943072 191988352 189981216 187944672 185898848 
2936.339 183853904 181807776 179750176 177667584 175548352 173386176 
2939.232 171178496 168924048 166623424 164277008 161890144 159474752 
2942.125 157048736 154634624 152250640 149906704 147600096 145317952 
2945.019 143042336 140759792 138464752 136163264 133868040 131591272 
2947.912 129340600 127114224 124903776 122701224 120501656 118311336 
2950.805 116143040 114014944 111942808 109935384 107992344 106105536 
2953.698 104264008 102455440 100670776 98904568 97153312 95417328 93698648 
2957.073 92001328 90332008 88697304 87103112 85550008 84033584 82544512 
2960.448 81073536 79615880 78175192 76765656 75407072 74120960 72921744 
2963.823 71813104 70787760 69829376 68919416 68043152 67192592 66366532 
2967.199 65570012 64809112 64090064 63418216 62798432 62236892 61739124 
2970.574 61309388 60945908 60640324 60378448 60141928 59915276 59690340 
2973.949 59467344 59255348 59066536 58908428 58781244 58675188 58572620 
2977.324 58456292 58312588 58138908 57940744 57730468 57520888 57320244 
2980.700 57129888 56945496 56760644 56570184 56373508 56173792 55976528 
2984.075 55786456 55605424 55431084 55259896 55088680 54917432 54749036 
2987.450 54590940 54449224 54330084 54238280 54178556 54156416 54181364 
2990.825 54264180 54417712 54650800 54966224 55361068 55827372 56358628 
2994.201 56953676 57620544 58374716 59235080 60216376 61321180 62535828 
2997.576 63832180 65172308 66515164 67826632 69081976 70265568 71365640 
3000.951 72370608 73262496 74017264 74606768 75006176 75199312 75183968 
3004.326 74973144 74593416 74079288 73467872 72794832 72091392 71382240 
3007.702 70686072 70018472 69391136 68816144 68303328 67864064 67509072 
3011.077 67247936 67090420 67043088 67112648 67306144 67635544 68116704 
3014.452 68773848 69633560 70723432 72066624 73676600 75555552 77696552 
3017.827 80086776 82712784 85564000 88635816 91924768 95425152 99121504 
3021.203 102985904 106973248 111020520 115050344 118971160 122682088 
3024.096 126077144 129049272 131499376 133346184 134533536 135036272 
3026.989 134864992 134057808 132676080 130789664 128471704 125787360 
3029.882 122796448 119552288 116107288 112514152 108826672 105097800 
3032.775 101375240 97699600 94103512 90612848 87250144 84038632 81001312 
3036.150 78160048 75531264 73121528 70924136 68918920 67076920 65365164 
3039.525 63754552 62226280 60772628 59396844 58110012 56924088 55848008 
3042.901 54885248 54032540 53282392 52629412 52070356 51608624 51252844 
3046.276 51015168 50907528 50938764 51111172 51420236 51854248 52397316 
3049.651 53029728 53731260 54484644 55276628 56101084 56961236 57868364 
3053.026 58841416 59900680 61062920 62335880 63713560 65177812 66697256 
3056.402 68235848 69756392 71223352 72605144 73872224 74995080 75944448 
3059.777 76690720 77207864 77479920 77501376 77280056 76834872 76191344 
3063.152 75375000 74409264 73313688 72105400 70802208 69423480 67994792 
3066.527 66544644 65102480 63697056 62353172 61089540 59920520 58854416 
3069.903 57895604 57044092 56296332 55647020 55087860 54609580 54203296 
3073.278 53861900 53578684 53350992 53178284 53065864 53022968 53064264 
3076.653 53207076 53468684 53861092 54385644 55032572 55776680 56583916 
3080.028 57411248 58213440 58944660 59562600 60029024 60309960 60379016 
3083.404 60220044 59827140 59208624 58384152 57381744 56234036 54972096 
3086.779 53624528 52214748 50762352 49284868 47797848 46315628 44849952 
3090.154 43410380 42006044 40647084 39350156 38136396 37032584 36066600 
3093.529 35258424 34615396 34129488 33775772 33521504 33332080 33181320 
3096.905 33054196 32950170 32877884 32850296 32878444 32965324 33105806 
3100.280 33284460 33480778 33669280 33825724 33929216 33966112 33930488 
3103.655 33825352 33658508 33442500 33187334 32901458 32588776 32251186 
3107.030 31891554 31514202 31125140 30730488 30333510 29931898 29519218 
3110.406 29087800 28633540 28159608 27678546 27208236 26767082 26366332 
3113.781 26009006 25688160 25394314 25119360 24862052 24628784 24429658 
3117.156 24271504 24153484 24065414 23988360 23903190 23796012 23661878 
3120.531 23505520 23337350 23168622 23007436 22859158 22725060 22607030 
3123.906 22507912 22430138 22373814 22334530 22303652 22271608 22231974 
3127.282 22185688 22141712 22112890 22110076 22134036 22172966 22205160 
3130.657 22206154 22158538 22059448 21921734 21769754 21630398 21523712 
3134.032 21457824 21428420 21424434 21434064 21450446 21472220 21502442 
3137.407 21541968 21586370 21627188 21651538 21650530 21620560 21567436 
3140.783 21502876 21439680 21388302 21352242 21327600 21306646 21281460 
3144.158 21246738 21204386 21160968 21128328 21117910 21139890 21198616 
3147.533 21289990 21402156 21517650 21616232 21681556 21705980 21694982 
3150.908 21664786 21639358 21642136 21689590 21784710 21918078 22070832 
3154.284 22221624 22353462 22457616 22531406 22577482 22597620 22592778 
3157.659 22562300 22506924 22433344 22353890 22284842 22241638 22232578 
3161.034 22256302 22299936 22344970 22372448 22369466 22331014 22261328 
3164.409 22169462 22065856 21959772 21858678 21768636 21695950 21647444 
3167.785 21628560 21640704 21681646 21742012 21809340 21870174 21914058 
3171.160 21933940 21928730 21901208 21856368 21801478 21744120 21692402 
3174.535 21652964 21630924 21626194 21634396 21647298 21655614 21653124 
3177.910 21639722 21622472 21612270 21620362 21654248 21715118 21797742 
3181.286 21894204 21998094 22106738 22218096 22328752 22429258 22503314 
3184.661 22530424 22492860 22384384 22216556 22018772 21831256 21693908 
3188.036 21634750 21661628 21760744 21903164 22054442 22184408 22274888 
3191.411 22320912 22328906 22310136 22279212 22249572 22232824 22240376 
3194.787 22280086 22354882 22459726 22579998 22694292 22779116 22816368 
3198.162 22799020 22735560 22645688 22555358 22487098 22453630 22451946 
3201.537 22468156 22480274 22468562 22420180 22334786 22223056 22103102 
3204.912 21996390 21919540 21881402 21880484 21906550 21942766 21971440 
3208.288 21979600 21962490 21925502 21883316 21854300 21856176 21899878 
3211.663 21985102 22102684 22234802 22362968 22470300 22547586 22591126 
3215.038 22602522 22585776 22544872 22482624 22401836 22307056 22204348 
3218.413 22101940 22009368 21933998 21879960 21849316 21842290 21857270 
3221.789 21894586 21954252 22035634 22135160 22246006 22359178 22465654 
3225.164 22560336 22645056 22726438 22815780 22921782 23046306 23181852 
3228.539 23311686 23415030 23474016 23479590 23435422 23355324 23260734 
3231.914 23170036 23097390 23046066 23012148 22988788 22971630 22962198 
3235.290 22967690 22996178 23052142 23131230 23219944 23298544 23348482 
3238.665 23358942 23331212 23278156 23220068 23175496 23155584 23159356 
3242.040 23176996 23193002 23195250 23179144 23148392 23113366 23083578 
3245.415 23064492 23055128 23049044 23040108 23023628 23003640 22986048 
3248.791 22978962 22985324 23000884 23013492 23008692 22973022 22902186 
3252.166 22800676 22683042 22567352 22472998 22414658 22400890 22434448 
3255.541 22512730 22628420 22770902 22926052 23077644 23208884 23308678 
3258.916 23369646 23395936 23396326 23385508 23375898 23375620 23388082 
3262.292 23412202 23446214 23492218 23555718 23642662 23756694 23892216 
3265.667 24033294 24156158 24235352 24252478 24201544 24094536 23956012 
3269.042 23816684 23703988 23634336 23609282 23615410 23630462 23631962 
3272.417 23602372 23536942 23443052 23339434 23250682 23202380 23212522 
3275.792 23288204 23422830 23598788 23788404 23963184 24098270 24177936 
3279.168 24198066 24164382 24089676 23990748 23882838 23780542 23696800 
3282.543 23642780 23629446 23663112 23744798 23866464 24011410 24155642 
3285.918 24274678 24347572 24363222 24323476 24239286 24128268 24007580 
3289.293 23891082 23785748 23694574 23618906 23560618 23524492 23515736 
3292.669 23537256 23587848 23657862 23734120 23800298 23843076 23855116 
3296.044 23837174 23796686 23746410 23697898 23661818 23642388 23640622 
3299.419 23653748 23680210 23718136 23767964 23830044 23904380 23986970 
3302.794 24070482 24144890 24200848 24232438 24241318 24236058 24230234 
3306.170 24238112 24268278 24319066 24377788 24423592 24434396 24394802 
3309.545 24302780 24172260 24030002 23907344 23833414 23823718 23879852 
3312.920 23988906 24129814 24280044 24422174 24546040 24648832 24729304 
3316.295 24786334 24815316 24809976 24764044 24677162 24557044 24419116 
3319.671 24284292 24174722 24105848 24085070 24107814 24161680 24229890 
3323.046 24296776 24352150 24395448 24431136 24469862 24520364 24587246 
3326.421 24667940 24752806 24828620 24882804 24907836 24904714 24880936 
3329.796 24850312 24825846 24816306 24822370 24836742 24846624 24838426 
3333.172 24802924 24739662 24657278 24573190 24506840 24477336 24495042 
3336.547 24559408 24658204 24770200 24870192 24936912 24957732 24934884 
3339.922 24883438 24829158 24799304 24816282 24889694 25015182 25172718 
3343.297 25336398 25478048 25576896 25620848 25607734 25541476 25428496 
3346.673 25274196 25084778 24865878 24629352 24391330 24174938 24003648 
3350.048 23897088 23863850 23901934 23996470 24124574 24262660 24389160 
3353.423 24490628 24560710 24598374 24607000 24590070 24551654 24495810 
3356.798 24427398 24351506 24273894 24199324 24133894 24080672 24044634 
3360.174 24030316 24043046 24087024 24164080 24269704 24392240 24515050 
3363.549 24617726 24681104 24693712 24654620 24573556 24468888 24364310 
3366.924 24280804 24234372 24230464 24265930 24331142 24412376 24496134 
3370.299 24569812 24623754 24652040 24651478 24622052 24568070 24498394 
3373.675 24425290 24364902 24330526 24334116 24378986 24459464 24562720 
3377.050 24672160 24770140 24846300 24895954 24924672 24941554 24957982 
3380.425 24981708 25014554 25052762 25090072 25120210 25140438 25153372 
3383.800 25165052 25180844 25203254 25227954 25243414 25233654 25183144 
3387.176 25081932 24931040 24743250 24543210 24359810 24221018 24145448 
3390.551 24137124 24183156 24257646 24328046 24364070 24347764 24277268 
3393.926 24170068 24055298 23968394 23939444 23985266 24106712 24287688 
3397.301 24501006 24714534 24899750 25034528 25109446 25124694 25091590 
3400.677 25027420 24954294 24891240 24853384 24844528 24858938 24879546 
3404.052 24885944 24856314 24778612 24653390 24494642 24325888 24173854 
3407.427 24061152 24001094 23995764 24037616 24113230 24207356 24304274 
3410.802 24391224 24457756 24497066 24508340 24498130 24480202 24474696 
3414.177 24500230 24570284 24683970 24827378 24974180 25095590 25167182 
3417.553 25180180 25139846 25064488 24977588 24900460 24844750 24813220 
3420.928 24799428 24795434 24791894 24784898 24770976 24750590 24724668 
3424.303 24696080 24669680 24652382 24651928 24672020 24709428 24753660 
3427.678 24787278 24793998 24763300 24697472 24612220 24531574 24479672 
3431.054 24473178 24516026 24599234 24706054 24821122 24932070 25034138 
3434.429 25125252 25204358 25266356 25305448 25314674 25295640 25256218 
3437.804 25210294 25171546 25146456 25127614 25098340 25036370 24925352 
3441.179 24761568 24558690 24341530 24140330 23979444 23873596 23825690 
3444.555 23832390 23888956 23993566 24145200 24339716 24565542 24799588 
3447.930 25010618 25168638 25250944 25252850 25185472 25075300 24951272 
3451.305 24838496 24750460 24689500 24648986 24619400 24593290 24567292 
3454.680 24542682 24522950 24511942 24513150 24525768 24548280 24575924 
3458.056 24600202 24612482 24604846 24572974 24520468 24457928 24402362 
3461.431 24370328 24372558 24411160 24477412 24556168 24634594 24705580 
3464.806 24770632 24836876 24912010 24994524 25074378 25132294 25148876 
3468.181 25111712 25019500 24884622 24725056 24558100 24395444 24240236 
3471.557 24092016 23951712 23828098 23736722 23694424 23711160 23784498 
3474.932 23896106 24017700 24120022 24183992 24204672 24193278 24168884 
3478.307 24150454 24148644 24165700 24194702 24229458 24266562 24308836 
3481.682 24363782 24439030 24538342 24660436 24799472 24947478 25096240 
3485.058 25237774 25362572 25457456 25504916 25488232 25395756 25226294 
3488.433 24994176 24726780 24459592 24228918 24064362 23986254 24002614 
3491.808 24112886 24308086 24572516 24881182 25199410 25486826 25701710 
3495.183 25811850 25802452 25683128 25484850 25253202 25035076 24866634 
3498.559 24767436 24735502 24756232 24809620 24876696 24944972 25009142 
3501.934 25067198 25119372 25165542 25205352 25239862 25269188 25293448 
3505.309 25310622 25313276 25292310 25240148 25155014 25045052 24929156 
3508.684 24831084 24772336 24763802 24802548 24870386 24942738 24996428 
3512.060 25018428 25008024 24975962 24938212 24908498 24893808 24892370 
3515.435 24898150 24903108 24904272 24903540 24907784 24925298 24963308 
3518.810 25026222 25114280 25225484 25355106 25496632 25639520 25771412 
3522.185 25878316 25948690 25977408 25968738 25937612 25907076 25899454 
3525.561 25932814 26010744 26122686 26246200 26353344 26418068 26424060 
3528.936 26368196 26259852 26117116 25959832 25805858 25667080 25548504 
3532.311 25450970 25371500 25306056 25250830 25202016 25154148 25103048 
3535.686 25045272 24981880 24917998 24865060 24838428 24852300 24914428 
3539.062 25023054 25163666 25313382 25445268 25537718 25581638 25582138 
3542.437 25559128 25539334 25545794 25593200 25679310 25791722 25909544 
3545.812 26011518 26084960 26127114 26143930 26145450 26139202 26128164 
3549.187 26108634 26072586 26011766 25921628 25802872 25661116 25503908 
3552.563 25340206 25176244 25019308 24875748 24753946 24662632 24611400 
3555.938 24605040 24643334 24717208 24811698 24907062 24983522 25025132 
3559.313 25023012 24976656 24894810 24792202 24687414 24598196 24538092 
3562.688 24512030 24516548 24537498 24555698 24550140 24504136 24410964 
3566.063 24273478 24105966 23929902 23766530 23635306 23548586 23511672 
3569.439 23522052 23573502 23654640 23752614 23850146 23931362 23978584 
3572.814 23979538 23929030 23832336 23703762 23566502 23446056 23365028 
3576.189 23336784 23364956 23441254 23550314 23671324 23787078 23881796 
3579.564 23946314 23977006 23973728 23939484 23879568 23797580 23698948 
3582.940 23586070 23462082 23329394 23190648 23052362 22921166 22807426 
3586.315 22720790 22669340 22658156 22684120 22742294 22821726 22915174 
3589.690 23017224 23127398 23249556 23385894 23535318 23689512 23831556 
3593.065 23937138 23983270 23952390 23837212 23647280 23404960 23144836 
3596.441 22904398 22719066 22614486 22602398 22678122 22823560 23010556 
3599.816 23207190 23385734 23529224 23632790 23705616 23763680 23824064 
3603.191 23897796 23982468 24065464 24127624 24149534 24123890 24056018 
3606.566 23966048 23881516 23828158 23821634 23862082 23936658 24024372 
3609.942 24104706 24162710 24192788 24196502 24176642 24136358 24076010 
3613.317 23999964 23916606 23843930 23806256 23828644 23926450 24099960 
3616.692 24328298 24577666 24806314 24982194 25088336 25126524 25113908 
3620.067 25071798 25017120 24957070 24887982 24802790 24697700 24577352 
3623.443 24454908 24348170 24272508 24236464 24237736 24269994 24325078 
3626.818 24400556 24499860 24630206 24796864 24997904 25220280 25443238 
3630.193 25643420 25801496 25908872 25969802 25995270 26002148 26003764 
3633.568 26009052 26019356 26031502 26039484 26038286 26023002 25991912 
3636.944 25942072 25872986 25784038 25678534 25561242 25443192 25337006 
3640.319 25259230 25223602 25241406 25316594 25446618 25622926 25830710 
3643.694 26053546 26276350 26486962 26678492 26846266 26989768 27106280 
3647.069 27193944 27249418 27273188 27270274 27253704 27240088 27246884 
3650.445 27283828 27349332 27426424 27489510 27511112 27474848 27380568 
3653.820 27247474 27107958 26998092 26943266 26951626 27009638 27088376 
3657.195 27153696 27177126 27144212 27056916 26928912 26779918 26629544 
3660.570 26492590 26378790 26291366 26230314 26192810 26171836 26157386 
3663.946 26137014 26097628 26030210 25931678 25806210 25665166 25521754 
3667.321 25388558 25273370 25179514 25104906 25047076 25002074 24970404 
3670.696 24951570 24945950 24952936 24967826 24984088 24993544 24984830 
3674.071 24948794 24876018 24760190 24600436 24402814 24180680 23952336 
3677.447 23736826 23550840 23403660 23298136 23229326 23192044 23180854 
3680.822 23193788 23230860 23290836 23364322 23436224 23484862 23491282 
3684.197 23445182 23351002 23229060 23110314 23024876 22994802 23024452 
3687.572 23101460 23200434 23294854 23362756 23394956 23391814 23361618 
3690.948 23312930 23251572 23178532 23096048 23006592 22919848 22849972 
3694.323 22814588 22828742 22902382 23034800 23216338 23429382 23651838 
3697.698 23858708 24029092 24144928 24198336 24191166 24135576 24052970 
3701.073 23968728 23906000 23878742 23889692 23928044 23973382 24003532 
3704.448 23997810 23943996 23839456 23690536 23509066 23311124 23112160 
3707.824 22928616 22773460 22659396 22591678 22573924 22602036 22669062 
3711.199 22765534 22881494 23009096 23145098 23285518 23426854 23564992 
3714.574 23694562 23810182 23909098 23989926 24054400 24102524 24133278 
3717.949 24138908 24110026 24037738 23920662 23767288 23600258 23450340 
3721.325 23351050 23327434 23389010 23524942 23706612 23893850 24045848 
3724.700 24130878 24134754 24062452 23938014 23795632 23671398 23594508 
3728.075 23580142 23626184 23715866 23822008 23916514 23975802 23988686 
3731.450 23956026 23891738 23813754 23740652 23684348 23647110 23623428 
3734.826 23602370 23573272 23530226 23472726 23408432 23349018 23308438 
3738.201 23298252 23328148 23400910 23516054 23667194 23844044 24033158 
3741.576 24221334 24394098 24539482 24648404 24716680 24743544 24732748 
3744.951 24690580 24626988 24550652 24469384 24390120 24315498 24247418 
3748.327 24183100 24119270 24054422 23988170 23925436 23876302 23856294 
3751.702 23880928 23965114 24116078 24329186 24587578 24860472 25108968 
3755.077 25290346 25368534 25320978 25144744 24859406 24504410 24130702 
3758.452 23790338 23526146 23361738 23301552 23330070 23421668 23547808 
3761.828 23686128 23821962 23951140 24073904 24193420 24310312 24421418 
3765.203 24520402 24601308 24659434 24693630 24704772 24696784 24673204 
3768.578 24638586 24596232 24549932 24504004 24463898 24433418 24418786 
3771.953 24424318 24455478 24515830 24607160 24727462 24870146 25022150 
3775.329 25166710 25284002 25358004 25378398 25345418 25268066 25163368 
3778.704 25050006 24945522 24861102 24802356 24768894 24758066 24767452 
3782.079 24795926 24842474 24906466 24984858 25070530 25153676 25223610 
3785.454 25270504 25288756 25278852 25247416 25207946 25177512 25173070 
3788.830 25208650 25289752 25414232 25566686 25727478 25872000 25978786 
3792.205 26031106 26023310 25955886 25837636 25680418 25498788 25307300 
3795.580 25121784 24958082 24832020 24755998 24735766 24767646 24839526 
3798.955 24931996 25023982 25096436 25139252 25152416 25143200 25123496 
3802.331 25104558 25093924 25092246 25094914 25093230 25077726 25041992 
3805.706 24982826 24903672 24815154 24734432 24680964 24672824 24720646 
3809.081 24822156 24961122 25110762 25239432 25322114 25346602 25319802 
3812.456 25263620 25207812 25180084 25195838 25253820 25340686 25435406 
3815.832 25520662 25588342 25641922 25691914 25748854 25814940 25883350 
3819.207 25938032 25960204 25938022 25871354 25775092 25676244 25606564 
3822.582 25593842 25652258 25779518 25953662 26139194 26292990 26376400 
3825.957 26363238 26248836 26051088 25807456 25565862 25371504 25255428 
3829.333 25228600 25278796 25378104 25490840 25586724 25645126 25661892 
3832.708 25645134 25610570 25575998 25557158 25563984 25601390 25669138 
3836.083 25760904 25864194 25962476 26035990 26067550 26045762 25970876 
3839.458 25853464 25713162 25570772 25445670 25349366 25286636 25256334 
3842.833 25256274 25283098 25334372 25404274 25483122 25555142 25602592 
3846.209 25610978 25573940 25497808 25401988 25311840 25252614 25240892 
3849.584 25280178 25360920 25465386 25572992 25665862 25732060 25766000 
3852.959 25766372 25735758 25680114 25608890 25534156 25471594 25433662 
3856.334 25428410 25453646 25496534 25536318 25550152 25519076 25435674 
3859.710 25304088 25140288 24968148 24809878 24683390 24599472 24559948 
3863.085 24562624 24601542 24672688 24772048 24898344 25050936 25226860 
3866.460 25422474 25629350 25835780 26027968 26190022 26309948 26380292 
3869.835 26401422 26381524 26335700 26281004 26234764 26209364 26210932 
3873.211 26241436 26296196 26368180 26447360 26520816 26576556 26602174 
3876.586 26590348 26539498 26456664 26357630 26263016 26193572 26166018 
3879.961 26186766 26254528 26359530 26489906 26633912 26781886 26925466 
3883.336 27055232 27156528 27212082 27202250 27114450 26947228 26716402 
3886.712 26454028 26202486 26005464 25897890 25895868 25993810 26167170 
3890.087 26377372 26582282 26748370 26856610 26905926 26911224 26894636 
3893.462 26876604 26867350 26862942 26848830 26804030 26714640 26577624 
3896.837 26408852 26236644 26096670 26017006 26012090 26074606 26182144 
3900.213 26301526 26402568 26466486 26489712 26482088 26461062 26444106 
3903.588 26441068 26453132 26472168 26484506 26475816 26435314 26356414 
3906.963 26239116 26091160 25926750 25766524 25633744 25549862 25530394 
3910.338 25579574 25689674 25841904 26013274 26181276 26329054 26449236 
3913.714 26540864 26608024 26655830 26687046 26704042 26708776 26704554 
3917.089 26697030 26690954 26688966 26688822 26684192 26667556 26633764 
3920.464 26583870 26526970 26474810 26441114 26433806 26453424 26493508 
3923.839 26544034 26597216 26648298 26698732 26753142 26815098 26883946 
3927.215 26954924 27017860 27062298 27080694 27069076 27030332 26969490 
3930.590 26896332 26821302 26755790 26710504 26694588 26712822 26765736 
3933.965 26844486 26935308 27021250 27088016 27127368 27141694 27139714 
3937.340 27137072 27147822 27180310 27235746 27307906 27386182 27459050 
3940.716 27518928 27562104 27590560 27610126 27628106 27652462 27689172 
3944.091 27741166 27805256 27873090 27930704 27962288 27954942 27901466 
3947.466 27805978 27681622 27547408 27422612 27319996 27241562 27179596 
3950.841 27120674 27053896 26974334 26887976 26807582 26750052 26726706 
3954.217 26739946 26781130 26833248 26875654 26891048 26871288 26816366 
3957.592 26736934 26646556 26560830 26491598 26446464 26427836 26435850 
3960.967 26467590 26522390 26600534 26703506 26832374 26984496 27152538 
3964.342 27321970 27473178 27584512 27639004 27629146 27561322 27455962 
3967.718 27342828 27254920 27218294 27246982 27338616 27478654 27644134 
3971.093 27811942 27964962 28093422 28194490 28267622 28310668 28318384 
3974.468 28282738 28198214 28066284 27899262 27718824 27553354 27428562 
3977.843 27361590 27352858 27390724 27451106 27509628 27546724 27555154 
3981.219 27539594 27511834 27485274 27467952 27458812 27450200 27431930 
3984.594 27396894 27346418 27291374 27247850 27231960 27252968 27312226 
3987.969 27399558 27501818 27603568 27692054 27761216 27809306 27839272 
3991.344 27856072 27866294 27878932 27902868 27945096 28008710 28087276 
3994.719 28166126 28221994 28230112 28173094 28046496 27863754 27653802 
3998.095 27453382 27298018 27214228 27213606 27292008 27434252 
##END=
