##TITLE=Tecor_PLA-Bicolour_White_Filament_r1_ATR-Corrected
##JCAMP-DX=5.01  $$ Nicolet v. 1
##DATATYPE=INFRARED SPECTRUM
##ORIGIN=Curtin University
##OWNER=Nicolet
##LONGDATE=2024/07/19
##TIME=11:06:12
##SPECTROMETER/DATA SYSTEM=Nicolet iS50
##DATA PROCESSING=
Ratio against background
%Transmittance->Absorbance
ATR Correction
Truncated
ElementMultiply or ElementDivide
##COMMENTS=
Number of sample scans: 32
Collection length: 47.27 sec
Sample gain: 1.0
Background collected on: Fri Jul 19 11:05:08 2024 (GMT+08:00);
Number of background scans: 32
Background gain: 1.0
Sample spacing:  1.000
Number of scan points: 16672
Resolution points: 8192
Number of FFT points: 65536
Apodization: N-B strong;
Phase correction: Mertz;
Laser frequency: 15798.3 cm-1
Number of rejected sample scans: 0
Number of rejected background scans: 0
Bench serial number: AUP1200105;
##RESOLUTION=4.000
##XUNITS=1/CM
##YUNITS=ABSORBANCE
##FIRSTX=400.163452
##LASTX=4000.187744
##FIRSTY=0.067180
##MAXX=4000.187744
##MINX=400.163452
##MAXY=0.994062
##MINY=-0.024046
##XFACTOR=1.000000
##YFACTOR=1.000000E-009
##NPOINTS=7468
##DELTAX=0.482125
##ZPD=8192
##XYDATA=(X++(Y..Y))
400.163 67179592 65738968 64122832 62471332 60906452 59529356 58402392 
403.538 57542568 56925264 56487744 56138036 55770004 55284048 54608764 
406.913 53721708 52655736 51491920 50335300 49285084 48405816 47714108 
410.288 47178160 46735508 46311696 45839652 45266320 44552652 43669948 
413.663 42602760 41354788 39961380 38496168 37066704 35794944 34789672 
417.038 34115484 33775164 33707332 33802128 33929848 33974316 33856904 
420.412 33548870 33067084 32459616 31786698 31106558 30466766 29903034 
423.787 29440566 29095646 28875256 28775258 28778418 28855234 28966376 
427.162 29069522 29126068 29108980 29007634 28831148 28606624 28373146 
430.537 28172438 28037062 27980424 27992498 28040996 28087218 28096836 
433.912 28056750 27981900 27912206 27898526 27982526 28179750 28471592 
437.286 28809432 29129916 29374886 29507366 29517742 29419098 29235706 
440.661 28991780 28704056 28383472 28039692 27688486 27352678 27059144 
444.036 26829934 26675694 26591578 26561268 26564168 26583300 26609174 
447.411 26638390 26667100 26685808 26676998 26620108 26499752 26314706 
450.786 26081018 25828102 25588968 25388486 25235786 25123738 25036466 
454.161 24959994 24890936 24838970 24821604 24854946 24944056 25078144 
457.535 25232326 25375128 25477328 25519468 25493784 25403338 25257780 
460.910 25070500 24856854 24634334 24422140 24239714 24099980 24013772 
464.285 23978612 23981886 24005134 24030028 24043790 24041318 24023884 
467.660 23996146 23961942 23923444 23881760 23839818 23803260 23779562 
471.035 23773510 23782684 23793566 23783130 23723692 23591992 23376698 
474.409 23083170 22732374 22355820 21988064 21659686 21393570 21203246 
477.784 21093274 21059272 21087860 21156694 21235772 21292168 21296402 
481.159 21230164 21091220 20893682 20664238 20433470 20228356 20066672 
484.534 19955324 19893582 19876498 19897532 19948918 20019922 20094808 
487.909 20153852 20177488 20152856 20079134 19970366 19851054 19748418 
491.284 19682170 19657032 19661572 19673108 19666990 19627554 19552322 
494.658 19459040 19374754 19328838 19343848 19428716 19575706 19762540 
498.033 19957052 20124002 20232112 20260782 20204128 20073890 19897116 
501.408 19711270 19556280 19465044 19455038 19524892 19654802 19812894 
504.783 19964328 20080560 20145822 20159622 20134938 20092874 20056204 
508.158 20043592 20064850 20119436 20196862 20279900 20349314 20390044 
511.532 20395606 20371462 20333276 20302540 20299052 20333244 20402118 
514.907 20488956 20568330 20614422 20608950 20546378 20434584 20290868 
518.282 20136444 19990438 19867076 19775100 19718800 19698600 19710866 
521.657 19746462 19789802 19820110 19815986 19761648 19652892 19500204 
525.032 19324790 19155496 19014896 18912238 18839540 18774772 18689564 
528.406 18559354 18372050 18131974 17858606 17581282 17331648 17137260 
531.781 17016186 16975086 17008510 17100798 17228620 17365888 17488698 
535.156 17581034 17637688 17665198 17678168 17693364 17722420 17767420 
538.531 17819618 17863366 17881912 17864042 17806898 17715506 17598784 
541.906 17465210 17319220 17162896 16998772 16834340 16684910 16572144 
545.281 16519072 16543122 16649690 16829436 17059640 17309580 17547124 
548.655 17745194 17885512 17960594 17971752 17928054 17843048 17732798 
552.030 17612766 17496082 17390754 17300022 17223174 17158826 17108106 
555.405 17076862 17073914 17110958 17194696 17323858 17487338 17667682 
558.780 17845814 18007910 18148958 18273466 18390934 18510908 18637130 
562.155 18765966 18887992 18992304 19070090 19117928 19136168 19127594 
565.529 19094432 19038612 18964330 18881040 18805924 18762542 18775116 
568.904 18859998 19018276 19232256 19468466 19686112 19848992 19935350 
572.279 19943440 19889986 19803588 19715370 19650654 19623994 19638514 
575.654 19688652 19764016 19853262 19946504 20037120 20122176 20203052 
579.029 20284934 20376104 20485098 20617672 20773272 20944376 21116932 
582.404 21274630 21403526 21496504 21554684 21586592 21604266 21619334 
585.778 21640420 21672486 21718488 21781618 21865822 21974720 22108694 
589.153 22262272 22422622 22571844 22691690 22769096 22800670 22793446 
592.528 22762134 22724164 22693910 22680066 22685092 22708830 22750820 
595.903 22812972 22898130 23007180 23135236 23270244 23394220 23489370 
599.278 23543864 23557956 23544738 23527048 23529646 23571074 23657446 
602.652 23780938 23923142 24062436 24180822 24270070 24332442 24378644 
606.027 24423128 24479294 24556626 24660274 24791522 24949872 25133468 
609.402 25338894 25560178 25788448 26012460 26221634 26408800 26573980 
612.777 26724740 26875510 27043306 27243300 27484018 27765466 28079064 
616.152 28410902 28745120 29068508 29372682 29655654 29920220 30172328 
619.527 30418226 30662042 30903788 31139466 31361412 31560768 31730474 
622.901 31868036 31978060 32072686 32169762 32289476 32449036 32658682 
626.276 32918256 33217062 33536256 33853224 34146564 34400808 34609056 
629.651 34773952 34906040 35020856 35135616 35265224 35419952 35603264 
633.026 35811760 36036544 36265288 36485852 36689512 36873056 37038948 
636.401 37194040 37346240 37501884 37662948 37827028 37988468 38141832 
639.775 38283808 38415648 38542560 38673120 38815972 38977720 39162304 
643.150 39370032 39598236 39841844 40093908 40345960 40588412 40811796 
646.525 41008108 41173288 41307844 41417356 41510924 41598488 41688216 
649.900 41785504 41892780 42011676 42145040 42298244 42478040 42690352 
653.275 42935648 43206824 43488528 43760184 44001416 44198096 44346908 
656.650 44456636 44545524 44635812 44747552 44893624 45076856 45290796 
660.024 45521960 45753500 45968636 46153176 46297076 46396532 46453836 
663.399 46478944 46487944 46501284 46539456 46618772 46746436 46919236 
666.774 47123588 47340216 47549164 47736320 47896160 48032584 48155320 
670.149 48275568 48401324 48534692 48672828 48810824 48945648 49079452 
673.524 49219724 49376944 49559836 49770900 50003128 50240980 50463820 
676.898 50652232 50793520 50885840 50937796 50966332 50990388 51026120 
680.273 51083332 51165020 51268572 51389296 51522832 51666476 51818816 
683.648 51978172 52141372 52303264 52457896 52600832 52730960 52851204 
687.023 52967688 53087636 53215916 53353708 53497916 53642536 53780360 
690.398 53905820 54015732 54109740 54190136 54260748 54326908 54395460 
693.773 54474828 54573628 54699624 54856464 55042228 55248556 55461456 
697.147 55665676 55847780 56000016 56121284 56216192 56291864 56354572 
700.522 56407272 56449532 56478700 56492440 56490804 56476780 56455368 
703.897 56431532 56408632 56387572 56367116 56345088 56318724 56284804 
707.272 56237908 56169900 56068940 55921932 55717132 55448700 55119972 
710.647 54742788 54335512 53917576 53503232 53096972 52691496 52270556 
714.021 51813120 51300152 50719488 50068496 49354244 48590124 47791576 
717.396 46972176 46140204 45298072 44443248 43571508 42680324 41772524 
720.771 40858268 39954396 39082264 38263516 37514860 36845080 36253212 
724.146 35730616 35264248 34842444 34458408 34113168 33815408 33579112 
727.521 33420242 33353936 33392418 33544142 33814608 34206920 34722552 
730.896 35362108 36125124 37010268 38015040 39134608 40360956 41680988 
734.270 43075172 44518252 45980688 47433372 48852500 50224124 51545992 
737.645 52825640 54075388 55305112 56517176 57704016 58850404 59939688 
741.020 60960228 61910772 62800296 63644208 64457708 65249652 66020160 
744.395 66762752 67469808 68139728 68780536 69409616 70047952 70713288 
747.770 71412552 72140392 72881520 73618200 74337312 75036032 75721376 
751.144 76405040 77095432 77790160 78472376 79112392 79673704 80121008 
754.519 80427048 80575896 80562512 80389128 80060648 79582056 78957488 
757.894 78191744 77292760 76273264 75150896 73946272 72680520 71372328 
761.269 70035752 68680600 67312520 65935388 64553164 63171520 61798220 
764.644 60442984 59115876 57825320 56575796 55366488 54191164 53040000 
768.018 51902784 50773004 49651168 48545808 47472084 46447360 45485860 
771.393 44593376 43764304 42983520 42229788 41481472 40722804 39947416 
774.768 39158288 38365380 37580860 36815032 36073460 35356660 34661716 
778.143 33984572 33321996 32672610 32035970 31411834 30799000 30195080 
781.518 29596622 29000174 28402456 27800586 27191632 26572694 25941118 
784.893 25296052 24639924 23979550 23325736 22691828 22090632 21531318 
788.267 21017682 20548120 20116608 19715808 19338464 18978830 18632072 
791.642 18294206 17961584 17632342 17307942 16994760 16704015 16448736 
795.017 16239472 16079038 15959164 15861589 15762314 15639605 15480820 
798.392 15287219 15072726 14859878 14671452 14524288 14424933 14371079 
801.767 14354118 14364440 14393030 14434404 14482372 14529028 14563338 
805.141 14573510 14550430 14491566 14402949 14297972 14193233 14103307 
808.516 14036934 13996012 13977782 13978065 13994960 14029541 14083574 
811.891 14156934 14243552 14332022 14406878 14453700 14463472 14435478 
815.266 14376437 14297941 14212772 14131353 14061198 14007880 13976155 
818.641 13971187 13997116 14055155 14140771 14243673 14349115 14441774 
822.016 14510353 14550316 14564862 14562312 14553323 14547500 14551881 
825.390 14571523 14610674 14674302 14767069 14891465 15045465 15221278 
828.765 15406135 15585626 15748082 15888127 16007768 16115015 16220847 
832.140 16335241 16465547 16616758 16791796 16994792 17229458 17498228 
835.515 17799736 18127460 18470702 18818196 19163818 19510952 19873538 
838.890 20274020 20736116 21278134 21907798 22620246 23401614 24234710 
842.264 25104340 26000368 26916436 27846196 28778200 29693150 30564366 
845.639 31362162 32060042 32640722 33099584 33444740 33694876 33875128 
849.014 34014116 34141548 34287612 34483024 34758064 35142416 35663264 
852.389 36344472 37205764 38262644 39526544 41004344 42696948 44598432 
855.764 46693892 48959696 51364600 53872028 56443840 59042324 61632016 
859.139 64179780 66654244 69026272 71269360 73362464 75291912 77053336 
862.513 78651096 80095712 81399896 82574632 83626776 84557864 85365448 
865.888 86044336 86587792 86987680 87234520 87317376 87225368 86949984 
869.263 86488376 85845264 85032864 84068816 82971760 81756784 80432600 
872.638 79000944 77458648 75801640 74027992 72141704 70153024 68078744 
876.013 65940224 63762052 61569660 59387588 57236916 55133684 53087516 
879.387 51102468 49178900 47317500 45522700 43805648 42183692 40679088 
882.762 39313904 38106264 37066928 36199540 35501508 34967116 34589664 
886.137 34362012 34274728 34313120 34455596 34672764 34930380 35194852 
889.512 35439000 35647516 35818368 35961304 36092768 36229676 36383644 
892.887 36557912 36747124 36939628 37120912 37277248 37397524 37474168 
896.262 37502728 37481420 37410328 37292804 37135708 36950020 36750864 
899.636 36555184 36378952 36233836 36124364 36047744 35994248 35950900 
903.011 35905212 35848736 35778708 35698104 35613156 35531340 35457904 
906.386 35395512 35343700 35301024 35266196 35239764 35223740 35221404 
909.761 35235040 35265656 35311944 35370984 35439276 35513852 35592264 
913.136 35673196 35755368 35837220 35916256 35989152 36051924 36100288 
916.510 36128964 36133336 36108432 36050820 35959764 35838556 35695160 
919.885 35541000 35388936 35250056 35130340 35029920 34943188 34861980 
923.260 34778564 34688820 34593152 34495824 34401512 34313732 34232020 
926.635 34153508 34073776 33989920 33901872 33813268 33729040 33654240 
930.010 33591420 33540622 33500250 33468448 33445254 33432492 33433196 
933.385 33449500 33481356 33525642 33576992 33630432 33681992 33730388 
936.759 33776492 33822180 33869256 33919312 33974872 34040692 34124980 
940.134 34238892 34393732 34598720 34856240 35161624 35503236 35866852 
943.509 36238764 36610852 36981808 37356196 37742040 38147880 38580040 
946.884 39041736 39534100 40057092 40610304 41192756 41802508 42435084 
950.259 43083868 43740048 44394244 45037848 45663604 46264864 46833976 
953.633 47360980 47832012 48229916 48534828 48726616 48786072 48696476 
957.008 48443768 48017364 47411100 46625100 45667920 44558312 43324856 
960.383 42005388 40642552 39279716 37955944 36702972 35543120 34490072 
963.758 33549484 32722012 32004856 31393982 30884362 30471076 30148784 
967.133 29911310 29750986 29658126 29620760 29625960 29660792 29714926 
970.508 29782496 29862866 29959864 30079818 30228532 30408620 30618040 
973.882 30851272 31100328 31358544 31621662 31889256 32163248 32446358 
977.257 32740180 33044226 33356748 33676532 34004188 34344308 34704232 
980.632 35093340 35519364 35986312 36492412 37030060 37586348 38146096 
984.007 38694168 39218792 39713264 40177752 40618820 41048304 41480816 
987.382 41931084 42411472 42929092 43486284 44081428 44710460 45369212 
990.756 46054552 46764812 47499208 48257076 49036336 49834160 50647020 
994.131 51472508 52310028 53161028 54028852 54917008 55828048 56762388 
997.506 57718608 58694204 59687144 60697144 61726684 62780604 63865492 
1000.881 64988776 66157164 67375832 68648104 69975960 71360528 72803032 
1004.256 74306320 75874768 77514264 79231792 81034304 82927600 84916056 
1007.630 87002584 89189712 91480656 93880128 96394152 99029056 101790480 
1011.005 104681768 107704592 110859616 114148824 117576160 121148368 
1013.898 124872568 128753496 132789792 136971824 141282880 145700976 
1016.791 150204000 154773056 159394448 164059104 168759696 173486464 
1019.683 178225152 182957360 187661344 192315808 196903040 201409200 
1022.576 205825424 210145776 214366432 218486144 222508240 226442944 
1025.469 230310160 234139792 237970032 241844624 245808688 249905312 
1028.362 254173488 258647472 263356960 268326944 273576768 279118016 
1031.255 284953728 291076288 297467936 304102240 310944608 317954656 
1034.148 325086272 332287424 339499808 346659520 353698176 360546272 
1037.041 367136288 373405984 379300512 384773504 389786144 394305664 
1039.934 398304480 401759104 404651232 406969312 408709728 409878464 
1042.827 410491616 410573344 410154208 409269344 407956000 406252864 
1045.720 404200416 401840512 399217024 396375040 393360320 390217760 
1048.614 386991328 383722720 380451904 377214336 374040096 370951904 
1051.507 367962848 365076768 362289056 359590464 356970720 354423296 
1054.400 351947808 349552608 347253632 345075776 343052000 341224416 
1057.293 339644512 338373824 337483232 337049472 337152704 337870848 
1060.186 339276544 341434176 344398528 348213312 352911744 358514688 
1063.079 365030304 372452160 380758144 389910432 399857088 410534400 
1065.972 421870592 433788480 446207776 459046496 472220576 485645280 
1068.865 499236896 512917568 526620160 540292224 553896512 567407808 
1071.758 580804864 594062016 607140480 619987136 632537536 644723328 
1074.651 656481984 667764096 678536640 688781056 698487296 707644672 
1077.544 716233536 724220544 731554176 738164928 743970944 748884928 
1080.437 752827136 755734592 757571200 758330368 758030400 756707520 
1083.330 754405376 751168256 747037632 742057856 736279936 729766016 
1086.223 722591232 714841664 706607808 697979392 689039552 679862528 
1089.116 670512704 661044480 651502976 641926784 632348992 622799744 
1092.010 613306368 603893184 594577664 585367232 576256576 567227392 
1094.903 558254144 549311232 540383232 531470464 522590528 513772384 
1097.796 505046560 496435200 487946624 479572320 471294720 463094784 
1100.689 454960640 446891840 438898688 430998688 423210048 415546688 
1103.582 408017600 400628192 393384192 386296128 379382144 372668608 
1106.475 366189280 359982336 354087456 348541504 343375936 338613664 
1109.368 334267840 330341696 326830464 323724672 321012992 318685248 
1112.261 316732800 315146784 313915840 313025312 312456096 312187072 
1115.154 312199040 312477312 313014144 313806816 314854016 316152288 
1118.047 317691840 319457152 321429888 323593696 325939840 328468640 
1120.940 331188480 334108736 337231584 340542528 344004224 347554400 
1123.833 351107616 354562304 357808608 360738656 363253728 365272512 
1126.726 366734272 367602176 367862624 367521408 366599456 365126848 
1129.619 363135648 360656128 357712448 354322080 350496096 346240192 
1132.512 341556512 336446688 330913824 324965792 318617280 311890976 
1135.406 304815936 297425696 289753568 281830624 273684608 265341760 
1138.299 256830032 248183808 239445888 230667680 221906368 213220928 
1141.192 204666752 196292896 188140240 180242832 172628544 165321136 
1144.085 158341328 151707856 145437712 139546016 134045360 128945440 
1146.978 124251168 119962120 116070328 112561080 109413712 106604256 
1149.871 104108352 101904328 99974512 98305104 96884792 95702376 94745440 
1153.246 93999904 93450512 93083728 92888240 92857512 92988344 93280488 
1156.621 93734184 94350016 95127744 96067920 97173368 98450000 99908536 
1159.997 101563800 103434280 105541232 107908040 110559624 113523408 
1162.890 116829224 120510024 124602088 129145904 134185552 139770192 
1165.783 145953344 152792944 160350224 168688752 177871984 187961888 
1168.676 199017296 211093488 224241168 238505760 253924304 270521248 
1171.569 288301920 307244864 327295040 348357312 370294624 392925664 
1174.462 416025920 439329024 462528800 485282240 507216704 527941696 
1177.355 547067840 564230336 579112576 591468096 601131840 608026304 
1180.248 612160832 613624896 612581056 609254336 603916416 596867008 
1183.141 588411072 578840576 568420288 557382528 545929088 534235648 
1186.034 522456992 510727936 499163680 487854720 476867936 466247424 
1188.927 456019392 446200512 436802976 427837792 419315488 411242784 
1191.820 403620032 396439712 389688128 383347712 377401728 371835360 
1194.713 366636128 361792064 357288704 353108384 349229856 345632000 
1197.606 342296704 339210848 336367744 333763872 331395776 329255328 
1200.500 327327328 325589824 324015136 322574144 321239424 319987424 
1203.393 318799392 317659968 316556832 315477152 314406144 313325984 
1206.286 312215168 311049440 309803040 308450656 306969504 305341056 
1209.179 303552896 301597024 299470528 297172608 294704512 292068672 
1212.072 289269152 286311520 283204064 279955712 276576768 273076608 
1214.965 269463904 265746528 261933184 258033280 254058896 250023008 
1217.858 245939968 241822928 237685456 233540848 229404224 225293664 
1220.751 221229024 217230992 213317456 209500528 205784288 202165216 
1223.644 198634176 195180128 191794400 188473008 185218256 182037632 
1226.537 178941776 175942096 173048608 170268064 167603024 165051392 
1229.430 162606656 160258544 157995088 155805120 153681536 151623008 
1232.323 149634944 147727888 145913712 144201840 142594976 141087936 
1235.216 139668560 138320736 137028448 135779536 134568096 133393792 
1238.109 132259872 131171552 130132704 129146072 128212928 127334360 
1241.002 126511904 125747280 125042560 124398128 123812520 123282656 
1243.896 122803848 122371696 121982384 121634536 121327992 121063880 
1246.789 120843768 120669952 120544824 120471648 120454536 120497256 
1249.682 120602968 120772160 121002576 121289144 121625560 122005392 
1252.575 122425304 122884848 123387400 123937376 124539240 125194592 
1255.468 125901688 126654816 127445968 128267336 129112480 129977656 
1258.361 130861792 131764400 132683936 133615192 134549104 135472352 
1261.254 136369664 137225584 138028256 138770320 139449216 140064944 
1264.147 140618064 141105456 141519728 141848704 142078752 142197408 
1267.040 142197520 142078544 141846064 141508384 141072608 140540816 
1269.933 139907680 139162080 138289776 137278128 136121072 134819888 
1272.826 133383976 131827128 130164104 128405672 126557456 124618312 
1275.719 122583480 120447544 118207744 115866784 113434080 110924448 
1278.612 108356752 105750688 103125440 100497064 97879184 95281896 92713784 
1281.988 90181576 87692664 85254856 82878824 80578392 78371040 76277784 
1285.363 74320880 72521832 70898256 69462016 68218200 67164976 66296696 
1288.738 65605440 65083840 64725900 64527100 64482064 64584152 64822912 
1292.113 65183900 65649464 66200672 66818660 67486072 68188096 68912160 
1295.489 69646544 70380208 71101520 71799200 72461696 73079128 73643848 
1298.864 74151104 74599672 74991712 75332608 75630048 75892960 76129936 
1302.239 76347720 76550312 76737552 76906600 77052472 77170264 77257016 
1305.614 77312864 77341112 77347488 77338704 77320960 77297936 77271936 
1308.990 77242856 77209240 77169264 77120744 77062272 76993224 76914512 
1312.365 76829128 76741920 76659048 76586568 76528768 76486560 76457568 
1315.740 76436936 76419328 76402104 76386280 76376960 76381264 76405256 
1319.115 76450584 76513192 76583536 76649864 76701920 76734400 76749088 
1322.490 76753536 76759424 76777880 76817328 76882312 76973624 77090056 
1325.866 77231064 77397520 77591960 77818048 78079400 78378912 78718016 
1329.241 79097928 79519304 79982440 80487112 81031576 81612808 82226776 
1332.616 82869560 83538720 84235088 84961472 85722936 86523384 87365120 
1335.991 88247240 89166632 90119072 91101736 92114520 93160536 94245216 
1339.367 95374400 96552816 97782856 99064216 100394512 101771048 103190992 
1342.742 104653032 106157376 107705400 109299712 110943120 112638184 
1345.635 114386592 116188744 118043024 119947000 121897048 123889752 
1348.528 125921416 127988456 130085376 132203328 134328816 136444000 
1351.421 138527232 140555856 142508976 144369280 146124304 147765040 
1354.314 149284768 150676960 151935152 153051824 154021088 154839360 
1357.207 155506672 156027344 156410192 156666816 156811808 156861408 
1360.100 156832416 156741888 156604784 156433824 156237360 156020080 
1362.993 155782096 155520176 155228048 154896352 154512144 154057552 
1365.886 153510816 152845616 152034096 151049824 149871104 148485344 
1368.780 146891136 145101024 143142832 141060176 138913552 136780448 
1371.673 134752976 132934928 131435288 130361136 129807576 129848776 
1374.566 130530088 131861728 133816648 136331248 139308896 142626528 
1377.459 146142464 149706848 153171472 156400000 159276288 161708288 
1380.352 163628384 164990576 165766048 165939120 165506144 164475120 
1383.245 162866704 160714976 158065072 154969696 151485856 147669904 
1386.138 143576880 139258160 134762464 130135728 125419928 120652080 
1389.031 115862832 111076416 106310688 101579632 96894512 92267528 87712648 
1392.406 83247472 78892520 74672200 70612648 66741152 63084224 59665956 
1395.781 56505872 53616788 51003352 48661196 46576776 44728808 43090796 
1399.157 41633636 40329460 39154116 38088764 37119560 36237104 35434628 
1402.532 34706572 34047956 33453732 32918944 32438994 32009632 31626086 
1405.907 31283218 30975858 30698536 30446542 30216334 30005810 29813396 
1409.282 29638656 29480214 29336406 29205124 29084086 28971072 28864672 
1412.658 28763902 28668324 28578296 28494196 28418242 28353096 28303278 
1416.033 28272980 28265456 28281714 28320496 28378782 28453202 28542346 
1419.408 28647614 28772826 28923438 29102910 29311022 29542518 29787496 
1422.783 30034504 30273940 30500578 30716034 30928274 31149608 31393464 
1426.159 31672132 31993996 32363656 32782342 33249542 33765220 34331188 
1429.534 34951432 35632848 36383484 37212112 38127124 39135964 40245896 
1432.909 41465320 42805856 44284372 45922476 47747020 49787140 52071788 
1436.284 54627148 57476068 60638124 64131476 67974704 72185504 76778096 
1439.660 81759608 87124208 92850200 98898672 105215936 111736248 118386312 
1443.035 125088216 131762192 138329520 144715200 150851776 156681744 
1445.928 162160208 167251952 171930928 176176272 179971968 183307344 
1448.821 186179008 188592576 190562176 192107792 193250432 194009296 
1451.714 194397376 194422624 194086688 193387792 192320176 190873984 
1454.607 189037024 186796240 184142288 181074352 177603664 173754640 
1457.500 169561728 165063760 160298896 155301840 150104464 144737824 
1460.393 139235584 133634312 127972992 122289720 116620152 110996984 
1463.286 105450552 100011624 94712224 89584352 84657104 79953656 75487856 
1466.662 71264720 67282688 63537428 60024472 56741164 53686172 50857312 
1470.037 48250004 45855960 43663648 41659096 39828140 38156940 36633028 
1473.412 35244504 33980416 32830112 31783544 30831480 29965024 29175926 
1476.787 28455992 27797338 27192312 26634856 26121108 25650180 25223256 
1480.163 24842724 24509924 24223556 23979322 23769466 23584866 23416198 
1483.538 23256280 23100932 22947918 22797848 22652044 22512348 22381152 
1486.913 22260256 22150974 22053472 21965770 21883426 21800324 21709722 
1490.288 21607230 21492168 21369140 21247332 21137876 21050490 20990902 
1493.664 20958682 20947500 20947864 20949916 20945874 20931994 20907758 
1497.039 20874900 20834896 20788770 20736616 20678890 20618312 20560054 
1500.414 20510328 20474532 20454520 20446762 20442902 20431888 20403702 
1503.789 20353342 20281458 20195546 20106144 20024770 19959708 19914428 
1507.165 19888574 19879438 19884096 19900654 19928046 19964472 20006180 
1510.540 20046832 20078164 20092574 20085190 20056050 20009468 19952676 
1513.915 19893834 19838680 19790218 19748912 19714158 19685534 19663888 
1517.290 19650660 19646026 19647812 19650470 19646236 19627572 19589954 
1520.666 19533786 19465070 19394030 19331054 19283264 19251648 19231448 
1524.041 19213206 19186420 19143022 19080404 19001568 18914778 18830598 
1527.416 18758814 18706622 18676894 18668408 18677318 18698168 18725860 
1530.791 18755656 18783326 18804220 18813326 18805610 18776570 18724668 
1534.167 18651822 18564040 18470244 18380116 18300724 18235202 18181364 
1537.542 18133304 18083962 18028092 17965224 17899598 17839066 17791136 
1540.917 17760054 17744374 17737438 17729130 17709792 17673746 17620394 
1544.292 17554828 17484712 17418382 17361222 17315538 17279976 17251224 
1547.667 17226138 17201822 17176860 17150460 17122142 17091542 17058812 
1551.043 17024428 16990758 16960076 16935172 16916844 16904206 16894512 
1554.418 16884652 16872508 16858402 16845922 16840570 16847638 16870312 
1557.793 16907340 16953124 16998726 17034338 17051794 17047630 17022884 
1561.168 16983216 16936790 16891870 16855684 16831844 16820628 16819226 
1564.544 16822020 16822632 16815374 16797044 16767742 16730869 16692957 
1567.919 16661461 16643101 16642146 16659567 16693309 16738322 16788800 
1571.294 16839684 16886808 16928406 16963990 16995056 17023410 17050980 
1574.669 17079684 17109902 17140676 17168782 17189942 17199434 17193596 
1578.045 17172260 17138734 17100468 17067700 17050638 17056916 17089560 
1581.420 17145108 17215630 17289800 17356920 17409554 17444674 17464846 
1584.795 17475974 17485390 17498954 17520496 17550576 17587792 17629886 
1588.170 17675618 17724730 17778140 17836224 17898296 17960892 18019364 
1591.546 18068666 18106466 18133562 18155904 18182048 18221168 18279508 
1594.921 18357960 18450744 18547612 18636610 18708224 18758242 18788760 
1598.296 18807270 18823828 18847364 18883328 18933584 18996682 19070344 
1601.671 19153320 19246344 19351388 19469940 19601090 19740220 19880270 
1605.047 20011942 20128220 20224476 20301622 20363628 20417338 20469324 
1608.422 20524414 20584750 20649740 20717462 20786156 20854956 20924562 
1611.797 20997240 21075416 21160802 21254286 21354614 21459478 21565848 
1615.172 21670584 21771746 21868836 21962506 22054362 22145004 22234104 
1618.548 22318778 22394206 22454668 22495268 22513992 22512538 22497268 
1621.923 22477938 22465696 22470096 22496318 22544214 22607312 22675230 
1625.298 22735790 22778584 22796804 22789532 22761040 22719110 22672750 
1628.673 22629708 22594326 22567846 22548654 22535242 22527122 22526022 
1632.049 22535694 22558600 22594364 22637354 22677068 22699862 22693360 
1635.424 22650710 22573174 22471090 22360224 22257650 22175576 22119330 
1638.799 22086910 22071390 22064656 22061502 22061204 22067068 22083540 
1642.174 22113262 22154444 22200766 22243912 22276344 22295020 22302288 
1645.550 22304886 22311984 22330844 22363676 22407172 22453954 22495072 
1648.925 22523980 22538516 22542452 22543230 22550548 22572718 22614216 
1652.300 22674094 22745710 22819634 22885454 22936378 22970910 22994368 
1655.675 23017264 23053372 23115344 23210982 23341568 23499320 23670598 
1659.051 23838198 23987170 24108272 24200384 24270812 24332228 24398754 
1662.426 24481952 24587266 24713010 24852366 24995358 25132688 25258516 
1665.801 25371002 25472640 25567996 25662038 25758204 25857978 25960858 
1669.176 26065812 26172102 26280980 26394754 26517110 26649884 26794364 
1672.552 26948330 27107872 27267704 27423454 27572400 27714944 27853784 
1675.927 27992838 28135048 28281928 28431800 28581602 28727934 28869278 
1679.302 29006842 29145896 29293566 29457636 29643696 29854226 30087168 
1682.677 30338034 30600398 30868638 31138878 31409990 31683098 31959896 
1686.052 32241844 32530074 32823768 33122416 33425088 33732968 34047352 
1689.428 34371132 34706848 35056456 35421948 35804876 36206812 36630516 
1692.803 37078992 37555192 38060024 38592392 39148100 39721132 40306180 
1696.178 40900732 41507732 42135804 42797760 43507632 44277240 45112148 
1699.553 46010948 46964792 47961316 48988136 50036772 51106352 52202748 
1702.929 53336624 54520404 55764888 57075424 58453636 59895780 61397152 
1706.304 62953332 64563840 66232072 67965368 69773376 71665968 73650456 
1709.679 75729784 77903200 80165664 82509464 84925344 87404552 89938784 
1713.054 92521504 95146816 97811584 100514520 103257736 106046800 108890128 
1716.430 111797048 114775120 117826648 120948296 124131312 127365512 
1719.323 130643800 133967504 137348336 140807136 144371696 148070448 
1722.216 151930016 155974112 160224640 164706640 169451632 174499424 
1725.109 179897840 185698368 191954128 198716992 206037872 213968288 
1728.002 222561712 231872944 241956656 252863968 264641968 277336800 
1730.895 291001696 305703776 321530368 338583296 356966720 376764960 
1733.788 398020320 420720384 444798592 470151616 496663584 524226016 
1736.681 552742720 582117184 612226304 642893888 673876480 704867392 
1739.574 735524224 765500224 794475328 822167552 848331200 872743680 
1742.467 895203392 915530752 933585792 949278272 962572672 973477248 
1745.360 982025344 988263680 992249664 994061824 993810560 991641728 
1748.253 987725440 982232000 975308096 967063168 957573568 946898432 
1751.146 935098624 922248576 908434304 893741696 878244608 861998592 
1754.040 845049536 827445248 809251584 790554304 771455104 752055040 
1756.933 732443200 712688192 692844224 672965440 653119232 633392192 
1759.826 613890112 594721408 575984448 557753472 540076160 522977344 
1762.719 506470848 490566368 475275744 460611392 446579808 433176224 
1765.612 420383744 408175008 396518272 385385472 374753792 364605760 
1768.505 354924160 345684320 336850432 328375328 320204832 312283552 
1771.398 304564256 297010496 289598272 282311840 275138816 268065184 
1774.291 261072032 254136080 247231984 240335296 233427232 226494624 
1777.184 219531504 212538656 205522304 198492608 191464800 184458080 
1780.077 177494416 170598304 163793728 157102864 150544096 144132800 
1782.970 137881424 131803032 125912112 120225168 114760272 109534256 
1785.863 104560656 99847096 95395320 91201456 87257480 83553224 80078920 
1789.239 76824800 73783072 70945736 68306696 65858060 63590444 61491104 
1792.614 59545240 57735688 56046020 54462616 52975872 51581436 50277980 
1795.989 49065716 47942752 46904032 45940432 45040456 44191996 43383772 
1799.364 42608464 41861396 41141372 40449788 39791124 39170820 38596040 
1802.740 38072868 37604308 37187172 36811196 36459076 36110188 35744924 
1806.115 35350408 34923152 34470696 34007936 33553782 33124902 32732964 
1809.490 32382060 32070670 31792094 31537886 31298242 31063290 30822478 
1812.865 30565188 30282686 29969360 29625778 29259080 28882382 28513832 
1816.240 28171836 27871834 27622664 27425132 27271946 27150760 27046678 
1819.616 26947170 26844938 26739230 26633914 26536482 26451430 26378204 
1822.991 26306622 26219528 26095792 25916102 25669158 25356462 24990970 
1826.366 24593930 24188838 23795034 23424982 23082788 22768246 22480536 
1829.741 22219836 21989632 21791042 21623320 21479238 21347888 21215678 
1833.117 21073000 20913938 20739538 20551174 20349600 20130438 19886342 
1836.492 19608762 19296776 18958880 18616460 18297506 18030488 17835144 
1839.867 17717024 17666746 17664018 17682678 17699350 17694560 17654874 
1843.242 17571528 17438636 17254184 17020984 16749835 16458722 16170561 
1846.618 15908690 15690953 15524959 15407786 15327959 15270329 15221412 
1849.993 15169472 15108202 15032777 14939448 14826077 14694538 14551197 
1853.368 14409371 14284063 14189537 14131307 14104200 14092598 14075794 
1856.743 14034628 13959695 13852730 13725496 13594958 13476399 13380848 
1860.119 13315331 13283061 13289700 13339982 13435955 13571773 13729027 
1863.494 13877659 13982846 14014621 13959778 13827953 13649554 13465695 
1866.869 13314540 13217418 13173465 13160761 13149052 13112223 13042325 
1870.244 12951870 12871892 12838048 12878716 13002096 13193596 13417099 
1873.620 13627264 13780748 13846520 13812734 13687106 13490081 13248639 
1876.995 12986672 12721116 12460694 12209316 11970207 11752270 11569911 
1880.370 11441895 11383970 11403260 11491036 11623650 11765591 11879199 
1883.745 11932650 11911188 11815527 11663118 11479679 11295360 11137793 
1887.121 11031378 10995846 11046714 11192628 11430979 11744135 12098112 
1890.496 12446310 12739790 12936681 13013468 12967098 12814763 12583386 
1893.871 12302208 11994237 11678073 11370212 11092679 10872518 10740612 
1897.246 10719332 10812770 10998040 11229868 11448349 11601756 11658975 
1900.622 11622974 11523846 11408645 11320553 11283547 11295225 11331464 
1903.997 11356781 11342257 11273977 11155884 11005044 10841482 10678064 
1907.372 10519715 10361124 10198706 10033997 9882233 9768577 9725703 9780492 
1911.229 9947904 10218667 10560810 10917451 11219295 11395401 11391071 
1914.605 11183091 10792998 10282722 9749828 9300806 9029317 8986631 9171667 
1918.462 9527002 9958266 10356224 10625899 10707255 10582312 10273433 
1921.837 9831520 9319738 8802733 8333418 7949907 7670672 7496591 7406886 
1925.695 7370507 7346791 7303231 7221458 7108153 6990620 6912214 6914974 
1929.552 7026937 7250100 7564304 7930512 8308759 8666279 8988144 9270982 
1933.410 9523993 9752247 9958751 10137571 10278997 10371358 10402066 
1936.785 10356905 10220563 9978401 9626403 9174951 8662432 8148479 7705424 
1940.642 7391259 7232271 7200457 7222299 7193453 7020531 6652501 6107898 
1944.500 5472200 4877759 4458058 4315415 4487238 4945531 5608156 6372736 
1948.357 7139878 7841292 8441860 8937964 9338817 9660748 9908716 10079784 
1952.215 10158926 10127977 9964474 9653207 9185919 8575838 7852651 7072555 
1956.072 6304350 5627229 5112728 4822050 4791596 5040132 5559159 6316469 
1959.929 7244237 8242461 9168328 9868810 10193384 10053312 9446122 8477842 
1963.787 7347545 6301065 5562735 5279184 5479200 6080407 6919047 7812985 
1967.644 8610629 9234639 9670787 9961089 10153030 10288821 10381275 10435244 
1971.502 10446790 10431685 10413396 10429374 10513932 10709848 11058037 
1974.877 11625777 12485649 13710707 15326783 17286308 19427200 21515208 
1978.252 23279782 24513520 25113806 25117288 24651746 23887814 22972494 
1981.627 22004164 21031552 20077588 19168768 18361910 17730808 17350880 
1985.003 17247666 17384214 17645886 17882766 17946458 17754384 17312180 
1988.378 16717438 16113825 15645774 15386312 15319694 15329984 15252979 
1991.753 14924937 14248254 13221956 11955973 10635662 9479169 8670642 
1995.128 8317535 8411677 8848090 9442744 9998331 10355856 10440025 10269793 
1998.986 9947822 9606927 9365865 9275671 9316838 9407226 9453477 9386476 
2002.843 9205763 8966118 8760491 8666413 8715527 8866950 9038681 9133748 
2006.701 9100401 8935408 8693839 8419032 8124029 7738852 7155199 6251506 
2010.558 4977351 3384121 1649393 21532 -1220498 -1859598 -1778826 -991860 
2014.416 383052 2143900 4064633 5910282 7486702 8636662 9284271 9421025 
2018.273 9137404 8579738 7935881 7355755 6925900 6621042 6342518 5949904 
2022.130 5351730 4543150 3649443 2871841 2446737 2539881 3201906 4330842 
2025.988 5719683 7103121 8247685 8989587 9271500 9117646 8620530 7902263 
2029.845 7101188 6342671 5742301 5366902 5242819 5324536 5526112 5725252 
2033.703 5828073 5776471 5580335 5284969 4949276 4589545 4191687 3711060 
2037.560 3134463 2500069 1938256 1623873 1743547 2402059 3593184 5170413 
2041.417 6903671 8532933 9856963 10765370 11256371 11393113 11266691 
2044.793 10953025 10510879 9987786 9469829 9069962 8939927 9202005 9907531 
2048.650 10979596 12229436 13398197 14254590 14654445 14591363 14163882 
2052.025 13541653 12891417 12339837 11937542 11674989 11498784 11360730 
2055.401 11237048 11150705 11146007 11272077 11542664 11933263 12372822 
2058.776 12775224 13053992 13153099 13051861 12771402 12356488 11871872 
2062.151 11379954 10945290 10623030 10463630 10495829 10730921 11143376 
2065.526 11677948 12246250 12753437 13110260 13264996 13209823 12993159 
2068.902 12692807 12405488 12201958 12116011 12127317 12175912 12180207 
2072.277 12076984 11838166 11492704 11111183 10791268 10616882 10638691 
2075.652 10854544 11221046 11667526 12130332 12564902 12963276 13334190 
2079.027 13695845 14043529 14355027 14580604 14673116 14600608 14368477 
2082.403 14017378 13615951 13232166 12918825 12691932 12540490 12432433 
2085.778 12340727 12253265 12181184 12146852 12173002 12257298 12373980 
2089.153 12467850 12477607 12350187 12063652 11633139 11111077 10570073 
2092.528 10088449 9729094 9530497 9499321 9615885 9835725 10106187 10369270 
2096.386 10579912 10704581 10736645 10685943 10586127 10476077 10400177 
2099.761 10386382 10449087 10577095 10745753 10916701 11056385 11138182 
2103.136 11155902 11117892 11051216 10988749 10966631 11013551 11144972 
2106.511 11359070 11638573 11950546 12258444 12522962 12716251 12822346 
2109.887 12845197 12798213 12708521 12602268 12506903 12439311 12408730 
2113.262 12407375 12415813 12394787 12296919 12066928 11662446 11061587 
2116.637 10282754 9380989 8449393 7589642 6895635 6418650 6163093 6079501 
2120.495 6094817 6130724 6139617 6111996 6078699 6084895 6169280 6332779 
2124.352 6537352 6710220 6770616 6652324 6329966 5816028 5154499 4394683 
2128.209 3577243 2715380 1807420 841462 -175295 -1216353 -2218395 -3107544 
2132.067 -3800267 -4234977 -4373106 -4215922 -3793987 -3172587 -2434086 
2135.442 -1684350 -1025004 -549263 -315360 -336881 -569456 -937836 -1346218 
2139.300 -1728640 -2055831 -2357946 -2685841 -3094734 -3586833 -4111399 
2142.675 -4557281 -4811874 -4798471 -4536888 -4134984 -3778807 -3654616 
2146.050 -3898831 -4535265 -5487786 -6595064 -7692637 -8654437 -9442521 
2149.425 -10088491 -10676985 -11285225 -11974113 -12755696 -13632328 
2152.318 -14604932 -15696919 -16935332 -18337124 -19858212 -21392866 
2155.211 -22750174 -23711030 -24045938 -23588212 -22243386 -20041878 
2158.104 -17106518 -13673682 -10033542 -6517618 -3409537 -929114 847754 
2161.480 1964441 2609477 3025852 3483524 4160395 5114319 6230238 7289354 
2165.337 8028229 8262148 7938209 7174453 6195557 5259786 4555932 4159768 
2169.195 4011491 3977008 3895509 3659896 3230989 2649327 1975812 1280783 
2173.052 595396 -63442 -682094 -1209598 -1566913 -1655694 -1424368 -899360 
2176.909 -226159 376294 660114 453143 -295138 -1467672 -2830469 -4077049 
2180.767 -4947848 -5277582 -5054586 -4381315 -3437092 -2391224 -1361365 
2184.142 -381289 568148 1536940 2553617 3621563 4702757 5753509 6722451 
2188.000 7586404 8325333 8931911 9382788 9646194 9679256 9454966 8969158 
2191.857 8269896 7433647 6573987 5799681 5205215 4840712 4722505 4820178 
2195.714 5086106 5457016 5874730 6287023 6659489 6969170 7212659 7400066 
2199.572 7560047 7719241 7905362 8121239 8352414 8553713 8677226 8674928 
2203.429 8533846 8275896 7970328 7706774 7580669 7652754 7938014 8387141 
2207.287 8909083 9384994 9714259 9829048 9722643 9434005 9037399 8607158 
2211.144 8203817 7849894 7542337 7258601 6985168 6723140 6501243 6361063 
2215.001 6348632 6486647 6778373 7193861 7693596 8233371 8787845 9338499 
2218.859 9884430 10413438 10901975 11302989 11564331 11637527 11510424 
2222.234 11207698 10803053 10395722 10092908 9974842 10092593 10448038 
2225.609 11018845 11758421 12623016 13564554 14537376 15481368 16326651 
2228.985 16990306 17400236 17508938 17321242 16890370 16319800 15727300 
2232.360 15224388 14884379 14737475 14767633 14934465 15189008 15490006 
2235.735 15802590 16100792 16348490 16508365 16537942 16411930 16127877 
2239.110 15723752 15261048 14818115 14453021 14195563 14028553 13907834 
2242.486 13775626 13597332 13369029 13127799 12929250 12826663 12843515 
2245.861 12967139 13146957 13319561 13428930 13449783 13386963 13276539 
2249.236 13157015 13060643 12998166 12964978 12950903 12956548 12998187 
2252.611 13107620 13312753 13624537 14015638 14427149 14774910 14983156 
2255.987 15002676 14838354 14539565 14194299 13892864 13707861 13669275 
2259.362 13767764 13958424 14186503 14401732 14578318 14710885 14814688 
2262.737 14906210 14999988 15095259 15186463 15261253 15319917 15369306 
2266.112 15434963 15544364 15727319 15998727 16360320 16792454 17261296 
2269.488 17720298 18120872 18414694 18565496 18549574 18364920 18029390 
2272.863 17585426 17088520 16606288 16202524 15931793 15826847 15900616 
2276.238 16142976 16529765 17021562 17578558 18157626 18721500 19237576 
2279.613 19686328 20054678 20344560 20564354 20731402 20863106 20978122 
2282.989 21088708 21206080 21334338 21477432 21632288 21791566 21939318 
2286.364 22053848 22107228 22076010 21943878 21714610 21407810 21062004 
2289.739 20721524 20429500 20215744 20092646 20052480 20074676 20128894 
2293.114 20186388 20221500 20217372 20164214 20063782 19924442 19764734 
2296.490 19607000 19475148 19386326 19347932 19352536 19382922 19416350 
2299.865 19437124 19439102 19432218 19433490 19462524 19526492 19620754 
2303.240 19725262 19815960 19872982 19891318 19881142 19864886 19865690 
2306.615 19898530 19963508 20049344 20138498 20218250 20286796 20354672 
2309.990 20438668 20554740 20708546 20894492 21095806 21291992 21465986 
2313.366 21608048 21715166 21791468 21842408 21875650 21899026 21922878 
2316.741 21958116 22016360 22104614 22225810 22377070 22557020 22771188 
2320.116 23036212 23376012 23811248 24340694 24926780 25488894 25915956 
2323.491 26089740 25919284 25366162 24460124 23291638 21992410 20703452 
2326.867 19547414 18603714 17900316 17418572 17108312 16910230 16773162 
2330.242 16663451 16566182 16477833 16400445 16333709 16277945 16231744 
2333.617 16198408 16182348 16189225 16218903 16264243 16310384 16339162 
2336.992 16335215 16291918 16213654 16115762 16016345 15933899 15878752 
2340.368 15853828 15854729 15873520 15900036 15927117 15948610 15960803 
2343.743 15961166 15949305 15926700 15897145 15864495 15834045 15806424 
2347.118 15780523 15750671 15712189 15660735 15595668 15520222 15438667 
2350.493 15354786 15269615 15181094 15087322 14987433 14885769 14790878 
2353.869 14714074 14663829 14643722 14650283 14672997 14697782 14712828 
2357.244 14708471 14681129 14629439 14553798 14452362 14323067 14163289 
2360.619 13972626 13754809 13518552 13274326 13033311 12803588 12592454 
2363.994 12403711 12243150 12117432 12035845 12005544 12030678 12106682 
2367.370 12222093 12358204 12495342 12616420 12711970 12779744 12824804 
2370.745 12854455 12876400 12894930 12912278 12928274 12944437 12963394 
2374.120 12989922 13028653 13082861 13151841 13231295 13314137 13393350 
2377.495 13462940 13521865 13571477 13617672 13665249 13718915 13779078 
2380.871 13843508 13905326 13958772 13998159 14022518 14035042 14043564 
2384.246 14057454 14087129 14138284 14214302 14312158 14426340 14547635 
2387.621 14666985 14773235 14857297 14909037 14922167 14894089 14829443 
2390.996 14739063 14642302 14559257 14510666 14508685 14557203 14647974 
2394.372 14766385 14893789 15015061 15118914 15201630 15263353 15306642 
2397.747 15332134 15340135 15327330 15291288 15229576 15141860 15029505 
2401.122 14895407 14744405 14584163 14423317 14275426 14152762 14068568 
2404.497 14030130 14041181 14098360 14197095 14330799 14495295 14686413 
2407.873 14900299 15127021 15352749 15557221 15721368 15830716 15883839 
2411.248 15889771 15867395 15835028 15805813 15779018 15744990 15688054 
2414.623 15598696 15480154 15351102 15241100 15181675 15193151 15279077 
2417.998 15421623 15591162 15752334 15877537 15952662 15979614 15970500 
2421.374 15943382 15912179 15886582 15866764 15849464 15828243 15798204 
2424.749 15756493 15703922 15642682 15579381 15519485 15471317 15437582 
2428.124 15420645 15414482 15410521 15395607 15359041 15295253 15208071 
2431.499 15108767 15015971 14948240 14921118 14940754 15005141 15101053 
2434.875 15211741 15316261 15397657 15444607 15455282 15436708 15405423 
2438.250 15379043 15376183 15404233 15459359 15522796 15568449 15569883 
2441.625 15511720 15397379 15249920 15107267 15012529 14997424 15077189 
2445.000 15243934 15472672 15729841 15983632 16211651 16402669 16552025 
2448.375 16658528 16718434 16727576 16682224 16587541 16457696 16316686 
2451.751 16192049 16107382 16071938 16080294 16112179 16142420 16147492 
2455.126 16115153 16045632 15952135 15852001 15761828 15690306 15638426 
2458.501 15598516 15559495 15509380 15441804 15353112 15246863 15129823 
2461.876 15013992 14911203 14835433 14795141 14795057 14831893 14894997 
2465.252 14966986 15029812 15065567 15065444 15026942 14958325 14873018 
2468.627 14790176 14727043 14699644 14718690 14790027 14912535 15079695 
2472.002 15277519 15487917 15687294 15854601 15970411 16026283 16022414 
2475.377 15973505 15902190 15835090 15795454 15798111 15842507 15915256 
2478.753 15991118 16042165 16042870 15980098 15854083 15679983 15482656 
2482.128 15292464 15135760 15035002 15003459 15046679 15163216 15347448 
2485.503 15584836 15855964 16132280 16381919 16572036 16678797 16691573 
2488.878 16620778 16492428 16346283 16220456 16144603 16128708 16164767 
2492.254 16228326 16290739 16326765 16323712 16281653 16212307 16131023 
2495.629 16051397 15978957 15912961 15846184 15774092 15695350 15617752 
2499.004 15554413 15524229 15543859 15624515 15767077 15962109 16188633 
2502.379 16419411 16624391 16778270 16862888 16873130 16814850 16705390 
2505.755 16565630 16419597 16285755 16178347 16105484 16071554 16077004 
2509.130 16122114 16203104 16313845 16442792 16575098 16691923 16778036 
2512.505 16821664 16820240 16777548 16703462 16609557 16506657 16401781 
2515.880 16300088 16205221 16121918 16056785 16017450 16008578 16031124 
2519.256 16076202 16129773 16172774 16187480 16160566 16090062 15984174 
2522.631 15860533 15742030 15651399 15605698 15615042 15677854 15786357 
2526.006 15923955 16073342 16216429 16338853 16429959 16484030 16500272 
2529.381 16482491 16437305 16376104 16310455 16254749 16221493 16219901 
2532.757 16253730 16320201 16410474 16512631 16612533 16699947 16766755 
2536.132 16810214 16827062 16814726 16768582 16683571 16557641 16397607 
2539.507 16219089 16049927 15922057 15867429 15904607 16036136 16241156 
2542.882 16483918 16720233 16909528 17023418 17053874 17009916 16914040 
2546.258 16793126 16672863 16569015 16489897 16435860 16406232 16399734 
2549.633 16418785 16466653 16547820 16662316 16806302 16968996 17138122 
2553.008 17297544 17434272 17537366 17602846 17631882 17632200 17615136 
2556.383 17596084 17591054 17614690 17675010 17773080 17899022 18035102 
2559.759 18156340 18239690 18266586 18230778 18139392 18013388 17878718 
2563.134 17763260 17684528 17649962 17650432 17669984 17687384 17688546 
2566.509 17667076 17630648 17593688 17575554 17590528 17645448 17736030 
2569.884 17850270 17970444 18081156 18169404 18230060 18262756 18272592 
2573.260 18267004 18255604 18246714 18249698 18270460 18313784 18377774 
2576.635 18457760 18542294 18620260 18681762 18722524 18745398 18761942 
2580.010 18785440 18830858 18905514 19009688 19132014 19256480 19363332 
2583.385 19437138 19469160 19461294 19424144 19374960 19332722 19313486 
2586.760 19325024 19367084 19429138 19494442 19543978 19562198 19540608 
2590.136 19482684 19402304 19322156 19267054 19259194 19310572 19421934 
2593.511 19580466 19764360 19946160 20100306 20204984 20247438 20222738 
2596.886 20137408 20002824 19839390 19669428 19518008 19406760 19351910 
2600.261 19360236 19427902 19540230 19676910 19813474 19930446 20012180 
2603.637 20052674 20050156 20009420 19936436 19841020 19735208 19636750 
2607.012 19566910 19549084 19601228 19731390 19929796 20171602 20417688 
2610.387 20627096 20766398 20821522 20797688 20720604 20623844 20541418 
2613.762 20494948 20493348 20530292 20593286 20669268 20750674 20834052 
2617.138 20920818 21009928 21096768 21171278 21222826 21241764 21226482 
2620.513 21181206 21117072 21046194 20979448 20923040 20879708 20850348 
2623.888 20837094 20842604 20871504 20924060 20998260 21085434 21175834 
2627.263 21259804 21334396 21402814 21474544 21560324 21667988 21797104 
2630.639 21939516 22080400 22205250 22300642 22362184 22389496 22389062 
2634.014 22367528 22333526 22293016 22253466 22220320 22200068 22194684 
2637.389 22203022 22216706 22224778 22214842 22181278 22126034 22062384 
2640.764 22010318 21991764 22020582 22100280 22219550 22356916 22485768 
2644.140 22582070 22629620 22624540 22570734 22481154 22370530 22254786 
2647.515 22146068 22054496 21985614 21941756 21920790 21918244 21927424 
2650.890 21941708 21956082 21968586 21978582 21986608 21990604 21986174 
2654.265 21965788 21921548 21847344 21741922 21609832 21459594 21300356 
2657.641 21139468 20979530 20819104 20654786 20483530 20306490 20128700 
2661.016 19957686 19802962 19670094 19560874 19471818 19397538 19329696 
2664.391 19262376 19191078 19113750 19030918 18944824 18858622 18776704 
2667.766 18702932 18639474 18585784 18538820 18493454 18444660 18390814 
2671.142 18335332 18285946 18253898 18248288 18272724 18321282 18381384 
2674.517 18434750 18466078 18466256 18436074 18385158 18327292 18274542 
2677.892 18234752 18207026 18185690 18163176 18135420 18103238 18072576 
2681.267 18051102 18044062 18052452 18071044 18091444 18105080 18106888 
2684.643 18097584 18083308 18072638 18073350 18090426 18123058 18163930 
2688.018 18203012 18227720 18226466 18192626 18124464 18028676 17916836 
2691.393 17805870 17711442 17646514 17615254 17613336 17628360 17644292 
2694.768 17646724 17628580 17590658 17543388 17500724 17476458 17477406 
2698.144 17502488 17542280 17583360 17613378 17623788 17613584 17588382 
2701.519 17557454 17529418 17511188 17505404 17510618 17524198 17543330 
2704.894 17566926 17594534 17627062 17663700 17702262 17738744 17767678 
2708.269 17784778 17788674 17780086 17764016 17745758 17729766 17716780 
2711.645 17703514 17682760 17646494 17588678 17509404 17415044 17318558 
2715.020 17235648 17180738 17161602 17178986 17224780 17286036 17348680 
2718.395 17403950 17446622 17479432 17508324 17540426 17579858 17626626 
2721.770 17675790 17719664 17748992 17756896 17738974 17696210 17633280 
2725.146 17559510 17485992 17424742 17385470 17373140 17387676 17422482 
2728.521 17468408 17515264 17555072 17585438 17608008 17627374 17647202 
2731.896 17668228 17685776 17692204 17680990 17649538 17601528 17548354 
2735.271 17503896 17481322 17486332 17517018 17563640 17613034 17652970 
2738.646 17676154 17682764 17677866 17667982 17658836 17652356 17647900 
2742.022 17642338 17634742 17625850 17619542 17619498 17628226 17644982 
2745.397 17666174 17685530 17697408 17697468 17683484 17654710 17610956 
2748.772 17552306 17478942 17393630 17302560 17215632 17146150 17105966 
2752.147 17104336 17142210 17214526 17308986 17411540 17508216 17589642 
2755.523 17649610 17685780 17696194 17680844 17638504 17571396 17484324 
2758.898 17387676 17295084 17221480 17177916 17170894 17197836 17249948 
2762.273 17314886 17380690 17437782 17482076 17512728 17531394 17539286 
2765.648 17538534 17530060 17516748 17502496 17493078 17493708 17507270 
2769.024 17531546 17558896 17578996 17581314 17559498 17513922 17451458 
2772.399 17384878 17327692 17291832 17283654 17304188 17349908 17415428 
2775.774 17494870 17583306 17675702 17766544 17847338 17910038 17946316 
2779.149 17951768 17927866 17883768 17833762 17794584 17780462 17798884 
2782.525 17846880 17913138 17979796 18027758 18043052 18019296 17960690 
2785.900 17880422 17797888 17732938 17701336 17711894 17764550 17851264 
2789.275 17958642 18072634 18179922 18272324 18346274 18402592 18444468 
2792.650 18476024 18500262 18520092 18536446 18551866 18568328 18591374 
2796.026 18624118 18670516 18731892 18806660 18889552 18973890 19051858 
2799.401 19116570 19162270 19186304 19187628 19168020 19130674 19081058 
2802.776 19026232 18974412 18935220 18917148 18925122 18961508 19022266 
2806.151 19099954 19182866 19259668 19321288 19363076 19386918 19400078 
2809.527 19413432 19438240 19483394 19551940 19641524 19743168 19844290 
2812.902 19932660 19997948 20035872 20048402 20044066 20036024 20038224 
2816.277 20062996 20118324 20205180 20317694 20444118 20568506 20675282 
2819.652 20751314 20789454 20791200 20764336 20723386 20684612 20663036 
2823.028 20668658 20703780 20763742 20838008 20914300 20979952 21026870 
2826.403 21052272 21057866 21050592 21039504 21033940 21042292 21070578 
2829.778 21121666 21194050 21281920 21376120 21463486 21531596 21569456 
2833.153 21570644 21535812 21471628 21389182 21303744 21228606 21175622 
2836.529 21151016 21156336 21187952 21238620 21297914 21355408 21401154 
2839.904 21430062 21441168 21440212 21438198 21449602 21487062 21559042 
2843.279 21666430 21801090 21947802 22088342 22205810 22289254 22335468 
2846.654 22349718 22343708 22332214 22328214 22342756 22380950 22443670 
2850.030 22526122 22621594 22721240 22817172 22902846 22975070 23034038 
2853.405 23083196 23127170 23170102 23214010 23258224 23298110 23328080 
2856.780 23342824 23338850 23316932 23281594 23239582 23199782 23171836 
2860.155 23164162 23183324 23233394 23313920 23421330 23545510 23674770 
2863.531 23795186 23895922 23972116 24028602 24078720 24142016 24239236 
2866.906 24386952 24592192 24852502 25155218 25484210 25824456 26167816 
2870.281 26514692 26874116 27259532 27684292 28156344 28675192 29231932 
2873.656 29812896 30400184 30979434 31539220 32072350 32574688 33042550 
2877.031 33469610 33848280 34168184 34421412 34602796 34714912 34764288 
2880.407 34764412 34728716 34669852 34595060 34507300 34404188 34282104 
2883.782 34136628 33965876 33768676 33546116 33300150 33033244 32748036 
2887.157 32449846 32146722 31848862 31567082 31312060 31091344 30907998 
2890.532 30761016 30646698 30559630 30494920 30446888 30410818 30380534 
2893.908 30349546 30311474 30263372 30205424 30144904 30093016 30063226 
2897.283 30066956 30110502 30192028 30303988 30433210 30565640 30689948 
2900.658 30798154 30887302 30957950 31012670 31053990 31084286 31105328 
2904.033 31117786 31122958 31120230 31110102 31093160 31070284 31044740 
2907.409 31021756 31007742 31009530 31033634 31084318 31163582 31270344 
2910.784 31402666 31556688 31727496 31910464 32099738 32291192 32480844 
2914.159 32669198 32859628 33058166 33272080 33505634 33757964 34022036 
2917.534 34286048 34537684 34767484 34972636 35157412 35330916 35503116 
2920.910 35680564 35865860 36058716 36258624 36470688 36705792 36978900 
2924.285 37306040 37696744 38150912 38658848 39202536 39765148 40333588 
2927.660 40904464 41481492 42073400 42686248 43322884 43979528 44651412 
2931.035 45334416 46032304 46755892 47523376 48353240 49263296 50263476 
2934.411 51357580 52544048 53819144 55179900 56625028 58153716 59765368 
2937.786 61456084 63218192 65038612 66901296 68785776 70669000 72523928 
2941.161 74321384 76029048 77614280 79045240 80294960 81340064 82165200 
2944.536 82760328 83123160 83255928 83167680 82871920 82387120 81734120 
2947.912 80934344 80007104 78969072 77832576 76608760 75309640 73950520 
2951.287 72551656 71139104 69740664 68384088 67091508 65877600 64747020 
2954.662 63695676 62712320 61784884 60900956 60054836 59245216 58476364 
2958.037 57753440 57079584 56451964 55861112 55292140 54729808 54162832 
2961.413 53589280 53016512 52460676 51939880 51468780 51053080 50689480 
2964.788 50364372 50063556 49774152 49490848 49214760 48953348 48714472 
2968.163 48504260 48322912 48168484 48037004 47925924 47836764 47772404 
2971.538 47736648 47733252 47762048 47822640 47913616 48036740 48196320 
2974.914 48399052 48651316 48956744 49314384 49719992 50166052 50646980 
2978.289 51158716 51701320 52278544 52895284 53558612 54275712 55056932 
2981.664 55914040 56860144 57907892 59066024 60335644 61710060 63175320 
2985.039 64714232 66312788 67962496 69663984 71424896 73255240 75160576 
2988.415 77136856 79166744 81220128 83257232 85231904 87098912 88819416 
2991.790 90362264 91707192 92844176 93771424 94492368 95013992 95342936 
2995.165 95484832 95444328 95227176 94840568 94296720 93611192 92801544 
2998.540 91884680 90874200 89778832 88601888 87345176 86010400 84604200 
3001.916 83137400 81624456 80082232 78524672 76962368 75400824 73843848 
3005.291 72292744 70750712 69221568 67709280 66216528 64741448 63280248 
3008.666 61826596 60376304 58929172 57491832 56076884 54699732 53375472 
3012.041 52112592 50912060 49764112 48654216 47563356 46477620 45388816 
3015.417 44299040 43217268 42160092 41143256 40178948 39272840 38423620 
3018.792 37624288 36864808 36136692 35435368 34759496 34112308 33498626 
3022.167 32924354 32393262 31910046 31476922 31093262 30754928 30453500 
3025.542 30173182 29893852 29593270 29254922 28870004 28445406 28000204 
3028.917 27563006 27162914 26823050 26551812 26341082 26170686 26014502 
3032.293 25849982 25664332 25456402 25236870 25020992 24822496 24649384 
3035.668 24501334 24370470 24246856 24120340 23985598 23841604 23693068 
3039.043 23546044 23406362 23277722 23160544 23050916 22943218 22831180 
3042.418 22710196 22578726 22442302 22308826 22190188 22097582 22038194 
3045.794 22012540 22015002 22034186 22058306 22078638 22091370 22100002 
3049.169 22111100 22129798 22158682 22192812 22222632 22235400 22221228 
3052.544 22172392 22090316 21979422 21848340 21705908 21560162 21417262 
3055.919 21283796 21166562 21073888 21012586 20988314 21001092 21046414 
3059.295 21114300 21193024 21270336 21336132 21383196 21406150 21402818 
3062.670 21371440 21312822 21231294 21135302 21038048 20953566 20896914 
3066.045 20875956 20891104 20935368 20995858 21057190 21107806 21141080 
3069.420 21156590 21158160 21150322 21135862 21114164 21081804 21035066 
3072.796 20973312 20900888 20826172 20762400 20722100 20714794 20743604 
3076.171 20803688 20881704 20959332 21014612 21028988 20989802 20896404 
3079.546 20760710 20606432 20463624 20364320 20330188 20371832 20481206 
3082.921 20637920 20812132 20975002 21103058 21185894 21222956 21222016 
3086.297 21193022 21145734 21085340 21015786 20939976 20863522 20793284 
3089.672 20738936 20704636 20693206 20699346 20715056 20732228 20744824 
3093.047 20752534 20757540 20764626 20775464 20787032 20793706 20787570 
3096.422 20764656 20726108 20679728 20635732 20603922 20587734 20585100 
3099.798 20587572 20587018 20577494 20560976 20544032 20535226 20540816 
3103.173 20559252 20581030 20591222 20574058 20520844 20431160 20314500 
3106.548 20188302 20071586 19980238 19926382 19914526 19945318 20013758 
3109.923 20112552 20228642 20345824 20442536 20498670 20497658 20434238 
3113.299 20317088 20169224 20023326 19912792 19863188 19887006 19979246 
3116.674 20122774 20292672 20466310 20626076 20763346 20874228 20957332 
3120.049 21008022 21020616 20988158 20908008 20786344 20641438 20497244 
3123.424 20382850 20319278 20315798 20364646 20445682 20529058 20586906 
3126.800 20600182 20563802 20486176 20385908 20283824 20197084 20134208 
3130.175 20096368 20077882 20070866 20071538 20080946 20104154 20147706 
3133.550 20215186 20303246 20400820 20492104 20559696 20593234 20591552 
3136.925 20565170 20533610 20519566 20538762 20596398 20682454 20774032 
3140.301 20843888 20867162 20830952 20739236 20609452 20470762 20352866 
3143.676 20277866 20255600 20281756 20341030 20411850 20474758 20514196 
3147.051 20522100 20497302 20444010 20369420 20282958 20195936 20118962 
3150.426 20062512 20033480 20034642 20062078 20106592 20155882 20198298 
3153.802 20225570 20235128 20230904 20219884 20210770 20210360 20222892 
3157.177 20250608 20294368 20355236 20433548 20528670 20636472 20748146 
3160.552 20850926 20930566 20973214 20972582 20927590 20845766 20739982 
3163.927 20625550 20517054 20428228 20367472 20340132 20348230 20388918 
3167.302 20454012 20530096 20600670 20650056 20666840 20650052 20608944 
3170.678 20561856 20530962 20534082 20578596 20658762 20755706 20847142 
3174.053 20913194 20943496 20941868 20923256 20906138 20906852 20931080 
3177.428 20972840 21016432 21043786 21041310 21005570 20943294 20868484 
3180.803 20798792 20745874 20714560 20702718 20702856 20708028 20714590 
3184.179 20724688 20744000 20777884 20828282 20891230 20957096 21013550 
3187.554 21048466 21054012 21027054 20971018 20891906 20798500 20700568 
3190.929 20608836 20534358 20489808 20485174 20526274 20611736 20730954 
3194.304 20866116 20995744 21100160 21167742 21197060 21196820 21181300 
3197.680 21164270 21155952 21158710 21168466 21178868 21184750 21184066 
3201.055 21178210 21170306 21162080 21152122 21134728 21104826 21057888 
3204.430 20994986 20921286 20846168 20779222 20728974 20701032 20698858 
3207.805 20723764 20778448 20863692 20978218 21115890 21263876 21404466 
3211.181 21517450 21584872 21596326 21550600 21456968 21329800 21188982 
3214.556 21051704 20932992 20844212 20793370 20784050 20817562 20888742 
3217.931 20987762 21100454 21211348 21307334 21381476 21434950 21476084 
3221.306 21516692 21566852 21631550 21709394 21791388 21867984 21929848 
3224.682 21972740 21996106 22002652 21994754 21973284 21937036 21885462 
3228.057 21820292 21748804 21683928 21642288 21639106 21685706 21781788 
3231.432 21918032 22074342 22225384 22346774 22418242 22429534 22381594 
3234.807 22283114 22148898 21993746 21829960 21664726 21500660 21338746 
3238.183 21181698 21035846 20912292 20824002 20781998 20792282 20852376 
3241.558 20951620 21075320 21206924 21334320 21449328 21549642 21635036 
3244.933 21707362 21767042 21813960 21848008 21870044 21882252 21887032 
3248.308 21885908 21878118 21861682 21834748 21797848 21758098 21725776 
3251.684 21714008 21732656 21784688 21863882 21956240 22043814 22110606 
3255.059 22147622 22153420 22134898 22102010 22064832 22030064 21999556 
3258.434 21973428 21950798 21930794 21915066 21904920 21901358 21904156 
3261.809 21911894 21922930 21936268 21951480 21968888 21988498 22009766 
3265.185 22032902 22057362 22086670 22123898 22173564 22237096 22310770 
3268.560 22384912 22446970 22482420 22482538 22443912 22371588 22274468 
3271.935 22163454 22046028 21926262 21807136 21691394 21586316 21503462 
3275.310 21456830 21456906 21507226 21600112 21717064 21834168 21926832 
3278.686 21976828 21975536 21925362 21836766 21724534 21604328 21490608 
3282.061 21394860 21326462 21291836 21294412 21333762 21405716 21500558 
3285.436 21606378 21709360 21797118 21860694 21896748 21906816 21899632 
3288.811 21885470 21877612 21884140 21910480 21952554 22000284 22038286 
3292.187 22052590 22034546 21985478 21917556 21850060 21804160 21795376 
3295.562 21828834 21896894 21981616 22061814 22116630 22135622 22117550 
3298.937 22070500 22010340 21954826 21918950 21913712 21942458 22000094 
3302.312 22075080 22150982 22208678 22234596 22221612 22174256 22105764 
3305.688 22037472 21989186 21976488 22003834 22067470 22156832 22259142 
3309.063 22364498 22465762 22557708 22634644 22687194 22705214 22677194 
3312.438 22600002 22478194 22326254 22165928 22019396 21904504 21831856 
3315.813 21804802 21822032 21880540 21975562 22100754 22244856 22390248 
3319.188 22515472 22600076 22631518 22609544 22547890 22467664 22389766 
3322.564 22325600 22275168 22225730 22163420 22080622 21982934 21888912 
3325.939 21824512 21811900 21861392 21965854 22105394 22252040 22379478 
3329.314 22468534 22508318 22494318 22426628 22306350 22138524 21935584 
3332.689 21718268 21514930 21354492 21257922 21232632 21267434 21339142 
3336.065 21419180 21485552 21528940 21554388 21575574 21608332 21662316 
3339.440 21738894 21833024 21936618 22044750 22156288 22271690 22391070 
3342.815 22509250 22617238 22705120 22766584 22802512 22820434 22830140 
3346.190 22838162 22842806 22833930 22796094 22716896 22592382 22431670 
3349.566 22253462 22082548 21939214 21836314 21774530 21747004 21741336 
3352.941 21745928 21751198 21753086 21748992 21739822 21728050 21717858 
3356.316 21714318 21722742 21744492 21777086 21813082 21842982 21860578 
3359.691 21867672 21875218 21901074 21963794 22073792 22225792 22401266 
3363.067 22569796 22701716 22775610 22785780 22741938 22663882 22573580 
3366.442 22487330 22412730 22351592 22303580 22270852 22259422 22277230 
3369.817 22327690 22406282 22498626 22583512 22639496 22653288 22622366 
3373.192 22557164 22475258 22396058 22333300 22293910 22277566 22279612 
3376.568 22297104 22329374 22378464 22446322 22530566 22623480 22711994 
3379.943 22779832 22813682 22807038 22763638 22696788 22625594 22570888 
3383.318 22548492 22565138 22617888 22696044 22785618 22874540 22955854 
3386.693 23028876 23096334 23159594 23214096 23248192 23245912 23194340 
3390.069 23088448 22939976 22774584 22626628 22525996 22490850 22517562 
3393.444 22584006 22658926 22714108 22735266 22728902 22717160 22727014 
3396.819 22776986 22867780 22977590 23073252 23118502 23092270 22991890 
3400.194 22839088 22667378 22514290 22407862 22360340 22368548 22417160 
3403.570 22486854 22559324 22620586 22661480 22677060 22666062 22630422 
3406.945 22576544 22514178 22456144 22411854 22386934 22376910 22369408 
3410.320 22349174 22303002 22227104 22129846 22030270 21951790 21916098 
3413.695 21934234 22005410 22116684 22246840 22376576 22488324 22574704 
3417.071 22635020 22673168 22694072 22700382 22690470 22659962 22603220 
3420.446 22516082 22397398 22252690 22093104 21935796 21801820 21713620 
3423.821 21690322 21744374 21877552 22079422 22328264 22592896 22838966 
3427.196 23035100 23158640 23200196 23165040 23073216 22952752 22835498 
3430.572 22749260 22713334 22733492 22802730 22902592 23007682 23093172 
3433.947 23139168 23135364 23083946 22997832 22898294 22809364 22751286 
3437.322 22737250 22767846 22832348 22911208 22979102 23012532 22994920 
3440.697 22919312 22791474 22627836 22450628 22283924 22148222 22057302 
3444.073 22016730 22024796 22076298 22163728 22281436 22424566 22590478 
3447.448 22775002 22972478 23172934 23363254 23528812 23654832 23732814 
3450.823 23758086 23736076 23677930 23599552 23519062 23452968 23412654 
3454.198 23405228 23431168 23485366 23559706 23643834 23727410 23802404 
3457.573 23862866 23907640 23938098 23959366 23976568 23994468 24014240 
3460.949 24035410 24053558 24065536 24069468 24067224 24065094 24071592 
3464.324 24095704 24143384 24216862 24315456 24435206 24573678 24728194 
3467.699 24897138 25077362 25260108 25431474 25572502 25664814 25695514 
3471.074 25662120 25576656 25461104 25345060 25255088 25210262 25217272 
3474.450 25271458 25361486 25472856 25595154 25722300 25851954 25983760 
3477.825 26116084 26245402 26365734 26472504 26564288 26644486 26721416 
3481.200 26806592 26911640 27044676 27208186 27397372 27600388 27801484 
3484.575 27981020 28123336 28220172 28271968 28291770 28300386 28322784 
3487.951 28381216 28487126 28641486 28832548 29040888 29245778 29430470 
3491.326 29585036 29707092 29798868 29864352 29907900 29933162 29943668 
3494.701 29944020 29939414 29934208 29930776 29928526 29925208 29921890 
3498.076 29924712 29947516 30006742 30116720 30280442 30484098 30697654 
3501.452 30881468 30999514 31030192 30976898 30865666 30737002 30633780 
3504.827 30585748 30602752 30674866 30777826 30884852 30973172 31030688 
3508.202 31053100 31042304 31001362 30933112 30842894 30740316 30639138 
3511.577 30557050 30508772 30498718 30519052 30547942 30558194 30524726 
3514.953 30432920 30286326 30102276 29907268 29727916 29580970 29470716 
3518.328 29387884 29313954 29227636 29110998 28952256 28750214 28512022 
3521.703 28255730 28004760 27787396 27628834 27548340 27552820 27633756 
3525.078 27766928 27917150 28044946 28112924 28093438 27972658 27752220 
3528.454 27449040 27089904 26710286 26346726 26031332 25785398 25616042 
3531.829 25514120 25457158 25416602 25367584 25295940 25202850 25104030 
3535.204 25022686 24980976 24989500 25045666 25135804 25238358 25334392 
3538.579 25412100 25468608 25507138 25532790 25547714 25552390 25543818 
3541.955 25522004 25490990 25459132 25435626 25426314 25429894 25437652 
3545.330 25435972 25412682 25361550 25286874 25200948 25120260 25058914 
3548.705 25023836 25013974 25020718 25032004 25038278 25034380 25020078 
3552.080 24998958 24975554 24953464 24934354 24916192 24896598 24871964 
3555.456 24841822 24805560 24765336 24726428 24696006 24681868 24690722 
3558.831 24725934 24786206 24864468 24949832 25031020 25098564 25146342 
3562.206 25173976 25183262 25177072 25156238 25119678 25065458 24991780 
3565.581 24900202 24793952 24679880 24564822 24452980 24346648 24248212 
3568.957 24159370 24086120 24037716 24024748 24056466 24135430 24255642 
3572.332 24401746 24552956 24686894 24786110 24839392 24847314 24816486 
3575.707 24760126 24693518 24629184 24576634 24541776 24525812 24527670 
3579.082 24544108 24572594 24610492 24655504 24704390 24753050 24794120 
3582.458 24819532 24820338 24791348 24732552 24650574 24557238 24465452 
3585.833 24385472 24318508 24256476 24185978 24095670 23980468 23848346 
3589.208 23719574 23619036 23568590 23576102 23633868 23718954 23800682 
3592.583 23852464 23860136 23824774 23760506 23684492 23610642 23540762 
3595.958 23467842 23378578 23264378 23127294 22983528 22858366 22779644 
3599.334 22767084 22823384 22934408 23071744 23200652 23289752 23319642 
3602.709 23284476 23193690 23065080 22921174 22782698 22665890 22580930 
3606.084 22532318 22520782 22545372 22602468 22686988 22792156 22908766 
3609.459 23024926 23128016 23208800 23262532 23292962 23310404 23331496 
3612.835 23371058 23438580 23530428 23632274 23719804 23770880 23769672 
3616.210 23718470 23635506 23552404 23502010 23507940 23574844 23690336 
3619.585 23825836 23950660 24042884 24097132 24125194 24150706 24197432 
3622.960 24280862 24400406 24541576 24680722 24793680 24864216 24888270 
3626.336 24872660 24830676 24775134 24715180 24655092 24594378 24534380 
3629.711 24481334 24448672 24455340 24522248 24664580 24885328 25171706 
3633.086 25493686 25807248 26065746 26228486 26274704 26208014 26059988 
3636.461 25882538 25734950 25670502 25719230 25884260 26142372 26452584 
3639.837 26770662 27062138 27310544 27517560 27696046 27859982 28015252 
3643.212 28155100 28263038 28320124 28311946 28239216 28116066 27968420 
3646.587 27826654 27716710 27653468 27641260 27671976 27729394 27796802 
3649.962 27857822 27901508 27924398 27928946 27925742 27928934 27955900 
3653.338 28019958 28127526 28273710 28442868 28611230 28754118 28850300 
3656.713 28891000 28879136 28827410 28754198 28674672 28596864 28520388 
3660.088 28437722 28338750 28214562 28062328 27884628 27691096 27492602 
3663.463 27302348 27131826 26988688 26879362 26805464 26765636 26754950 
3666.839 26765634 26787688 26809252 26819822 26811480 26778410 26719240 
3670.214 26636816 26538540 26434556 26335872 26251388 26184826 26132222 
3673.589 26080966 26014234 25915686 25776406 25600844 25409166 25231078 
3676.964 25098004 25031492 25034648 25089304 25159954 25204116 25185252 
3680.340 25084130 24904454 24668766 24410134 24160766 23943332 23764012 
3683.715 23618980 23498074 23392380 23299058 23221940 23167238 23136066 
3687.090 23123348 23114726 23093820 23047746 22973632 22882024 22792010 
3690.465 22725286 22696752 22709394 22752926 22808884 22857034 22885714 
3693.841 22893420 22890820 22893314 22915672 22963624 23033708 23112752 
3697.216 23185984 23239964 23270220 23277856 23271438 23259428 23246038 
3700.591 23231526 23214776 23193412 23169682 23148804 23136756 23137656 
3703.966 23145522 23147164 23123528 23056048 22935374 22766720 22572510 
3707.342 22387490 22248774 22187146 22216938 22330724 22504250 22700400 
3710.717 22882660 23020954 23101412 23123628 23101300 23051762 22993348 
3714.092 22936298 22884228 22836010 22789032 22743292 22706654 22692368 
3717.467 22717670 22796696 22937354 23133926 23369460 23617460 23847300 
3720.843 24033438 24158442 24214898 24207392 24145048 24039746 23901490 
3724.218 23740422 23563676 23381266 23204592 23045048 22914028 22815798 
3727.593 22748358 22704454 22674568 22652942 22640462 22646268 22683916 
3730.968 22765194 22892768 23057756 23239110 23409990 23545034 23628660 
3734.344 23659206 23647822 23612954 23573930 23544564 23528010 23518732 
3737.719 23508824 23489744 23460224 23426802 23402670 23403550 23442778 
3741.094 23525024 23645156 23788596 23934480 24059768 24145320 24180788 
3744.469 24167028 24115484 24045166 23975586 23920474 23886518 23869938 
3747.844 23859654 23841424 23802268 23736762 23647666 23547462 23455050 
3751.220 23390608 23371174 23405200 23487546 23603346 23726502 23826984 
3754.595 23879524 23869968 23800054 23689848 23571792 23483260 23455332 
3757.970 23504192 23624826 23795664 23981604 24147508 24264790 24319120 
3761.345 24306808 24235542 24114540 23955440 23767848 23564038 23360834 
3764.721 23179740 23044926 22977652 22988820 23073650 23213444 23378360 
3768.096 23536368 23662246 23742182 23776896 23776898 23758518 23738232 
3771.471 23728844 23735300 23757356 23789056 23821776 23842330 23839412 
3774.846 23802994 23729886 23625164 23503922 23386084 23292470 23237808 
3778.222 23224902 23243104 23272992 23290822 23279566 23232098 23155908 
3781.597 23067118 22986948 22933710 22918458 22941592 22996766 23071156 
3784.972 23151042 23225476 23285936 23330638 23361986 23384946 23407270 
3788.347 23435206 23472822 23518470 23566424 23607512 23633956 23639516 
3791.723 23624166 23591996 23547830 23496006 23436650 23367462 23285382 
3795.098 23190912 23091194 22998346 22926904 22887978 22884888 22911014 
3798.473 22955018 23002472 23045346 23083124 23122314 23172888 23241094 
3801.848 23326566 23423184 23519700 23608068 23685462 23755592 23826130 
3805.224 23901670 23980690 24054098 24106926 24124446 24098570 24029166 
3808.599 23923768 23796198 23659396 23524226 23399922 23294418 23218344 
3811.974 23183886 23202700 23278274 23407436 23573164 23750106 23911976 
3815.349 24037860 24117996 24155678 24165406 24164478 24168170 24184062 
3818.725 24211636 24243840 24270656 24280526 24265352 24219856 24143774 
3822.100 24041974 23927308 23817380 23733252 23691394 23701452 23757914 
3825.475 23842170 23925030 23977176 23977240 23919412 23814482 23687528 
3828.850 23567758 23481298 23444486 23462886 23532774 23644656 23786580 
3832.226 23945420 24104836 24246130 24347000 24387834 24357252 24258586 
3835.601 24111554 23951988 23820638 23754898 23774390 23875926 24032454 
3838.976 24200908 24332374 24385904 24336420 24181046 23935268 23630850 
3842.351 23305886 22997302 22735806 22540120 22417340 22363988 22366796 
3845.727 22411956 22482958 22567158 22656032 22745068 22832958 22921394 
3849.102 23013348 23110888 23217126 23331026 23449230 23563592 23661546 
3852.477 23729498 23754218 23728702 23653712 23539846 23403686 23265298 
3855.852 23143338 23051410 22998064 22986688 23017292 23087562 23190388 
3859.228 23313728 23439700 23545740 23607054 23605464 23535488 23409314 
3862.603 23254442 23109796 23012754 22990574 23050430 23178590 23344970 
3865.978 23514398 23654648 23745696 23781796 23769812 23723510 23657566 
3869.353 23585238 23516144 23455488 23409252 23381604 23375282 23389772 
3872.729 23419746 23457534 23493642 23520906 23538156 23551628 23573570 
3876.104 23616876 23693278 23806180 23951302 24116542 24285228 24438848 
3879.479 24561344 24640054 24666206 24636524 24552288 24420274 24254704 
3882.854 24075928 23908350 23775196 23695270 23675108 23708854 23777734 
3886.229 23856814 23922856 23961750 23970862 23961554 23948974 23948412 
3889.605 23965370 23993570 24016416 24014554 23972676 23889198 23776794 
3892.980 23660316 23569978 23530378 23554882 23641678 23773912 23927794 
3896.355 24077144 24201396 24287044 24331706 24338254 24316630 24278618 
3899.730 24237448 24205184 24190610 24195960 24218750 24248758 24272872 
3903.106 24276660 24252240 24200124 24129500 24056628 23998178 23967278 
3906.481 23968134 23996564 24042856 24095202 24146640 24193886 24238388 
3909.856 24282112 24325452 24363944 24389690 24394934 24376506 24334796 
3913.231 24278218 24216366 24158708 24108406 24063088 24015922 23960980 
3916.607 23897340 23833160 23786074 23777422 23826292 23941942 24119000 
3919.982 24335510 24557374 24747814 24873590 24916470 24873904 24761440 
3923.357 24604244 24431198 24264066 24114312 23981684 23859320 23738914 
3926.732 23617960 23503314 23411210 23359326 23359818 23414026 23508898 
3930.108 23618852 23714048 23770442 23774946 23731890 23660288 23585770 
3933.483 23533956 23522440 23555850 23628528 23725952 23832790 23935034 
3936.858 24024208 24097002 24151296 24185086 24195460 24176978 24124994 
3940.233 24039244 23924610 23793672 23663636 23552644 23476596 23442252 
3943.609 23447498 23481236 23527696 23573642 23610582 23642362 23678530 
3946.984 23735386 23823954 23948488 24099994 24260048 24405282 24515522 
3950.359 24578658 24595864 24576956 24538114 24493030 24451378 24415302 
3953.734 24383472 24355216 24332800 24321282 24326372 24349282 24383626 
3957.110 24415454 24428672 24412490 24367312 24307220 24258820 24250864 
3960.485 24304254 24422084 24586678 24763442 24911236 24993130 24987646 
3963.860 24894880 24733608 24533808 24330248 24150780 24015794 23934622 
3967.235 23911276 23946172 24038136 24182264 24371118 24589124 24813344 
3970.611 25016022 25171782 25261892 25282324 25243186 25165840 25078596 
3973.986 25006428 24964174 24954508 24966888 24986356 24995534 24984930 
3977.361 24952664 24905948 24856284 24816900 24796904 24800178 24824986 
3980.736 24866128 24914102 24960748 24997370 25017264 25018286 25000826 
3984.112 24972112 24942990 24924844 24928400 24956198 25001294 25050286 
3987.487 25085752 25093208 25069966 25024726 24978806 24957414 24981490 
3990.862 25060836 25189714 25348296 25510278 25648282 25742286 25779908 
3994.237 25758982 25682566 25558316 25398178 25218802 25042226 24895044 
3997.613 24802384 24782534 24838604 24956518 25106198 25250676 25356332 
##END=
