##TITLE=Tecor_PLA-Bicolour_Black_Filament_r5_ATR-Corrected
##JCAMP-DX=5.01  $$ Nicolet v. 1
##DATATYPE=INFRARED SPECTRUM
##ORIGIN=Curtin University
##OWNER=Nicolet
##LONGDATE=2024/07/19
##TIME=15:32:11
##SPECTROMETER/DATA SYSTEM=Nicolet iS50
##DATA PROCESSING=
Ratio against background
%Transmittance->Absorbance
ATR Correction
Truncated
ElementMultiply or ElementDivide
##COMMENTS=
Number of sample scans: 32
Collection length: 47.28 sec
Sample gain: 1.0
Background collected on: Fri Jul 19 15:29:29 2024 (GMT+08:00);
Number of background scans: 32
Background gain: 1.0
Sample spacing:  1.000
Number of scan points: 16672
Resolution points: 8192
Number of FFT points: 65536
Apodization: N-B strong;
Phase correction: Mertz;
Laser frequency: 15798.3 cm-1
Number of rejected sample scans: 0
Number of rejected background scans: 0
Bench serial number: AUP1200105;
##RESOLUTION=4.000
##XUNITS=1/CM
##YUNITS=ABSORBANCE
##FIRSTX=400.163452
##LASTX=4000.187744
##FIRSTY=0.071283
##MAXX=4000.187744
##MINX=400.163452
##MAXY=1.324286
##MINY=-0.040642
##XFACTOR=1.000000
##YFACTOR=1.000000E-008
##NPOINTS=7468
##DELTAX=0.482125
##ZPD=8192
##XYDATA=(X++(Y..Y))
400.163 7128330 7047248 6941850 6810888 6656810 6487516 6313324 6144010 
404.020 5986189 5841984 5709629 5585278 5465622 5349553 5238821 5136939 
407.877 5047108 4970600 4905798 4848800 4795106 4741240 4685787 4629236 
411.734 4572617 4516230 4458619 4396936 4328267 4251298 4167540 4081269 
415.591 3998134 3923107 3858673 3804044 3755866 3709944 3663259 3615172 
419.448 3567535 3523415 3485338 3453872 3427285 3402488 3376680 3349018 
423.305 3321462 3298341 3284743 3284332 3297539 3320786 3347012 3367534 
427.162 3374297 3362058 3329660 3280291 3220399 3158041 3100879 3054568 
431.019 3021782 3002254 2993308 2991085 2991777 2992484 2991760 2989535 
434.876 2986577 2983747 2981366 2978969 2975634 2970603 2963995 2957156 
438.733 2952423 2952425 2958946 2972068 2989708 3007963 3022091 3027826 
442.590 3022550 3006119 2980744 2950420 2919901 2893595 2874715 2864795 
446.447 2863550 2869037 2878095 2886859 2891508 2889076 2878152 2859413 
450.304 2835429 2810184 2787835 2771575 2762613 2759817 2760078 2759399 
454.161 2754060 2741914 2722883 2698923 2673377 2649952 2631819 2620899 
458.017 2617564 2620715 2628037 2636431 2642515 2643143 2636050 2620341 
461.874 2596865 2568120 2537794 2509430 2486425 2470194 2460220 2454360 
465.731 2449722 2443779 2435248 2424468 2413219 2403892 2398646 2398558 
469.588 2403216 2410810 2418491 2423053 2421556 2411983 2393639 2367458 
473.445 2335927 2302784 2272297 2248312 2233247 2227373 2228689 2233441 
477.302 2237282 2236500 2229221 2215661 2197850 2178626 2160531 2144935 
481.159 2131820 2120093 2108348 2095521 2081231 2065638 2049063 2031489 
485.016 2012503 1991488 1968162 1943054 1917683 1894267 1875100 1861874 
488.873 1855186 1854528 1858631 1865985 1875274 1885515 1895891 1905517 
492.730 1913299 1918129 1919285 1916681 1911646 1906079 1901986 1900673 
496.587 1902071 1904671 1905975 1903446 1895526 1882320 1865683 1848677 
500.444 1834649 1826239 1824703 1829670 1839413 1851457 1863232 1872710 
504.301 1878707 1881075 1880513 1878277 1875730 1873904 1873085 1872694 
508.158 1871481 1868002 1861336 1851651 1840442 1830297 1824025 1823676 
512.015 1829564 1839925 1851162 1858868 1859118 1849667 1830650 1804553 
515.871 1775512 1748222 1726754 1713695 1709749 1713765 1723167 1734547 
519.728 1744264 1749075 1746619 1735854 1717270 1692910 1666057 1640624 
523.585 1620328 1607839 1604118 1607982 1616749 1626456 1633001 1633137 
527.442 1625274 1609888 1589341 1567260 1547619 1533675 1527202 1528091 
531.299 1534483 1543423 1551715 1556857 1557625 1554281 1548258 1541565 
535.156 1536078 1532976 1532489 1533968 1536196 1537783 1537580 1534878 
539.013 1529518 1521833 1512523 1502425 1492303 1482649 1473538 1464599 
542.870 1455246 1444904 1433421 1421258 1409515 1399587 1392742 1389504 
546.727 1389430 1391201 1393058 1393514 1391966 1388996 1386156 1385433 
550.584 1388449 1395900 1407293 1421218 1435882 1449724 1461874 1472177 
554.441 1480986 1488722 1495591 1501334 1505679 1508335 1509358 1509194 
558.298 1508599 1508331 1508854 1510286 1512405 1514918 1517694 1520883 
562.155 1524869 1530001 1536308 1543244 1549760 1554513 1556369 1554880 
566.012 1550645 1545368 1541546 1541824 1548276 1561662 1581043 1603921 
569.869 1626738 1645851 1658479 1663489 1661633 1655240 1647455 1641184 
573.725 1638317 1639322 1643332 1648820 1654349 1659206 1663669 1668770 
577.582 1675757 1685451 1697828 1711950 1726263 1739162 1749520 1757040 
581.439 1762272 1766369 1770682 1776341 1783947 1793515 1804516 1816130 
585.296 1827472 1837815 1846830 1854551 1861376 1867857 1874447 1881268 
589.153 1887984 1893919 1898266 1900462 1900537 1899172 1897681 1897632 
593.010 1900403 1906831 1917000 1930376 1946047 1963047 1980622 1998297 
596.867 2015760 2032723 2048758 2063289 2075675 2085403 2092182 2096009 
600.724 2097131 2096019 2093295 2089828 2086715 2085318 2087078 2093225 
604.581 2104416 2120458 2140298 2162257 2184535 2205726 2225230 2243329 
608.438 2260876 2278913 2298108 2318502 2339539 2360327 2380026 2398226 
612.295 2415105 2431321 2447798 2465479 2485103 2507164 2531954 2559577 
616.152 2589974 2622847 2657572 2693115 2728138 2761142 2790759 2816012 
620.009 2836491 2852445 2864684 2874443 2883177 2892380 2903415 2917318 
623.866 2934742 2955812 2980210 3007223 3035913 3065358 3094781 3123581 
627.723 3151309 3177564 3201888 3223805 3242974 3259408 3273624 3286696 
631.579 3300083 3315228 3333208 3354328 3378116 3403430 3428866 3453181 
635.436 3475609 3495968 3514545 3531758 3547908 3562977 3576665 3588624 
639.293 3598722 3607318 3615276 3623788 3634071 3646923 3662458 3680015 
643.150 3698379 3716170 3732315 3746504 3759263 3771871 3785891 3802661 
647.007 3822808 3846029 3871194 3896737 3921171 3943581 3963847 3982595 
650.864 4000820 4019483 4039141 4059789 4081018 4102241 4123039 4143325 
654.721 4163269 4183172 4203170 4223114 4242535 4260849 4277585 4292582 
658.578 4305997 4318259 4329851 4341135 4352326 4363544 4374957 4386842 
662.435 4399650 4413760 4429395 4446386 4464259 4482387 4500286 4517859 
666.292 4535461 4553770 4573425 4594679 4617180 4640009 4661940 4681869 
670.149 4699175 4713883 4726527 4737900 4748685 4759262 4769677 4779900 
674.006 4790014 4800445 4811932 4825305 4841150 4859538 4879974 4901511 
677.863 4923113 4944014 4963888 4982853 5001195 5019088 5036413 5052699 
681.720 5067408 5080237 5091470 5102016 5113277 5126665 5143228 5163281 
685.577 5186433 5211803 5238439 5265673 5293224 5321047 5348950 5376259 
689.433 5401640 5423311 5439583 5449442 5453050 5451938 5448628 5445958 
693.290 5446352 5451176 5460613 5473867 5489707 5507061 5525342 5544471 
697.147 5564577 5585584 5606900 5627377 5645629 5660456 5671315 5678533 
701.004 5683155 5686593 5690107 5694369 5699350 5704440 5708754 5711525 
704.861 5712305 5711000 5707675 5702350 5694834 5684692 5671396 5654563 
708.718 5634109 5610371 5583921 5555418 5525195 5493201 5458871 5421250 
712.575 5379270 5331931 5278562 5218892 5153008 5081272 5004143 4922098 
716.432 4835580 4745042 4651016 4554181 4455383 4355575 4255705 4156591 
720.289 4058800 3962692 3868466 3776351 3686740 3600330 3518046 3440968 
724.146 3370118 3306250 3249762 3200738 3159044 3124610 3097605 3078566 
728.003 3068486 3068672 3080613 3105759 3145357 3200252 3270816 3356870 
731.860 3457745 3572321 3699155 3836619 3983032 4136717 4296020 4459301 
735.717 4624809 4790764 4955362 5116999 5274431 5426930 5574353 5716970 
739.574 5855242 5989561 6120064 6246616 6368952 6486872 6600383 6709771 
743.431 6815456 6917841 7017109 7113233 7206116 7295834 7382890 7468310 
747.287 7553591 7640413 7730297 7824341 7923040 8026250 8133239 8242771 
751.144 8353061 8461831 8566290 8663295 8749680 8822685 8880224 8921162 
755.001 8945139 8952247 8942662 8916306 8872811 8811773 8733122 8637477 
758.858 8526304 8401798 8266487 8122846 7972948 7818336 7660129 7499236 
762.715 7336470 7172743 7008956 6846003 6684745 6526065 6370929 6220464 
766.572 6075832 5937978 5807291 5683335 5564787 5449735 5336215 5222822 
770.429 5109190 4996148 4885404 4778952 4678409 4584405 4496418 4412946 
774.286 4331983 4251642 4170534 4088084 4004390 3920034 3835761 3752233 
778.143 3669939 3589152 3510023 3432660 3357143 3283540 3211879 3142096 
782.000 3073988 3007226 2941282 2875490 2809112 2741437 2671978 2600633 
785.857 2527819 2454459 2381881 2311567 2244894 2182879 2126088 2074574 
789.714 2028021 1985818 1947229 1911420 1877573 1844918 1812880 1781183 
793.571 1749939 1719687 1691259 1665501 1643005 1623843 1607489 1592872 
797.428 1578733 1563888 1547617 1529874 1511286 1493008 1476484 1463129 
801.285 1453984 1449500 1449396 1452516 1457170 1461258 1462731 1460092 
805.141 1452795 1441443 1427660 1413680 1401769 1393595 1389870 1390203 
808.998 1393459 1398149 1403000 1407287 1410890 1414175 1417592 1421437 
812.855 1425666 1429954 1433919 1437342 1440327 1443369 1447083 1452057 
816.712 1458523 1466297 1474755 1483024 1490126 1495215 1497707 1497292 
820.569 1493948 1487941 1479797 1470324 1460595 1451879 1445504 1442627 
824.426 1443980 1449748 1459379 1471766 1485441 1498937 1511182 1521733 
828.283 1530884 1539541 1548863 1559951 1573464 1589476 1607498 1626777 
832.140 1646559 1666474 1686632 1707572 1730138 1755125 1783043 1814066 
835.997 1848080 1884898 1924484 1967079 2013221 2063602 2118894 2179546 
839.854 2245701 2317182 2393535 2474145 2558261 2645002 2733386 2822320 
843.711 2910649 2997249 3081115 3161381 3237246 3307929 3372597 3430394 
847.568 3480655 3523208 3558694 3588826 3616418 3645112 3678994 3721988 
851.425 3777510 3848254 3936232 4043053 4170187 4319130 4491316 4687713 
855.282 4908421 5152147 5416053 5695855 5986355 6282117 6578195 6870702 
859.139 7156930 7435210 7704408 7963374 8210530 8443649 8660123 8857252 
862.995 9032800 9185380 9314692 9421451 9507149 9573671 9622930 9656518 
866.852 9675565 9680662 9671918 9649050 9611467 9558406 9489042 9402616 
870.709 9298605 9176989 9038364 8884041 8715964 8536403 8347586 8151284 
874.566 7948537 7739667 7524506 7302896 7075126 6842271 6606243 6369506 
878.423 6134629 5903825 5678691 5460221 5249082 5046025 4852279 4669642 
882.280 4500353 4346803 4211039 4094486 3997739 3920635 3862390 3821875 
886.137 3797651 3788112 3791374 3805304 3827510 3855493 3886855 3919427 
889.994 3951428 3981468 4008481 4031709 4050649 4065151 4075466 4082231 
893.851 4086383 4088903 4090551 4091555 4091585 4089858 4085425 4077542 
897.708 4065997 4051206 4034132 4016021 3998164 3981595 3966990 3954706 
901.565 3944774 3937007 3930984 3926132 3921681 3916846 3910969 3903718 
905.422 3895203 3885999 3876950 3868947 3862703 3858525 3856425 3856182 
909.279 3857553 3860419 3864793 3870680 3877947 3886136 3894527 3902178 
913.136 3908215 3911936 3913001 3911376 3907248 3900893 3892661 3882956 
916.993 3872333 3861532 3851382 3842642 3835706 3830391 3825902 3820974 
920.849 3814265 3804741 3792136 3777019 3760723 3744984 3731455 3721285 
924.706 3714803 3711531 3710306 3709594 3707939 3704166 3697686 3688496 
928.563 3677194 3664744 3652314 3640947 3631394 3624003 3618713 3615147 
932.420 3612822 3611331 3610492 3610290 3610912 3612606 3615577 3619963 
936.277 3625806 3633079 3641730 3651623 3662570 3674309 3686573 3699284 
940.134 3712616 3727158 3743880 3763903 3788202 3817274 3850977 3888457 
943.991 3928471 3969756 4011492 4053514 4096371 4141117 4188848 4240462 
947.848 4296310 4356190 4419556 4485639 4553693 4623072 4693183 4763361 
951.705 4832770 4900338 4964857 5024963 5079264 5126287 5164401 5191735 
955.562 5206103 5205200 5186783 5149157 5091469 5014060 4918498 4807443 
959.419 4684292 4552847 4416834 4279700 4144411 4013431 3888720 3771801 
963.276 3663852 3565736 3478017 3401022 3334838 3279310 3234046 3198410 
967.133 3171564 3152522 3140234 3133672 3131942 3134358 3140487 3150091 
970.990 3163095 3179462 3199143 3221886 3247280 3274724 3303527 3332979 
974.847 3362540 3391894 3420993 3450098 3479617 3510033 3541775 3575129 
978.703 3610222 3647035 3685480 3725425 3766713 3809135 3852404 3896100 
982.560 3939703 3982669 4024534 4065062 4104359 4142880 4181407 4220935 
986.417 4262450 4306826 4354626 4406043 4460795 4518274 4577667 4638063 
990.274 4698685 4759048 4819027 4878930 4939379 5001204 5065275 5132301 
994.131 5202815 5277086 5355168 5436946 5522164 5610496 5701491 5794698 
997.988 5889663 5986155 6084285 6184581 6287973 6395712 6508995 6628829 
1001.845 6755709 6889614 7030200 7176943 7329556 7488148 7653294 7825872 
1005.702 8006920 8197396 8398050 8609471 8832183 9066789 9314083 9574991 
1009.559 9850459 10141375 10448414 10772099 11112858 11471117 11847268 
1012.934 12241605 12654102 13084219 13530892 13992666 14467973 14955585 
1016.309 15454829 15965559 16487922 17021776 17566196 18119198 18677646 
1019.683 19237710 19795498 20347560 20891276 21424960 21947664 22458946 
1023.058 22958654 23446948 23924474 24392620 24853622 25310684 25767768 
1026.433 26229328 26699996 27184350 27686692 28210834 28760060 29336956 
1029.809 29943344 30580320 31248468 31947934 32678678 33440364 34232208 
1033.184 35052392 35897680 36763132 37642024 38526316 39407184 40275548 
1036.559 41122656 41940024 42719428 43452720 44131848 44749168 45297936 
1039.934 45772924 46170808 46490448 46732604 46899584 46994844 47022620 
1043.310 46987456 46893964 46746620 46549524 46306372 46020612 45695740 
1046.685 45335688 44945076 44529296 44094300 43646248 43191092 42734284 
1050.060 42280548 41833932 41397840 40974940 40567012 40174828 39797896 
1053.435 39434688 39083004 38740628 38405984 38078716 37759948 37452264 
1056.811 37159444 36886236 36638200 36421776 36244368 36114408 36041148 
1060.186 36034096 36102340 36253712 36494188 36827696 37256156 37780044 
1063.561 38398724 39110936 39914824 40807860 41786576 42846464 43982072 
1066.936 45187332 46456032 47782284 49160712 50586432 52054964 53562056 
1070.312 55103648 56675900 58275248 59898388 61541932 63201936 64873500 
1073.687 66550552 68225904 69891792 71540544 73165136 74759408 76317952 
1077.062 77835448 79305968 80722552 82076864 83359144 84558544 85663352 
1080.437 86661472 87540408 88288008 88892744 89344624 89636192 89763632 
1083.813 89727544 89533144 89190080 88711264 88111272 87404784 86605376 
1087.188 85725096 84774456 83763232 82701048 81597712 80462928 79305816 
1090.563 78134040 76953472 75768216 74581208 73394720 72210976 71032264 
1093.938 69860680 68697656 67543720 66398560 65261380 64131640 63009476 
1097.313 61895852 60792256 59700192 58620624 57553660 56498764 55455248 
1100.689 54422796 53401924 52394044 51401352 50426348 49471444 48538804 
1104.064 47630352 46747776 45892856 45067412 44273444 43512952 42788040 
1107.439 42100896 41453740 40848888 40288612 39774928 39309276 38892360 
1110.814 38523936 38202928 37927648 37695988 37505696 37354460 37239952 
1114.190 37159792 37111536 37092696 37100908 37134208 37191160 37271040 
1117.565 37373948 37500668 37652556 37831324 38038716 38276108 38544120 
1120.940 38842152 39167956 39517544 39885220 40263928 40645820 41022788 
1124.315 41387048 41731264 42048596 42332376 42576016 42772896 42916564 
1127.691 43001312 43022588 42977488 42864864 42685164 42439860 42130888 
1131.066 41760128 41329128 40838928 40290428 39684596 39022812 38307132 
1134.441 37540264 36725492 35866408 34966676 34029912 33059666 32059664 
1137.816 31034186 29988304 28928044 27860290 26792354 25731534 24684580 
1141.192 23657426 22655102 21681798 20741204 19836594 18970946 18146880 
1144.567 17366630 16631877 15943813 15303141 14710175 14164777 13666460 
1147.942 13214143 12806185 12440354 12114030 11824417 11568899 11345159 
1151.317 11151317 10985750 10846928 10733154 10642575 10573215 10523253 
1154.693 10491227 10476252 10478072 10496954 10533431 10588227 10661984 
1158.068 10755423 10869277 11004496 11162147 11343511 11549978 11783055 
1161.443 12044434 12336120 12660649 13021195 13421567 13866164 14359817 
1164.818 14907607 15514870 16187182 16930490 17751136 18655806 19651358 
1168.194 20744490 21941526 23248268 24669994 26211602 27877628 29672148 
1171.569 31598336 33657696 35849144 38168088 40605952 43149644 45781516 
1174.944 48479352 51216232 53960268 56674368 59316272 61839448 64195008 
1178.319 66334544 68213696 69795656 71054008 71974520 72555488 72806976 
1181.695 72749088 72409656 71821664 71020584 70042408 68921920 67691840 
1185.070 66382416 65021152 63632484 62237400 60853052 59492432 58164572 
1188.445 56875140 55627560 54424216 53267216 52159004 51102144 50098820 
1191.820 49150312 48256608 47416420 46627656 45887976 45195432 44548552 
1195.196 43946300 43387780 42871708 42396276 41959096 41557508 41188876 
1198.571 40850832 40541308 40258444 40000332 39764856 39549644 39352176 
1201.946 39169964 39000648 38842012 38691868 38547768 38407012 38266632 
1205.321 38123392 37974148 37816100 37646848 37464572 37267904 37055804 
1208.697 36827452 36582208 36319380 36038192 35737704 35416792 35074292 
1212.072 34709232 34321196 33910628 33478972 33028666 32562790 32084632 
1215.447 31597204 31102908 30603498 30100166 29593914 29085850 28577354 
1218.822 28070092 27565854 27066332 26572844 26086334 25607362 25136376 
1222.198 24673850 24220382 23776798 23343856 22922092 22511732 22112536 
1225.573 21724014 21345642 20977068 20618316 20269830 19932256 19606364 
1228.948 19292700 18991516 18702748 18426018 18160796 17906562 17662800 
1232.323 17429120 17205186 16990746 16785630 16589746 16403045 16225587 
1235.698 16057330 15898086 15747379 15604423 15468276 15337901 15212424 
1239.074 15091294 14974380 14862044 14754903 14653744 14559238 14471836 
1242.449 14391656 14318514 14252032 14191765 14137316 14088430 14045018 
1245.824 14007042 13974498 13947222 13924952 13907309 13893932 13884605 
1249.199 13879469 13879056 13884218 13895984 13915272 13942643 13978066 
1252.575 14020975 14070308 14124957 14184016 14247085 14314359 14386590 
1255.950 14464688 14549422 14640997 14738896 14841865 14948161 15055785 
1259.325 15162914 15268035 15370099 15468381 15562417 15651797 15736125 
1262.700 15815035 15888178 15955250 16015989 16070005 16116747 16155340 
1266.076 16184671 16203442 16210350 16204220 16184203 16149646 16100167 
1269.451 16035490 15955481 15860115 15749630 15624493 15485477 15333501 
1272.826 15169418 14993836 14806907 14608376 14397661 14174134 13937451 
1276.201 13687734 13425715 13152643 12870142 12580003 12283994 11983775 
1279.577 11681012 11377320 11074502 10774454 10479093 10190238 9909444 
1282.952 9637918 9376543 9125978 8886880 8659986 8446315 8247038 8063504 
1286.809 7897057 7748951 7620223 7511729 7424012 7357329 7311592 7286256 
1290.667 7280402 7292656 7321373 7364615 7420388 7486619 7561239 7642185 
1294.524 7727407 7814894 7902682 7989053 8072445 8151650 8225789 8294329 
1298.382 8357079 8414143 8465935 8513107 8556477 8596909 8635154 8671676 
1302.239 8706579 8739567 8769999 8797145 8820296 8839060 8853448 8863850 
1306.096 8870901 8875401 8877957 8878973 8878559 8876590 8872811 8867075 
1309.954 8859424 8850210 8840055 8829911 8820769 8813621 8809201 8807825 
1313.811 8809363 8813180 8818319 8823624 8828112 8831114 8832440 8832404 
1317.669 8831672 8831012 8831067 8832160 8834208 8836904 8839826 8842757 
1321.526 8845769 8849391 8854371 8861589 8871736 8885227 8902030 8921836 
1325.384 8944143 8968485 8994650 9022727 9053138 9086610 9124009 9166261 
1329.241 9214167 9268326 9329019 9396152 9469253 9547560 9630100 9715927 
1333.098 9804298 9894851 9987635 10083105 10181961 10284963 10392777 
1336.474 10505853 10624351 10748209 10877179 11010931 11149105 11291377 
1339.849 11437528 11587483 11741395 11899592 12062629 12231154 12405786 
1343.224 12587014 12775046 12969822 13171056 13378336 13591208 13809368 
1346.599 14032640 14260948 14494184 14732046 14973812 15218243 15463509 
1349.975 15707342 15947266 16180967 16406530 16622761 16829088 17025418 
1353.350 17211730 17387580 17552002 17703258 17839180 17957630 18056884 
1356.725 18136140 18195604 18236492 18260634 18270302 18267750 18255046 
1360.100 18233996 18206124 18172734 18134994 18093848 18050160 18004406 
1363.476 17956722 17906686 17853264 17794702 17728684 17652372 17562786 
1366.851 17457032 17332762 17188312 17023058 16837496 16633436 16414188 
1370.226 16184737 15951999 15724896 15514266 15332404 15192363 15106897 
1373.601 15087129 15141384 15273973 15484513 15767689 16113655 16508815 
1376.977 16936932 17380558 17822188 18245368 18635616 18980884 19271578 
1380.352 19500368 19661866 19752162 19768728 19710516 19578054 19373712 
1383.727 19101570 18767264 18377596 17940002 17462220 16951882 16416340 
1387.102 15862267 15295450 14720531 14141059 13559611 12978153 12398404 
1390.478 11822288 11251991 10690023 10139071 9601877 9081160 8579734 8100494 
1394.335 7646402 7220321 6824675 6461088 6129994 5830623 5561097 5318820 
1398.192 5100935 4904809 4728332 4569945 4428580 4303394 4193453 4097499 
1402.050 4013994 3941039 3876583 3818654 3765472 3715589 3667955 3621946 
1405.907 3577394 3534573 3494078 3456711 3423303 3394365 3369929 3349417 
1409.765 3331768 3315700 3300054 3284170 3268037 3252243 3237720 3225331 
1413.622 3215553 3208291 3202960 3198777 3195069 3191636 3188803 3187386 
1417.479 3188352 3192603 3200624 3212389 3227356 3244704 3263527 3283033 
1421.337 3302710 3322435 3342398 3363091 3385158 3409295 3436140 3466178 
1425.194 3499708 3536916 3577935 3622905 3672084 3725794 3784407 3848218 
1429.052 3917526 3992560 4073676 4161349 4256345 4359709 4472684 4596757 
1432.909 4733634 4885246 5053907 5242310 5453596 5691004 5957860 6257146 
1436.767 6591484 6963221 7374466 7827388 8324090 8866405 9455352 10090592 
1440.624 10770036 11489569 12243370 13024087 13823281 14631796 15439937 
1443.999 16237798 17015700 17764584 18476616 19145442 19766190 20335216 
1447.375 20849878 21308262 21709160 22052268 22338282 22568846 22746386 
1450.750 22873458 22952506 22985414 22973408 22917096 22816586 22671550 
1454.125 22481338 22245158 21962392 21632856 21257294 20837592 20376580 
1457.500 19877816 19345000 18781744 18191466 17577640 16943984 16294630 
1460.875 15633945 14966282 14295615 13625561 12959501 12301112 11654586 
1464.251 11024688 10416304 9833790 9280271 8757213 8264667 7801682 7367047 
1468.108 6959820 6579502 6225944 5898971 5598020 5322021 5069316 4837956 
1471.966 4625901 4431267 4252365 4087766 3936199 3796667 3668306 3550429 
1475.823 3442519 3344050 3254436 3172944 3098729 3030965 2968926 2912154 
1479.680 2860470 2813899 2772447 2735974 2704136 2676332 2651737 2629464 
1483.538 2608618 2588353 2567923 2546755 2524581 2501505 2478110 2455411 
1487.395 2434669 2417170 2403810 2394948 2390224 2388637 2388816 2389229 
1491.253 2388526 2385734 2380309 2372207 2361828 2349879 2337323 2325167 
1495.110 2314299 2305361 2298524 2293583 2290016 2287202 2284639 2282057 
1498.968 2279474 2277012 2274785 2272700 2270521 2267810 2264220 2259614 
1502.825 2254133 2248164 2242140 2236483 2231360 2226760 2222513 2218526 
1506.682 2214800 2211516 2208974 2207427 2207000 2207597 2208954 2210710 
1510.540 2212493 2213986 2214936 2215119 2214405 2212653 2209853 2206122 
1514.397 2201745 2197136 2192727 2188903 2185859 2183556 2181746 2180012 
1518.255 2177871 2174895 2170727 2165156 2158229 2150210 2141686 2133393 
1522.112 2126204 2120845 2117744 2116830 2117609 2119203 2120613 2121054 
1525.969 2120085 2117680 2114186 2110104 2105837 2101582 2097211 2092480 
1529.827 2087114 2080991 2074263 2067317 2060680 2054925 2050538 2047815 
1533.684 2046882 2047625 2049768 2052882 2056413 2059778 2062430 2063949 
1537.542 2064092 2062852 2060360 2056836 2052526 2047570 2042028 2035956 
1541.399 2029386 2022433 2015250 2007983 2000750 1993596 1986576 1979848 
1545.257 1973758 1968836 1965658 1964666 1965917 1968927 1972683 1975829 
1549.114 1977052 1975425 1970688 1963292 1954273 1944816 1936011 1928471 
1552.971 1922346 1917308 1912871 1908553 1904089 1899506 1895011 1890947 
1556.829 1887608 1885147 1883581 1882746 1882384 1882132 1881651 1880580 
1560.686 1878753 1876078 1872642 1868618 1864261 1859769 1855333 1851122 
1564.544 1847330 1844303 1842473 1842331 1844285 1848469 1854583 1861933 
1568.401 1869492 1876227 1881256 1884203 1885119 1884397 1882562 1880035 
1572.259 1877056 1873700 1869983 1866130 1862596 1860030 1859055 1860011 
1576.116 1862780 1866742 1870970 1874507 1876735 1877524 1877199 1876395 
1579.973 1875736 1875625 1876138 1877017 1877972 1878792 1879537 1880562 
1583.831 1882376 1885382 1889782 1895394 1901739 1908179 1914154 1919310 
1587.688 1923620 1927331 1930796 1934344 1938132 1942134 1946192 1950133 
1591.546 1953951 1957842 1962175 1967379 1973760 1981319 1989785 1998583 
1595.403 2007142 2015064 2022278 2029132 2036165 2043932 2052670 2062195 
1599.260 2071917 2081023 2088818 2094951 2099640 2103542 2107579 2112652 
1603.118 2119311 2127710 2137546 2148270 2159211 2169737 2179320 2187581 
1606.975 2194303 2199556 2203636 2207234 2211317 2216912 2224916 2235745 
1610.833 2249140 2264237 2279699 2294162 2306522 2316266 2323518 2328929 
1614.690 2333396 2337822 2342965 2349284 2356986 2366050 2376285 2387281 
1618.548 2398523 2409374 2419149 2427375 2433760 2438404 2441643 2443994 
1622.405 2445940 2447847 2449883 2452053 2454274 2456424 2458408 2460085 
1626.262 2461272 2461751 2461302 2459859 2457572 2454780 2451941 2449397 
1630.120 2447276 2445354 2443269 2440684 2437527 2434155 2431251 2429594 
1633.977 2429650 2431376 2434089 2436618 2437779 2436635 2432947 2427101 
1637.835 2419983 2412676 2406124 2401023 2397756 2396533 2397333 2400040 
1641.692 2404402 2409925 2415959 2421782 2426757 2430535 2433046 2434515 
1645.550 2435234 2435434 2435115 2434196 2432656 2430791 2429231 2428953 
1649.407 2430861 2435508 2442845 2452189 2462401 2472370 2481411 2489522 
1653.264 2497286 2505577 2515077 2525940 2537657 2549342 2559983 2568982 
1657.122 2576205 2582044 2587208 2592398 2598064 2604308 2610951 2617773 
1660.979 2624611 2631499 2638602 2646144 2654296 2663139 2672629 2682788 
1664.837 2693693 2705527 2718487 2732712 2748105 2764457 2781269 2798019 
1668.694 2814184 2829355 2843329 2856133 2868030 2879446 2890978 2903280 
1672.552 2916969 2932491 2950011 2969365 2990103 3011553 3033032 3053985 
1676.409 3074085 3093234 3111481 3128993 3145967 3162659 3179409 3196694 
1680.266 3215075 3235083 3257058 3281049 3306747 3333576 3360844 3388013 
1684.124 3414851 3441413 3468117 3495383 3523589 3552887 3583309 3614878 
1687.981 3647710 3682204 3718898 3758376 3801021 3846846 3895425 3946025 
1691.839 3997817 4050182 4102902 4156247 4210840 4267538 4327125 4390208 
1695.696 4457013 4527608 4601909 4679966 4762000 4848506 4940021 5036917 
1699.553 5139363 5247079 5359552 5476121 5596347 5720182 5848013 5980621 
1703.411 6118997 6264063 6416528 6576860 6745279 6922003 7107305 7301713 
1707.268 7505894 7720563 7946292 8183393 8431858 8691389 8961596 9242032 
1711.126 9532414 9832563 10142345 10461579 10789923 11126915 11471967 
1714.501 11824468 12183919 12549970 12922345 13300748 13684735 14073640 
1717.876 14466578 14862697 15261602 15663624 16070205 16483849 16907920 
1721.251 17346244 17802534 18280146 18781976 19310664 19869082 20460742 
1724.627 21090054 21762308 22483362 23259326 24096372 25000594 25978398 
1728.002 27036592 28182644 29424670 30771210 32231066 33813296 35527640 
1731.377 37384820 39396720 41575892 43934180 46480736 49220056 52150864 
1734.752 55266644 58557624 62013532 65625864 69388256 73294656 77335640 
1738.128 81494600 85744584 90048336 94360288 98630920 102810648 106852440 
1741.503 110712312 114348552 117721584 120794872 123537424 125925920 
1744.396 127945664 129589632 130856024 131746736 132267288 132428584 
1747.289 132248440 131751576 130967656 129926944 128656720 127179304 
1750.182 125512696 123673096 121677280 119543680 117291104 114936648 
1753.075 112493560 109970664 107373824 104708544 101982688 99207648 96398376 
1756.450 93571584 90744128 87931216 85145912 82399448 79701632 77061056 
1759.826 74485352 71980576 69551264 67200440 64930332 62742860 60640068 
1763.201 58623980 56696040 54856412 53103580 51434420 49844764 48330272 
1766.576 46886984 45511844 44202268 42955744 41769312 40639116 39560564 
1769.951 38528580 37537904 36583540 35660760 34765060 33892016 33037466 
1773.327 32197452 31368562 30547934 29733356 28923082 28115582 27309370 
1776.702 26503024 25695118 24884486 24070462 23252900 22432580 21611124 
1780.077 20791120 19976024 19169896 18377016 17601354 16846168 16113760 
1783.452 15405510 14722207 14064443 13432948 12828720 12252772 11705794 
1786.828 11187823 10698114 10235417 9798411 9386159 8998456 8635790 8298666 
1790.685 7987316 7700805 7437044 7192982 6965328 6751311 6549273 6358771 
1794.542 6180248 6014257 5860925 5719497 5588451 5465937 5350306 5240523 
1798.400 5136265 5037649 4944913 4858046 4776740 4700641 4629638 4564040 
1802.257 4504523 4451697 4405591 4365188 4328403 4292369 4254206 4211772 
1806.115 4164133 4111724 4055994 3998855 3942139 3887223 3835035 3786121 
1809.972 3740884 3699479 3661770 3627076 3594145 3561243 3526747 3489667 
1813.830 3450187 3409814 3371086 3336868 3309510 3290027 3277767 3270415 
1817.687 3264686 3257095 3244949 3226915 3203181 3175254 3145401 3115852 
1821.544 3088312 3063310 3040134 3017015 2991564 2961565 2925660 2883863 
1825.402 2837761 2790101 2744042 2702340 2666491 2636524 2611129 2588227 
1829.259 2565908 2542869 2518849 2494429 2470567 2447976 2426713 2406008 
1833.117 2384609 2361120 2334497 2304484 2271558 2236884 2201987 2168401 
1836.974 2137361 2109544 2084859 2062570 2041275 2019318 1995124 1967763 
1840.832 1937366 1905415 1874461 1847749 1828341 1818148 1817342 1823962 
1844.689 1834394 1844075 1848706 1845358 1833100 1813244 1788726 1763344 
1848.546 1740612 1722787 1710427 1702346 1696133 1689084 1679088 1665266 
1852.404 1648088 1629082 1610183 1593008 1578277 1565691 1554365 1543343 
1856.261 1532222 1521591 1512801 1507468 1506705 1510427 1517221 1524483 
1860.119 1529388 1529690 1524670 1515424 1504389 1494688 1489008 1488601 
1863.976 1492956 1500037 1506972 1511026 1510459 1504915 1495474 1484020 
1867.833 1472573 1462616 1454754 1448584 1442998 1436615 1428173 1416856 
1871.691 1402481 1385559 1367236 1349306 1333775 1322720 1317600 1318772 
1875.548 1325206 1334506 1343375 1348652 1348283 1342133 1332222 1321966 
1879.406 1315072 1314080 1319267 1328389 1337461 1342107 1339414 1328902 
1883.263 1312989 1296000 1282772 1276847 1279324 1288581 1301094 1312814 
1887.121 1320514 1322618 1319466 1312433 1303070 1292196 1279734 1264850 
1890.978 1246774 1225436 1201828 1178005 1156263 1138662 1126184 1118689 
1894.835 1115054 1113632 1112973 1112065 1110704 1109209 1108267 1108542 
1898.693 1110444 1113889 1118389 1122987 1126706 1128499 1127789 1124567 
1902.550 1119466 1113448 1107536 1102235 1097469 1092336 1085787 1076843 
1906.408 1065604 1053196 1041725 1033641 1030990 1034605 1044040 1057601 
1910.265 1073171 1088809 1103393 1116606 1128524 1139145 1148025 1154087 
1914.123 1155851 1152064 1142151 1126334 1105437 1080333 1051616 1019563 
1917.980 984477 947196 909624 874878 846574 827892 820598 824135 835802 
1922.320 851479 866915 879019 886428 889679 890224 889506 887962 885075 
1926.659 879697 871103 859957 848356 839525 836346 839861 848655 858644 
1930.999 864262 860340 844007 815766 779808 742743 711885 692868 688458 
1935.338 697300 714711 733758 747173 749341 737888 714247 683788 654181 
1939.678 633937 629730 644515 676320 718345 760639 792404 804806 792999 
1944.018 757482 703316 638664 572927 514862 471710 448426 447642 469718 
1948.357 512415 570982 637538 702296 754683 785224 787507 759359 702871 
1952.697 623592 528678 425354 320389 219443 127779 50171 -9338 -48158 -66326 
1957.519 -66880 -55046 -36946 -17775 12 16807 34848 56431 82441 111621 
1962.340 141399 169338 193362 211808 221889 217669 190681 132079 37127 
1966.680 -89471 -230447 -357758 -438530 -445341 -365564 -207141 1912 221255 
1971.020 409570 535846 586367 564792 487221 374286 244934 113992 -4619 
1975.359 -94959 -135933 -103815 20339 241247 541361 881655 1209976 1476041 
1979.699 1644674 1703216 1661685 1546535 1392453 1233955 1099768 1008739 
1983.556 969064 978707 1027093 1098114 1172129 1229775 1254712 1236523 
1987.414 1172867 1070261 942609 808624 688428 598874 551508 549265 586263 
1991.753 648975 718677 775144 801303 787964 735444 654285 561633 475743 
1996.093 409809 367986 344150 324945 296051 248676 183807 112248 50036 11685 
2000.915 2731 16831 36733 40306 8739 -66144 -178017 -307789 -429122 -516509 
2005.736 -552788 -533691 -468263 -374456 -272334 -177819 -98638 -33975 22874 
2010.076 80488 145174 217145 290548 354369 395537 403417 373709 310910 
2014.416 227440 140719 67394 18930 -3413 -7724 -10105 -28408 -77221 -163704 
2019.237 -285561 -432454 -588301 -735463 -857165 -939569 -974122 -958785 
2023.095 -898399 -805242 -697240 -595182 -517686 -477737 -478698 -514131 
2026.952 -570199 -629166 -673954 -691407 -673154 -616078 -521278 -394566 
2030.810 -247055 -94958 41187 140920 189036 181993 130135 55101 -17620 
2035.149 -68063 -89447 -89711 -86119 -96786 -130999 -184489 -240107 -275602 
2039.489 -273478 -229276 -154606 -73020 -11118 11136 -11854 -70425 -143903 
2043.828 -209019 -247590 -251817 -223396 -169980 -98819 -12659 90835 215729 
2048.168 362632 523740 682295 816538 906110 939268 916430 849712 759661 
2052.508 668974 596599 553078 537987 541017 546377 538798 509489 459108 
2056.847 397574 339851 300743 289729 308057 349025 401225 453053 496842 
2061.187 530730 558001 583992 612742 644833 677087 704482 722959 731461 
2065.526 732528 730995 731200 734940 740630 743974 740554 727962 707480 
2069.866 683691 662909 650969 651431 664942 690070 724064 764259 808365 
2074.206 854310 899765 942027 978702 1008495 1032020 1051446 1069528 1087802 
2078.545 1105223 1117788 1120029 1107395 1078844 1038312 994148 956474 
2082.403 933681 929065 939602 956746 969398 967961 947412 908923 859024 
2086.742 807127 762355 730847 714223 709512 710890 711005 703108 682610 
2091.082 647753 600308 545293 490439 445022 418285 416911 443328 494612 
2095.421 562588 635757 702214 752903 783855 796725 798143 796818 800986 
2099.761 815566 841223 873988 906977 932549 944649 940733 922097 893398 
2104.101 861042 830948 807212 790837 780567 773728 768048 762753 759138 
2108.440 759573 766362 780112 798835 818212 832654 837270 829285 808947 
2112.780 779454 745645 712785 685052 665029 653626 650662 655160 665579 
2117.119 679969 695216 707233 711284 702694 678104 636788 580807 514998 
2121.459 445921 380317 323303 277381 241393 210974 179444 139498 85208 13770 
2126.281 -73434 -170444 -268007 -355913 -425717 -473526 -501155 -516258 
2130.138 -529835 -553297 -594690 -656604 -735277 -822541 -908376 -984289 
2133.996 -1045165 -1090291 -1121410 -1140961 -1150033 -1147825 -1132859 
2137.371 -1105030 -1067650 -1027764 -995282 -979636 -987342 -1019202 
2140.746 -1071086 -1134928 -1202742 -1269304 -1333680 -1398838 -1468958 
2144.121 -1546561 -1630021 -1713298 -1787243 -1843604 -1877383 -1889935 
2147.497 -1887912 -1881327 -1880040 -1890523 -1914330 -1949018 -1990446 
2150.872 -2035926 -2085984 -2145619 -2222563 -2325142 -2459466 -2627788 
2154.247 -2827655 -3052114 -3290136 -3527464 -3746128 -3924196 -4037909 
2157.622 -4064183 -3987464 -3806672 -3538360 -3216082 -2879261 -2564086 
2160.998 -2293576 -2077227 -1913775 -1798362 -1726920 -1697096 -1707198 
2164.373 -1750919 -1814903 -1878324 -1917091 -1910365 -1848160 -1735327 
2167.748 -1591486 -1445613 -1328096 -1262769 -1261426 -1321665 -1429761 
2171.123 -1564586 -1703590 -1826253 -1917212 -1965986 -1967975 -1924134 
2174.499 -1841790 -1734698 -1621746 -1523513 -1457703 -1433840 -1450712 
2177.874 -1497658 -1557467 -1611339 -1644123 -1646049 -1613076 -1545202 
2181.249 -1445055 -1316316 -1165493 -1002920 -844068 -708040 -613480 -572961 
2185.106 -588515 -649191 -732549 -810657 -857308 -855076 -799534 -699469 
2188.964 -573717 -445785 -338326 -268699 -245774 -269426 -330664 -413640 
2192.821 -498003 -562733 -590332 -571183 -506283 -407769 -295890 -194643 
2196.679 -124519 -97963 -116545 -172288 -251405 -339292 -425264 -504294 
2200.536 -576583 -644807 -710573 -772480 -825744 -863364 -878817 -868113 
2204.394 -831267 -771488 -694606 -607455 -517132 -430018 -351916 -287443 
2208.251 -239153 -206979 -187141 -172786 -155600 -128333 -87118 -33979 24101 
2212.591 76688 113609 128849 122692 102415 79901 67562 74564 103769 151370 
2217.412 208396 264360 310757 343415 363039 373425 378831 381358 379549 
2221.752 369515 346930 310124 262104 210912 167808 143592 145218 172586 
2226.092 218673 271083 315623 340825 340788 317020 277035 232435 195285 
2230.431 175388 178143 203879 248580 305051 364594 418403 459019 481561 
2234.771 484492 469839 442954 411586 383919 367319 366178 381383 410532 
2239.110 449003 491362 533085 571611 606164 637223 665650 691381 713229 
2243.450 729078 736665 734494 722879 704014 681893 661018 645325 637002 
2247.790 635804 639307 643449 643939 637580 623272 602695 579960 560641 
2252.129 550383 553683 572339 605235 648116 694834 738469 773134 795285 
2256.469 804718 804438 800259 798808 806168 825969 858514 900324 945209 
2260.808 985631 1014861 1028623 1026222 1010624 987690 964524 947738 942273 
2265.148 950415 971797 1004045 1043627 1086575 1129104 1167874 1200056 
2269.005 1223463 1236659 1239504 1233246 1220862 1206775 1196089 1193584 
2272.863 1202550 1223729 1254946 1291630 1327723 1357448 1377024 1385530 
2276.720 1385594 1382169 1381252 1387890 1404738 1431272 1464147 1498726 
2280.578 1530685 1557546 1579532 1599197 1620349 1646290 1678620 1716302 
2284.435 1756193 1793750 1824797 1846467 1858079 1860980 1857889 1851879 
2288.292 1845410 1839634 1834366 1828347 1819991 1808115 1792402 1773616 
2292.150 1753544 1734247 1717744 1705241 1697179 1692896 1691195 1690738 
2296.007 1690396 1689451 1687631 1684865 1681107 1676194 1669946 1662441 
2299.865 1654291 1646626 1641120 1639410 1642731 1651310 1664346 1680122 
2303.722 1696573 1711597 1723584 1731606 1735334 1734772 1730453 1723132 
2307.580 1714026 1704824 1697385 1693577 1694608 1700963 1712266 1727508 
2311.437 1745774 1766328 1789101 1814244 1841692 1870556 1899276 1925756 
2315.294 1948234 1966016 1979925 1991971 2004587 2019709 2038021 2059151 
2319.152 2082443 2107884 2136891 2172046 2215645 2267864 2324956 2378755 
2323.009 2418044 2431281 2409970 2351308 2259234 2143436 2017087 1893601 
2326.867 1783970 1694766 1627557 1579826 1546655 1522873 1504493 1489556 
2330.724 1477773 1469654 1465835 1466256 1470221 1476635 1484338 1492383 
2334.582 1500062 1506787 1511992 1515163 1516003 1514492 1511047 1506303 
2338.439 1500944 1495419 1489717 1483660 1477121 1470304 1463807 1458583 
2342.296 1455450 1454750 1456089 1458421 1460494 1461204 1460291 1458155 
2346.154 1455671 1453762 1452838 1452718 1452669 1451902 1449895 1446703 
2350.011 1442822 1438758 1434621 1429867 1423293 1413627 1400046 1382785 
2353.869 1363276 1343802 1326845 1314374 1307093 1304411 1304718 1305871 
2357.726 1305980 1303825 1299003 1291661 1282235 1271032 1258131 1243358 
2361.583 1226522 1207624 1187074 1165490 1143830 1123022 1103904 1087197 
2365.441 1073495 1063432 1057526 1056180 1059470 1066963 1077718 1090382 
2369.298 1103481 1115888 1126960 1136711 1145681 1154527 1163641 1172949 
2373.156 1181793 1189209 1194376 1196887 1197058 1195796 1194335 1193717 
2377.013 1194477 1196448 1198939 1200984 1201960 1201726 1200892 1200521 
2380.871 1201794 1205438 1211686 1219902 1229048 1237799 1245243 1251012 
2384.728 1255567 1259973 1265684 1274056 1285954 1301421 1319549 1338666 
2388.585 1356582 1371188 1380908 1385062 1384106 1379399 1372861 1366432 
2392.443 1361728 1359553 1360172 1363130 1367874 1373705 1379997 1386139 
2396.300 1391607 1395726 1398052 1398357 1396907 1394457 1392031 1390473 
2400.158 1390100 1390331 1389860 1386906 1380087 1369080 1354916 1340167 
2404.015 1328174 1322357 1325188 1337360 1357605 1382823 1408921 1431567 
2407.873 1447246 1453944 1451508 1441285 1425886 1408274 1390982 1375580 
2411.730 1362408 1350771 1339413 1327235 1313927 1300162 1287657 1278340 
2415.587 1273929 1275244 1281772 1291918 1303326 1313555 1320601 1323177 
2419.445 1320811 1313799 1303067 1290058 1276639 1264857 1256726 1253605 
2423.302 1255853 1262613 1271977 1281655 1289710 1295483 1299663 1304016 
2427.160 1310455 1319812 1331202 1341955 1348261 1346629 1335268 1315017 
2431.017 1289338 1263338 1242470 1230811 1230289 1240378 1258780 1282204 
2434.875 1307579 1332512 1355474 1375399 1391434 1402601 1407846 1406291 
2438.732 1397669 1382633 1362467 1339285 1315361 1292784 1273183 1257443 
2442.589 1245907 1237996 1232802 1228982 1225251 1220576 1214620 1207909 
2446.447 1201941 1198832 1200856 1209788 1226413 1250156 1279062 1310207 
2450.304 1340180 1365749 1384512 1395154 1397610 1393011 1383279 1370597 
2454.162 1357220 1344761 1334333 1326168 1320100 1315597 1311998 1308826 
2458.019 1305967 1303370 1301176 1299658 1298758 1298212 1297451 1295675 
2461.876 1292015 1285621 1276169 1263857 1249626 1234845 1221044 1209337 
2465.734 1199940 1192276 1184931 1176410 1165870 1153615 1141208 1130972 
2469.591 1125256 1125228 1130444 1138566 1146278 1150219 1148067 1139314 
2473.449 1125233 1108267 1091321 1076732 1066140 1060433 1060059 1065429 
2477.306 1076944 1094626 1117503 1143474 1169244 1191085 1205708 1211354 
2481.164 1208130 1198105 1184352 1169996 1157375 1147611 1140771 1136418 
2485.021 1134275 1134678 1138486 1146649 1159739 1177509 1198698 1221516 
2488.878 1243747 1263354 1278924 1289692 1295546 1297008 1295086 1291075 
2492.736 1286469 1282680 1280855 1281705 1285582 1292674 1303108 1317037 
2496.593 1334474 1354919 1376994 1398133 1414823 1423309 1420521 1405069 
2500.451 1377901 1342154 1302505 1264139 1231541 1207719 1193929 1189647 
2504.308 1193257 1202104 1213271 1223731 1230903 1232862 1229133 1220875 
2508.166 1210815 1202526 1199513 1204031 1216271 1234203 1254283 1272607 
2512.023 1285996 1292981 1293634 1289340 1281834 1272648 1262692 1252598 
2515.880 1243083 1235193 1230369 1229694 1233583 1241101 1250227 1258310 
2519.738 1263094 1263260 1259083 1251821 1243221 1234703 1226783 1219028 
2523.595 1210782 1201552 1191532 1181704 1173455 1168020 1166018 1167315 
2527.453 1171067 1176116 1181463 1186186 1189741 1191807 1192186 1191007 
2531.310 1188953 1187102 1187235 1190989 1199616 1213492 1231671 1252349 
2535.167 1273106 1291537 1305667 1314071 1315980 1311151 1299878 1283420 
2539.025 1264184 1245574 1231760 1226487 1231998 1248070 1271767 1298069 
2542.882 1321445 1337397 1343947 1341914 1334369 1325344 1318194 1314516 
2546.740 1313894 1314297 1313410 1309275 1301286 1290124 1277524 1265561 
2550.597 1256432 1251917 1253299 1261207 1275338 1294225 1315305 1335138 
2554.455 1350305 1358468 1359179 1354284 1347449 1343021 1344424 1352929 
2558.312 1367214 1383608 1397572 1405110 1404198 1395355 1381252 1365623 
2562.169 1352191 1343173 1339300 1339500 1341962 1344760 1346690 1347511 
2566.027 1347936 1348964 1351473 1355628 1360765 1365474 1368057 1367125 
2569.884 1362304 1354414 1345357 1337806 1334168 1335910 1342958 1353729 
2573.742 1365584 1375734 1382244 1384680 1384283 1383349 1384386 1389244 
2577.599 1398402 1410825 1424543 1437203 1447116 1453595 1457072 1458790 
2581.457 1460302 1462794 1466855 1472418 1478885 1485415 1491324 1496297 
2585.314 1500327 1503871 1507434 1511407 1515989 1520773 1525038 1527600 
2589.171 1527389 1523681 1516484 1506719 1496193 1487214 1482026 1482293 
2593.029 1488653 1500494 1516094 1532992 1548617 1560841 1568482 1571583 
2596.886 1571421 1570011 1569805 1572767 1580018 1591290 1605048 1618970 
2600.744 1630695 1638412 1641567 1640804 1637740 1634245 1631791 1630973 
2604.601 1631529 1632698 1633727 1634432 1635208 1636886 1640222 1645399 
2608.458 1651877 1658489 1663989 1667526 1668966 1668949 1668529 1668600 
2612.316 1669601 1671272 1672959 1674033 1674315 1674272 1674994 1677801 
2616.173 1683767 1693413 1706540 1722280 1739244 1755872 1770648 1782188 
2620.031 1789579 1792501 1791526 1787991 1783837 1781191 1781686 1785889 
2623.888 1793115 1801553 1808952 1813447 1814240 1811868 1808159 1805334 
2627.746 1805480 1809686 1817920 1829291 1842403 1855901 1868856 1880657 
2631.603 1891063 1899752 1906459 1910906 1913076 1913496 1912986 1912688 
2635.460 1913508 1915813 1919494 1923789 1927847 1930981 1932872 1933626 
2639.318 1933445 1932447 1930557 1927485 1923102 1917606 1911787 1906963 
2643.175 1904435 1905335 1910002 1918040 1928299 1939329 1949696 1958266 
2647.033 1964448 1968036 1969117 1967985 1965138 1961121 1956575 1952197 
2650.890 1948381 1945277 1942602 1939765 1936104 1931181 1925077 1918282 
2654.748 1911682 1906099 1902062 1899481 1897759 1895911 1892845 1887710 
2658.605 1880021 1869661 1856783 1841680 1824792 1806574 1787547 1768302 
2662.462 1749437 1731411 1714518 1698849 1684394 1671100 1659192 1649018 
2666.320 1641010 1635464 1632327 1631053 1630658 1630011 1628117 1624518 
2670.177 1619312 1613189 1607109 1601933 1598147 1595751 1594279 1593130 
2674.035 1591702 1589599 1586813 1583576 1580374 1577639 1575819 1575096 
2677.892 1575488 1576815 1578745 1580964 1583237 1585548 1588120 1591251 
2681.750 1595186 1599815 1604500 1608141 1609395 1607078 1600802 1591097 
2685.607 1579621 1568683 1560701 1557435 1559366 1565729 1574460 1582996 
2689.464 1588944 1590692 1587742 1580797 1571265 1560898 1551333 1543737 
2693.322 1538688 1536350 1536290 1537922 1540405 1542916 1544577 1544744 
2697.179 1543092 1539781 1535346 1530711 1526908 1524761 1524752 1526910 
2701.037 1530718 1535426 1540272 1544529 1547717 1549609 1550031 1549000 
2704.894 1546406 1542350 1537020 1530808 1524403 1518623 1514240 1511783 
2708.751 1511398 1512703 1515019 1517399 1519051 1519558 1518864 1517395 
2712.609 1515817 1514866 1515190 1517153 1520693 1525538 1530986 1536345 
2716.466 1540867 1544004 1545473 1545355 1544032 1542051 1539888 1537705 
2720.324 1535366 1532359 1528064 1521996 1514271 1505485 1496878 1489906 
2724.181 1485928 1485716 1489280 1495926 1504470 1513547 1522014 1529094 
2728.039 1534336 1537648 1539046 1538668 1536768 1533712 1530180 1526847 
2731.896 1524403 1523388 1523886 1525696 1528360 1531502 1534966 1538863 
2735.753 1543551 1549361 1556359 1564186 1572237 1579593 1585415 1589125 
2739.611 1590426 1589243 1585759 1580120 1572676 1563858 1554356 1545063 
2743.468 1536927 1530760 1527078 1525863 1526703 1528878 1531644 1534292 
2747.326 1536377 1537496 1537314 1535563 1531975 1526597 1519887 1512696 
2751.183 1506204 1501501 1499271 1499524 1501727 1504891 1508166 1510972 
2755.041 1513363 1515717 1518498 1521908 1525588 1528871 1530805 1530739 
2758.898 1528405 1524209 1518965 1513590 1508927 1505558 1503653 1503156 
2762.755 1503919 1505664 1508125 1510883 1513474 1515436 1516424 1516466 
2766.613 1515839 1515054 1514529 1514560 1515056 1515748 1516253 1516433 
2770.470 1516419 1516580 1517337 1518810 1520674 1522232 1522571 1521086 
2774.328 1517580 1512603 1507046 1502009 1498293 1496272 1495768 1496223 
2778.185 1497135 1498029 1498839 1499742 1501121 1503322 1506643 1511281 
2782.042 1517283 1524445 1532413 1540459 1547648 1553093 1556063 1556276 
2785.900 1554302 1551064 1547984 1546344 1547061 1550416 1556150 1563561 
2789.757 1571866 1580248 1588071 1594727 1599763 1602852 1603869 1603302 
2793.615 1601957 1601182 1602415 1606671 1614259 1624611 1636423 1647977 
2797.472 1657779 1664897 1669141 1670942 1671192 1670775 1670498 1670917 
2801.330 1672457 1675370 1679782 1685409 1691745 1697829 1702643 1705358 
2805.187 1705689 1704031 1701410 1699109 1698204 1699184 1701881 1705458 
2809.044 1709035 1711962 1714201 1716298 1719190 1723736 1730448 1739355 
2812.902 1750071 1761804 1773816 1785359 1795924 1805139 1812682 1818504 
2816.759 1822870 1826214 1829369 1833170 1838223 1844796 1852500 1860576 
2820.617 1868020 1874101 1878541 1881710 1884367 1887529 1891994 1898199 
2824.474 1906069 1915084 1924605 1933874 1942386 1949778 1955850 1960524 
2828.332 1963782 1965669 1966309 1966034 1965340 1964903 1965504 1967793 
2832.189 1972286 1978992 1987428 1996650 2005426 2012545 2017193 2019322 
2836.046 2019704 2019799 2021298 2025627 2033504 2044701 2058218 2072745 
2839.904 2087173 2101129 2115072 2130266 2148342 2170901 2199109 2233626 
2843.761 2274700 2322301 2376382 2436553 2502229 2572042 2643894 2714847 
2847.619 2781377 2839951 2887412 2921444 2940809 2945397 2936147 2914843 
2851.476 2884010 2846543 2805554 2763832 2723878 2687275 2654779 2626530 
2855.333 2602037 2580718 2562091 2545722 2531213 2518074 2505482 2492510 
2859.191 2478192 2461967 2443961 2425022 2406690 2390683 2378596 2371524 
2863.048 2369816 2373213 2381022 2392442 2406895 2423950 2443414 2465338 
2866.906 2489869 2517031 2546905 2579472 2614650 2652200 2691871 2733435 
2870.763 2776660 2821569 2868425 2917643 2969723 3025060 3083679 3145227 
2874.621 3208973 3273791 3338419 3401553 3461820 3517890 3568402 3611914 
2878.478 3647185 3673128 3689247 3695575 3692979 3682872 3667238 3648188 
2882.335 3627858 3607927 3589614 3573285 3558692 3544852 3530479 3514244 
2886.193 3495096 3472717 3447544 3420696 3393460 3367226 3342718 3320112 
2890.050 3299166 3279356 3260487 3242852 3227416 3215271 3207527 3204611 
2893.908 3206206 3211158 3217990 3225287 3232351 3239259 3246840 3256296 
2897.765 3268582 3283998 3302044 3321389 3340428 3357709 3372491 3384880 
2901.623 3395713 3406284 3417788 3430947 3445852 3461870 3478005 3493374 
2905.480 3507344 3519975 3531857 3544042 3557827 3574342 3594524 3619069 
2909.337 3648378 3682687 3722278 3767389 3818227 3875118 3938077 4006942 
2913.195 4081231 4159936 4241550 4324044 4405085 4482003 4552259 4613869 
2917.052 4665230 4705801 4735901 4756500 4769445 4776772 4780755 4783484 
2920.910 4786635 4791366 4798159 4806854 4817001 4827887 4839148 4850767 
2924.767 4863306 4877653 4894706 4914990 4938389 4964189 4991375 5019049 
2928.625 5047091 5076167 5108100 5145133 5189562 5243269 5307171 5381492 
2932.482 5465777 5559442 5662207 5774098 5895624 6027518 6170460 6324911 
2936.339 6491022 6668586 6857049 7055469 7262604 7476625 7695415 7916357 
2940.197 8136660 8353252 8563044 8762631 8948454 9116666 9263365 9384831 
2944.054 9478127 9541420 9574367 9578165 9555046 9507822 9439448 9352525 
2947.912 9249267 9131528 9001347 8860754 8712353 8558833 8402775 8246442 
2951.769 8091576 7939168 7789816 7643863 7501515 7363046 7228815 7099287 
2955.626 6974946 6856163 6743358 6636621 6536156 6441663 6352813 6269010 
2959.484 6189669 6114188 6042234 5973565 5908055 5845617 5785839 5728205 
2963.341 5672209 5617308 5563653 5511787 5462910 5418483 5379754 5347479 
2967.199 5321491 5300788 5283708 5268438 5253657 5238565 5223276 5208546 
2971.056 5195484 5185074 5178114 5174947 5175765 5180686 5190040 5204423 
2974.914 5224570 5251041 5283933 5322804 5366562 5413804 5463217 5514168 
2978.771 5567040 5623136 5684647 5753980 5833286 5924010 6026642 6141062 
2982.628 6266634 6403019 6550227 6708828 6879882 7064426 7263118 7475977 
2986.486 7702081 7939706 8186526 8439606 8695819 8951607 9203245 9446756 
2990.343 9678145 9893431 10089417 10263699 10414958 10543088 10648721 
2993.719 10732982 10796858 10840834 10864671 10867617 10848833 10807730 
2997.094 10744456 10660161 10556827 10436871 10302877 10157047 10001051 
3000.469 9836135 9663350 9483842 9299144 9110864 8920913 8730821 8541606 
3004.326 8353723 8167071 7981305 7796065 7611127 7426478 7242171 7058099 
3008.184 6874210 6690417 6506951 6324693 6145046 5970113 5801918 5642139 
3012.041 5491466 5349456 5214620 5084863 4957933 4832196 4706788 4581824 
3015.899 4458295 4337550 4221080 4110021 4004959 3905811 3811854 3721888 
3019.756 3634743 3549376 3465539 3383547 3304517 3229891 3160957 3098427 
3023.614 3042253 2991437 2944538 2900100 2857006 2814742 2773410 2733368 
3027.471 2694882 2657982 2622360 2587483 2552861 2518360 2484082 2450528 
3031.328 2418230 2387731 2359376 2333198 2309143 2286967 2266108 2246012 
3035.186 2226005 2205441 2184128 2162505 2141502 2122593 2107076 2095688 
3039.043 2088246 2083534 2079720 2075107 2068538 2060094 2050481 2041111 
3042.901 2032886 2025897 2019368 2012006 2002615 1990979 1977987 1965495 
3046.758 1955591 1950071 1949385 1952902 1958900 1965300 1970308 1972763 
3050.615 1972336 1969303 1964278 1958010 1951135 1944494 1938734 1934481 
3054.473 1932004 1931035 1930785 1929991 1927501 1922677 1915746 1907804 
3058.330 1900396 1894877 1891813 1890949 1890929 1890157 1887400 1882100 
3062.188 1874771 1866576 1858925 1852990 1849339 1847859 1848078 1849399 
3066.045 1851276 1853390 1855402 1856818 1857047 1855340 1850991 1843682 
3069.903 1833670 1821696 1809007 1796986 1786860 1779558 1775566 1774844 
3073.760 1777042 1781450 1787222 1793439 1799277 1804094 1807601 1809765 
3077.617 1810669 1810601 1809685 1808035 1805536 1802250 1798260 1794041 
3081.475 1790100 1787048 1785361 1785351 1786831 1789626 1793200 1797023 
3085.332 1800557 1803253 1804591 1804002 1801050 1795743 1788308 1779555 
3089.190 1770571 1762497 1756134 1751864 1749335 1747885 1746487 1744517 
3093.047 1741509 1737637 1733339 1729414 1726557 1725485 1726606 1730242 
3096.905 1736446 1744940 1754954 1765337 1774558 1781119 1783748 1781964 
3100.762 1776256 1767943 1758837 1750759 1744980 1742013 1741335 1742001 
3104.619 1742825 1742928 1741865 1739665 1736546 1732718 1728075 1722502 
3108.477 1715823 1708317 1700663 1694103 1689879 1688888 1691123 1695686 
3112.334 1700836 1704535 1705207 1702065 1695443 1686667 1677261 1668512 
3116.192 1661077 1654728 1648742 1642420 1635386 1628089 1621480 1616825 
3120.049 1615076 1616602 1620933 1627202 1634290 1641338 1647938 1654184 
3123.906 1660317 1666547 1672883 1678928 1684168 1688119 1690435 1691021 
3127.764 1690044 1687492 1683512 1678187 1671622 1664331 1657017 1650572 
3131.621 1645922 1643571 1643656 1645737 1649027 1652802 1656367 1659356 
3135.479 1661556 1662727 1662530 1660429 1655981 1649017 1639935 1630031 
3139.336 1621029 1614982 1613577 1617890 1627838 1642499 1660138 1678702 
3143.194 1696113 1710706 1721275 1727279 1728704 1725993 1720029 1711943 
3147.051 1702914 1694200 1686804 1681444 1678575 1678356 1680611 1684809 
3150.908 1690045 1695145 1698682 1699460 1696611 1690323 1681685 1672706 
3154.766 1665725 1662794 1664868 1671453 1680474 1689139 1694577 1694888 
3158.623 1689733 1680412 1669351 1659252 1652182 1648957 1648997 1650785 
3162.481 1652617 1653293 1652718 1651676 1651683 1654036 1659404 1667355 
3166.338 1676486 1684845 1690604 1692753 1691300 1687338 1682609 1678911 
3170.196 1677274 1677996 1680272 1682730 1683890 1682986 1680081 1676271 
3174.053 1673257 1672724 1675693 1681869 1689740 1696858 1700664 1699292 
3177.910 1692312 1680960 1667686 1655540 1647134 1643769 1645319 1650336 
3181.768 1656678 1662414 1666455 1668810 1670269 1672017 1674834 1678804 
3185.625 1683172 1686771 1688501 1687763 1684704 1680212 1675386 1671362 
3189.483 1668791 1668017 1668953 1671431 1675194 1680050 1685561 1691137 
3193.340 1695848 1698803 1699488 1698009 1695222 1692648 1691863 1694070 
3197.198 1699408 1706968 1714864 1721002 1723644 1722004 1716424 1708287 
3201.055 1699483 1691793 1686486 1684098 1684362 1686581 1689908 1693655 
3204.912 1697403 1701078 1704720 1708439 1712171 1715655 1718345 1719712 
3208.770 1719314 1717075 1713457 1709429 1706229 1705117 1706881 1711662 
3212.627 1718837 1727265 1735782 1743579 1750419 1756733 1763286 1770629 
3216.485 1778785 1787072 1794218 1798914 1800135 1797736 1792257 1784930 
3220.342 1777017 1769534 1762935 1757254 1752036 1746990 1741769 1736319 
3224.199 1730631 1724832 1718859 1712863 1707189 1702543 1699918 1700475 
3228.057 1704930 1713511 1725485 1739468 1753522 1765846 1775118 1780751 
3231.914 1782957 1782519 1780300 1777061 1773030 1768074 1761630 1753177 
3235.772 1742486 1729958 1716733 1704590 1695615 1691676 1693893 1702194 
3239.629 1715290 1730988 1746800 1760640 1771430 1779286 1785164 1790174 
3243.487 1795012 1799252 1801555 1800124 1793509 1781446 1765057 1747075 
3247.344 1730647 1718649 1712738 1712928 1717519 1723975 1729474 1731802 
3251.201 1729857 1723657 1714325 1703530 1693190 1685237 1681090 1681590 
3255.059 1686849 1696093 1707765 1719835 1730095 1736950 1739611 1738470 
3258.916 1734934 1731124 1729073 1730477 1735830 1744608 1755358 1766113 
3262.774 1774999 1780648 1782707 1781787 1779225 1776804 1776069 1777844 
3266.631 1781931 1787094 1791348 1792522 1788927 1779901 1765970 1748801 
3270.489 1730718 1714157 1701070 1692566 1688822 1689202 1692623 1697900 
3274.346 1704013 1710204 1716024 1721221 1725451 1728474 1729960 1729488 
3278.203 1726775 1721696 1714428 1705409 1695299 1684880 1674832 1665639 
3282.061 1657578 1650626 1644827 1640249 1637088 1635832 1636645 1639627 
3285.918 1644438 1650483 1657017 1663694 1670452 1677708 1685881 1695127 
3289.776 1704663 1713087 1718425 1718942 1713929 1704201 1692031 1680621 
3293.633 1673005 1671230 1675538 1684521 1695606 1706032 1713665 1717586 
3297.490 1717992 1715877 1712411 1708436 1704338 1700129 1695951 1692193 
3301.348 1689739 1689743 1693244 1700911 1712566 1727273 1743404 1758865 
3305.205 1771616 1779902 1782757 1780011 1772582 1762080 1750542 1739968 
3309.063 1731666 1726059 1722636 1720334 1718087 1715328 1712258 1709886 
3312.920 1709457 1711883 1717388 1725139 1733704 1741506 1747318 1750643 
3316.778 1751687 1751096 1749481 1747165 1743957 1739514 1733521 1726013 
3320.635 1717635 1709366 1702443 1697979 1696733 1699029 1704490 1712248 
3324.492 1720756 1728107 1732328 1731753 1725859 1715434 1702720 1690829 
3328.350 1682840 1680719 1684589 1692490 1701141 1707049 1707855 1703187 
3332.207 1694866 1686163 1680351 1679689 1684290 1692202 1700206 1704857 
3336.065 1703907 1696771 1684824 1670995 1658538 1650734 1649742 1656616 
3339.922 1671004 1691521 1715755 1740975 1764121 1782614 1794532 1799131 
3343.780 1796744 1788623 1776608 1762616 1748127 1734309 1721779 1711030 
3347.637 1702590 1697067 1695032 1696837 1702347 1711127 1722235 1734819 
3351.494 1748094 1761530 1774746 1787259 1798168 1806167 1809724 1807407 
3355.352 1798212 1782194 1760366 1734787 1708114 1683272 1662917 1649109 
3359.209 1643099 1645226 1654627 1669629 1687622 1705769 1721195 1731723 
3363.067 1736200 1734735 1728600 1719925 1710911 1703586 1699057 1697586 
3366.924 1698619 1701086 1703948 1706473 1708422 1710011 1711735 1713957 
3370.781 1716745 1719658 1721837 1722218 1719887 1714456 1706310 1696489 
3374.639 1686631 1678399 1673198 1671649 1673461 1677729 1682801 1687197 
3378.496 1689736 1689909 1687998 1684762 1681309 1678727 1677743 1678549 
3382.354 1680976 1684560 1688836 1693761 1699470 1706598 1715703 1727002 
3386.211 1740133 1753847 1766306 1775645 1780261 1779639 1774244 1765540 
3390.069 1755174 1744523 1734016 1723189 1711018 1696604 1679994 1662448 
3393.926 1646286 1634409 1629091 1631404 1640634 1654750 1670919 1686480 
3397.783 1699701 1709965 1717521 1722915 1726282 1727405 1725450 1719754 
3401.641 1710295 1698166 1685418 1674629 1668263 1667827 1673596 1684456 
3405.498 1698481 1713516 1727655 1739731 1749310 1756698 1762421 1766922 
3409.356 1770533 1773207 1774738 1774783 1773090 1769645 1764678 1758761 
3413.213 1752532 1746760 1741936 1738450 1736200 1735026 1734515 1734347 
3417.071 1734374 1734550 1734772 1735029 1735044 1734543 1733240 1730985 
3420.928 1727996 1724547 1721062 1717726 1714537 1711188 1707493 1703590 
3424.785 1700112 1698377 1699832 1705767 1716515 1731243 1747755 1762988 
3428.643 1773743 1777418 1772781 1760357 1742170 1721472 1701841 1686600 
3432.500 1678004 1676917 1682663 1693301 1706015 1717870 1726367 1730041 
3436.358 1728717 1723327 1715666 1707507 1700315 1694769 1690892 1688409 
3440.215 1687251 1687856 1691344 1698847 1711185 1727947 1747474 1767009 
3444.073 1783376 1794043 1797899 1795782 1789898 1783480 1779408 1779367 
3447.930 1783454 1790155 1797078 1801737 1802347 1798318 1790389 1780155 
3451.787 1769884 1761741 1757461 1758031 1763498 1773170 1785440 1798329 
3455.645 1809681 1817814 1821800 1821962 1819491 1816602 1815463 1817932 
3459.502 1824729 1835253 1847811 1860026 1869330 1873993 1873301 1867684 
3463.360 1858696 1848463 1839321 1833232 1831499 1834777 1842925 1855403 
3467.217 1871455 1890270 1911165 1933616 1956973 1980504 2003158 2023725 
3471.074 2041106 2054378 2063409 2068653 2071297 2072786 2074346 2076886 
3474.932 2080524 2084818 2089240 2093430 2097599 2102609 2109690 2119963 
3478.789 2133944 2151416 2171174 2191538 2210774 2227537 2241215 2251923 
3482.647 2260317 2267213 2273385 2279230 2284785 2290118 2295301 2300754 
3486.504 2307230 2315725 2327239 2342500 2361664 2384195 2409001 2434453 
3490.362 2458881 2480875 2499515 2514668 2526568 2535859 2543259 2549390 
3494.219 2554675 2559666 2565131 2572070 2581555 2594402 2610648 2629306 
3498.076 2648454 2665805 2679599 2689185 2695552 2701035 2708361 2719493 
3501.934 2734716 2752296 2768936 2780890 2785565 2782282 2772850 2760648 
3505.791 2749555 2742623 2741178 2744560 2750855 2757706 2763105 2765745 
3509.649 2765083 2760774 2752448 2739596 2721886 2699813 2674944 2649704 
3513.506 2626972 2608951 2596671 2589375 2584957 2580999 2575582 2567913 
3517.364 2558559 2548836 2540082 2532892 2526897 2521185 2514736 2507183 
3521.221 2498917 2490661 2483043 2475874 2467826 2456917 2441260 2419882 
3525.078 2393448 2364068 2334901 2308885 2287932 2272408 2261176 2252315 
3528.936 2243902 2234502 2223819 2212386 2201070 2190962 2182845 2177303 
3532.793 2174810 2175808 2180582 2188955 2200148 2212437 2223590 2231025 
3536.651 2232625 2227460 2215932 2199799 2181595 2163994 2148864 2137014 
3540.508 2127956 2120466 2113034 2104602 2094834 2084327 2074199 2065591 
3544.365 2059231 2054977 2051828 2048369 2043253 2035994 2027172 2018432 
3548.223 2012013 2010071 2013656 2022342 2034070 2045802 2054270 2057232 
3552.080 2053922 2045398 2034296 2023835 2016761 2014911 2018430 2026295 
3555.938 2036561 2047081 2056149 2062734 2066514 2067750 2067097 2065179 
3559.795 2062793 2060550 2059084 2058764 2059570 2061116 2062483 2062500 
3563.653 2060002 2054274 2045182 2033262 2019582 2005240 1991255 1978069 
3567.510 1965862 1954468 1944088 1935311 1929226 1927103 1929975 1937974 
3571.367 1950134 1964311 1977845 1988112 1993225 1992714 1987489 1979456 
3575.225 1970894 1963624 1958550 1955430 1953293 1950712 1946497 1939844 
3579.082 1930680 1919449 1906787 1893594 1880675 1868846 1858900 1851655 
3582.940 1847748 1847504 1850685 1856558 1863863 1871232 1877243 1880838 
3586.797 1881007 1877013 1868171 1854104 1835007 1812249 1788370 1767086 
3590.655 1752765 1748922 1757460 1777581 1805512 1835503 1861086 1876834 
3594.512 1879882 1870418 1851525 1827615 1803316 1781908 1764728 1751148 
3598.369 1739532 1727890 1714738 1699437 1682156 1663414 1644018 1624739 
3602.227 1606507 1590563 1578391 1571559 1571070 1577167 1588756 1603740 
3606.084 1619659 1634159 1646116 1655443 1663191 1670832 1679370 1688854 
3609.942 1698365 1706234 1710998 1712097 1710221 1707315 1706139 1709332 
3613.799 1718602 1734329 1755426 1779778 1804722 1827979 1847948 1864129 
3617.656 1876944 1887603 1897562 1907973 1919420 1931489 1942968 1951960 
3621.514 1956593 1955226 1947490 1934042 1916787 1898545 1882488 1871289 
3625.371 1866956 1870097 1880170 1895560 1914022 1932917 1949798 1962692 
3629.229 1970343 1972371 1969247 1962164 1952595 1942451 1933316 1926725 
3633.086 1923899 1925799 1932916 1945205 1961863 1981406 2001456 2019476 
3636.944 2033194 2041436 2044514 2044358 2043884 2046195 2053441 2065969 
3640.801 2082351 2099876 2115451 2127093 2134286 2138532 2142339 2148510 
3644.658 2159039 2174592 2194340 2216765 2239959 2262622 2283922 2303562 
3648.516 2321272 2336608 2348906 2357477 2362011 2362851 2360879 2357310 
3652.373 2353224 2349396 2346217 2343959 2343076 2344307 2348697 2356653 
3656.231 2367931 2380898 2392811 2400742 2402326 2396920 2385790 2371901 
3660.088 2358970 2350308 2347626 2350878 2358058 2366325 2372648 2375042 
3663.946 2372681 2366178 2357160 2347722 2339785 2334780 2332991 2333544 
3667.803 2334406 2332567 2324782 2308300 2281812 2245999 2203685 2159238 
3671.660 2117529 2082797 2057751 2043142 2037813 2039573 2045784 2053736 
3675.518 2061271 2066748 2068870 2066994 2060650 2050119 2036106 2019659 
3679.375 2001739 1982966 1963252 1942201 1919272 1894686 1869640 1846543 
3683.233 1828293 1817509 1815573 1821886 1833980 1848018 1859700 1865393 
3687.090 1862819 1851469 1832293 1807651 1780572 1754417 1732536 1717585 
3690.948 1711271 1713781 1723414 1736970 1749899 1757785 1757273 1747083 
3694.805 1728613 1705202 1681418 1661505 1648134 1642087 1641892 1645053 
3698.662 1648919 1651598 1652693 1653168 1654709 1659063 1667110 1678519 
3702.520 1691778 1704584 1714590 1720134 1720396 1715818 1707480 1696733 
3706.377 1684718 1672142 1659292 1646488 1634116 1623169 1614964 1610630 
3710.235 1610690 1614626 1620660 1626647 1630623 1631754 1630947 1630351 
3714.092 1632812 1640334 1653442 1670547 1688305 1703008 1711580 1712798 
3717.949 1707729 1699236 1690790 1685505 1684976 1689043 1696139 1704071 
3721.807 1710723 1714783 1715765 1714130 1710649 1706556 1702936 1701035 
3725.664 1701742 1705842 1713300 1723581 1735163 1746300 1755080 1760165 
3729.522 1761355 1759396 1756063 1753466 1753467 1757194 1764609 1774564 
3733.379 1784986 1793497 1797907 1796825 1790087 1778755 1765068 1751680 
3737.237 1740829 1733819 1730362 1728995 1727440 1723919 1717804 1710072 
3741.094 1702953 1699302 1701087 1708698 1720499 1733331 1743647 1748662 
3744.951 1747508 1741348 1732716 1724496 1718784 1716232 1716328 1717653 
3748.809 1719079 1720104 1721103 1723120 1727147 1733700 1742453 1752403 
3752.666 1762318 1771092 1778058 1782990 1785961 1787146 1786545 1784258 
3756.524 1780524 1775819 1770862 1766609 1763713 1762391 1762340 1762793 
3760.381 1762805 1761721 1759302 1755836 1752155 1749204 1747689 1747951 
3764.239 1749826 1752458 1754687 1755455 1753926 1750076 1744725 1739359 
3768.096 1735796 1735488 1738929 1745450 1753147 1759621 1762612 1761019 
3771.953 1755155 1746676 1737828 1730671 1726293 1724453 1723941 1723124 
3775.811 1720942 1717192 1712581 1708412 1705696 1704788 1705132 1705742 
3779.668 1705769 1705114 1704660 1705916 1710375 1718823 1730668 1744012 
3783.526 1756055 1764021 1765805 1760744 1749509 1734088 1716992 1700831 
3787.383 1687723 1679227 1675891 1677563 1683344 1691766 1701091 1709657 
3791.240 1716120 1719816 1721038 1720723 1720231 1720958 1723996 1729526 
3795.098 1737052 1745343 1752861 1758080 1760032 1758462 1753993 1747869 
3798.955 1741667 1736799 1734004 1733206 1733426 1733455 1732135 1729210 
3802.813 1725483 1722556 1722278 1726050 1733924 1744655 1755950 1765464 
3806.670 1771564 1774084 1774334 1774482 1776492 1781143 1787608 1793640 
3810.528 1796560 1794324 1786266 1773611 1758822 1744834 1734011 1727360 
3814.385 1724540 1724055 1724005 1722818 1719752 1714973 1709414 1704365 
3818.242 1701167 1700896 1704269 1711504 1722181 1735483 1750069 1764379 
3822.100 1777350 1788173 1796773 1803364 1808215 1811108 1811118 1806836 
3825.957 1796877 1780764 1759139 1734180 1709077 1687098 1670742 1661136 
3829.815 1657833 1659504 1664199 1670653 1678134 1686605 1695989 1705992 
3833.672 1715343 1722362 1725325 1723308 1716476 1706573 1696194 1688226 
3837.530 1685060 1687764 1696134 1708657 1723112 1737083 1748500 1755805 
3841.387 1758341 1756401 1750961 1743757 1736693 1731532 1729265 1729894 
3845.244 1732274 1734551 1734820 1731869 1725621 1717440 1709437 1704048 
3849.102 1703089 1707258 1715977 1727651 1740321 1752324 1762629 1771041 
3852.959 1777984 1783949 1789295 1793766 1796611 1796952 1793897 1787006 
3856.817 1776600 1763790 1750371 1738720 1731096 1729413 1734629 1746270 
3860.674 1762490 1780344 1796214 1807018 1810710 1807003 1797292 1784447 
3864.531 1771652 1761792 1756369 1755475 1757740 1761053 1763241 1762839 
3868.389 1759432 1753486 1746269 1739310 1733748 1730439 1729502 1730663 
3872.246 1733510 1737576 1742318 1747449 1752414 1756744 1759869 1761450 
3876.104 1761423 1760136 1758369 1757160 1757534 1760103 1764854 1771048 
3879.961 1777244 1781844 1783235 1780584 1773696 1763608 1751621 1739658 
3883.819 1729421 1722147 1718499 1718387 1721383 1726761 1733728 1741581 
3887.676 1749644 1757372 1764321 1770138 1774655 1778014 1780683 1783432 
3891.533 1787092 1792214 1799031 1807298 1816140 1824620 1831602 1836381 
3895.391 1838605 1838572 1836855 1834459 1832219 1831048 1831353 1833264 
3899.248 1836443 1840157 1843376 1845054 1844289 1840596 1834015 1825053 
3903.106 1814717 1804013 1793869 1784848 1777171 1770944 1766285 1763626 
3906.963 1763386 1766141 1771828 1779767 1788271 1795141 1798190 1795924 
3910.821 1788185 1776436 1763362 1752369 1746442 1747469 1755624 1769507 
3914.678 1786527 1803750 1818382 1828717 1834006 1834625 1831859 1827348 
3918.535 1822757 1819582 1818611 1820134 1823418 1827397 1830524 1831406 
3922.393 1829083 1823291 1814463 1803675 1792150 1781056 1771393 1763896 
3926.250 1759144 1757901 1760694 1768050 1779695 1794592 1810692 1825441 
3930.108 1836300 1841554 1840779 1835040 1826403 1817290 1809506 1803748 
3933.965 1799517 1795496 1790117 1782497 1772780 1762060 1752261 1745438 
3937.823 1743213 1746366 1754569 1766573 1780149 1792741 1801695 1804898 
3941.680 1801357 1791559 1777655 1763089 1751939 1747625 1751879 1764202 
3945.537 1781747 1800222 1815163 1823565 1824568 1820071 1813590 1809303 
3949.395 1810278 1817469 1829318 1842388 1852498 1856059 1851309 1838721 
3953.252 1820729 1800949 1783045 1769891 1762786 1761769 1765679 1773019 
3957.110 1782177 1792251 1802832 1813867 1825502 1837750 1850228 1862192 
3960.967 1872846 1881154 1886572 1888567 1887204 1882721 1875555 1866183 
3964.824 1855189 1843357 1831616 1820988 1812642 1807709 1806919 1810540 
3968.682 1818175 1828935 1841174 1853150 1863016 1869347 1871210 1868644 
3972.539 1862617 1854913 1847753 1843466 1843650 1849065 1859061 1871937 
3976.397 1885402 1896953 1904711 1907660 1905626 1899273 1889506 1877351 
3980.254 1863702 1849530 1835862 1824059 1815453 1811233 1811959 1817380 
3984.112 1826231 1836832 1847449 1857002 1865289 1872992 1881191 1891101 
3987.969 1903125 1917037 1931634 1945461 1956873 1964597 1967843 1966382 
3991.826 1960641 1951607 1940953 1930779 1923305 1920513 1923261 1931176 
3995.684 1942346 1953841 1962580 1966219 1963844 1956325 1945789 1934916 
3999.541 1925998 1920334 1917992 
##END=
