##TITLE=Tecor_ABS_White_Filament_r7_ATR-Corrected
##JCAMP-DX=5.01  $$ Nicolet v. 1
##DATATYPE=INFRARED SPECTRUM
##ORIGIN=Curtin University
##OWNER=Nicolet
##LONGDATE=2024/07/19
##TIME=16:44:04
##SPECTROMETER/DATA SYSTEM=Nicolet iS50
##DATA PROCESSING=
Ratio against background
%Transmittance->Absorbance
ATR Correction
Truncated
ElementMultiply or ElementDivide
##COMMENTS=
Number of sample scans: 32
Collection length: 47.28 sec
Sample gain: 1.0
Background collected on: Fri Jul 19 16:41:48 2024 (GMT+08:00);
Number of background scans: 32
Background gain: 1.0
Sample spacing:  1.000
Number of scan points: 16672
Resolution points: 8192
Number of FFT points: 65536
Apodization: N-B strong;
Phase correction: Mertz;
Laser frequency: 15798.3 cm-1
Number of rejected sample scans: 0
Number of rejected background scans: 0
Bench serial number: AUP1200105;
##RESOLUTION=4.000
##XUNITS=1/CM
##YUNITS=ABSORBANCE
##FIRSTX=400.163452
##LASTX=4000.187744
##FIRSTY=0.009877
##MAXX=4000.187744
##MINX=400.163452
##MAXY=0.436817
##MINY=-0.018033
##XFACTOR=1.000000
##YFACTOR=1.000000E-009
##NPOINTS=7468
##DELTAX=0.482125
##ZPD=8192
##XYDATA=(X++(Y..Y))
400.163 9876743 9743976 9670020 9679521 9790203 10013762 10355818 10805489 
404.020 11325849 11852069 12298263 12576865 12622161 12411161 11972368 
407.395 11379482 10732697 10133930 9664646 9373164 9273167 9349433 9567405 
411.252 9883462 10252035 10631394 10986166 11290099 11527366 11691850 
414.627 11786452 11817766 11793416 11719862 11602590 11448991 11273134 
418.002 11097392 10953042 10874063 10890511 11020321 11264334 11605560 
421.377 12011854 12441539 12849977 13195343 13443395 13572061 13573701 
424.751 13455889 13239710 12955838 12637864 12315977 12011775 11736830 
428.126 11494682 11285985 11113496 10985374 10914583 10913541 10988073 
431.501 11132046 11324702 11534963 11728960 11879000 11971404 12008818 
434.876 12007867 11991729 11981525 11988604 12011134 12035847 12043308 
438.251 12015501 11942192 11825147 11678118 11523548 11387365 11293730 
441.625 11261046 11300248 11415581 11605919 11865712 12184527 12545260 
445.000 12922060 13279925 13577627 13773749 13837281 13754787 13538075 
448.375 13223463 12865378 12525347 12257694 12098143 12057635 12122263 
451.750 12258613 12422821 12570324 12664473 12682370 12618317 12484112 
455.125 12307722 12128689 11991367 11936472 11991977 12165638 12442647 
458.500 12788241 13156063 13498073 13775336 13964368 14059728 14071412 
461.874 14020064 13931242 13829425 13735159 13662022 13616351 13597445 
465.249 13597551 13603869 13601861 13579050 13529523 13456495 13371246 
468.624 13290267 13229009 13196437 13191859 13205334 13221079 13223613 
471.999 13202956 13158179 13097516 13036304 12992669 12983486 13020630 
475.374 13109363 13246685 13422426 13620010 13819606 14002130 14153136 
478.748 14266038 14343494 14394114 14429683 14458457 14482872 14498375 
482.123 14496950 14472002 14422953 14357368 14288958 14232027 14196382 
485.498 14183205 14185458 14192457 14195446 14192455 14189346 14196568 
488.873 14222845 14269870 14329110 14384178 14417428 14416962 14382791 
492.248 14327817 14274449 14247718 14268028 14345640 14479019 14656795 
495.623 14862068 15075488 15278845 15455982 15593383 15681155 15713636 
498.997 15691245 15621305 15517173 15395934 15275423 15170554 15091551 
502.372 15043640 15028627 15046912 15098813 15184833 15304642 15455317 
505.747 15630420 15820453 16014682 16203985 16383270 16552715 16717659 
509.122 16886332 17067306 17266802 17487100 17726988 17982280 18248808 
512.497 18524578 18811976 19117614 19451218 19823052 20239790 20701810 
515.871 21201260 21723316 22249858 22764626 23258360 23731976 24195928 
519.246 24666888 25162292 25694710 26268942 26881646 27524368 28187736 
522.621 28865180 29553852 30253648 30964608 31683568 32403606 33114642 
525.996 33806512 34472980 35112660 35728940 36327928 36914656 37490820 
529.371 38054620 38602732 39133660 39650780 40163632 40686536 41234436 
532.746 41817820 42438656 43087916 43746856 44391228 44997488 45549436 
536.120 46042828 46487276 46903948 47319256 47758164 48235224 48750552 
539.495 49288928 49823380 50322200 50757040 51108392 51368672 51539756 
542.870 51629748 51648552 51605584 51509924 51372596 51208476 51035792 
546.245 50872996 50732392 50615164 50508672 50389160 50229140 50007380 
549.620 49717412 49371072 48995628 48625044 48288920 48002632 47762556 
552.994 47547888 47327336 47068620 46747628 46354020 45892688 45381760 
556.369 44846164 44313368 43807664 43346664 42938804 42584052 42274612 
559.744 41998184 41741100 41491524 41241596 40988164 40731276 40472596 
563.119 40213080 39952264 39688384 39419948 39146876 38869624 38588624 
566.494 38301432 38001124 37676936 37317360 36915044 36471996 36002084 
569.869 35529396 35083164 34689004 34361220 34097932 33881008 33681284 
573.243 33465746 33205960 32884084 32495644 32048312 31558462 31046856 
576.618 30534466 30039126 29573772 29145170 28754292 28396472 28063692 
579.993 27746292 27435840 27126794 26817038 26507434 26200126 25896828 
583.368 25597858 25302182 25008730 24716848 24426936 24139816 23854906 
586.743 23569668 23279820 22981068 22672638 22358704 22049508 21759172 
590.117 21501104 21283870 21108070 20967286 20851486 20752388 20668210 
593.492 20604482 20571000 20575938 20618908 20687076 20755422 20792644 
596.867 20769706 20668888 20489316 20247958 19975182 19707338 19478084 
600.242 19311348 19217964 19194772 19227610 19295234 19373980 19442058 
603.617 19483444 19489736 19461018 19404434 19331518 19254038 19180636 
606.992 19115142 19056992 19003768 18954134 18910590 18879240 18867760 
610.366 18881548 18920524 18977948 19041998 19099748 19142210 19167552 
613.741 19181682 19196094 19223990 19276092 19358146 19470778 19611220 
617.116 19774642 19955442 20146464 20337876 20516106 20664254 20764748 
620.491 20803130 20771534 20670590 20508550 20298304 20054242 19789000 
623.866 19512796 19234282 18962428 18706880 18477564 18282432 18124582 
627.240 18000678 17901614 17815336 17730496 17639976 17542158 17439762 
630.615 17336992 17237034 17140026 17044096 16947256 16849720 16754914 
633.990 16668536 16595975 16539147 16494876 16455637 16412053 16357001 
637.365 16288158 16209418 16129049 16057311 16002577 15969645 15959751 
640.740 15971389 16002512 16051637 16118109 16201265 16299997 16412208 
644.115 16535968 16670136 16815464 16973886 17146918 17333022 17525830 
647.489 17714112 17883584 18020996 18117748 18172998 18194302 18195226 
650.864 18192062 18200240 18231426 18292400 18385602 18510344 18663904 
654.239 18841854 19038876 19248488 19464594 19682842 19902302 20126652 
657.614 20363602 20622948 20913802 21241400 21605404 22000284 22417164 
660.989 22846964 23283702 23726194 24178672 24649342 25148026 25683062 
664.363 26259110 26875016 27523330 28190536 28859086 29510010 30126856 
667.738 30698544 31222346 31704020 32156988 32598462 33045676 33512366 
671.113 34006404 34529696 35080276 35654156 36247936 36859824 37489208 
674.488 38136364 38801148 39482880 40181164 40897056 41634132 42398696 
677.863 43199200 44044928 44944160 45904036 46930812 48030788 49212344 
681.237 50485968 51864632 53362224 54992128 56765912 58693360 60783908 
684.612 63049896 65509072 68188288 71124584 74366968 77976384 82027136 
687.987 86609368 91833576 97836736 104789000 112898064 122409768 133601872 
691.362 146769344 162200864 180145120 200768064 224100848 249980880 
694.255 277985856 307374080 337043808 365546112 391188704 412253216 
697.147 427308992 435520224 436817024 431845472 421730592 407779296 
700.040 391233120 373131456 354267552 335205408 316322432 297856928 
702.933 279949312 262673264 246059200 230110640 214816016 200157296 
705.825 186117040 172683376 159852512 147629104 136023648 125049304 
708.718 114717848 105037200 96010032 87634392 79905240 72814936 66353536 
712.093 60507416 55258912 50585292 46459000 42849916 39726116 37056008 
715.468 34807936 32948538 31441194 30243578 29308344 28585130 28024604 
718.843 27583346 27227754 26935582 26694764 26500178 26349348 26239354 
722.217 26165062 26119312 26095362 26087980 26095430 26119632 26165156 
725.592 26238464 26346958 26498638 26701854 26964962 27295760 27700080 
728.967 28181862 28742786 29383810 30107052 30916922 31820510 32825646 
732.342 33937824 35156812 36474680 37876224 39341892 40852532 42393096 
735.717 43955080 45535600 47134180 48748892 50373792 51998848 53612688 
739.091 55206292 56776716 58328588 59873176 61425616 63003056 64622268 
742.466 66300468 68055336 69906536 71873728 73974000 76217688 78605632 
745.841 81128816 83771752 86517712 89354904 92279880 95297328 98416280 
749.216 101644680 104984520 108429608 111966992 115580104 119252640 
752.109 122969040 126713008 130462752 134186728 137840304 141367232 
755.001 144703616 147783888 150546432 152936624 154908000 156421312 
757.894 157444368 157952176 157929952 157375712 156302976 154740848 
760.787 152731344 150325648 147578400 144543232 141269600 137800768 
763.679 134174008 130421000 126569184 122643944 118670152 114674080 
766.572 110684152 106731272 102846896 99060472 95396720 91872448 88495880 
769.947 85266960 82179712 79224024 76388648 73661696 71031424 68485496 
773.322 66011964 63599736 61241512 58935916 56687568 54507396 52408388 
776.697 50402372 48495588 46687160 44969788 43332408 41763940 40256548 
780.071 38806924 37415900 36086288 34820636 33620124 32484688 31414226 
783.446 30410396 29476828 28619060 27842286 27148170 26533492 25988582 
786.821 25498316 25043826 24605954 24167668 23717200 23248376 22762250 
790.196 22265432 21768748 21284724 20825580 20400544 20015250 19671804 
793.571 19369068 19104602 18875622 18678518 18509374 18362634 18231018 
796.945 18106384 17981966 17854050 17723710 17596486 17480236 17381628 
800.320 17303182 17241018 17185978 17126468 17052200 16957328 16842920 
803.695 16714832 16582463 16454600 16338615 16238995 16158381 16098056 
807.070 16058203 16037181 16030136 16027672 16017310 15985452 15921535 
810.445 15821757 15691066 15542536 15393944 15262885 15161855 15095154 
813.820 15058565 15041246 15029562 15011426 14978740 14929870 14869041 
817.194 14804830 14747784 14707370 14689322 14694154 14716669 14746963 
820.569 14773601 14786420 14779669 14753313 14711868 14662497 14612077 
823.944 14563900 14517772 14470420 14418087 14358288 14291778 14221697 
827.319 14153164 14091491 14041963 14009393 13999229 14016601 14066018 
830.694 14148290 14259742 14390901 14529765 14666036 14796522 14928428 
834.068 15079419 15271931 15526105 15850892 16240612 16675163 17126458 
837.443 17567470 17980234 18359688 18711772 19047472 19375274 19695426 
840.818 19999422 20272988 20502076 20678978 20804442 20886324 20936126 
844.193 20963580 20974100 20968098 20943422 20898054 20832534 20749120 
847.568 20650858 20539018 20411738 20264234 20090820 19887716 19654680 
850.943 19395468 19117100 18827260 18533432 18240910 17953454 17673230 
854.317 17401776 17139882 16887434 16643565 16407531 16179414 15960995 
857.692 15755329 15566495 15397032 15246607 15111257 14984582 14860621 
861.067 14736683 14615783 14506279 14419219 14364998 14349569 14371676 
864.442 14424434 14497406 14580001 14664336 14745696 14821895 14891269 
867.817 14950854 14996012 15021593 15024415 15004831 14967936 14922531 
871.191 14879210 14847612 14834007 14840673 14865390 14902741 14945936 
874.566 14988092 15024165 15051487 15070406 15084320 15098328 15117822 
877.941 15146438 15185103 15231473 15280738 15327897 15369878 15406826 
881.316 15442895 15484322 15537842 15608263 15697086 15802121 15918279 
884.691 16038498 16155202 16261032 16350230 16419888 16471269 16511407 
888.066 16552843 16611498 16703768 16840844 17025380 17249326 17496544 
891.440 17747168 17984640 18201110 18399884 18594052 18801752 19040634 
894.815 19323302 19655694 20039476 20474872 20964622 21515606 22138086 
898.190 22843680 23642232 24541142 25545722 26661070 27894524 29255758 
901.565 30756358 32406152 34209976 36164796 38258760 40472420 42780408 
904.940 45153728 47560940 49968076 52338308 54630968 56802260 58805684 
908.314 60594352 62122004 63345672 64227312 64736872 64856164 64582496 
911.689 63930988 62935584 61644176 60113376 58399736 56553644 54615124 
915.064 52613992 50573340 48513276 46454124 44417708 42425756 40497880 
918.439 38649860 36893636 35238576 33693332 32266986 30967872 29801328 
921.814 28765950 27852082 27042158 26314136 25646024 25021116 24429964 
925.189 23871484 23349534 22869542 22436252 22051660 21715832 21427898 
928.563 21187640 20995370 20850432 20750288 20689000 20657962 20647678 
931.938 20649982 20660114 20676882 20701724 20736512 20781660 20835552 
935.313 20895464 20958992 21026958 21103326 21195146 21309494 21451632 
938.688 21622706 21819024 22033786 22258960 22487784 22715602 22940556 
942.063 23162470 23381366 23597436 23810636 24021578 24232696 24449230 
945.437 24678248 24928384 25207872 25523524 25879680 26278922 26723044 
948.812 27214328 27756582 28355196 29016978 29749488 30559894 31455014 
952.187 32441858 33528522 34726152 36049096 37515804 39148032 40968364 
955.562 42999200 45260076 47766680 50529092 53551944 56833132 60362572 
958.937 64120256 68074632 72181000 76381984 80608624 84784384 88829224 
962.312 92663456 96210856 99401048 102169920 104461288 106228624 107438488 
965.686 108073752 108135840 107645240 106638984 105165424 103279376 
968.579 101037000 98493424 95701448 92712864 89578264 86348008 83070976 
971.954 79792656 76554376 73391784 70335656 67412760 64646096 62055052 
975.329 59653608 57448532 55437276 53607444 51938948 50407300 48988672 
978.703 47664684 46425200 45268876 44201428 43231924 42368872 41616900 
982.078 40974292 40433248 39981128 39601924 39279604 39000100 38753380 
985.453 38535228 38346800 38194536 38087708 38035884 38046836 38123660 
988.828 38264664 38462712 38706048 38979896 39267016 39548948 39805956 
992.203 40017976 40165716 40232292 40205056 40077792 39851300 39533960 
995.578 39141044 38693800 38218228 37743636 37301356 36922792 36635852 
998.952 36461724 36410568 36477928 36644148 36875208 37127432 37354188 
1002.327 37513544 37574652 37522604 37359672 37102932 36780772 36425888 
1005.702 36069840 35738036 35446288 35200424 34997500 34828660 34683628 
1009.077 34554248 34437324 34335404 34255736 34207256 34197408 34229988 
1012.452 34303888 34414360 34554976 34720756 34910196 35124888 35369304 
1015.826 35647880 35963508 36316192 36703292 37121792 37569536 38047316 
1019.201 38559648 39114256 39720928 40390100 41132632 41958360 42877292 
1022.576 43897952 45026468 46263716 47602936 49027060 50507296 52003800 
1025.951 53467160 54841276 56067500 57086744 57843404 58287776 58379280 
1029.326 58090140 57409188 56344792 54925928 53201796 51237252 49106924 
1032.702 46888592 44655264 42471160 40387996 38444532 36666224 35068168 
1036.077 33654960 32423708 31364366 30462366 29699658 29058070 28520710 
1039.452 28074358 27709420 27419962 27201998 27051116 26961106 26922844 
1042.827 26924114 26952008 26994084 27041444 27089206 27137326 27189684 
1046.203 27251984 27329540 27425820 27541402 27674188 27820416 27975746 
1049.578 28136394 28299450 28462582 28624046 28781986 28934750 29081482 
1052.953 29223098 29363002 29507188 29663280 29839060 30040992 30272464 
1056.328 30533908 30822902 31135856 31469308 31821288 32191460 32580656 
1059.704 32990228 33420778 33872388 34344176 34835420 35346096 35876804 
1063.079 36428496 37001716 37594900 38203948 38821356 39436676 40037324 
1066.454 40610064 41141944 41621836 42040812 42392468 42672708 42879684 
1069.829 43012476 43070496 43053040 42959080 42787064 42536828 42209528 
1073.205 41809392 41344100 40824472 40263848 39676544 39076540 38476400 
1076.580 37885700 37311100 36754856 36215892 35689480 35168988 34647400 
1079.955 34119360 33583324 33042126 32502212 31972430 31460554 30971014 
1083.330 30504242 30056642 29622770 29198408 28782974 28380346 27997994 
1086.706 27644328 27325398 27043534 26795212 26573240 26368198 26171414 
1090.081 25977022 25782384 25588876 25400004 25220162 25054270 24906188 
1093.456 24778740 24672596 24586348 24515544 24453126 24389392 24314362 
1096.831 24218894 24097236 23947998 23775524 23588318 23398074 23217526 
1100.207 23057774 22926518 22826562 22755278 22705494 22666664 22628136 
1103.582 22580300 22517466 22437972 22344526 22241656 22134648 22027720 
1106.957 21923552 21824156 21731988 21651810 21590056 21554120 21549914 
1110.332 21579244 21638192 21717294 21803208 21881798 21941630 21975302 
1113.708 21980264 21957172 21908050 21834338 21736164 21612950 21464826 
1117.083 21293260 21102460 20897610 20684616 20467866 20249906 20031354 
1120.458 19811622 19590188 19367422 19144606 18923824 18706978 18496342 
1123.833 18294082 18103294 17927722 17772018 17640086 17533524 17450026 
1127.208 17383492 17324342 17262204 17189206 17102166 17004254 16904144 
1130.584 16813580 16744349 16704474 16696613 16717544 16759424 16812956 
1133.959 16869598 16924346 16975950 17026812 17080834 17141138 17208474 
1137.334 17280122 17351090 17416142 17472808 17523226 17576028 17644262 
1140.709 17743458 17887086 18082888 18329886 18619220 18935204 19260732 
1144.085 19581096 19888888 20185024 20479790 20790364 21137284 21541736 
1147.460 22022812 22595546 23270888 24054570 24948344 25948284 27044758 
1150.835 28221192 29453648 30710286 31953036 33139162 34224960 35169800 
1154.210 35940496 36514044 36880888 37043972 37017356 36822844 36486252 
1157.586 36033344 35488532 34873724 34209108 33514052 32808482 32112610 
1160.961 31445846 30825246 30263290 29766952 29336852 28968780 28654714 
1164.336 28385186 28151324 27946430 27766380 27609954 27477964 27371828 
1167.711 27292766 27240360 27212054 27203656 27210256 27227362 27253068 
1171.087 27288122 27336748 27405170 27501158 27631442 27801562 28014932 
1174.462 28273710 28579658 28934822 29341742 29803216 30320072 30889802 
1177.837 31505172 32152422 32812144 33460538 34071000 34617624 35077556 
1181.212 35433220 35673780 35795456 35799932 35693908 35486916 35190132 
1184.588 34816208 34378528 33891756 33371646 32834928 32297686 31775062 
1187.963 31279412 30820084 30403752 30034964 29717764 29454614 29247544 
1191.338 29096254 28997212 28943226 28923672 28926916 28941862 28961086 
1194.713 28981448 29003856 29031858 29068586 29115106 29169294 29226458 
1198.089 29280844 29327498 29363252 29387426 29400538 29403468 29396168 
1201.464 29377898 29347640 29305048 29251584 29190362 29125128 29059918 
1204.839 28996610 28934982 28872288 28804736 28728256 28639894 28538754 
1208.214 28425680 28302928 28173476 28039888 27903602 27765000 27623610 
1211.590 27478468 27329102 27176354 27022390 26870836 26725936 26590436 
1214.965 26465022 26347322 26232052 26113198 25986096 25849302 25706168 
1218.340 25564270 25432888 25319998 25229752 25160982 25107688 25060798 
1221.715 25012302 24957270 24895520 24831064 24771100 24723190 24693356 
1225.091 24685052 24699188 24734482 24788186 24856708 24936452 25023640 
1228.466 25115672 25211540 25311760 25418180 25533294 25657488 25788646 
1231.841 25920658 26045076 26153178 26239060 26302130 26347756 26385726 
1235.216 26427198 26480610 26549166 26629570 26714176 26793420 26859270 
1238.592 26907050 26936082 26948372 26946544 26932134 26905424 26866026 
1241.967 26814398 26752854 26686300 26620256 26560222 26508766 26465058 
1245.342 26425178 26383266 26333470 26272056 26198064 26113564 26022842 
1248.717 25931980 25847518 25775942 25723170 25693466 25688808 25707752 
1252.093 25745628 25794664 25845166 25888168 25917038 25929008 25926106 
1255.468 25913294 25897542 25885218 25880526 25884252 25894084 25905758 
1258.843 25914200 25915594 25907528 25889992 25864638 25833700 25799312 
1262.218 25762352 25722512 25678300 25628476 25572558 25511984 25450140 
1265.594 25391764 25342000 25304106 25279982 25268142 25265920 25269540 
1268.969 25275890 25283642 25293114 25305670 25323076 25346442 25376700 
1272.344 25414042 25459620 25515428 25584318 25668434 25768538 25882318 
1275.719 26004220 26126576 26241464 26343266 26430368 26505814 26576250 
1279.094 26649318 26731472 26825880 26931500 27044832 27160626 27275172 
1282.470 27386520 27495550 27604804 27717588 27836244 27962028 28095226 
1285.845 28235888 28384530 28542678 28712030 28893494 29086158 29286206 
1289.220 29487554 29683064 29866374 30034340 30188070 30332636 30475844 
1292.595 30626100 30789570 30968322 31159942 31357962 31554420 31741712 
1295.971 31914740 32072302 32217260 32354922 32492712 32637146 32794472 
1299.346 32968830 33162634 33376556 33609552 33858496 34118616 34383564 
1302.721 34646248 34899992 35139728 35363436 35571452 35766692 35953088 
1306.096 36133896 36310596 36482792 36648728 36806588 36955384 37096204 
1309.472 37231728 37365052 37498120 37630604 37760092 37882024 37991872 
1312.847 38086920 38167252 38235864 38297488 38356776 38416056 38474424 
1316.222 38527388 38568896 38593196 38596852 38580804 38549628 38511320 
1319.597 38474376 38445540 38429172 38425552 38431944 38444608 38459992 
1322.973 38476820 38496284 38522036 38559288 38612948 38686648 38780832 
1326.348 38893612 39019564 39152060 39283168 39405980 39515564 39608716 
1329.723 39685800 39748392 39799832 39842880 39879104 39907920 39926672 
1333.098 39931180 39917408 39883252 39829696 39761504 39687340 39618680 
1336.474 39568024 39547020 39565220 39628976 39740068 39897140 40094768 
1339.849 40324448 40576188 40838912 41102540 41358908 41602844 41832696 
1343.224 42049924 42257116 42457176 42651680 42840276 43021180 43191880 
1346.599 43351096 43499052 43638160 43771820 43904012 44036504 44168664 
1349.975 44297220 44417136 44522708 44609664 44675944 44722100 44751396 
1353.350 44768212 44777716 44784272 44790576 44797940 44805348 44810616 
1356.725 44810880 44803944 44789140 44767752 44743244 44720064 44703264 
1360.100 44696128 44700208 44714832 44737680 44765684 44796200 44826908 
1363.476 44855724 44879772 44895884 44899988 44888228 44858540 44811820 
1366.851 44751784 44683800 44612976 44542452 44471188 44394496 44305156 
1370.226 44195352 44059816 43895944 43704320 43486984 43246448 42983256 
1373.601 42696140 42382080 42037432 41658592 41242860 40788540 40295468 
1376.977 39765204 39201244 38610068 38000780 37383680 36768692 36162816 
1380.352 35569180 34987328 34414664 33849228 33292130 32749108 32228020 
1383.727 31737096 31280544 30857352 30459760 30076680 29696388 29311110 
1387.102 28919210 28524792 28136100 27762034 27408468 27077546 26766804 
1390.478 26471454 26185626 25905132 25627558 25353332 25084818 24825906 
1393.853 24581934 24358912 24162602 23997872 23866696 23767784 23696248 
1397.228 23645218 23606816 23575320 23547610 23523922 23507156 23500400 
1400.603 23505404 23521652 23545814 23572750 23596554 23611580 23613360 
1403.979 23598936 23566894 23518088 23456084 23387654 23321650 23268240 
1407.354 23236154 23230886 23253868 23302752 23374032 23465748 23580158 
1410.729 23724490 23909398 24146046 24442342 24799736 25213424 25673034 
1414.104 26165252 26676680 27194944 27708578 28204994 28670164 29087740 
1417.479 29441418 29718806 29914338 30032204 30086112 30095984 30084308 
1420.855 30072088 30076106 30109704 30184738 30314132 30513784 30802316 
1424.230 31198852 31720992 32381620 33187832 34141196 35239056 36476508 
1427.605 37846984 39343148 40956968 42679828 44502232 46415068 48409352 
1430.980 50476552 52608020 54795400 57029956 59303232 61607716 63937576 
1434.356 66288164 68656016 71038144 73431744 75835120 78249656 80681184 
1437.731 83141480 85647632 88220928 90883944 93658528 96565544 99624384 
1441.106 102855384 106279552 109919216 113795240 117923048 122309552 
1443.999 126949624 131826712 136915296 142186352 147613856 153182064 
1446.892 158891264 164760688 170826688 177130288 183695376 190494336 
1449.785 197408800 204192064 210448848 215647392 219170640 220408288 
1452.678 218867968 214277344 206644768 196261104 183651536 169492368 
1455.572 154520528 139449664 124901336 111358080 99139688 88403968 79168728 
1458.947 71348440 64794204 59329656 54777164 50974464 47781788 45082760 
1462.322 42783548 40808112 39095476 37596120 36269652 35082912 34009928 
1465.697 33031366 32133550 31308342 30550184 29855168 29217814 28631320 
1469.073 28087570 27579776 27103624 26659722 26252966 25891194 25582130 
1472.448 25329916 25133774 24987866 24882510 24807970 24756754 24725168 
1475.823 24714496 24729026 24774686 24857720 24982648 25153110 25372292 
1479.198 25645028 25978694 26385290 26881692 27488694 28229674 29128142 
1482.573 30206010 31483476 32979098 34713200 36710320 39003336 41637116 
1485.949 44672728 48191660 52300824 57136084 62860152 69652160 77681888 
1489.324 87066616 97815800 109768600 122541904 135506688 147811888 158465616 
1492.699 166468928 170982544 171482944 167867456 160473632 150008832 
1495.592 137411712 123689368 109769048 96397760 84095888 73161664 63706948 
1498.968 55707560 49052836 43586768 39135368 35526128 32599342 30215316 
1502.343 28258748 26639110 25288456 24156820 23206496 22405386 21725084 
1505.718 21139304 20624644 20163044 19741570 19352568 18992100 18657006 
1509.093 18344394 18050962 17774334 17513484 17269376 17044840 16843568 
1512.469 16668452 16521379 16402012 16309120 16240042 16191248 16158525 
1515.844 16137058 16121387 16106945 16090427 16069930 16045449 16017698 
1519.219 15987048 15953379 15915044 15870752 15820080 15764782 15708214 
1522.594 15654713 15607792 15569060 15537903 15512259 15490730 15473536 
1525.969 15463108 15463542 15478265 15508382 15551678 15603500 15658315 
1529.345 15712336 15764520 15817363 15874861 15940920 16016897 16101824 
1532.720 16193157 16287941 16385399 16487509 16597776 16719338 16852944 
1536.095 16995896 17141574 17282038 17409646 17519782 17611780 17688974 
1539.470 17757212 17823242 17892566 17968962 18053648 18146160 18244150 
1542.846 18344414 18442178 18532276 18608974 18666940 18702138 18712136 
1546.221 18697058 18658680 18600668 18528078 18447224 18364004 18284964 
1549.596 18214740 18155718 18106792 18064436 18022424 17974578 17916400 
1552.971 17846882 17768238 17686112 17606590 17535116 17474232 17423420 
1556.347 17380032 17339902 17299162 17254694 17204634 17148722 17087688 
1559.722 17022966 16956722 16891816 16830432 16774368 16723895 16678112 
1563.097 16635755 16596135 16560361 16532322 16518077 16524123 16555686 
1566.472 16614445 16697666 16799356 16911936 17028804 17146400 17265414 
1569.848 17389910 17525230 17676302 17845612 18032924 18235692 18450470 
1573.223 18674766 18908376 19154594 19420958 19720344 20070732 20494190 
1576.598 21015598 21660070 22449720 23400600 24519966 25803462 27232822 
1579.973 28773874 30375664 31970500 33476390 34803320 35861432 36572236 
1583.349 36880104 36762616 36236056 35355324 34207444 32898810 31540386 
1586.724 30233014 29057674 28069798 27299510 26755362 26430778 26309220 
1590.099 26370730 26595632 26967460 27474552 28110582 28874688 29770436 
1593.474 30806120 31993550 33348936 34894016 36654964 38661500 40941580 
1596.850 43514300 46379896 49509512 52837668 56259028 59631968 62788680 
1600.225 65552048 67754696 69257720 69966056 69837624 68886440 67177432 
1603.600 64819812 61952716 58731312 55311920 51837944 48430880 45184984 
1606.975 42165660 39413512 36947420 34769772 32870616 31230636 29823464 
1610.351 28618432 27583820 26689664 25910886 25229656 24635192 24121932 
1613.726 23687166 23327498 23036520 22804366 22618312 22464930 22332000 
1617.101 22211068 22097770 21990564 21889836 21796144 21709546 21628606 
1620.476 21552270 21479110 21408404 21340208 21274472 21210524 21147486 
1623.852 21083192 21016146 20945962 20873690 20803208 20739958 20689770 
1627.227 20657706 20646390 20654672 20678236 20710756 20745800 20779136 
1630.602 20810428 20844576 20890434 20959822 21065078 21216792 21421500 
1633.977 21681524 21994074 22351210 22741624 23150834 23562926 23960898 
1637.353 24328328 24648628 24906956 25088912 25182322 25177064 25067144 
1640.728 24851788 24537194 24136744 23671040 23165392 22647510 22143804 
1644.103 21675648 21256760 20892540 20580084 20311572 20077118 19868302 
1647.478 19679342 19508834 19357124 19225670 19115210 19024740 18952704 
1650.854 18897248 18856256 18828218 18811684 18803962 18801350 18798790 
1654.229 18791386 18775646 18750046 18715696 18676318 18636070 18599066 
1657.604 18568298 18545736 18531342 18524770 18525978 18534520 18550518 
1660.979 18574650 18606532 18646120 18693014 18745710 18802958 18862334 
1664.354 18921178 18976092 19023732 19060746 19085194 19096784 19096750 
1667.730 19088258 19075448 19062114 19051442 19044734 19040122 19033914 
1671.105 19019742 18990602 18940350 18865842 18767804 18651858 18527840 
1674.480 18406896 18299616 18211986 18144642 18092574 18048000 18003342 
1677.855 17953756 17899186 17843218 17791214 17745966 17707136 17669658 
1681.231 17626618 17571740 17502560 17422326 17339138 17263680 17204642 
1684.606 17166136 17145328 17134514 17122658 17099984 17060128 17002004 
1687.981 16928900 16847180 16765360 16690891 16629040 16582336 16548848 
1691.356 16523363 16497631 16463224 16413426 16346565 16266702 16184103 
1694.732 16112084 16063681 16046831 16061788 16101057 16152130 16202657 
1698.107 16243609 16271638 16289206 16300794 16310945 16320467 16327227 
1701.482 16327649 16319592 16304262 16287653 16277609 16281351 16302930 
1704.857 16340805 16389096 16439958 16486861 16526965 16561016 16592599 
1708.233 16624605 16658595 16693410 16727090 16758462 16789740 16826482 
1711.608 16876762 16949010 17048700 17177208 17332480 17509206 17701308 
1714.983 17904446 18115258 18331782 18551576 18772426 18990774 19204630 
1718.358 19414046 19621818 19833856 20056602 20295638 20553516 20829502 
1721.734 21120762 21423798 21736814 22060948 22399048 22754618 23129050 
1725.109 23519794 23920096 24319824 24707974 25075174 25415512 25726616 
1728.484 26008962 26263794 26491426 26691388 26862454 27004280 27119434 
1731.859 27213730 27296410 27377476 27465202 27563292 27668176 27769728 
1735.235 27852850 27900390 27897456 27832902 27701906 27505838 27251194 
1738.610 26948796 26611976 26254472 25888648 25524952 25170470 24828308 
1741.985 24497974 24175594 23854844 23529168 23192728 22842732 22480976 
1745.360 22113716 21750842 21405082 21088210 20808370 20568042 20363952 
1748.736 20186104 20022840 19861838 19694592 19518124 19335112 19152046 
1752.111 18977074 18816690 18673096 18544508 18426056 18311720 18197694 
1755.486 18082732 17968974 17860944 17762164 17674250 17594220 17515466 
1758.861 17428864 17325408 17197692 17043036 16862916 16663950 16456401 
1762.237 16253086 16066596 15907958 15782852 15691763 15628440 15580426 
1765.612 15533580 15474230 15393469 15289798 15169480 15044092 14926544 
1768.987 14827176 14750054 14693636 14651481 14616899 14584749 14554019 
1772.362 14525544 14500765 14477885 14451040 14410584 14347280 14255065 
1775.738 14135666 13998779 13859920 13736539 13643562 13588859 13571070 
1779.113 13581470 13606094 13630789 13643486 13636971 13609424 13564195 
1782.488 13508786 13451488 13400892 13363621 13343715 13341364 13355138 
1785.863 13381560 13419017 13466791 13526103 13598108 13682095 13773915 
1789.239 13866518 13951632 14022547 14078034 14124189 14172603 14237554 
1792.614 14331763 14461800 14626984 14819792 15028811 15243453 15455047 
1795.989 15657945 15849033 16025499 16184583 16323466 16441084 16539965 
1799.364 16626792 16709711 16796582 16892100 16995486 17102170 17206480 
1802.740 17305606 17401068 17498788 17606226 17726762 17857722 17987538 
1806.115 18099808 18177720 18209656 18193672 18136972 18054678 17963758 
1809.490 17878812 17807874 17751936 17706278 17662072 17609860 17540492 
1812.865 17446586 17323408 17170576 16992936 16802096 16615503 16454592 
1816.240 16339215 16284682 16294289 16358742 16458048 16564796 16651610 
1819.616 16696664 16688829 16627641 16522061 16386926 16238922 16092287 
1822.991 15955890 15831960 15717104 15603803 15484849 15356663 15221827 
1826.366 15090211 14976190 14893956 14851791 14847932 14868640 14890963 
1829.741 14888154 14837706 14727604 14558692 14345047 14108734 13873910 
1833.117 13661459 13483680 13344406 13238146 13153354 13075325 12989285 
1836.492 12883480 12752154 12597153 12428185 12260152 12111862 11999340 
1839.867 11932992 11913159 11931200 11970242 12009987 12029179 12010510 
1843.242 11942298 11819500 11645503 11431092 11196478 10969808 10783007 
1846.618 10667017 10643693 10718742 10877250 11084800 11294749 11459602 
1849.993 11545101 11540025 11459980 11341888 11233019 11176135 11195789 
1853.368 11293417 11445928 11617121 11769230 11875339 11927098 11934630 
1856.743 11921184 11913039 11929750 11980022 12061388 12164815 12282069 
1860.119 12410726 12555685 12727175 12932755 13172352 13435105 13700650 
1863.494 13944052 14144975 14293044 14391081 14453251 14499658 14549552 
1866.869 14617043 14708010 14821278 14950383 15086821 15220639 15341982 
1870.244 15442056 15515022 15560099 15585031 15604662 15638789 15705137 
1873.620 15812851 15956977 16118878 16271571 16389431 16457135 16475953 
1876.995 16461849 16439863 16431959 16450275 16490452 16536811 16568514 
1880.370 16566532 16520921 16431278 16303942 16147489 15970057 15777878 
1883.745 15577440 15378474 15192622 15032928 14908242 14821052 14764247 
1887.121 14724541 14686087 14636787 14569502 14483840 14382343 14270355 
1890.496 14154562 14045164 13958163 13915368 13936772 14033653 14198242 
1893.871 14399023 14584940 14699085 14696306 14560401 14308983 13990207 
1897.246 13665125 13388193 13191924 13080542 13036044 13030656 13037738 
1900.622 13038487 13019207 12964265 12850856 12651309 12342131 11919718 
1903.997 11410763 10872903 10382482 10010759 9802395 9759878 9844563 9993643 
1907.854 10142247 10247676 10297201 10306592 10304196 10314872 10348116 
1911.229 10395868 10440567 10464885 10463223 10439286 10403396 10363120 
1914.605 10317686 10258420 10174262 10060769 9925577 9787897 9670929 9592938 
1918.462 9559985 9562710 9580230 9589264 9568502 9507044 9400299 9250436 
1922.320 9064407 8853533 8633594 8428476 8265028 8169081 8155603 8223817 
1926.177 8355043 8519565 8688457 8842040 8979842 9112693 9257330 9421456 
1930.034 9596108 9758200 9877155 9932654 9925289 9878593 9834596 9833485 
1933.892 9899667 10033597 10209272 10391042 10549103 10673483 10779482 
1937.267 10896598 11053794 11261791 11501263 11726066 11874903 11895262 
1940.642 11759523 11482249 11115362 10738873 10436909 10276372 10291894 
1944.018 10479376 10803689 11216570 11677169 12166698 12690331 13270892 
1947.393 13925135 14642323 15364079 15985793 16374076 16404670 15998118 
1950.768 15158811 13983150 12641282 11337527 10258413 9524049 9166379 
1954.143 9130942 9308981 9578656 9849662 10083241 10295933 10537600 10860710 
1958.001 11288226 11803469 12351279 12857522 13261346 13536065 13694796 
1961.376 13785406 13857040 13947812 14062899 14176735 14242867 14218504 
1964.751 14076585 13821648 13477270 13076633 12643185 12174838 11646776 
1968.126 11021281 10269251 9396468 8453170 7539954 6786049 6318047 6219115 
1971.984 6501770 7086666 7816899 8488677 8900368 8906508 8466020 7665771 
1975.841 6709958 5885215 5483479 5712181 6634223 8139389 9980421 11857740 
1979.699 13509232 14776686 15624296 16114658 16359244 16461754 16482698 
1983.074 16411899 16196007 15769146 15098087 14204953 13179848 12145725 
1986.449 11226824 10499557 9975699 9606073 9307147 9003385 8661901 8306075 
1990.307 8005266 7845579 7892620 8165422 8627028 9188318 9738821 10169154 
1994.164 10400278 10392492 10153592 9733014 9213438 8694861 8283689 8068756 
1998.021 8108189 8400802 8880853 9415239 9820455 9893678 9460988 8415908 
2001.879 6759339 4600568 2153626 -304674 -2485711 -4145199 -5123771 -5381896 
2005.736 -4999976 -4155405 -3071062 -1955979 -952361 -111106 601892 1265018 
2009.594 1963200 2740905 3588568 4450720 5254058 5928639 6441826 6793488 
2013.451 7016602 7144345 7194237 7159612 7011746 6714944 6253842 5639948 
2017.309 4925096 4176563 3455233 2797963 2201367 1628894 1043119 425973 
2021.166 -190230 -722037 -1049433 -1061396 -691678 30975 981999 1963414 
2025.023 2753949 3179634 3176550 2815525 2289496 1847940 1725711 2057417 
2028.881 2837420 3915462 5046334 5968809 6495930 6556189 6218237 5649346 
2032.738 5053730 4603746 4391975 4412186 4585743 4804566 4983121 5090074 
2036.596 5157588 5256301 5458451 5792862 6223728 6635878 6871066 6775700 
2040.453 6257257 5334349 4156215 2978142 2100223 1777494 2140778 3142066 
2044.311 4563221 6069585 7313869 8045981 8188823 7849983 7285546 6802553 
2048.168 6657624 6969995 7700129 8676938 9677935 10509673 11063313 11327271 
2052.025 11363950 11277840 11174756 11139627 11219077 11413702 11682608 
2055.401 11946821 12102685 12037154 11651526 10890443 9768737 8381678 
2058.776 6903388 5552068 4540522 4017852 4026199 4484476 5211530 5970876 
2062.633 6540235 6769571 6622155 6171108 5576897 5032205 4707573 4701377 
2066.491 5024370 5603119 6311015 7013514 7603739 8028758 8292164 8434406 
2070.348 8510325 8561208 8603664 8633181 8638863 8623333 8615213 8661266 
2074.206 8813447 9100350 9510388 9983797 10427539 10744834 10867192 10773229 
2078.063 10498592 10118812 9725441 9397638 9187035 9108949 9153405 9293264 
2081.920 9500055 9745275 10004070 10252653 10470408 10642890 10769907 
2085.296 10861198 10937849 11014892 11092534 11145012 11127909 10988588 
2088.671 10691938 10233663 9650778 9008197 8380807 7828125 7377660 7025140 
2092.528 6747258 6518922 6332376 6197123 6132805 6150290 6238312 6361067 
2096.386 6472770 6540593 6565265 6585606 6664782 6862190 7204767 7667029 
2100.243 8178321 8637925 8952779 9065384 8968423 8701558 8334366 7941632 
2104.101 7584877 7302042 7112645 7021684 7032224 7141658 7341439 7611830 
2107.958 7923986 8239070 8524851 8760962 8945495 9088906 9208103 9310407 
2111.815 9386471 9412583 9357658 9199806 8936531 8592247 8211671 7847970 
2115.673 7546017 7325794 7179308 7070312 6949968 6770977 6507600 6164447 
2119.530 5779714 5415384 5139697 5007882 5044992 5235116 5524540 5832377 
2123.388 6071829 6164588 6060134 5735448 5198757 4478032 3618840 2678998 
2127.245 1726270 833715 75310 -491029 -836208 -972375 -952854 -858710 
2131.103 -770651 -745633 -793586 -879394 -940311 -923152 -812953 -650397 
2134.960 -515240 -495273 -639452 -930485 -1284485 -1583157 -1723512 -1656717 
2138.817 -1407566 -1064219 -733695 -500006 -390872 -375287 -379131 -327211 
2142.675 -170577 95297 436045 802312 1146619 1435259 1642503 1738538 1682783 
2147.014 1420234 905486 118857 -912054 -2119689 -3405211 -4671328 -5834702 
2150.872 -6847330 -7676234 -8312024 -8753764 -9024346 -9192469 -9379570 
2154.247 -9754768 -10496086 -11714264 -13381436 -15280465 -17007136 
2157.140 -18033184 -17856418 -16158137 -12950033 -8597652 -3714708 1040657 
2160.515 5150031 8328629 10510583 11773603 12236967 12019444 11228631 
2163.891 9972829 8379912 6619367 4872801 3314618 2071681 1213179 735082 
2167.748 592218 702338 980316 1344719 1728365 2073784 2349690 2549628 
2171.605 2703371 2870127 3127548 3542685 4141964 4890884 5685086 6375177 
2175.463 6794445 6812216 6367365 5483740 4268155 2867784 1451302 169950 
2179.320 -859508 -1555966 -1874879 -1791569 -1292168 -380001 928518 2582071 
2183.178 4490599 6510027 8453602 10119370 11323075 11936946 11929092 
2186.553 11369573 10423317 9304036 8231067 7371898 6816594 6566500 6562831 
2190.410 6718551 6960499 7249726 7585796 7992010 8490637 9077923 9720091 
2194.268 10351651 10896961 11282508 11453653 11380245 11062471 10523464 
2197.643 9814348 9011858 8210720 7510141 6996880 6718692 6671045 6789276 
2201.500 6970392 7101124 7094739 6917184 6593806 6200425 5829004 5553304 
2205.358 5411657 5400052 5480556 5609421 5757708 5920433 6118747 6378698 
2209.215 6722712 7152998 7650166 8175287 8687911 9148873 9536007 9834955 
2213.073 10048617 10187699 10274733 10340752 10426311 10572474 10815685 
2216.448 11172499 11636206 12169671 12709248 13174618 13482497 13558732 
2219.823 13355235 12856947 12095131 11146696 10134291 9207619 8520048 
2223.198 8198915 8318173 8874557 9792553 10946215 12193300 13419269 14569053 
2227.056 15661003 16770793 18000176 19441870 21144596 23106710 25277460 
2230.431 27584860 29962156 32368854 34792356 37245308 39745124 42292160 
2233.806 44858428 47383984 49780592 51944236 53768028 55155240 56029864 
2237.182 56343592 56085120 55280440 53996512 52331956 50405600 48342016 
2240.557 46254628 44232308 42328000 40557944 38904660 37326304 35767108 
2243.932 34172584 32500182 30731154 28872638 26963632 25067034 23260836 
2247.307 21623618 20222762 19098490 18261494 17687154 17326692 17113166 
2250.683 16975386 16847662 16681727 16453218 16163357 15836887 15514027 
2254.058 15235965 15032881 14908793 14840735 14781227 14676011 14481811 
2257.433 14184055 13804396 13398096 13033507 12776278 12665306 12704043 
2260.808 12859891 13079306 13303338 13489521 13616901 13690743 13732524 
2264.184 13772269 13834858 13934243 14070990 14235310 14405364 14558519 
2267.559 14671648 14728389 14723509 14667883 14587278 14519699 14503696 
2270.934 14568246 14724333 14958687 15237005 15517123 15758326 15936598 
2274.309 16045662 16100926 16125180 16144386 16176093 16227750 16293390 
2277.685 16362589 16419234 16449424 16442079 16393568 16307484 16200401 
2281.060 16098663 16036298 16045220 16146228 16337940 16596470 16877416 
2284.435 17130294 17312542 17405964 17417654 17377616 17326076 17296260 
2287.810 17302680 17337728 17376646 17389182 17352548 17261230 17126024 
2291.186 16972940 16827846 16711291 16630687 16581267 16550371 16523864 
2294.561 16491704 16451105 16404379 16356863 16314510 16279800 16253661 
2297.936 16235325 16224336 16222088 16229670 16248874 16278541 16314887 
2301.311 16350932 16377771 16387794 16377030 16346641 16303979 16260678 
2304.687 16229546 16220674 16239207 16283453 16347133 16422268 16502799 
2308.062 16587103 16677510 16776675 16883514 16990486 17085988 17154976 
2311.437 17190104 17195252 17188706 17198526 17254510 17375642 17563010 
2314.812 17798026 18047328 18274836 18453634 18572406 18638524 18672518 
2318.188 18698704 18740080 18814592 18937218 19122974 19385804 19734594 
2321.563 20161726 20633656 21087138 21436600 21592510 21486396 21090260 
2324.938 20428866 19574536 18633128 17717864 16927226 16324077 15928732 
2328.313 15719365 15647233 15654234 15690008 15722269 15736895 15734894 
2331.688 15723713 15709855 15697796 15689265 15687952 15699049 15730100 
2335.064 15789138 15880510 16002037 16145337 16296739 16439961 16560739 
2338.439 16647711 16694710 16699804 16664471 16593738 16495069 16377373 
2341.814 16250968 16125709 16009796 15908437 15822425 15750032 15687078 
2345.189 15628446 15570181 15509293 15444751 15376473 15304148 15228240 
2348.565 15149307 15068846 14987960 14909264 14835908 14772011 14720346 
2351.940 14684546 14667000 14669215 14690652 14729504 14781901 14843189 
2355.315 14906406 14965292 15012166 15040514 15043038 15014248 14950797 
2358.690 14852677 14723914 14574022 14414651 14258887 14116570 13991660 
2362.066 13880756 13774818 13660117 13525149 13363481 13178204 12978921 
2365.441 12782607 12606648 12466198 12368330 12312981 12292382 12295363 
2368.816 12310972 12330716 12351901 12376270 12408442 12453825 12514896 
2372.191 12590717 12675562 12760369 12835182 12891789 12925638 12936709 
2375.567 12929453 12909837 12884550 12857660 12830358 12802008 12769659 
2378.942 12732268 12688718 12641559 12594221 12551421 12518263 12499153 
2382.317 12497288 12513801 12547825 12594890 12646616 12691485 12717412 
2385.692 12714301 12675653 12604414 12508973 12404774 12308712 12236240 
2389.068 12198024 12198004 12233234 12295330 12373005 12453923 12525415 
2392.443 12578244 12606057 12608838 12591789 12567426 12550280 12556584 
2395.818 12597273 12676235 12787149 12917256 13046306 13156027 13229659 
2399.193 13256955 13235784 13169021 13067120 12945290 12822942 12721906 
2402.569 12663383 12662621 12726182 12846458 13004301 13171590 13318389 
2405.944 13420206 13464409 13451921 13394585 13310243 13217065 13129273 
2409.319 13054868 12996444 12953849 12924983 12906213 12892455 12877231 
2412.694 12854232 12819731 12776393 12733201 12705781 12709857 12757112 
2416.070 12847335 12969053 13100804 13217536 13298707 13334064 13324222 
2419.445 13279953 13216102 13145001 13075338 13010361 12951699 12902115 
2422.820 12865759 12849625 12857466 12890433 12941957 13002695 13061913 
2426.195 13112203 13150548 13179949 13203990 13226080 13244432 13252606 
2429.571 13242438 13207643 13146337 13064132 12971053 12880881 12805608 
2432.946 12753891 12731528 12741724 12784576 12861987 12972841 13113819 
2436.321 13276532 13447999 13610970 13748745 13847631 13900881 13909770 
2439.696 13884019 13838354 13788573 13750082 13735015 13751086 13801518 
2443.072 13886086 13999977 14133622 14274635 14408170 14519841 14598617 
2446.447 14640284 14648347 14632983 14606922 14580685 14556660 14526865 
2449.822 14475256 14382727 14236513 14038747 13808595 13581861 13400263 
2453.197 13301825 13304606 13404378 13572232 13766875 13944972 14076914 
2456.573 14152749 14183245 14190154 14197395 14219251 14257457 14300966 
2459.948 14335657 14349701 14339459 14308380 14263649 14207993 14138173 
2463.323 14044683 13917751 13756708 13572721 13391997 13247959 13171216 
2466.698 13179334 13269719 13421071 13598425 13766187 13896245 13974890 
2470.073 14002491 13990461 13952469 13899690 13839018 13772843 13704406 
2473.449 13639933 13592865 13581402 13624905 13737950 13923184 14169117 
2476.824 14445978 14712527 14922304 15035366 15027129 14898616 14676872 
2480.199 14411442 14159887 13974743 13887088 13898783 13980973 14084792 
2483.574 14154889 14146794 14038953 13837670 13574887 13298054 13056874 
2486.950 12892370 12830150 12876266 13017937 13228713 13472767 13713373 
2490.325 13918184 14067348 14154782 14190396 14195232 14194046 14207840 
2493.700 14246751 14307618 14378475 14447101 14507716 14566340 14638156 
2497.075 14741614 14887319 15069105 15263912 15436915 15553799 15593434 
2500.451 15555851 15461769 15344962 15238381 15163294 15121062 15098995 
2503.826 15074564 15032291 14966524 14887024 14810271 14752935 14721514 
2507.201 14711629 14708987 14698758 14675128 14643911 14621949 14630069 
2510.576 14681269 14774151 14890442 14999951 15069843 15078223 15017369 
2513.952 14900260 14753222 14607838 14491724 14422871 14407813 14441751 
2517.327 14514497 14613230 14724013 14834006 14929325 14998281 15032050 
2520.702 15028153 14992750 14941324 14893694 14870702 14886254 14942580 
2524.077 15029282 15127980 15214507 15268913 15278363 15239264 15156940 
2527.453 15041061 14903748 14756553 14610597 14477169 14368081 14295395 
2530.828 14270850 14301268 14388978 14529944 14713926 14926509 15150363 
2534.203 15365742 15550242 15680993 15736980 15704261 15580315 15382601 
2537.578 15144189 14914089 14742511 14670460 14717071 14874926 15109998 
2540.954 15374318 15617531 15802367 15910642 15946055 15926767 15874719 
2544.329 15807604 15734311 15654063 15563527 15461757 15354052 15253334 
2547.704 15175435 15134141 15135037 15174374 15239851 15313063 15374993 
2551.079 15409783 15408837 15371026 15304386 15225376 15156464 15122525 
2554.455 15145201 15236020 15390407 15587127 15787987 15949683 16034527 
2557.830 16021643 15915027 15743287 15552931 15393497 15305059 15306653 
2561.205 15391699 15532896 15690610 15826097 15911855 15938111 15913187 
2564.580 15858520 15803142 15772920 15787352 15852936 15965566 16108626 
2567.956 16261252 16399967 16504798 16563712 16573733 16541576 16482092 
2571.331 16412646 16350441 16308364 16292734 16301932 16329819 16365247 
2574.706 16398435 16419861 16425103 16414491 16394520 16374456 16366424 
2578.081 16379716 16418062 16478101 16548144 16611442 16653076 16662870 
2581.457 16643064 16606845 16575817 16572226 16613193 16701097 16824066 
2584.832 16958224 17074096 17145476 17156242 17103748 16997536 16855178 
2588.207 16698509 16548330 16423624 16339445 16307048 16332556 16415820 
2591.582 16546085 16704742 16865218 17000836 17091844 17131672 17130492 
2594.958 17111502 17104382 17134714 17215024 17341410 17496346 17655386 
2598.333 17795172 17905108 17986130 18051694 18119300 18202168 18304602 
2601.708 18420228 18533624 18627964 18689900 18716162 18711648 18688702 
2605.083 18661630 18642176 18634826 18637310 18640934 18634284 18606280 
2608.458 18550768 18467920 18365182 18256178 18158568 18090548 18066374 
2611.834 18092922 18169606 18286530 18428320 18577134 18718536 18841680 
2615.209 18942860 19023460 19087702 19140326 19184504 19220854 19248740 
2618.584 19266144 19273220 19271294 19264160 19256664 19254732 19263398 
2621.959 19288056 19332346 19399540 19491342 19607246 19744958 19899292 
2625.335 20063168 20228894 20387536 20533222 20661080 20770372 20861798 
2628.710 20939608 21007328 21069224 21126698 21179582 21224408 21256716 
2632.085 21272428 21269928 21250358 21219408 21184440 21153730 21132258 
2635.460 21121978 21120332 21122592 21122626 21116078 21101420 21079190 
2638.836 21052408 21023210 20994984 20969950 20951684 20945614 20958350 
2642.211 20996326 21063826 21158742 21273956 21396264 21510334 21602478 
2645.586 21664384 21694422 21696228 21676590 21642460 21598214 21546086 
2648.961 21487414 21424788 21363302 21309934 21270956 21249322 21243614 
2652.337 21246492 21249814 21244634 21228162 21202728 21175584 21155324 
2655.712 21148416 21157630 21179578 21208172 21235518 21254802 21261080 
2659.087 21250038 21218710 21162952 21080248 20969948 20837180 20691534 
2662.462 20546482 20417026 20314832 20244048 20202438 20181832 20172004 
2665.838 20165500 20158986 20154274 20156028 20167134 20187692 20212844 
2669.213 20235756 20249222 20248196 20232314 20203996 20165674 20119404 
2672.588 20064654 20000606 19928784 19853430 19783546 19730770 19704124 
2675.963 19707944 19737650 19782344 19825968 19854632 19859108 19839206 
2679.339 19801694 19758748 19722290 19700544 19696136 19707720 19729882 
2682.714 19757296 19785622 19811606 19833348 19849304 19857578 19856074 
2686.089 19843524 19820652 19791428 19761014 19736846 19726796 19736496 
2689.464 19769490 19825516 19900244 19985522 20069476 20139940 20184840 
2692.840 20196808 20174458 20122774 20053632 19980384 19915656 19867162 
2696.215 19836190 19818018 19804746 19789108 19766550 19736800 19703406 
2699.590 19670814 19643034 19621794 19608824 19604590 19612548 19637082 
2702.965 19682384 19749746 19834356 19924560 20004592 20059034 20078110 
2706.341 20061260 20019128 19968956 19928440 19909810 19914816 19934886 
2709.716 19956236 19965088 19954754 19928520 19898256 19880132 19887142 
2713.091 19924320 19988032 20066582 20147998 20222680 20289060 20350888 
2716.466 20414204 20481850 20550256 20607872 20639758 20632970 20582716 
2719.842 20495406 20387896 20281546 20196910 20144714 20125442 20128180 
2723.217 20136972 20137144 20119592 20084868 20041952 20003340 19981710 
2726.592 19984048 20011292 20057386 20112778 20167184 20212408 20244590 
2729.967 20263346 20271524 20273818 20275554 20281434 20295606 20320830 
2733.343 20357124 20403378 20455358 20507552 20553026 20584596 20595692 
2736.718 20582160 20541314 20474520 20385464 20280970 20169614 20060634 
2740.093 19963528 19885050 19828708 19794698 19779984 19778936 19785828 
2743.468 19795320 19804710 19813834 19823970 19837716 19858038 19885950 
2746.844 19921370 19961980 20004458 20043898 20077142 20101970 20119764 
2750.219 20134596 20152216 20179388 20220386 20276140 20341750 20409616 
2753.594 20469334 20512924 20536852 20542578 20536148 20526454 20520196 
2756.969 20522022 20530814 20544260 20559378 20575804 20596982 20628484 
2760.344 20675542 20739274 20815594 20895394 20967584 21022574 21056056 
2763.720 21070070 21071232 21068008 21066086 21066594 21066440 21060692 
2767.095 21046726 21026694 21008238 21002840 21021254 21069172 21146440 
2770.470 21244946 21353300 21460398 21559308 21647594 21729190 21808844 
2773.845 21890972 21976212 22061674 22141744 22211160 22266552 22308468 
2777.221 22340460 22368154 22397072 22430408 22470698 22517474 22570370 
2780.596 22629290 22695180 22769076 22851924 22943172 23040652 23139394 
2783.971 23234516 23320358 23392690 23448584 23488124 23512898 23526852 
2787.346 23534970 23543846 23560636 23591940 23642472 23714704 23807142 
2790.722 23914698 24029386 24142510 24246716 24338408 24418522 24491402 
2794.097 24562696 24636380 24711702 24783364 24841814 24877212 24883206 
2797.472 24860060 24815806 24765198 24724890 24710406 24732178 24794006 
2800.847 24893366 25023940 25179296 25353030 25539166 25731842 25923478 
2804.223 26104384 26263822 26392464 26485632 26545390 26581218 26608690 
2807.598 26645492 26708742 26809018 26950242 27128364 27332566 27547626 
2810.973 27757178 27947100 28107564 28236252 28337518 28423188 28509646 
2814.348 28614178 28752558 28934258 29162576 29434496 29741756 30075124 
2817.724 30424480 30782664 31145004 31509486 31877172 32253616 32646812 
2821.099 33067636 33529572 34042788 34614380 35242840 35919996 36631484 
2824.474 37362432 38103424 38853412 39623352 40431092 41299300 42248188 
2827.849 43288964 44424624 45648468 46948916 48313968 49734400 51206896 
2831.225 52732544 54316180 55961796 57672596 59447416 61280820 63162916 
2834.600 65081292 67022504 68974864 70931632 72891248 74858208 76840952 
2837.975 78848368 80883992 82944944 85020000 87093232 89147032 91167624 
2841.350 93146864 95082744 96975472 98821608 100608960 102318056 103920680 
2844.726 105389144 106700392 107843584 108819488 109639896 110320408 
2847.619 110875696 111312872 111632664 111828552 111893160 111820184 
2850.512 111609448 111266784 110803928 110237216 109584128 108862680 
2853.405 108089928 107279776 106442312 105581832 104696896 103780096 
2856.298 102821728 101812664 100747896 99630392 98471800 97288200 96100552 
2859.673 94926976 93780696 92668000 91590520 90547408 89538648 88568904 
2863.048 87647456 86784768 85990656 85268016 84611400 84006440 83434464 
2866.424 82876672 82323520 81776416 81250184 80768808 80358744 80041416 
2869.799 79827160 79712944 79684352 79721368 79805352 79924152 80075696 
2873.174 80266672 80509120 80815912 81196640 81653176 82182448 82774312 
2876.549 83416072 84092592 84790216 85497824 86210640 86928808 87660480 
2879.925 88418224 89217928 90073480 90993752 91980016 93027752 94127840 
2883.300 95270888 96449392 97660032 98901056 100169192 101459824 102763192 
2886.675 104068080 105364848 106648984 107922808 109194464 110474376 
2889.568 111770408 113086960 114422880 115775256 117144184 118534488 
2892.461 119958000 121429120 122961112 124558704 126216176 127917840 
2895.354 129642096 131369976 133088592 134798720 136512336 138249888 
2898.247 140034688 141886832 143819104 145834976 147929536 150092592 
2901.140 152310784 154571456 156866480 159192192 161550736 163948800 
2904.033 166394816 168895728 171453856 174065872 176723728 179414912 
2906.927 182127632 184853856 187588288 190330944 193080592 195835696 
2909.820 198590704 201336960 204064752 206766208 209436736 212074736 
2912.713 214678464 217243200 219756432 222199664 224548288 226778624 
2915.606 228871872 230817200 232612672 234261968 235768976 237132448 
2918.499 238344304 239389152 240247296 240901184 241339424 241558976 
2921.392 241566864 241377840 241009008 240478416 239801680 238991328 
2924.285 238058064 237012272 235864256 234626128 233309632 231925280 
2927.178 230481088 228981568 227428560 225822624 224163408 222454704 
2930.071 220699408 218903088 217068992 215197488 213286192 211330064 
2932.964 209323840 207266096 205159472 203011520 200831056 198626336 
2935.857 196399440 194148544 191866128 189546384 187187632 184795344 
2938.750 182381968 179962496 177550688 175152032 172762224 170369248 
2941.643 167957760 165516160 163039392 160533216 158011024 155489776 
2944.536 152986160 150510304 148068304 145659360 143281968 140933872 
2947.429 138615216 136327008 134071264 131847856 129656512 127494600 
2950.323 125358464 123243712 121145064 119058024 116977384 114900256 
2953.216 112828088 110767496 108731136 106733752 104791064 102911272 
2956.109 101092680 99321648 97575440 95828864 94061960 92267160 90454016 
2959.484 88646552 86878624 85184176 83590472 82110480 80740592 79465376 
2962.859 78261880 77107912 75985784 74889144 73818688 72782800 71791984 
2966.234 70856136 69980552 69165144 68406920 67699480 67036964 66415688 
2969.610 65834188 65293976 64798608 64352624 63960364 63625196 63348032 
2972.985 63125664 62950304 62808664 62683932 62555052 62405544 62221544 
2976.360 61999760 61745352 61472296 61197544 60937244 60700504 60487624 
2979.735 60290636 60094232 59884244 59646928 59375228 59067716 58729376 
2983.111 58367844 57994420 57621712 57265104 56940732 56665620 56453520 
2986.486 56312476 56242392 56233384 56269036 56330124 56399508 56467044 
2989.861 56532452 56604792 56699936 56835804 57027960 57287964 57619920 
2993.236 58023708 58497480 59039336 59653784 60349472 61141856 62047936 
2996.612 63081516 64247900 65538920 66930620 68385184 69856176 71293696 
2999.987 72653456 73899624 75006456 75955784 76733504 77325184 77716856 
3003.362 77896872 77860664 77616328 77186680 76608680 75927320 75189128 
3006.737 74431608 73681896 72952296 72244896 71555976 70883304 70230264 
3010.113 69608760 69039968 68552704 68180256 67956648 67912640 68073040 
3013.488 68453880 69061560 69895264 70949792 72220944 73709760 75424376 
3016.863 77378512 79588000 82067112 84822008 87851064 91143672 94682752 
3020.238 98446440 102409496 106536176 110780032 115074072 119331392 
3023.131 123448184 127308320 130798400 133816424 136280336 138132928 
3026.024 139340912 139889776 139782688 139037408 137687008 135779328 
3028.917 133377848 130560608 127411648 124014112 120444832 116765848 
3031.811 113026592 109263392 105506368 101782464 98119088 94544384 91085488 
3035.186 87766520 84607160 81621136 78819128 76208544 73792632 71572000 
3038.561 69540536 67684040 65981268 64406864 62935196 61547452 60235324 
3041.936 59003340 57865120 56838144 55937872 55171688 54537296 54024384 
3045.312 53619736 53310892 53091964 52963772 52932740 53007444 53195380 
3048.687 53500140 53922068 54458996 55108932 55870480 56744744 57729792 
3052.062 58822516 60012872 61286532 62624268 64006136 65413012 66831088 
3055.437 68249488 69660648 71057824 72432392 73771312 75057400 76267208 
3058.813 77373424 78344736 79149848 79756600 80138672 80276696 80162736 
3062.188 79800720 79208744 78413816 77449768 76350320 75147024 73865344 
3065.563 72523472 71135320 69710912 68262360 66804492 65356940 63943392 
3068.938 62589728 61322424 60162360 59122568 58207088 57409560 56717712 
3072.313 56117200 55596484 55152212 54787964 54514932 54343952 54282960 
3075.689 54331372 54482044 54721856 55040716 55432968 55901700 56453832 
3079.064 57095664 57823448 58617516 59439388 60236816 60950316 61523164 
3082.439 61910528 62081972 62024272 61735956 61224560 60502756 59587140 
3085.814 58497460 57257736 55895320 54438852 52915516 51349124 49759236 
3089.190 48163316 46579104 45027080 43530752 42115632 40804724 39613932 
3092.565 38549616 37606696 36773700 36035416 35376464 34787288 34263208 
3095.940 33805020 33417306 33106670 32879076 32738428 32687154 32721796 
3099.315 32832000 33001814 33210338 33432648 33648212 33841740 34004580 
3102.691 34135116 34232804 34293076 34304412 34248020 34101816 33847852 
3106.066 33480656 33010390 32466230 31887122 31315148 30784434 30313286 
3109.441 29902932 29538912 29196788 28853164 28488888 28097128 27679254 
3112.816 27246648 26813842 26396292 26005988 25650278 25329464 25040072 
3116.192 24774622 24523028 24277286 24032460 23789498 23555964 23343956 
3119.567 23168184 23040642 22966174 22941116 22951920 22978294 22999624 
3122.942 22997916 22964838 22900800 22816644 22724458 22636046 22556664 
3126.317 22482000 22402474 22305336 22181424 22029774 21858604 21684672 
3129.693 21528190 21406130 21329560 21299436 21308834 21346686 21401214 
3133.068 21462928 21525398 21584732 21636798 21676850 21698870 21698402 
3136.443 21674502 21631792 21579986 21532080 21499260 21488198 21498576 
3139.818 21522802 21550738 21570536 21575648 21563730 21536576 21499688 
3143.194 21458554 21417410 21379636 21347778 21323956 21310922 21309318 
3146.569 21320422 21341904 21371020 21403216 21434784 21462762 21485444 
3149.944 21500822 21506656 21500826 21481950 21452564 21419566 21394510 
3153.319 21390032 21416020 21474918 21558790 21651186 21732036 21784338 
3156.695 21799778 21782278 21746914 21712602 21697632 21712214 21756896 
3160.070 21824896 21906850 21993736 22080750 22165880 22247210 22319830 
3163.445 22375330 22403458 22396426 22353586 22282484 22198254 22117836 
3166.820 22054138 22010046 21978842 21946138 21897742 21825540 21732522 
3170.196 21631790 21542988 21485330 21471410 21503288 21573818 21669792 
3173.571 21777018 21884068 21985390 22079370 22164938 22240164 22300330 
3176.946 22337414 22343478 22312624 22245594 22149750 22038260 21927280 
3180.321 21833830 21769154 21739476 21742236 21768772 21806456 21841906 
3183.697 21863860 21865026 21842076 21796064 21729246 21645250 21549866 
3187.072 21449098 21353132 21274200 21225818 21220122 21262604 21350284 
3190.447 21470094 21601440 21721236 21809708 21856088 21862396 21840658 
3193.822 21808804 21785758 21783452 21804808 21841870 21880130 21902370 
3197.198 21892864 21842460 21749526 21620404 21468004 21310190 21166018 
3200.573 21053362 20985360 20966876 20994914 21056890 21134620 21207092 
3203.948 21256956 21274492 21259472 21221696 21176030 21138768 21121884 
3207.323 21130130 21159744 21201560 21245226 21282752 21312942 21340446 
3210.698 21374434 21423670 21492910 21578382 21669510 21749748 21803948 
3214.074 21822148 21804976 21763776 21717266 21685674 21682000 21709714 
3217.449 21759090 21810866 21844462 21845026 21808752 21746032 21677444 
3220.824 21626392 21612396 21643384 21715254 21815132 21924808 22028770 
3224.199 22118342 22192310 22254906 22311440 22364404 22412068 22447898 
3227.575 22464622 22456132 22421114 22363590 22290502 22210002 22130460 
3230.950 22057534 21995244 21944466 21905754 21876166 21851682 21826212 
3234.325 21792680 21745094 21680408 21601004 21515488 21436482 21377272 
3237.700 21349310 21356630 21396960 21461602 21537926 21612968 21677132 
3241.076 21723544 21749134 21753566 21737166 21703408 21657964 21610978 
3244.451 21577076 21572970 21613408 21706932 21850958 22031424 22224534 
3247.826 22403078 22543528 22631424 22665084 22654332 22614472 22562994 
3251.201 22510962 22464166 22423050 22385644 22352386 22327774 22318158 
3254.577 22330120 22364874 22416622 22474088 22521372 22546964 22546356 
3257.952 22524138 22493468 22468932 22461502 22473168 22495476 22513734 
3261.327 22511904 22480532 22420936 22345394 22272146 22220622 22203142 
3264.702 22220158 22260360 22304862 22333004 22330140 22292094 22226540 
3268.078 22150850 22087354 22054638 22065926 22123868 22221010 22342634 
3271.453 22470462 22586884 22677792 22735120 22755444 22741818 22700640 
3274.828 22641360 22575892 22515376 22471378 22450310 22456594 22487256 
3278.203 22535918 22592426 22645860 22687834 22713252 22721894 22715734 
3281.579 22700180 22679542 22659336 22645316 22644108 22663792 22711128 
3284.954 22788440 22890786 23001456 23096010 23145112 23122602 23013404 
3288.329 22819828 22561678 22271292 21986188 21739686 21555472 21442842 
3291.704 21401482 21424434 21501656 21622330 21774618 21943486 22109754 
3295.080 22251696 22350884 22397302 22394146 22358142 22315356 22291212 
3298.455 22303904 22355678 22435560 22523134 22597184 22643814 22660568 
3301.830 22653876 22635284 22611580 22583080 22541566 22475576 22375534 
3305.205 22240774 22079846 21909212 21746896 21607794 21500036 21424846 
3308.581 21380350 21365994 21383130 21436336 21529418 21659500 21816814 
3311.956 21983656 22137974 22260804 22339300 22372104 22365096 22330424 
3315.331 22278118 22214750 22141664 22058062 21963956 21863130 21764404 
3318.706 21677042 21608296 21557846 21517988 21477896 21427854 21366518 
3322.082 21305500 21267928 21280958 21366518 21531474 21761456 22021748 
3325.457 22267496 22454150 22551212 22550898 22467948 22336044 22194146 
3328.832 22077084 22006136 21987592 22013182 22067572 22134426 22200174 
3332.207 22255294 22293498 22310180 22301072 22264024 22201610 22122132 
3335.583 22039038 21970404 21930818 21929832 21967130 22033746 22115992 
3338.958 22198266 22269440 22323112 22358478 22377896 22382696 22373220 
3342.333 22349122 22309382 22256020 22194884 22133506 22081790 22047050 
3345.708 22034808 22046654 22081802 22137004 22208098 22288118 22368162 
3349.083 22435724 22477726 22482880 22445302 22367808 22263682 22153558 
3352.459 22060886 22005524 21996734 22031710 22095692 22165342 22217398 
3355.834 22233464 22205946 22140140 22051056 21960822 21891578 21858796 
3359.209 21868938 21916598 21988458 22065540 22130888 22171376 22181004 
3362.584 22162128 22120848 22065074 22004080 21944204 21892800 21857454 
3365.960 21846886 21869490 21929920 22025138 22143950 22267114 22372414 
3369.335 22440682 22462374 22439504 22384768 22315158 22246098 22185416 
3372.710 22133678 22086014 22038108 21991098 21954176 21939944 21960450 
3376.085 22019338 22108564 22209980 22299270 22355066 22364168 22325868 
3379.461 22251072 22156244 22058896 21973352 21907228 21863270 21840454 
3382.836 21833672 21835986 21837846 21829238 21802070 21754976 21695004 
3386.211 21639570 21612478 21637534 21728548 21884992 22089476 22311714 
3389.586 22519336 22685866 22797246 22854116 22867296 22850002 22811924 
3392.962 22755458 22677170 22574544 22449282 22312690 22182242 22077348 
3396.337 22011836 21988230 21997976 22025098 22052106 22068262 22070482 
3399.712 22066636 22067366 22082388 22114228 22155348 22194072 22215988 
3403.087 22212038 22181756 22132812 22078584 22033846 22007764 22004234 
3406.463 22018578 22044720 22077064 22114340 22159650 22219996 22298816 
3409.838 22393952 22493482 22576748 22621714 22610104 22534666 22402966 
3413.213 22237028 22065556 21918388 21817000 21771628 21779754 21831874 
3416.588 21916288 22024054 22150252 22293274 22448540 22608000 22755444 
3419.964 22871878 22937936 22941400 22880056 22763660 22611326 22446178 
3423.339 22290790 22161630 22070094 22019308 22007780 22030574 22080568 
3426.714 22149356 22229352 22313976 22399666 22485506 22572292 22660374 
3430.089 22745834 22821740 22875742 22895810 22874200 22813554 22725750 
3433.465 22633082 22559444 22524256 22536550 22591132 22670702 22753758 
3436.840 22819964 22858322 22869044 22862306 22853478 22857608 22883610 
3440.215 22931376 22992704 23054858 23102788 23123634 23111232 23066390 
3443.590 22996514 22914564 22836308 22776458 22745222 22745740 22774544 
3446.966 22822258 22877406 22929324 22969426 22994916 23003238 22993568 
3450.341 22962654 22906074 22818596 22699398 22551502 22386620 22220670 
3453.716 22071292 21954872 21882678 21858200 21879028 21939128 22031440 
3457.091 22148310 22283704 22431014 22583490 22733000 22872906 22995404 
3460.467 23095820 23170302 23217904 23236048 23223790 23179600 23101844 
3463.842 22991904 22853858 22693524 22519996 22343874 22174132 22021384 
3467.217 21894712 21804384 21759386 21765790 21827824 21942594 22103136 
3470.592 22297702 22514172 22739724 22964550 23178372 23372770 23535324 
3473.968 23653166 23714100 23712712 23653192 23554468 23444962 23358364 
3477.343 23322408 23350918 23437722 23557096 23673472 23750300 23762962 
3480.718 23704282 23588536 23442658 23298272 23181750 23106094 23070384 
3484.093 23059748 23055438 23039046 22998972 22932616 22846426 22753530 
3487.469 22669528 22610494 22589802 22615808 22690516 22809146 22958814 
3490.844 23120396 23271352 23390754 23463312 23483830 23456038 23392628 
3494.219 23310150 23225654 23151960 23096238 23062964 23054854 23075328 
3497.594 23127218 23212782 23326502 23456274 23580202 23672256 23709562 
3500.969 23679248 23585070 23446328 23293306 23158988 23067424 23029820 
3504.345 23040650 23085320 23145804 23210312 23276020 23348826 23437350 
3507.720 23547502 23675514 23809476 23931084 24023082 24074940 24085456 
3511.095 24062530 24018438 23965230 23909890 23855120 23800694 23746608 
3514.470 23696646 23658382 23640574 23650086 23688588 23751718 23830728 
3517.846 23914498 23995332 24070274 24141920 24216786 24300920 24397758 
3521.221 24505422 24613708 24708158 24769898 24781354 24731832 24617862 
3524.596 24449172 24246040 24036590 23850612 23713486 23639234 23631784 
3527.971 23682852 23779884 23909842 24063958 24235954 24421798 24611166 
3531.347 24787168 24925888 25000546 24992178 24895884 24727226 24517368 
3534.722 24307848 24138864 24038872 24017870 24069348 24171678 24299400 
3538.097 24425978 24531630 24603004 24633766 24622104 24572414 24493034 
3541.472 24395868 24292252 24190514 24093288 23994970 23885892 23760342 
3544.848 23620214 23482206 23372446 23322656 23353748 23468134 23642472 
3548.223 23833002 23986102 24057324 24022602 23888480 23688276 23470358 
3551.598 23284186 23167162 23134700 23183132 23293844 23442848 23606262 
3554.973 23766022 23909696 24027924 24112804 24158930 24162920 24125610 
3558.349 24053076 23955022 23843298 23728672 23617262 23512052 23411494 
3561.724 23312714 23211636 23104544 22990244 22868248 22741082 22614004 
3565.099 22495056 22391544 22311264 22256622 22224982 22210478 22205568 
3568.474 22204368 22207250 22221048 22254522 22315854 22407206 22521402 
3571.850 22643438 22757106 22844986 22897690 22911954 22890530 22836404 
3575.225 22750896 22633508 22483402 22303938 22106412 21910426 21738328 
3578.600 21610328 21537368 21516098 21531868 21562190 21586988 21593266 
3581.975 21580648 21558882 21543850 21551202 21590826 21663812 21763438 
3585.351 21875266 21980022 22057212 22086334 22052172 21946754 21775368 
3588.726 21556578 21322810 21111192 20957536 20886560 20904562 20997702 
3592.101 21139244 21296886 21442756 21561514 21650614 21719452 21777924 
3595.476 21833634 21884284 21920934 21932938 21913518 21865802 21804294 
3598.852 21751842 21732382 21765048 21856622 21999894 22174434 22350978 
3602.227 22499016 22591272 22611736 22557104 22438980 22280496 22113142 
3605.602 21969018 21876242 21849724 21891300 21987680 22115124 22244676 
3608.977 22349040 22408434 22413248 22365522 22276162 22162266 22042768 
3612.353 21936842 21859414 21821788 21827734 21875694 21959376 22068348 
3615.728 22192542 22324314 22461236 22605136 22762340 22938574 23135074 
3619.103 23345642 23557754 23753876 23916702 24036098 24111670 24152048 
3622.478 24172810 24188706 24207408 24226114 24230314 24199996 24118324 
3625.854 23977964 23787932 23572500 23364972 23199984 23101452 23075486 
3629.229 23112106 23186448 23269230 23336540 23375412 23385598 23375514 
3632.604 23356628 23339328 23326664 23319860 23318312 23324216 23344670 
3635.979 23390312 23470818 23592568 23752648 23941174 24142996 24343788 
3639.354 24533518 24708860 24872012 25027508 25177420 25318556 25440610 
3642.730 25528846 25567558 25543582 25449294 25286276 25065560 24807274 
3646.105 24539390 24295898 24110162 24010528 24013212 24115306 24298700 
3649.480 24527968 24761870 24962820 25104242 25178228 25191266 25162378 
3652.855 25114308 25066588 25032016 25016750 25021524 25044142 25080914 
3656.231 25126064 25169876 25199538 25199906 25159142 25071822 24943846 
3659.606 24791948 24641010 24512590 24422694 24371466 24345720 24323788 
3662.981 24282508 24208184 24099708 23970872 23845462 23748014 23696524 
3666.356 23699024 23749618 23834138 23934600 24034352 24122908 24195074 
3669.732 24250098 24290326 24315988 24325232 24313486 24275542 24206706 
3673.107 24105108 23970750 23806964 23619794 23415920 23205838 23001410 
3676.482 22817968 22670570 22573696 22536982 22559216 22627946 22718326 
3679.857 22796496 22827310 22782798 22650196 22436660 22168292 21884568 
3683.233 21628152 21434672 21325028 21299982 21341994 21419532 21495490 
3686.608 21533332 21507176 21403380 21226996 20998958 20752936 20529296 
3689.983 20365314 20286120 20298806 20389770 20527718 20671170 20780956 
3693.358 20829784 20811798 20742720 20656272 20591874 20586746 20659768 
3696.734 20809236 21010514 21224400 21405094 21513944 21530162 21455580 
3700.109 21316252 21154414 21017400 20944718 20954532 21039038 21165460 
3703.484 21287206 21356754 21342866 21237556 21059830 20847374 20646706 
3706.859 20495892 20419936 20421098 20487838 20597408 20726680 20855876 
3710.235 20971160 21064938 21132204 21171830 21186296 21184186 21178838 
3713.610 21185952 21220120 21286350 21382154 21493086 21602308 21695836 
3716.985 21767802 21822558 21873834 21933742 22011024 22103950 22202648 
3720.360 22291880 22359266 22396042 22403322 22385088 22348346 22299336 
3723.736 22241180 22178390 22113826 22052128 21994422 21940326 21882340 
3727.111 21809326 21712008 21588262 21447090 21308398 21199102 21144122 
3730.486 21155370 21231998 21358502 21511486 21670662 21821248 21955330 
3733.861 22067386 22149632 22187238 22163130 22065864 21899944 21689584 
3737.237 21476434 21305166 21208906 21195956 21245132 21314024 21357076 
3740.612 21342502 21266638 21153708 21048666 20996360 21027710 21147020 
3743.987 21330590 21535596 21714778 21827114 21849924 21776502 21617518 
3747.362 21396740 21148010 20913718 20738268 20661048 20704850 20867466 
3750.738 21117750 21402142 21660704 21843774 21932018 21938868 21906392 
3754.113 21887904 21926016 22039042 22213280 22410036 22582888 22693572 
3757.488 22726402 22690938 22616196 22537780 22484852 22469296 22487208 
3760.863 22520916 22549580 22556642 22535140 22488608 22428914 22371362 
3764.239 22329850 22313362 22324442 22356896 22399608 22438658 22462788 
3767.614 22467434 22458538 22450526 22464286 22518820 22626560 22784748 
3770.989 22978338 23179606 23357368 23484226 23543532 23531318 23457080 
3774.364 23339444 23201746 23066938 22953548 22871092 22820720 22793054 
3777.740 22771976 22737944 22674840 22576174 22448162 22311626 22195120 
3781.115 22126210 22122936 22184940 22296128 22426150 22544018 22624170 
3784.490 22658834 22653588 22625572 22593100 22567742 22548738 22526296 
3787.865 22486924 22424766 22344526 22265288 22215684 22224366 22308540 
3791.240 22470032 22690164 22936628 23170956 23358208 23476940 23521106 
3794.616 23499486 23432450 23341932 23248464 23164670 23095402 23039262 
3797.991 22992166 22949912 22910962 22874430 22840186 22805676 22766182 
3801.366 22714928 22645910 22555298 22445124 22323692 22205044 22103492 
3804.741 22034244 22010076 22038552 22121986 22258748 22438900 22647378 
3808.117 22863870 23064572 23225928 23330506 23370330 23350112 23285070 
3811.492 23198240 23112034 23042846 22996054 22967066 22944602 22919700 
3814.867 22889660 22861150 22849172 22869108 22930722 23031590 23156990 
3818.242 23283330 23384170 23439488 23439748 23389048 23303038 23203908 
3821.618 23113496 23049768 23022882 23035294 23083026 23158650 23253060 
3824.993 23356106 23456744 23544166 23604740 23627008 23599628 23515904 
3828.368 23376588 23192226 22981724 22772482 22593316 22471368 22421832 
3831.743 22446658 22532620 22653362 22778004 22877830 22934286 22942708 
3835.119 22913256 22869112 22837842 22845482 22910474 23037620 23216514 
3838.494 23423324 23624410 23786338 23881470 23897118 23837380 23724190 
3841.869 23588764 23465840 23378534 23335624 23327060 23330762 23321412 
3845.244 23283516 23216924 23139466 23078274 23061004 23103320 23202004 
3848.620 23334856 23468138 23568996 23614900 23599612 23533596 23439096 
3851.995 23340176 23255348 23193020 23151392 23122572 23096460 23066848 
3855.370 23033600 23003196 22987938 23002340 23060540 23170724 23331752 
3858.745 23530434 23739820 23924510 24046988 24079964 24013544 23861452 
3862.121 23657946 23447796 23274994 23165764 23123612 23129872 23151456 
3865.496 23156030 23122688 23052060 22962718 22883618 22844120 22862168 
3868.871 22939994 23065932 23219466 23380332 23533318 23671268 23793258 
3872.246 23899412 23989196 24059610 24106352 24129014 24130976 24123296 
3875.622 24118092 24129040 24161096 24212578 24271632 24322096 24347154 
3878.997 24334926 24281618 24193998 24084584 23972932 23876256 23808262 
3882.372 23776910 23780250 23810738 23855196 23898880 23928742 23936414 
3885.747 23919666 23883848 23838484 23796642 23770986 23768968 23793606 
3889.123 23843470 23911910 23991742 24074730 24155522 24230318 24295852 
3892.498 24349754 24387182 24402244 24387206 24336556 24247932 24126034 
3895.873 23982520 23834918 23702220 23601710 23542296 23524124 23535022 
3899.248 23557978 23572026 23562228 23521636 23453642 23370690 23289560 
3902.624 23225452 23188076 23179140 23194066 23224472 23263934 23310886 
3905.999 23371362 23454424 23571640 23728010 23921726 24137446 24352846 
3909.374 24540078 24675192 24742646 24742414 24689052 24609520 24534436 
3912.749 24490768 24493920 24544294 24625738 24714438 24782500 24808722 
3916.125 24782022 24704232 24588110 24451686 24314324 24191682 24092592 
3919.500 24020748 23973384 23944716 23926582 23910288 23889248 23860552 
3922.875 23826450 23798268 23789724 23817174 23889854 24006218 24150842 
3926.250 24294856 24405792 24457230 24437264 24355506 24240988 24130678 
3929.625 24059296 24044686 24083030 24150842 24212996 24237764 24207962 
3933.001 24127406 24018942 23916146 23851128 23844930 23903784 24018190 
3936.376 24169012 24334034 24492762 24630366 24736504 24806130 24837504 
3939.751 24834054 24803982 24760916 24721290 24699274 24701100 24724136 
3943.126 24753666 24768488 24750440 24687566 24581194 24446022 24304860 
3946.502 24180256 24089178 24038276 24022636 24030610 24047880 24061826 
3949.877 24063706 24050050 24021258 23981312 23939890 23909884 23908418 
3953.252 23952770 24055320 24221144 24438190 24683234 24922118 25119996 
3956.627 25249828 25299738 25275544 25198242 25094448 24991828 24908620 
3960.003 24852152 24820962 24808278 24807036 24814848 24832120 24863114 
3963.378 24909974 24970296 25036500 25098596 25143770 25164428 25157886 
3966.753 25128804 25085848 25039412 24997766 24965718 24942198 24924548 
3970.128 24910358 24901772 24904930 24931182 24990022 25086266 25213924 
3973.504 25355522 25484464 25570952 25592228 25538652 25418360 25256200 
3976.879 25086396 24943306 24851262 24818978 24838564 24889592 24948124 
3980.254 24994360 25016258 25015136 24998758 24976488 24956084 24937552 
3983.629 24914056 24873952 24806118 24706258 24578388 24438842 24311328 
3987.005 24221572 24192210 24234930 24346142 24506172 24684762 24848120 
3990.380 24968882 25033336 25044278 25019528 24983768 24959274 24958798 
3993.755 24980470 25013428 25039272 25043770 25022350 24980774 24933146 
3997.130 24895044 24879372 24892182 24933484 24998590 25084820 25189224 
4000.506 25311412 
##END=
