##TITLE=Tecor_PLA-Bicolour_Black_Filament_r4_ATR-Corrected
##JCAMP-DX=5.01  $$ Nicolet v. 1
##DATATYPE=INFRARED SPECTRUM
##ORIGIN=Curtin University
##OWNER=Nicolet
##LONGDATE=2024/07/19
##TIME=15:27:20
##SPECTROMETER/DATA SYSTEM=Nicolet iS50
##DATA PROCESSING=
Ratio against background
%Transmittance->Absorbance
ATR Correction
Truncated
ElementMultiply or ElementDivide
##COMMENTS=
Number of sample scans: 32
Collection length: 47.28 sec
Sample gain: 1.0
Background collected on: Fri Jul 19 15:23:30 2024 (GMT+08:00);
Number of background scans: 32
Background gain: 1.0
Sample spacing:  1.000
Number of scan points: 16672
Resolution points: 8192
Number of FFT points: 65536
Apodization: N-B strong;
Phase correction: Mertz;
Laser frequency: 15798.3 cm-1
Number of rejected sample scans: 0
Number of rejected background scans: 0
Bench serial number: AUP1200105;
##RESOLUTION=4.000
##XUNITS=1/CM
##YUNITS=ABSORBANCE
##FIRSTX=400.163452
##LASTX=4000.187744
##FIRSTY=0.062604
##MAXX=4000.187744
##MINX=400.163452
##MAXY=1.276539
##MINY=-0.028174
##XFACTOR=1.000000
##YFACTOR=1.000000E-008
##NPOINTS=7468
##DELTAX=0.482125
##ZPD=8192
##XYDATA=(X++(Y..Y))
400.163 6260393 6232060 6226908 6233915 6237914 6224863 6184292 6111629 
404.020 6009392 5886048 5753220 5621895 5499088 5385931 5278153 5168312 
407.877 5049422 4918622 4779189 4640385 4514646 4413278 4342471 4300980 
411.734 4280526 4268530 4252070 4221598 4173578 4110569 4039568 3968818 
415.591 3904862 3850399 3803965 3760963 3715540 3662641 3599656 3527170 
419.448 3448916 3370947 3300134 3242549 3201925 3178606 3169234 3167536 
423.305 3165992 3158161 3140694 3114553 3084581 3057776 3040819 3037812 
427.162 3049294 3072602 3103362 3137328 3171659 3205111 3237263 3267199 
431.019 3292731 3310439 3316784 3309482 3289167 3259095 3224211 3189309 
434.876 3157343 3128579 3101042 3072034 3039891 3005182 2970713 2940429 
438.733 2917731 2904118 2898720 2898879 2901407 2903944 2905638 2907012 
442.590 2909200 2913015 2918410 2924585 2930544 2935731 2940265 2944620 
446.447 2948902 2952253 2952716 2947882 2935952 2916933 2893064 2868394 
450.304 2847515 2833983 2828999 2831060 2836492 2840828 2840264 2832756 
454.161 2818337 2798763 2776760 2755234 2736849 2723773 2717618 2719232 
458.017 2728396 2743427 2761042 2776675 2785394 2783065 2767611 2739595 
461.874 2702138 2659968 2617988 2579609 2546923 2519691 2496448 2475555 
465.731 2456290 2439311 2426463 2419957 2421243 2430119 2444342 2459996 
469.588 2472451 2477744 2473634 2460337 2440350 2417652 2396441 2379804 
473.445 2368874 2362612 2358358 2352878 2343514 2328967 2309546 2286824 
477.302 2262876 2239501 2217687 2197514 2178385 2159518 2140303 2120467 
481.159 2100021 2079077 2057631 2035661 2013178 1990519 1968348 1947641 
485.016 1929323 1914002 1901751 1892161 1884626 1878711 1874381 1872033 
488.873 1872241 1875365 1881238 1889091 1897747 1906003 1912975 1918261 
492.730 1921875 1923949 1924447 1922864 1919015 1912747 1904426 1895077 
496.587 1886133 1878978 1874450 1872532 1872390 1872778 1872551 1871142 
500.444 1868691 1865847 1863371 1861635 1860458 1859199 1857120 1853814 
504.301 1849509 1845027 1841500 1839914 1840745 1843800 1848257 1852969 
508.158 1856758 1858700 1858249 1855301 1850194 1843740 1837171 1832018 
512.015 1829785 1831541 1837389 1846229 1855745 1862954 1864975 1859909 
515.871 1847465 1829112 1807612 1786184 1767533 1753165 1743112 1736242 
519.728 1730942 1725849 1720360 1714743 1709832 1706497 1705073 1705080 
523.585 1705311 1704210 1700464 1693387 1683638 1672683 1662467 1654751 
527.442 1650481 1649450 1650274 1650870 1649152 1643812 1634815 1623476 
531.299 1612030 1602895 1597741 1596858 1598985 1601655 1601971 1597546 
535.156 1587251 1571549 1552369 1532576 1515221 1502816 1496892 1497747 
539.013 1504543 1515567 1528614 1541358 1551740 1558298 1560392 1558172 
542.870 1552449 1544358 1534901 1524703 1513900 1502388 1490197 1477890 
546.727 1466743 1458576 1455260 1458086 1467238 1481689 1499372 1517828 
550.584 1534763 1548556 1558362 1563955 1565424 1562984 1556965 1547980 
554.441 1537121 1526008 1516506 1510207 1508161 1510334 1515807 1523213 
558.298 1531278 1539305 1547189 1555143 1563204 1570884 1577178 1581044 
562.155 1582020 1580830 1579371 1580197 1585531 1596275 1611402 1628150 
566.012 1642919 1652568 1655548 1652383 1645463 1638046 1633066 1632229 
569.869 1635644 1642139 1650013 1657809 1664791 1670997 1676824 1682604 
573.725 1688265 1693328 1697136 1699337 1700086 1700153 1700737 1703052 
577.582 1708041 1716257 1727770 1742409 1759822 1779557 1800982 1823186 
581.439 1844951 1864842 1881423 1893614 1900949 1903780 1903240 1901006 
585.296 1898939 1898644 1901067 1906253 1913375 1920957 1927350 1931298 
589.153 1932427 1931497 1930216 1930778 1935101 1944154 1957603 1973843 
593.010 1990544 2005415 2016891 2024513 2028897 2031291 2033002 2035006 
596.867 2037774 2041491 2046340 2052714 2061191 2072189 2085626 2100615 
600.724 2115565 2128575 2138046 2143274 2144665 2143596 2141958 2141553 
604.581 2143729 2149246 2158381 2171236 2187815 2208055 2231558 2257478 
608.438 2284510 2311223 2336554 2360222 2382900 2405841 2430312 2456799 
612.295 2484650 2512173 2537292 2558537 2575826 2590740 2606093 2624896 
616.152 2649239 2679478 2714084 2750245 2784915 2815886 2842401 2865133 
620.009 2885576 2905187 2924670 2943757 2961460 2976812 2989489 3000251 
623.866 3010812 3023350 3039750 3060994 3086842 3115991 3146539 3176593 
627.723 3204786 3230588 3254250 3276544 3298431 3320670 3343615 3367153 
631.579 3390755 3413668 3435113 3454472 3471466 3486174 3499055 3510782 
635.436 3522170 3533962 3546723 3560806 3576303 3593091 3610887 3629278 
639.293 3647727 3665688 3682622 3698188 3712288 3725261 3737762 3750716 
643.150 3764979 3781112 3799066 3818126 3837046 3854374 3868907 3880166 
647.007 3888643 3895786 3903703 3914578 3930027 3950637 3975725 4003525 
650.864 4031662 4057914 4080766 4099842 4115860 4130295 4144740 4160378 
654.721 4177548 4195758 4213977 4231148 4246640 4260525 4273551 4286826 
658.578 4301360 4317716 4335795 4354924 4374130 4392488 4409446 4424887 
662.435 4439139 4452761 4466399 4480612 4495807 4512261 4530135 4549432 
666.292 4569982 4591404 4613111 4634424 4654661 4673378 4690408 4705929 
670.149 4720323 4734100 4747686 4761396 4775361 4789621 4804134 4818818 
674.006 4833542 4848112 4862232 4875590 4887929 4899139 4909345 4918866 
677.863 4928132 4937534 4947316 4957587 4968282 4979436 4991280 5004279 
681.720 5019064 5036273 5056272 5078988 5103849 5129892 5155940 5180992 
685.577 5204390 5225997 5246177 5265638 5285212 5305554 5326965 5349235 
689.433 5371674 5393251 5412840 5429517 5442830 5452961 5460728 5467399 
693.290 5474332 5482673 5493064 5505575 5519859 5535376 5551723 5568721 
697.147 5586451 5605013 5624254 5643585 5661987 5678219 5691254 5700582 
701.004 5706425 5709651 5711424 5712794 5714294 5715802 5716635 5715849 
704.861 5712584 5706337 5697013 5684847 5670175 5653313 5634514 5613960 
708.718 5591858 5568433 5543783 5517726 5489550 5458082 5421899 5379718 
712.575 5330825 5275416 5214542 5149805 5082823 5014710 4945668 4875074 
716.432 4801707 4724242 4641695 4553700 4460523 4362967 4262193 4159563 
720.289 4056669 3955283 3857255 3764366 3677924 3598512 3525820 3458806 
724.146 3396169 3336940 3281026 3229460 3184238 3147804 3122437 3109629 
728.003 3109903 3122855 3147554 3182951 3228268 3283128 3347539 3421757 
731.860 3506191 3601333 3707704 3825751 3955626 4096902 4248222 4407265 
735.717 4570884 4735640 4898398 5056958 5210346 5358668 5502680 5643145 
739.574 5780368 5914037 6043408 6167705 6286622 6400424 6509904 6616003 
743.431 6719428 6820448 6918913 7014603 7107579 7198439 7288281 7378402 
747.287 7469856 7563161 7658181 7754402 7851217 7948311 8045697 8143485 
751.144 8241421 8338485 8432619 8520918 8600155 8667380 8720527 8758605 
755.001 8781564 8789878 8783983 8763941 8729369 8679648 8614288 8533316 
758.858 8437464 8328148 8207255 8076876 7938979 7795296 7647209 7495783 
762.715 7341823 7185970 7028804 6870940 6713174 6556556 6402424 6252346 
766.572 6107887 5970407 5840725 5718958 5604412 5495741 5391193 5289026 
770.429 5187919 5087222 4987097 4888303 4791939 4698951 4609779 4524155 
774.286 4441225 4359864 4279073 4198381 4117975 4038580 3961037 3885902 
778.143 3813040 3741599 3670244 3597599 3522792 3445757 3367260 3288556 
782.000 3210904 3135100 3061172 2988449 2915935 2842739 2768502 2693562 
785.857 2618884 2545720 2475270 2408377 2345437 2286494 2231411 2180028 
789.714 2132259 2088051 2047234 2009469 1974195 1940776 1908635 1877476 
793.571 1847335 1818582 1791684 1767083 1744922 1725025 1706971 1690212 
797.428 1674306 1658998 1644233 1630058 1616499 1603433 1590594 1577692 
801.285 1564595 1551493 1539035 1528133 1519945 1515370 1514818 1518015 
805.141 1524027 1531439 1538705 1544460 1547806 1548476 1546750 1543371 
808.998 1539266 1535353 1532334 1530550 1530007 1530378 1531167 1531896 
812.855 1532251 1532234 1532148 1532512 1533865 1536502 1540355 1544943 
816.712 1549497 1553313 1555894 1557239 1557783 1558207 1559180 1561080 
820.569 1563907 1567356 1571061 1574872 1579003 1583993 1590497 1598959 
824.426 1609388 1621318 1633905 1646317 1657935 1668541 1678251 1687263 
828.283 1695598 1702979 1708890 1712902 1715020 1715996 1717318 1720924 
832.140 1728643 1741674 1760202 1783376 1809700 1837566 1865879 1894487 
835.997 1924242 1956705 1993615 2036335 2085371 2140337 2200125 2263296 
839.854 2328688 2395777 2464840 2536879 2613265 2695228 2783398 2877446 
843.711 2975969 3076618 3176391 3272037 3360514 3439346 3506890 3562566 
847.568 3606865 3641380 3668685 3692119 3715518 3742849 3777880 3823891 
851.425 3883566 3959019 4051999 4164058 4296721 4451338 4628930 4829704 
855.282 5052732 5295758 5555293 5826995 6106217 6388607 6670502 6949021 
859.139 7221954 7487382 7743375 7987779 8218314 8432801 8629520 8807435 
862.995 8966278 9106316 9228064 9331984 9418200 9486598 9536988 9569369 
866.852 9584175 9582368 9565355 9534682 9491719 9437339 9371702 9294281 
870.709 9203990 9099581 8979949 8844558 8693590 8528024 8349494 8159973 
874.566 7961532 7756077 7545227 7330356 7112650 6893222 6673164 6453547 
878.423 6235350 6019525 5807009 5598827 5396316 5201113 5015253 4840963 
882.280 4680468 4535735 4408239 4298842 4207756 4134519 4078157 4037185 
886.137 4009805 3994047 3987934 3989667 3997755 4011007 4028512 4049371 
889.994 4072578 4096859 4120735 4142694 4161459 4176264 4186999 4194134 
893.851 4198520 4201075 4202500 4203162 4203105 4202170 4200137 4196816 
897.708 4192056 4185659 4177349 4166833 4153939 4138818 4122114 4104938 
901.565 4088646 4074579 4063597 4055953 4051203 4048470 4046799 4045420 
905.422 4043961 4042345 4040589 4038483 4035507 4030914 4023981 4014465 
909.279 4002834 3990358 3978799 3969968 3965158 3964761 3968208 3974152 
913.136 3981018 3987424 3992560 3996261 3998793 4000568 4001782 4002262 
916.993 4001550 3999163 3994812 3988615 3981056 3972799 3964319 3955659 
920.849 3946333 3935436 3921958 3905203 3885031 3862033 3837383 3812595 
924.706 3789185 3768416 3751115 3737646 3727996 3721845 3718610 3717476 
928.563 3717494 3717687 3717198 3715511 3712590 3708903 3705267 3702600 
932.420 3701577 3702420 3704842 3708250 3711939 3715494 3718966 3722816 
936.277 3727743 3734334 3742829 3752938 3763997 3775242 3786147 3796717 
940.134 3807573 3819810 3834743 3853561 3877097 3905699 3939266 3977418 
943.991 4019544 4064985 4112970 4162684 4213240 4263820 4313826 4363110 
947.848 4412104 4461794 4513573 4568870 4628767 4693654 4762997 4835367 
951.705 4908618 4980280 5047824 5108991 5161972 5205365 5238125 5259364 
955.562 5268206 5263711 5244877 5210736 5160514 5093879 5011163 4913486 
959.419 4802766 4681710 4553493 4421564 4289299 4159760 4035532 3918701 
963.276 3810876 3713362 3627177 3553129 3491685 3442898 3406239 3380557 
967.133 3364155 3355000 3350963 3350165 3351172 3353151 3355853 3359534 
970.990 3364802 3372421 3383151 3397581 3416045 3438525 3464689 3493882 
974.847 3525335 3558286 3592142 3626517 3661312 3696558 3732309 3768560 
978.703 3805137 3841782 3878251 3914454 3950580 3987021 4024363 4063150 
982.560 4103803 4146473 4191095 4237428 4285200 4334151 4384115 4434919 
986.417 4486410 4538389 4590645 4643085 4695664 4748565 4802081 4856597 
990.274 4912400 4969670 5028422 5088663 5150450 5214006 5279717 5348015 
994.131 5419280 5493659 5571040 5651143 5733664 5818480 5905708 5995752 
997.988 6089071 6185985 6286500 6390223 6496557 6604955 6715203 6827663 
1001.845 6943293 7063500 7189798 7323530 7465672 7616672 7776715 7945739 
1005.702 8123778 8310972 8507586 8713984 8930483 9157393 9395092 9644163 
1009.559 9905537 10180591 10470983 10778440 11104472 11450014 11815227 
1012.934 12199533 12601727 13020366 13454005 13901542 14362341 14836168 
1016.309 15323053 15822968 16335523 16859726 17393778 17935246 18481036 
1019.683 19027878 19572630 20112608 20645734 21170742 21687026 22194606 
1023.058 22693974 23186146 23672568 24155178 24636296 25118626 25604994 
1026.433 26098206 26600882 27115554 27644672 28190806 28756770 29345610 
1029.809 29960408 30603976 31278360 31984446 32721722 33488148 34280276 
1033.184 35093460 35922140 36760192 37601064 38438016 39264212 40072812 
1036.559 40857060 41610308 42325996 42997824 43619688 44185904 44691260 
1039.934 45131172 45501792 45800240 46024612 46174228 46249716 46253272 
1043.310 46188448 46060188 45874508 45638080 45357920 45041116 44694556 
1046.685 44324904 43938528 43541364 43138824 42735704 42335968 41942812 
1050.060 41558488 41184368 40821004 40468160 40124952 39790236 39462896 
1053.435 39142372 38829000 38524180 38230176 37949768 37685792 37440896 
1056.811 37217516 37018292 36846724 36707800 36608288 36556672 36562532 
1060.186 36635596 36784692 37017028 37337580 37749080 38252220 38846068 
1063.561 39528456 40296320 41145844 42072632 43071716 44137676 45264732 
1066.936 46446888 47677988 48952012 50263160 51606244 52976908 54371984 
1070.312 55789484 57228368 58687912 60167088 61663700 63174104 64693100 
1073.687 66214456 67731384 69237176 70725416 72189944 73624608 75023184 
1077.062 76379424 77687088 78940192 80132920 81258888 82310672 83278992 
1080.437 84153000 84920680 85570504 86092768 86480728 86730768 86842344 
1083.813 86816856 86657336 86368200 85955512 85427184 84792944 84063656 
1087.188 83250656 82364736 81415960 80413648 79366984 78285224 77177880 
1090.563 76053984 74921496 73786432 72652760 71522424 70396216 69274336 
1093.938 68157088 67045064 65939124 64840196 63749320 62667584 61596172 
1097.313 60536392 59489356 58455652 57435076 56426364 55427700 54437272 
1100.689 53454172 52478872 51513480 50561368 49626496 48712544 47822480 
1104.064 46958236 46121008 45311656 44531124 43780744 43062308 42378040 
1107.439 41730448 41122140 40555744 40033700 39558084 39130140 38750088 
1110.814 38416784 38127732 37879504 37668152 37489876 37341572 37221096 
1114.190 37127264 37059596 37017860 37001716 37010528 37043192 37098300 
1117.565 37174332 37269916 37384092 37516568 37667736 37838732 38031188 
1120.940 38246712 38486364 38749956 39035548 39339112 39654496 39973716 
1124.315 40287512 40585964 40859172 41097892 41294120 41441452 41535424 
1127.691 41573508 41554900 41480028 41349928 41165616 40927632 40635936 
1131.066 40290032 39889372 39433664 38923048 38358144 37740000 37069876 
1134.441 36349420 35580676 34766360 33909996 33015860 32088712 31133652 
1137.816 30155810 29160280 28152264 27137226 26121024 25109806 24109850 
1141.192 23127098 22166904 21233682 20331156 19462336 18629876 17836190 
1144.567 17083608 16374177 15709539 15090790 14518330 13992010 13511190 
1147.942 13074854 12681636 12329824 12017259 11741336 11499063 11287281 
1151.317 11103018 10943726 10807560 10693366 10600556 10528926 10478351 
1154.693 10448661 10439543 10450526 10481068 10530643 10598807 10685285 
1158.068 10790044 10913443 11056262 11219742 11405532 11615624 11852184 
1161.443 12117472 12413855 12743896 13110526 13517201 13967986 14467554 
1164.818 15021126 15634266 16312818 17062824 17890542 18802328 19804734 
1168.194 20904196 22106946 23418774 24844890 26389804 28057274 29850102 
1171.569 31769708 33815576 35984312 38268912 40658052 43135728 45681308 
1174.944 48269940 50873036 53458720 55992208 58436108 60750944 62896324 
1178.319 64832532 66523080 67937304 69052952 69858128 70351984 70544336 
1181.695 70454136 70107200 69533704 68765704 67835360 66773564 65609300 
1185.070 64369304 63078080 61757664 60427420 59103960 57800692 56528032 
1188.445 55293436 54101968 52956896 51860164 50812908 49815704 48868656 
1191.820 47971384 47123080 46322544 45568352 44858984 44193036 43569116 
1195.196 42986000 42442476 41937332 41469312 41037200 40639808 40275956 
1198.571 39944288 39643120 39370208 39122688 38897152 38689992 38497704 
1201.946 38317336 38146648 37984144 37828764 37679496 37535112 37393768 
1205.321 37253056 37110048 36961604 36804624 36636196 36453808 36255336 
1208.697 36039040 35803656 35548316 35272528 34976192 34659424 34322516 
1212.072 33965812 33589660 33194524 32781074 32350444 31904262 31444820 
1215.447 30974862 30497434 30015520 29531622 29047600 28564522 28082776 
1218.822 27602354 27123240 26645640 26170224 25698128 25230848 24769958 
1222.198 24316996 23873258 23439706 23016940 22605206 22204412 21814170 
1225.573 21433984 21063360 20702026 20350058 20007942 19676400 19356154 
1228.948 19047636 18750844 18465228 18189896 17923928 17666734 17418282 
1232.323 17179010 16949726 16731225 16523892 16327645 16141783 15965334 
1235.698 15797198 15636465 15482493 15334989 15193817 15058932 14930260 
1239.074 14807647 14690875 14579706 14473797 14372809 14276297 14183888 
1242.449 14095232 14010337 13929486 13853371 13782875 13718891 13661997 
1245.824 13612278 13569306 13532297 13500333 13472758 13449302 13430128 
1249.199 13415755 13406815 13403864 13407277 13417268 13433987 13457556 
1252.575 13488148 13525864 13570592 13621916 13679025 13740870 13806367 
1255.950 13874596 13945031 14017582 14092462 14169937 14250180 14333019 
1259.325 14417885 14503863 14589889 14674832 14757623 14837304 14913110 
1262.700 14984326 15050378 15110724 15164895 15212405 15252757 15285373 
1266.076 15309665 15324986 15330654 15326039 15310533 15283573 15244599 
1269.451 15193048 15128331 15049914 14957389 14850526 14729355 14594099 
1272.826 14445148 14282924 14107820 13920151 13720192 13508312 13285099 
1276.201 13051389 12808423 12557632 12300640 12038962 11773914 11506493 
1279.577 11237400 10967206 10696443 10425864 10156571 9890013 9627986 
1282.952 9372447 9125361 8888587 8663750 8452220 8255142 8073506 7908126 
1286.809 7759743 7628990 7516365 7422225 7346746 7289932 7251598 7231376 
1290.667 7228706 7242796 7272612 7316781 7373551 7440792 7516061 7596703 
1294.524 7680046 7763600 7845345 7923766 7998058 8068029 8133985 8196565 
1298.382 8256476 8314268 8370210 8424204 8475796 8524329 8569105 8609530 
1302.239 8645286 8676352 8702994 8725658 8744878 8761142 8774839 8786223 
1306.096 8795510 8802806 8808265 8812065 8814415 8815552 8815674 8814939 
1309.954 8813405 8811039 8807778 8803563 8798410 8792455 8785979 8779354 
1313.811 8772961 8767127 8761994 8757591 8753777 8750494 8747762 8745833 
1317.669 8745137 8746192 8749396 8754871 8762308 8771111 8780485 8789716 
1321.526 8798460 8806849 8815460 8825103 8836522 8850198 8866125 8883978 
1325.384 8903259 8923657 8945250 8968686 8995082 9025849 9062314 9105522 
1329.241 9156023 9213850 9278601 9349629 9426161 9507469 9592956 9682168 
1333.098 9774875 9870990 9970617 10073920 10181038 10292027 10406816 
1336.474 10525178 10646839 10771617 10899501 11030781 11165917 11305460 
1339.849 11449893 11599450 11754098 11913598 12077653 12246072 12418865 
1343.224 12596287 12778702 12966429 13159524 13357744 13560583 13767335 
1346.599 13977355 14190187 14405549 14623334 14843415 15065347 15288332 
1349.975 15511072 15731946 15949145 16160931 16365710 16562146 16749044 
1353.350 16925202 17089392 17240244 17376410 17496770 17600652 17687938 
1356.725 17759124 17815222 17857542 17887538 17906564 17915798 17916176 
1360.100 17908494 17893414 17871672 17844156 17812002 17776594 17739310 
1363.476 17701286 17662954 17623718 17581668 17533604 17475450 17402772 
1366.851 17311492 17198478 17062032 16902098 16720192 16519363 16304021 
1370.226 16079997 15854634 15636773 15436749 15266027 15136629 15060230 
1373.601 15047100 15105003 15238155 15446559 15725659 16066466 16456178 
1376.977 16879058 17317666 17754060 18171158 18553614 18888702 19166464 
1380.352 19379754 19523888 19596224 19595954 19523916 19382430 19175188 
1383.727 18906886 18582908 18208914 17790616 17333776 16844278 16328149 
1387.102 15791559 15240471 14680320 14115582 13549626 12984785 12422665 
1390.478 11864507 11311641 10765723 10228912 9703802 9193396 8700879 8229533 
1394.335 7782489 7362500 6971728 6611618 6282700 5984722 5716621 5476696 
1398.192 5262679 5072006 4901895 4749720 4613103 4490200 4379706 4280733 
1402.050 4192606 4114561 4045516 3984055 3928554 3877391 3829310 3783593 
1405.907 3740070 3698939 3660487 3624893 3592046 3561638 3533391 3507230 
1409.765 3483411 3462491 3445050 3431495 3421706 3415098 3410667 3407326 
1413.622 3404172 3400728 3397008 3393349 3390243 3388116 3387227 3387704 
1417.479 3389661 3393281 3398929 3406941 3417578 3430833 3446344 3463477 
1421.337 3481535 3499990 3518705 3537976 3558413 3580813 3605847 3634025 
1425.194 3665630 3700824 3739761 3782709 3829969 3881817 3938333 3999448 
1429.052 4064989 4135013 4209997 4291085 4380011 4478869 4589724 4714278 
1432.909 4853697 5008759 5180246 5369295 5577797 5808487 6064767 6350372 
1436.767 6669011 7024099 7418639 7855254 8336171 8863032 9436500 10055877 
1440.624 10718710 11420693 12155815 12916756 13695362 14482939 15270554 
1443.999 16049184 16809946 17544334 18244574 18903918 19516820 20079028 
1447.375 20587538 21040610 21437588 21778904 22065750 22299790 22482664 
1450.750 22615896 22700662 22737942 22728732 22674050 22574838 22431734 
1454.125 22244740 22013208 21736132 21412810 21043528 20630040 20175398 
1457.500 19683676 19159002 18605184 18025464 17422878 16800728 16162960 
1460.875 15514170 14859281 14203018 13549556 12902433 12264819 11639900 
1464.251 11031018 10441583 9874763 9333057 8817961 8330126 7869649 7436403 
1468.108 7030406 6651718 6300308 5975741 5677033 5402715 5151200 4920907 
1471.966 4710565 4519150 4345706 4188984 4047414 3919135 3802227 3695025 
1475.823 3596333 3505429 3421915 3345466 3275684 3212001 3153764 3100368 
1479.680 3051332 3006325 2965097 2927321 2892490 2860043 2829419 2800268 
1483.538 2772522 2746325 2721892 2699325 2678461 2658969 2640414 2622556 
1487.395 2605455 2589513 2575376 2563649 2554618 2548127 2543539 2539918 
1491.253 2536320 2531985 2526552 2520051 2512888 2505582 2498688 2492557 
1495.110 2487236 2482488 2477840 2472714 2466633 2459444 2451376 2442979 
1498.968 2435046 2428263 2423086 2419526 2417232 2415635 2414215 2412651 
1502.825 2410965 2409274 2407813 2406465 2404888 2402461 2398578 2392905 
1506.682 2385610 2377341 2369063 2361749 2356084 2352297 2350218 2349475 
1510.540 2349654 2350498 2351923 2353825 2356062 2358132 2359326 2358793 
1514.397 2355862 2350188 2342007 2332043 2321375 2311166 2302347 2295388 
1518.255 2290273 2286644 2283900 2281513 2279166 2276864 2274810 2273298 
1522.112 2272499 2272311 2272252 2271624 2269635 2265628 2259317 2250875 
1525.969 2240906 2230310 2219991 2210718 2202938 2196681 2191735 2187697 
1529.827 2184175 2180839 2177580 2174418 2171495 2168989 2167111 2165904 
1533.684 2165215 2164672 2163745 2161835 2158472 2153404 2146824 2139262 
1537.542 2131459 2124163 2117862 2112621 2108108 2103734 2098931 2093429 
1541.399 2087345 2081099 2075292 2070410 2066659 2063907 2061829 2060019 
1545.257 2058186 2056177 2054019 2051742 2049301 2046556 2043270 2039252 
1549.114 2034512 2029266 2023953 2019082 2015150 2012456 2011057 2010834 
1552.971 2011454 2012502 2013434 2013735 2012938 2010663 2006788 2001524 
1556.829 1995450 1989409 1984365 1981129 1980222 1981595 1984735 1988788 
1560.686 1992778 1995807 1997276 1996805 1994377 1990182 1984618 1978230 
1564.544 1971667 1965608 1960640 1957201 1955517 1955558 1957191 1960178 
1568.401 1964289 1969270 1974794 1980423 1985547 1989527 1991794 1992062 
1572.259 1990528 1987828 1984944 1982846 1982305 1983589 1986378 1989942 
1576.116 1993389 1995951 1997282 1997382 1996625 1995437 1994215 1993196 
1579.973 1992458 1992052 1992121 1992890 1994685 1997792 2002299 2008083 
1583.831 2014730 2021749 2028599 2034892 2040381 2045062 2048998 2052357 
1587.688 2055256 2057816 2060143 2062331 2064525 2066926 2069714 2073058 
1591.546 2077126 2081946 2087569 2093869 2100669 2107702 2114646 2121170 
1595.403 2127066 2132207 2136729 2140965 2145372 2150405 2156461 2163708 
1599.260 2172112 2181387 2191176 2201049 2210600 2219537 2227665 2234861 
1603.118 2241171 2246712 2251780 2256811 2262340 2268894 2276859 2286419 
1606.975 2297400 2309358 2321648 2333672 2344950 2355298 2364809 2373813 
1610.833 2382674 2391657 2400855 2410182 2419409 2428311 2436758 2444758 
1614.690 2452457 2460045 2467755 2475735 2484048 2492677 2501517 2510463 
1618.548 2519354 2528011 2536224 2543768 2550437 2556091 2560712 2564338 
1622.405 2567119 2569259 2570987 2572465 2573921 2575539 2577494 2579973 
1626.262 2583052 2586664 2590674 2594742 2598550 2601760 2604115 2605435 
1630.120 2605589 2604331 2601407 2596523 2589488 2580396 2569713 2558322 
1633.977 2547449 2538305 2531851 2528555 2528210 2530180 2533483 2537130 
1637.835 2540391 2542821 2544262 2544678 2544058 2542373 2539628 2535849 
1641.692 2531330 2526425 2521713 2517688 2514754 2513116 2512838 2513840 
1645.550 2516056 2519324 2523487 2528171 2532898 2537017 2539915 2541230 
1649.407 2541033 2539907 2538887 2539181 2541867 2547548 2556217 2567178 
1653.264 2579339 2591451 2602549 2612029 2619757 2625891 2630754 2634691 
1657.122 2638026 2641073 2644257 2648082 2653129 2659987 2669047 2680459 
1660.979 2694010 2709188 2725321 2741666 2757600 2772681 2786708 2799707 
1664.837 2811866 2823465 2834838 2846344 2858358 2871179 2885026 2900023 
1668.694 2916090 2933014 2950488 2968114 2985528 3002448 3018659 3034102 
1672.552 3048765 3062756 3076236 3089506 3102924 3116931 3131973 3148413 
1676.409 3166360 3185710 3206027 3226713 3247064 3266551 3284954 3302439 
1680.266 3319582 3337304 3356544 3378174 3402700 3430204 3460259 3492086 
1684.124 3524676 3557010 3588425 3618673 3648081 3677440 3707836 3740333 
1687.981 3775823 3814637 3856565 3900877 3946503 3992405 4037799 4082487 
1691.839 4126804 4171545 4217864 4266857 4319527 4376462 4437944 4503935 
1695.696 4574180 4648312 4726015 4807083 4891528 4979599 5071667 5168197 
1699.553 5269507 5375696 5486561 5601668 5720584 5843116 5969522 6100566 
1703.411 6237455 6381450 6533544 6694162 6863038 7039366 7222306 7411264 
1707.268 7606449 7808929 8020402 8242763 8477589 8725670 8986903 9260423 
1711.126 9544893 9839043 10141890 10452991 10772327 11100158 11436688 
1714.501 11782007 12135952 12498077 12867789 13244204 13626342 14013048 
1717.876 14403187 14795928 15191081 15589422 15992813 16404037 16826474 
1721.251 17263452 17717910 18192162 18688126 19207692 19753436 20329008 
1724.627 20939278 21590144 22288140 23040024 23852492 24732284 25686282 
1728.002 26721594 27845460 29065018 30387124 31818232 33365118 35035592 
1731.377 36839380 38788436 40896032 43174876 45634444 48278524 51104140 
1734.752 54102392 57261288 60569012 64016652 67598320 71308944 75140280 
1738.128 79076608 83092248 87151744 91212720 95230256 99160760 102963792 
1741.503 106601632 110038128 113237952 116167712 118798184 121106576 
1744.396 123077176 124700320 125970184 126884008 127442800 127653944 
1747.289 127532872 127103088 126392736 125429896 124238368 122836472 
1750.182 121238688 119459816 117517984 115435824 113238048 110947672 
1753.075 108582208 106152416 103663536 101118824 98522952 95884576 93216368 
1756.450 90533400 87850752 85181656 82536528 79923776 77350504 74823752 
1759.826 72350792 69939056 67595600 65326820 63138252 61034572 59019224 
1763.201 57094396 55260168 53514372 51852512 50268584 48756140 47309824 
1766.576 45926020 44603420 43341948 42141844 41002072 39919660 38889508 
1769.951 37905116 36959628 36046852 35161904 34301252 33462152 32642106 
1773.327 31838188 31046784 30263638 29484400 28704968 27922180 27133936 
1776.702 26339456 25539122 24734242 23926598 23118264 22311268 21507534 
1780.077 20708876 19917200 19134564 18363268 17605728 16864488 16141924 
1783.452 15440316 14761643 14107695 13480090 12880199 12309131 11767515 
1786.828 11255541 10772692 10318024 9890103 9487464 9108838 8753289 8420345 
1790.685 8109847 7821531 7554617 7307724 7078552 6864550 6663205 6472716 
1794.542 6292356 6122526 5964307 5818978 5687207 5568841 5462702 5366940 
1798.400 5279444 5198365 5122288 5050190 4981301 4914882 4850043 4785991 
1802.257 4722137 4658454 4595417 4533970 4475108 4419613 4367696 4319066 
1806.115 4273070 4229042 4186387 4144824 4104184 4064313 4024877 3985397 
1809.972 3945273 3904001 3861266 3816964 3771097 3723677 3674681 3624162 
1813.830 3572467 3520565 3470116 3423529 3383420 3352271 3331634 3321773 
1817.687 3321442 3328091 3338282 3348392 3355059 3355703 3348675 3333354 
1821.544 3310080 3279917 3244332 3204907 3163005 3119563 3075180 3030290 
1825.402 2985571 2942148 2901563 2865672 2835921 2813017 2796458 2784631 
1829.259 2775216 2765909 2754897 2741402 2725433 2707569 2688306 2667806 
1833.117 2645706 2621498 2594785 2565695 2534817 2503076 2471343 2440102 
1836.974 2409421 2379201 2349541 2321024 2294772 2272158 2254254 2241323 
1840.832 2232521 2225992 2219234 2209850 2195962 2176634 2151911 2122595 
1844.689 2090082 2056022 2022223 1990564 1962789 1940301 1923826 1913165 
1848.546 1907191 1904069 1901717 1898441 1893317 1886408 1878347 1870068 
1852.404 1862125 1854417 1846260 1836635 1824743 1810541 1794855 1779304 
1856.261 1765759 1755792 1750117 1748282 1748761 1749378 1747893 1742780 
1860.119 1733585 1721218 1707619 1695495 1687372 1685207 1689689 1700107 
1863.976 1714600 1730264 1743912 1752642 1754233 1747704 1733354 1712871 
1867.833 1689070 1665442 1645396 1631734 1625771 1627158 1633610 1641736 
1871.691 1647475 1647311 1639049 1622419 1598927 1571701 1544484 1520957 
1875.548 1503813 1494455 1492718 1497346 1506132 1516800 1527417 1536849 
1879.406 1544832 1551748 1558204 1564352 1569391 1571624 1568759 1558904 
1883.263 1541326 1517353 1490297 1464832 1445636 1436175 1437497 1448126 
1887.121 1464688 1483076 1499680 1512351 1520394 1524290 1524730 1522222 
1890.978 1516643 1507767 1495543 1480684 1464498 1448633 1434340 1422194 
1894.835 1412024 1403415 1396233 1391124 1389349 1392094 1399693 1411084 
1898.693 1423602 1433984 1439292 1438184 1431161 1420508 1408626 1397426 
1902.550 1386997 1376013 1362364 1344831 1323843 1302157 1283724 1272665 
1906.408 1271492 1280225 1296211 1315328 1333181 1346559 1354126 1356520 
1910.265 1355312 1352211 1348066 1342606 1334819 1323623 1308423 1290057 
1914.123 1269953 1250423 1233336 1219888 1209734 1201605 1193298 1182959 
1917.980 1169567 1153598 1136775 1121628 1110195 1103627 1101034 1100427 
1921.837 1098864 1094610 1087313 1079116 1073672 1074994 1085748 1105822 
1925.695 1132087 1159143 1180608 1191382 1188467 1171919 1144126 1109301 
1929.552 1072051 1037227 1008971 991140 986233 995106 1015643 1042880 
1933.410 1069056 1085801 1086383 1068687 1035955 997087 963467 945741 949807 
1937.749 975006 1013562 1053735 1082927 1092226 1078211 1044074 997840 
1941.607 950125 910863 887599 883929 899839 931726 973886 1018442 1057345 
1945.946 1082824 1089050 1072992 1035784 982119 919774 857471 802968 760995 
1950.286 733053 716839 708828 704804 702284 700533 700921 705017 714208 
1954.625 727741 743229 756970 765841 768300 766277 764778 770635 790622 
1958.965 828769 884039 950797 1019454 1080014 1124854 1151244 1161261 
1962.823 1161250 1157717 1156385 1159968 1168515 1181047 1197676 1219880 
1966.680 1251443 1295148 1351731 1416944 1482405 1536548 1568130 1568839 
1970.537 1535921 1471516 1382570 1277370 1164563 1051725 946186 855819 
1974.395 789736 757167 766847 822550 922372 1056500 1209543 1362568 1499137 
1978.734 1607273 1682770 1727452 1747502 1750178 1742137 1727614 1709209 
1982.592 1686859 1659762 1626324 1586087 1539476 1489724 1441722 1401788 
1986.449 1375428 1365769 1371453 1386609 1401314 1405069 1389480 1352012 
1990.307 1297043 1235919 1183096 1152112 1149461 1172156 1206853 1233494 
1994.164 1230830 1184217 1090494 960958 818975 694425 614004 594932 638332 
1998.504 729952 843399 948649 1018825 1038031 1002944 922632 813562 694592 
2002.843 581573 485217 410379 358784 330356 326567 349281 401303 482779 
2007.183 590104 714035 840942 954200 1038351 1081208 1077651 1029884 947457 
2011.522 843970 734836 631817 542874 468761 407311 354338 308667 272094 
2015.862 250300 248089 267416 303670 347172 385208 408420 413929 407748 
2020.202 401208 406281 428051 462562 496038 511301 493753 439322 355845 
2024.541 262606 181360 131163 121064 148656 202377 266693 325719 368823 
2028.881 388921 384272 355674 308668 252453 202655 178585 200578 282409 
2033.220 426644 619455 833133 1031742 1180581 1254623 1244233 1155315 
2037.078 1007422 826086 639152 470877 340418 259705 233889 259781 327403 
2041.417 419787 516822 598264 648382 658227 628622 567590 489913 412172 
2045.757 351616 322599 336492 399205 510528 661523 834364 1004065 1143774 
2050.097 1231025 1254609 1216915 1133863 1029854 932825 866650 846479 874843 
2054.436 942342 1031120 1121098 1195921 1247225 1274763 1284597 1284635 
2058.294 1281207 1275931 1266430 1247278 1213791 1164238 1102562 1036809 
2062.151 978111 936460 918438 924386 949163 983584 1017992 1044772 1060793 
2066.491 1067117 1067879 1067629 1069597 1074105 1079503 1082835 1082054 
2070.348 1076418 1067108 1055836 1044046 1031947 1019066 1004909 990505 
2074.206 978465 973265 978885 997684 1028434 1066755 1106008 1140012 1164852 
2078.545 1180799 1191682 1203743 1222832 1252739 1293397 1341042 1389077 
2082.403 1429764 1455801 1461813 1445053 1406108 1348425 1278427 1204185 
2086.260 1134506 1076783 1035920 1012927 1005227 1007244 1012572 1015081 
2090.117 1011058 998943 979660 955421 929356 904778 885377 874950 877358 
2094.457 895541 930830 981574 1043234 1109028 1171613 1224944 1265981 
2098.314 1294369 1312414 1323117 1329223 1332084 1332298 1330019 1326304 
2102.172 1322848 1322077 1325682 1333942 1345029 1355712 1362323 1362514 
2106.029 1355872 1344353 1330904 1318365 1307621 1297717 1285725 1268677 
2109.887 1245034 1215632 1184264 1156421 1137633 1131927 1140073 1159703 
2113.744 1185270 1209961 1226901 1231044 1219774 1193782 1156201 1112378 
2117.602 1068264 1029666 1000653 983046 975753 975279 975878 971412 956014 
2121.941 926017 880508 822008 755587 688255 626483 575096 535300 504759 
2126.281 478109 448856 411237 362123 301494 232196 158048 82790 8236 -65162 
2131.103 -137901 -209326 -277046 -336221 -381240 -407644 -414423 -404730 
2134.960 -385614 -364991 -349797 -342669 -343254 -348411 -355666 -364250 
2138.817 -376825 -396964 -428300 -471451 -523523 -578714 -630211 -672331 
2142.675 -702157 -719847 -728155 -731350 -734708 -743807 -764776 -802380 
2146.532 -859480 -933446 -1016340 -1093698 -1150631 -1175254 -1165391 
2149.907 -1130303 -1089637 -1066338 -1079994 -1138353 -1237085 -1361383 
2153.283 -1495473 -1629291 -1765207 -1914696 -2091295 -2297830 -2517691 
2156.658 -2709673 -2817415 -2785207 -2580265 -2210771 -1728995 -1215416 
2160.033 -751666 -392090 -154325 -21560 40143 67544 87583 115358 154305 
2164.373 202269 253831 303529 344626 369401 368474 334803 265232 164884 
2168.712 45264 -76733 -185887 -272137 -335046 -382173 -426275 -478832 
2172.570 -545463 -622361 -697751 -755167 -780539 -766203 -715776 -642117 
2176.427 -565005 -504040 -474525 -482011 -522421 -582436 -643349 -684435 
2180.285 -687950 -641896 -542949 -396343 -216722 -23825 159383 311513 415396 
2184.624 461997 450329 389593 296220 193372 104655 50878 44412 87326 170304 
2189.446 275999 383329 473738 534696 563169 563607 546365 522462 501228 
2193.786 487771 483990 489147 502422 523195 551629 587150 628629 673332 
2198.125 718965 763581 808017 854251 905361 962221 1023237 1082623 1133041 
2202.465 1167366 1182207 1178335 1160985 1136846 1111121 1085111 1056007 
2206.322 1018160 967635 904653 836114 774394 734593 729237 764864 838371 
2210.662 938383 1047140 1145863 1218265 1254671 1252330 1215734 1153511 
2214.519 1077234 998225 926806 870685 835015 821795 830443 857704 898871 
2218.859 948150 1000225 1050536 1096036 1134810 1166002 1188677 1202584 
2222.716 1207028 1202427 1190074 1173339 1156651 1145703 1145183 1157948 
2226.574 1183340 1217275 1252537 1280968 1294998 1290578 1267414 1230334 
2230.431 1186789 1145997 1115495 1100918 1104186 1124996 1160976 1209573 
2234.289 1268100 1333900 1403410 1471916 1533138 1580759 1609296 1616872 
2238.146 1605602 1582175 1555608 1535225 1527632 1535012 1554616 1580408 
2242.003 1604986 1622056 1628578 1624809 1613131 1597126 1579053 1559607 
2245.861 1537473 1510944 1478680 1441502 1402116 1365259 1336173 1319312 
2249.718 1317426 1331175 1359214 1399129 1448109 1503786 1564054 1627550 
2253.576 1692495 1756941 1817994 1872164 1915505 1944387 1955808 1948521 
2257.433 1922863 1881673 1829451 1772678 1718214 1673217 1643077 1631149 
2261.291 1637371 1658714 1689222 1722040 1750257 1769261 1777497 1776951 
2265.148 1772187 1768888 1771833 1783435 1802861 1826379 1848556 1864306 
2269.005 1870126 1865481 1852381 1835039 1818290 1806764 1803460 1809855 
2272.863 1825542 1848750 1876311 1904376 1928410 1944509 1949620 1943241 
2276.720 1927491 1907529 1890439 1883885 1893795 1923033 1970258 2030455 
2280.578 2096193 2159785 2215056 2258701 2290517 2312832 2328686 2341187 
2284.435 2351779 2360524 2366210 2367283 2362530 2352026 2336755 2318787 
2288.292 2300319 2283304 2268683 2256503 2246003 2236160 2226119 2215803 
2292.150 2205755 2196978 2190209 2185566 2182055 2177766 2170343 2157881 
2296.007 2139609 2116258 2090012 2063831 2040599 2022468 2010185 2003479 
2299.865 2001255 2002351 2005735 2010791 2016955 2023504 2029338 2033229 
2303.722 2034067 2031439 2025966 2019352 2013694 2011442 2014162 2022679 
2307.580 2036584 2054758 2075378 2096401 2115625 2131076 2141209 2145340 
2311.437 2144004 2139232 2134106 2132273 2136687 2148871 2168231 2192431 
2315.294 2218089 2242219 2262949 2280309 2295674 2311166 2328671 2349544 
2319.152 2374646 2404943 2441822 2487106 2541860 2605009 2671683 2733161 
2323.009 2777692 2793407 2771262 2708104 2607491 2479441 2338156 2198948 
2326.867 2075204 1976028 1904916 1860270 1836609 1826946 1824660 1824794 
2330.724 1824479 1822695 1819351 1814740 1809245 1803237 1797282 1792143 
2334.582 1788577 1787096 1787709 1789827 1792308 1794089 1794238 1792661 
2338.439 1789679 1786184 1782986 1780640 1779176 1778193 1776972 1774851 
2342.296 1771323 1766214 1759705 1752246 1744342 1736632 1729513 1723283 
2346.154 1717843 1712930 1708070 1702940 1697404 1691843 1686849 1683230 
2350.011 1681462 1681617 1682928 1684160 1683824 1680881 1675013 1667002 
2353.869 1658363 1650957 1646276 1644980 1646585 1649707 1652465 1653184 
2357.726 1650871 1645404 1637355 1627826 1617658 1607352 1596804 1585507 
2361.583 1572712 1558014 1541342 1523243 1504696 1487073 1471743 1459883 
2365.441 1452302 1449196 1450215 1454360 1460138 1465854 1469742 1470567 
2369.298 1467530 1460685 1450683 1438751 1426377 1415106 1406359 1401297 
2373.156 1400777 1405279 1414766 1428718 1446021 1465281 1484728 1502844 
2377.013 1518285 1530393 1538884 1544043 1546340 1546614 1545839 1545271 
2380.871 1546273 1550246 1558026 1569624 1583802 1598403 1610662 1618370 
2384.728 1620559 1618222 1614085 1611882 1614914 1624929 1641289 1661189 
2388.585 1680560 1695558 1703675 1704525 1699596 1691395 1682282 1673729 
2392.443 1666036 1658815 1651631 1644752 1639007 1635871 1636281 1640319 
2396.300 1646788 1653840 1659523 1662779 1663856 1664255 1665922 1670668 
2400.158 1679230 1691135 1704825 1718311 1729611 1737389 1740943 1740515 
2404.015 1737074 1732514 1729467 1731078 1740242 1758688 1786041 1819484 
2407.873 1853762 1882727 1900657 1904297 1893458 1871210 1842559 1813173 
2411.730 1787311 1767354 1753587 1745027 1740098 1737697 1737060 1737732 
2415.587 1738893 1739305 1737520 1732354 1723678 1712547 1701112 1691751 
2419.445 1686190 1684995 1687286 1691412 1695719 1699132 1701623 1703716 
2423.302 1706201 1709519 1713362 1717361 1721116 1724857 1729400 1735931 
2427.160 1745138 1756705 1769218 1780420 1787797 1789789 1785829 1776978 
2431.017 1765110 1752591 1741338 1732762 1727402 1725360 1726251 1729651 
2434.875 1734905 1741393 1748227 1754589 1759583 1762550 1762767 1759707 
2438.732 1752604 1741177 1725507 1706637 1686670 1668663 1655861 1651019 
2442.589 1655200 1667662 1685741 1705953 1724702 1739567 1749498 1754728 
2446.447 1755956 1753928 1748586 1739680 1726813 1710563 1692453 1675090 
2450.304 1661178 1653010 1651306 1655368 1663146 1672272 1680395 1686193 
2454.162 1689027 1689243 1687286 1683840 1679558 1675357 1672113 1670903 
2458.019 1672273 1676126 1681453 1686303 1688588 1686624 1679774 1668837 
2461.876 1655660 1642612 1631789 1624551 1621248 1621590 1624884 1630633 
2465.734 1638443 1647923 1658537 1669239 1678651 1685549 1689103 1689657 
2469.591 1688250 1686659 1686372 1688190 1691697 1695572 1698083 1697998 
2473.449 1695107 1690533 1686257 1684529 1686664 1692743 1701057 1708968 
2477.306 1713511 1712518 1705310 1693044 1678220 1664195 1653895 1649259 
2481.164 1650698 1657231 1666815 1677222 1686372 1693127 1696892 1697907 
2485.021 1696631 1693681 1689458 1684346 1678765 1673289 1668717 1665959 
2488.878 1665795 1668740 1674743 1683263 1693061 1702822 1710910 1716249 
2492.736 1718175 1716904 1713300 1708879 1705347 1704316 1706796 1713166 
2496.593 1723078 1735743 1750104 1765280 1780380 1794671 1807083 1816392 
2500.451 1821115 1819890 1812041 1798071 1779715 1759813 1741549 1727631 
2504.308 1719568 1717335 1719538 1724238 1729437 1734133 1738071 1741943 
2508.166 1746423 1752088 1758720 1765581 1771736 1776540 1779799 1782153 
2512.023 1784500 1787703 1792151 1797490 1802611 1805895 1805648 1800623 
2515.880 1790409 1775787 1758669 1741920 1728736 1722125 1723760 1733842 
2519.738 1750604 1770990 1791235 1808085 1819371 1824605 1824546 1820772 
2523.595 1814659 1806946 1797615 1786163 1772234 1756209 1739168 1722948 
2527.453 1709183 1699130 1693099 1690657 1690877 1693064 1696766 1702080 
2531.310 1709091 1717877 1727860 1738257 1747967 1756301 1762965 1768284 
2535.167 1772778 1776829 1780335 1782723 1783156 1781051 1776151 1769241 
2539.025 1761550 1754831 1750736 1750623 1755078 1764146 1777027 1792500 
2542.882 1808939 1824702 1838244 1848673 1855617 1859673 1861681 1862883 
2546.740 1864111 1865777 1867822 1869909 1871680 1873082 1874287 1875501 
2550.597 1876715 1877663 1877734 1876722 1874788 1873103 1873500 1877787 
2554.455 1886957 1900650 1916798 1932255 1943617 1948519 1946024 1937240 
2558.312 1924349 1909971 1896245 1884379 1874812 1867659 1863428 1863201 
2562.169 1868343 1880092 1898455 1921969 1947615 1971564 1990085 2000636 
2566.027 2002518 1997171 1987373 1976602 1967967 1963643 1964236 1969076 
2569.884 1976318 1983831 1989579 1992407 1992095 1989675 1986750 1985240 
2573.742 1986532 1991176 1998461 2006826 2014171 2018823 2019853 2017466 
2577.599 2012853 2007777 2003908 2002403 2003587 2007024 2011787 2016751 
2581.457 2020976 2023854 2025225 2025333 2024665 2023962 2023939 2025241 
2585.314 2028017 2032103 2036783 2041099 2044081 2045134 2044240 2042123 
2589.171 2039935 2038935 2040048 2043540 2048842 2054977 2060537 2064533 
2593.029 2066300 2065870 2063847 2060974 2057819 2054612 2050955 2046142 
2596.886 2039442 2030576 2020175 2009867 2001948 1999032 2003050 2014656 
2600.744 2032741 2054724 2076939 2095854 2108840 2114916 2114649 2109863 
2604.601 2102816 2095459 2089128 2084501 2081949 2081832 2084734 2091307 
2608.458 2101730 2115583 2131390 2147108 2160709 2170736 2176808 2179557 
2612.316 2180162 2179629 2178301 2175737 2170964 2163435 2153361 2142215 
2616.173 2132373 2126353 2125985 2131741 2142589 2156556 2171431 2185578 
2620.031 2198379 2210150 2221562 2233166 2244758 2255486 2263994 2269180 
2623.888 2270600 2268835 2265207 2261497 2259232 2259345 2261819 2265858 
2627.746 2270189 2273520 2274843 2273741 2270434 2265766 2260722 2256487 
2631.603 2253974 2253907 2256286 2260979 2267481 2275088 2283162 2291133 
2635.460 2298545 2305017 2310269 2314168 2316767 2318403 2319586 2321089 
2639.318 2323440 2326917 2331199 2335455 2338534 2339309 2337244 2332505 
2643.175 2326067 2319529 2314633 2312820 2314834 2320720 2329803 2341001 
2647.033 2353038 2364748 2375030 2383042 2388027 2389475 2387131 2381110 
2650.890 2372039 2360957 2349110 2337770 2327997 2320383 2315027 2311680 
2654.748 2309686 2308337 2306871 2304507 2300552 2294351 2285408 2273517 
2658.605 2258936 2242286 2224627 2207188 2190967 2176593 2164031 2152687 
2662.462 2141592 2129749 2116499 2101728 2085956 2070116 2055190 2041960 
2666.320 2030596 2020965 2012509 2004671 1997253 1990372 1984597 1980537 
2670.177 1978636 1978795 1980413 1982310 1983118 1981566 1976816 1968730 
2674.035 1957885 1945514 1933284 1923025 1916403 1914504 1917617 1925096 
2677.892 1935375 1946362 1955810 1961958 1963999 1962312 1958130 1953369 
2681.750 1949655 1948135 1948901 1951384 1954556 1957394 1959437 1960775 
2685.607 1961842 1963099 1964719 1966448 1967788 1968259 1967751 1966691 
2689.464 1965811 1965837 1966951 1968654 1969751 1968652 1964142 1955766 
2693.322 1944121 1930831 1917855 1907117 1899807 1896125 1895321 1896123 
2697.179 1897079 1897164 1895868 1893426 1890502 1887939 1886531 1886632 
2701.037 1888169 1890580 1892983 1894431 1894149 1891866 1887815 1882789 
2704.894 1877788 1873924 1871953 1872160 1874343 1877995 1882249 1886377 
2708.751 1889686 1891591 1891627 1889454 1884898 1878188 1870014 1861491 
2712.609 1854070 1849149 1847652 1849788 1854849 1861402 1867656 1871891 
2716.466 1872992 1870644 1865388 1858528 1851657 1846395 1843995 1845063 
2720.324 1849492 1856422 1864436 1871921 1877457 1880329 1880551 1879207 
2724.181 1877779 1877965 1880875 1886767 1894838 1903573 1911145 1916075 
2728.039 1917626 1915944 1911982 1906989 1902216 1898525 1896360 1895701 
2731.896 1896238 1897548 1899051 1900233 1900697 1900268 1899268 1898461 
2735.753 1899082 1902373 1909167 1919402 1931807 1944264 1954153 1959358 
2739.611 1958818 1952979 1943650 1933386 1924522 1918600 1915808 1915248 
2743.468 1915336 1914739 1912720 1909442 1905720 1902551 1900564 1899761 
2747.326 1899549 1898985 1897338 1894368 1890397 1886165 1882469 1879818 
2751.183 1878175 1877097 1875870 1873965 1871153 1867625 1863828 1860271 
2755.041 1857110 1854227 1851259 1847771 1843753 1839576 1836168 1834679 
2758.898 1835974 1840426 1847545 1856060 1864373 1870971 1874951 1876291 
2762.755 1875782 1874649 1874056 1874587 1876152 1877949 1878938 1878241 
2766.613 1875552 1871204 1865998 1860781 1856187 1852374 1849183 1846355 
2770.470 1843936 1842411 1842471 1844805 1849669 1856549 1864244 1871242 
2774.328 1876366 1879166 1880250 1881034 1882977 1887088 1893249 1900140 
2778.185 1905735 1907964 1905592 1898840 1889158 1878930 1870637 1866141 
2782.042 1866165 1870440 1877871 1887273 1897682 1908553 1919683 1930808 
2785.900 1941422 1950558 1957145 1960308 1959756 1956085 1950602 1945107 
2789.757 1941376 1940707 1943673 1950164 1959421 1970572 1982565 1994534 
2793.615 2005709 2015496 2023318 2028950 2032342 2033823 2034202 2034308 
2797.472 2035158 2037394 2041225 2046433 2052398 2058375 2063721 2068154 
2801.330 2071739 2074880 2078052 2081697 2085919 2090521 2094955 2098596 
2805.187 2100875 2101558 2100888 2099641 2098913 2099946 2103695 2110599 
2809.044 2120440 2132246 2144711 2156367 2166027 2173149 2177761 2180459 
2812.902 2182189 2184053 2186933 2191447 2197956 2206329 2215950 2226040 
2816.759 2235279 2242345 2246095 2245870 2241965 2235490 2228271 2222514 
2820.617 2219944 2221571 2227091 2235432 2244842 2253714 2261141 2267083 
2824.474 2272323 2277964 2285000 2293603 2303297 2312919 2321189 2327237 
2828.332 2330910 2332692 2333606 2334644 2336399 2338967 2341822 2344343 
2832.189 2346053 2346902 2347350 2348256 2350350 2353985 2358953 2364382 
2836.046 2369295 2372793 2374586 2375238 2376102 2378883 2385233 2396131 
2839.904 2411630 2430831 2452153 2473957 2494907 2514705 2533877 2553857 
2843.761 2576367 2603104 2635016 2672303 2714133 2758961 2804890 2849761 
2847.619 2891669 2929025 2960624 2985791 3004248 3016173 3022074 3022711 
2851.476 3018972 3011834 3002205 2990976 2978930 2966804 2955034 2943899 
2855.333 2933247 2922611 2911362 2898831 2884708 2869235 2853235 2837968 
2859.191 2824821 2814810 2808296 2804814 2803124 2801745 2799113 2794366 
2863.048 2787299 2778600 2769549 2761806 2757068 2756814 2762132 2773706 
2866.906 2791899 2816699 2847802 2884777 2926903 2973399 3023377 3075808 
2870.763 3129751 3184301 3238755 3292733 3346078 3399051 3451976 3505117 
2874.621 3558464 3611617 3663739 3713868 3761116 3804977 3845427 3882794 
2878.478 3917389 3949191 3977592 4001270 4018712 4028531 4030103 4023766 
2882.335 4010842 3993199 3972723 3950805 3928153 3904698 3880137 3854201 
2886.193 3827050 3799323 3771939 3745833 3721527 3699289 3678939 3660300 
2890.050 3643443 3628711 3616776 3608318 3603703 3602746 3604727 3608456 
2893.908 3612540 3615886 3617841 3618334 3617831 3617209 3617465 3619648 
2897.765 3624558 3632722 3644310 3659056 3676282 3694940 3713804 3731589 
2901.623 3747321 3760595 3771454 3780693 3789431 3798795 3809582 3822029 
2905.480 3835653 3849501 3862391 3873717 3883518 3892707 3903002 3916423 
2909.337 3934622 3958539 3988021 4022060 4059234 4098226 4138409 4179923 
2913.195 4223441 4269782 4319252 4371356 4424587 4477069 4526863 4572576 
2917.052 4613910 4651439 4686432 4720233 4753921 4787932 4822192 4856201 
2920.910 4889314 4921098 4951350 4980027 5007157 5032842 5057188 5080417 
2924.767 5102890 5125294 5148506 5173465 5201056 5231993 5266800 5305754 
2928.625 5349103 5396916 5449250 5506061 5567196 5632490 5701859 5775498 
2932.482 5854012 5938505 6030447 6131561 6243416 6367291 6503852 6653216 
2936.339 6814932 6988188 7171821 7364614 7565131 7771935 7983421 8197552 
2940.197 8412007 8623699 8828965 9023508 9202647 9361770 9496971 9605501 
2944.054 9686302 9740023 9768765 9775462 9762966 9733361 9687477 9624942 
2947.912 9544612 9445354 9326952 9190640 9039347 8877417 8709812 8541466 
2951.769 8376223 8216627 8063597 7916947 7775722 7638816 7505563 7375871 
2955.626 7250187 7129554 7015072 6907716 6808219 6716634 6632559 6554961 
2959.484 6482583 6413974 6347938 6283850 6221618 6161846 6105468 6053534 
2963.341 6006530 5964415 5926506 5891433 5857615 5823762 5788973 5752948 
2967.199 5716182 5679518 5644219 5611714 5583375 5560468 5543794 5533690 
2971.056 5529790 5531233 5536631 5544654 5554284 5565232 5577884 5593266 
2974.914 5612311 5635872 5664081 5696633 5733017 5772807 5816097 5863680 
2978.771 5916594 5975904 6042262 6115889 6196634 6284351 6379417 6482850 
2982.628 6596359 6721722 6860524 7013448 7180290 7360117 7551412 7752837 
2986.486 7963232 8181768 8407467 8639170 8874995 9112413 9348346 9579386 
2990.343 9802078 10013028 10209052 10387356 10545304 10680891 10792637 
2993.719 10879752 10942201 10980438 10995281 10987807 10959174 10910669 
2997.094 10843808 10760305 10661907 10550380 10427160 10293285 10149492 
3000.469 9996400 9834769 9666015 9491762 9314013 9134658 8955105 8776136 
3004.326 8597911 8420132 8242454 8064458 7886013 7707125 7527826 7348296 
3008.184 7168885 6990275 6813407 6639476 6469598 6304516 6144401 5988945 
3012.041 5837696 5690338 5547183 5409000 5276939 5151827 5033719 4921771 
3015.899 4814267 4709471 4606052 4503675 4403196 4306041 4213667 4126821 
3019.756 4045258 3967731 3892630 3818474 3744503 3670879 3598519 3528595 
3023.614 3462193 3399999 3342316 3289101 3240279 3195804 3155757 3120013 
3027.471 3088333 3060081 3034207 3009429 2984146 2956908 2926362 2891584 
3031.328 2852555 2810005 2765897 2722877 2683898 2651574 2627555 2611911 
3035.186 2603371 2599548 2597765 2595634 2591612 2584941 2575714 2564174 
3039.043 2550609 2535152 2517967 2499373 2480149 2461343 2444083 2429274 
3042.901 2417327 2408221 2401558 2397008 2394234 2393329 2394191 2396554 
3046.758 2399595 2402205 2403090 2401114 2396002 2387946 2377892 2366817 
3050.615 2355606 2344762 2334369 2324375 2314779 2305737 2297845 2291557 
3054.473 2287255 2285073 2284846 2286206 2288967 2292966 2298048 2304152 
3058.330 2310763 2317346 2323209 2327753 2330689 2331861 2331382 2329189 
3062.188 2325127 2318626 2309387 2297420 2283497 2268983 2255716 2245245 
3066.045 2238522 2235505 2235185 2236167 2237139 2237335 2236818 2236063 
3069.903 2235649 2235638 2235554 2234229 2230637 2223938 2214360 2202854 
3073.760 2191201 2181222 2174523 2171944 2173620 2178934 2186912 2196343 
3077.617 2206079 2215051 2222398 2227559 2230190 2230374 2228554 2225373 
3081.475 2221559 2217702 2214114 2210836 2207630 2204080 2199999 2195044 
3085.332 2189194 2182397 2174767 2166458 2157878 2149503 2142094 2136220 
3089.190 2132488 2130834 2130948 2131999 2133133 2133548 2133059 2131996 
3093.047 2131173 2131620 2134254 2139514 2147130 2156176 2165226 2172622 
3096.905 2176766 2176657 2171728 2162166 2148856 2133061 2116449 2100605 
3100.762 2087033 2076767 2070577 2068728 2071200 2077724 2087707 2100430 
3104.619 2114872 2129873 2144243 2156831 2166882 2174081 2178614 2180982 
3108.477 2181907 2181795 2180824 2178723 2175050 2169490 2162221 2154060 
3112.334 2146295 2140414 2137633 2138342 2142111 2147517 2152946 2156877 
3116.192 2158543 2158059 2156409 2154780 2154242 2155100 2156935 2158707 
3120.049 2159219 2157809 2154497 2149965 2145463 2141989 2140039 2139339 
3123.906 2139112 2138391 2136607 2133970 2131333 2130093 2131464 2136076 
3127.764 2143702 2153171 2162972 2171322 2177029 2179526 2178944 2175854 
3131.621 2171065 2165389 2159396 2153421 2147751 2142607 2138031 2134171 
3135.479 2131228 2129139 2127978 2127630 2127946 2128579 2129202 2129424 
3139.336 2129085 2128302 2127509 2127371 2128607 2131545 2135943 2140830 
3143.194 2144871 2146639 2145265 2140757 2134184 2127366 2122155 2119939 
3147.051 2121227 2125376 2131104 2136983 2141962 2145725 2148619 2151301 
3150.908 2154186 2157253 2159779 2160672 2158912 2153977 2146017 2136027 
3154.766 2125376 2115551 2107794 2102807 2100781 2101346 2104004 2107928 
3158.623 2112416 2116873 2120938 2124526 2127902 2131546 2136137 2142049 
3162.481 2149464 2157935 2166697 2174567 2180394 2183124 2182199 2177384 
3166.338 2168859 2157199 2143233 2128050 2113076 2099880 2090082 2084973 
3170.196 2085248 2090652 2099910 2110920 2121124 2128033 2129829 2125733 
3174.053 2116134 2102551 2087202 2072661 2061259 2054778 2054224 2059697 
3177.910 2070409 2084802 2100923 2116483 2129439 2138173 2141847 2140502 
3181.768 2135173 2127445 2119329 2112615 2108607 2107770 2109792 2113648 
3185.625 2118212 2122273 2125221 2126894 2127634 2128117 2129072 2131099 
3189.483 2134630 2139675 2146011 2153046 2159922 2165523 2168879 2169282 
3193.340 2166794 2162285 2157280 2153692 2153049 2155880 2161583 2168364 
3197.198 2174071 2176927 2176147 2172557 2168083 2164931 2164784 2168094 
3201.055 2173968 2180555 2186014 2189350 2190715 2191357 2192927 2196590 
3204.912 2202594 2209972 2217157 2222509 2224927 2224182 2220812 2215595 
3208.770 2209447 2202974 2196790 2191729 2188956 2189868 2195462 2205857 
3212.627 2219976 2235431 2249356 2259185 2263561 2262655 2258068 2251877 
3216.485 2245999 2241310 2237735 2234593 2231201 2227385 2223622 2220681 
3220.342 2219139 2218788 2218806 2218129 2215901 2212133 2207831 2204439 
3224.199 2203054 2203764 2205309 2205487 2201929 2193310 2179922 2163826 
3228.057 2148499 2137535 2133737 2138141 2149989 2166809 2185365 2202123 
3231.914 2214341 2220209 2219235 2212078 2200545 2187115 2174487 2165036 
3235.772 2160449 2161108 2166374 2174670 2184091 2192927 2200163 2205396 
3239.629 2208908 2211276 2213056 2214793 2216977 2219991 2224316 2230126 
3243.487 2237358 2245368 2252953 2258674 2261283 2260023 2255123 2247588 
3247.344 2238893 2230435 2223266 2217757 2213942 2211601 2210694 2211404 
3251.201 2213954 2218441 2224604 2231677 2238578 2244331 2248191 2249828 
3255.059 2249416 2247262 2243605 2238741 2232900 2226488 2220129 2214679 
3258.916 2210926 2209356 2209847 2211743 2214101 2215932 2216709 2216236 
3262.774 2214696 2212322 2209167 2205067 2199966 2194170 2188659 2184972 
3266.631 2184910 2189695 2199672 2213831 2230108 2245973 2259214 2268464 
3270.489 2273444 2274617 2272793 2268524 2262061 2253515 2243269 2232382 
3274.346 2222794 2216619 2215765 2220931 2231336 2244600 2257606 2267283 
3278.203 2271645 2270345 2264641 2256904 2249882 2245686 2245342 2248721 
3282.061 2254652 2261469 2267559 2271717 2273344 2272483 2269709 2265730 
3285.918 2261383 2257268 2253871 2251468 2250172 2250026 2251109 2253387 
3289.776 2256740 2260693 2264602 2267437 2268224 2266096 2260786 2252616 
3293.633 2242714 2232522 2223680 2217629 2215259 2216925 2222474 2231387 
3297.490 2243021 2256536 2271054 2285501 2298720 2309544 2317105 2320944 
3301.348 2321361 2319210 2316012 2313304 2312340 2313734 2317243 2321787 
3305.205 2325799 2327674 2326021 2320281 2310742 2298451 2285088 2272379 
3309.063 2261829 2254283 2249855 2248055 2248182 2249390 2251322 2253846 
3312.920 2257129 2261293 2266151 2271088 2275134 2277216 2276688 2273381 
3316.778 2267962 2261503 2255412 2250759 2248238 2247928 2249584 2252693 
3320.635 2256886 2261852 2267446 2273400 2279355 2284685 2288865 2291469 
3324.492 2292349 2291708 2289902 2287033 2283009 2277315 2269414 2259024 
3328.350 2246684 2233702 2222129 2214161 2211535 2214769 2223215 2234915 
3332.207 2247572 2258955 2267830 2274070 2278540 2282663 2287685 2294214 
3336.065 2302137 2310725 2319080 2326449 2332674 2338002 2342960 2347830 
3339.922 2352488 2356213 2357903 2356466 2351089 2341739 2329178 2314837 
3343.780 2300673 2288589 2280206 2276425 2277305 2281991 2288921 2296123 
3347.637 2301693 2304267 2303280 2299193 2293233 2286990 2281726 2278130 
3351.494 2275897 2273957 2270989 2266171 2259512 2252253 2246448 2244220 
3355.352 2247071 2255016 2266408 2278222 2286876 2289148 2283340 2269517 
3359.209 2249767 2227506 2206644 2190684 2182000 2181363 2188245 2200977 
3363.067 2217424 2235574 2253846 2271117 2286877 2300649 2312127 2320900 
3366.924 2326457 2328468 2326987 2322366 2315588 2307629 2299532 2291899 
3370.781 2284955 2278350 2271823 2265136 2258571 2252618 2248013 2245383 
3374.639 2244887 2246207 2248822 2252051 2255701 2259739 2264482 2270056 
3378.496 2276098 2281631 2285141 2285091 2280583 2271705 2259695 2246523 
3382.354 2234430 2225133 2219441 2217208 2217683 2219809 2222790 2226227 
3386.211 2230075 2234232 2238732 2243312 2247781 2252182 2256926 2262527 
3390.069 2269385 2277180 2284886 2290655 2292385 2288589 2278971 2264634 
3393.926 2248114 2232345 2219941 2212320 2209516 2210115 2212188 2213999 
3397.783 2214519 2213850 2213101 2213621 2216714 2223078 2232578 2244381 
3401.641 2257241 2269831 2281028 2290100 2296849 2301161 2303377 2303532 
3405.498 2301669 2297617 2291145 2282172 2270951 2258316 2245565 2234210 
3409.356 2225765 2221183 2220855 2224323 2230730 2238917 2247968 2257080 
3413.213 2265677 2273187 2278826 2281687 2280941 2276275 2268299 2258505 
3417.071 2249259 2242841 2240996 2244233 2251668 2261199 2270400 2277037 
3420.928 2279982 2279164 2275617 2270803 2266160 2262598 2260498 2259538 
3424.785 2259269 2259206 2259132 2259036 2259296 2260317 2262607 2266534 
3428.643 2272194 2279435 2287694 2296025 2303354 2308515 2310733 2309591 
3432.500 2305388 2298793 2290914 2282940 2275958 2270720 2267722 2267081 
3436.358 2268625 2271556 2274846 2277085 2276965 2273386 2266150 2255985 
3440.215 2244545 2234063 2226681 2223879 2226043 2232375 2241245 2250488 
3444.073 2258310 2263411 2265338 2264079 2260189 2254187 2246770 2238678 
3447.930 2230840 2224356 2220457 2220142 2223955 2231715 2242634 2255402 
3451.787 2268720 2281510 2293409 2304569 2315534 2326690 2338187 2349443 
3455.645 2359482 2367105 2371426 2372199 2370132 2366704 2363821 2363312 
3459.502 2366401 2373194 2382855 2393602 2403398 2410399 2413462 2412516 
3463.360 2408538 2403043 2398082 2395523 2396825 2402689 2413024 2426794 
3467.217 2442297 2457233 2469325 2476596 2478144 2474410 2467332 2459704 
3471.074 2454774 2454916 2461349 2473421 2489310 2506598 2523459 2539144 
3474.932 2554332 2570439 2588859 2609795 2631876 2652219 2667528 2675229 
3478.789 2674485 2666760 2655478 2644863 2638739 2639363 2646995 2660101 
3482.647 2676523 2694020 2711571 2729000 2747023 2766382 2787289 2809052 
3486.504 2830353 2849721 2866246 2879786 2891316 2902438 2914812 2929666 
3490.362 2947345 2967282 2988218 3008561 3026893 3042187 3054097 3062869 
3494.219 3069340 3074773 3080645 3088457 3099416 3114115 3132452 3153409 
3498.076 3175239 3195941 3213574 3226901 3235685 3240716 3243709 3246550 
3501.934 3251003 3257948 3267265 3277890 3288164 3296257 3300674 3300463 
3505.791 3295410 3285903 3272834 3257375 3241096 3225620 3212635 3203601 
3509.649 3199339 3199956 3204553 3211183 3217648 3221572 3221290 3216049 
3513.506 3206243 3192892 3177623 3161806 3146533 3132446 3119723 3108235 
3517.364 3097565 3087072 3075945 3063188 3047846 3029492 3008316 2985496 
3521.221 2963006 2943070 2927700 2917822 2913248 2912350 2912796 2911838 
3525.078 2907154 2897111 2881162 2859544 2833554 2805121 2776828 2751462 
3528.936 2731698 2719215 2714385 2715601 2719818 2722821 2720918 2711843 
3532.793 2695654 2674841 2653596 2636303 2626238 2624392 2629374 2637765 
3536.651 2645540 2649000 2646070 2636366 2621138 2602675 2583685 2566516 
3540.508 2553101 2544360 2540746 2541593 2545710 2551319 2556680 2560299 
3544.365 2561769 2561413 2560436 2560104 2561168 2563369 2565509 2565691 
3548.223 2562466 2555235 2544739 2532818 2521707 2513237 2508149 2506062 
3552.080 2505816 2506132 2506508 2506980 2508397 2511419 2516249 2521919 
3555.938 2526967 2529525 2528479 2523753 2516428 2508321 2501350 2496524 
3559.795 2494033 2492945 2491952 2489795 2485863 2480299 2473774 2467199 
3563.653 2461439 2457081 2454581 2454205 2456350 2461411 2469597 2480390 
3567.510 2492892 2505387 2515987 2522937 2525261 2522921 2517010 2509210 
3571.367 2501420 2495167 2491161 2489092 2487888 2485853 2481532 2473719 
3575.225 2462295 2447992 2432458 2417789 2406174 2399288 2398118 2402619 
3579.082 2411927 2424286 2437817 2450485 2460711 2467420 2470501 2470388 
3582.940 2468248 2465419 2463170 2462005 2461708 2460893 2457591 2449617 
3586.797 2435642 2415495 2390832 2364934 2341943 2325660 2318850 2321963 
3590.655 2333408 2349640 2366313 2379355 2385971 2385252 2378306 2367478 
3594.512 2355838 2346131 2340121 2338161 2339236 2341413 2342368 2340056 
3598.369 2333363 2322481 2308922 2295130 2284205 2278773 2280810 2290572 
3602.227 2306999 2327502 2348838 2367697 2381447 2388617 2389021 2383555 
3606.084 2374036 2362332 2350309 2339316 2330310 2323790 2320120 2319325 
3609.942 2321565 2326404 2333162 2340445 2346636 2349865 2348781 2342752 
3613.799 2332394 2319312 2305778 2294041 2285813 2281584 2280952 2282667 
3617.656 2285707 2289612 2295039 2303484 2316764 2336001 2361066 2390149 
3621.514 2420146 2447293 2468172 2480658 2484440 2480660 2471756 2460483 
3625.371 2449512 2440968 2436180 2436089 2441234 2451837 2467646 2487673 
3629.229 2510140 2532396 2551506 2564707 2570305 2568115 2559809 2548553 
3633.086 2538653 2534304 2538910 2553859 2578544 2610061 2644177 2676152 
3636.944 2702185 2719793 2728859 2730963 2728884 2725614 2723546 2723710 
3640.801 2726157 2730066 2734920 2740574 2748010 2758765 2774241 2795141 
3644.658 2820721 2848807 2876414 2900427 2918679 2930610 2937510 2941974 
3648.516 2947239 2955795 2968875 2985495 3003144 3018039 3026539 3025915 
3652.373 3015337 2996038 2971248 2945184 2922387 2906468 2899661 2902214 
3656.231 2912738 2928462 2946189 2962689 2975268 2982132 2982352 2976123 
3660.088 2964605 2949847 2934766 2922227 2914703 2913468 2918079 2926190 
3663.946 2934377 2938548 2935520 2923698 2903536 2877471 2849178 2822428 
3667.803 2800635 2785753 2778672 2778765 2784785 2794593 2805777 2815529 
3671.660 2821248 2820702 2812602 2796894 2775240 2750289 2725384 2703436 
3675.518 2686155 2673763 2664886 2657308 2648848 2637785 2623685 2606795 
3679.375 2588142 2568793 2549826 2532007 2515996 2502249 2491151 2482629 
3683.233 2476261 2470934 2465282 2458079 2448966 2438661 2429271 2423314 
3687.090 2423382 2430497 2443891 2460628 2476477 2486819 2488262 2479311 
3690.948 2461181 2436901 2410781 2386894 2368169 2355563 2348171 2343459 
3694.805 2338412 2330046 2316647 2297855 2274823 2250049 2226640 2207848 
3698.662 2196433 2194222 2201654 2217737 2240080 2264870 2287840 2304687 
3702.520 2312291 2309195 2296339 2276672 2254613 2234754 2220817 2214458 
3706.377 2215219 2220687 2227776 2233696 2237014 2238027 2238318 2239905 
3710.235 2244310 2251596 2260517 2268717 2273814 2274084 2269202 2259989 
3714.092 2248353 2236278 2225423 2216701 2210398 2205904 2202670 2199659 
3717.949 2196211 2191813 2186364 2180290 2174676 2170873 2170592 2174872 
3721.807 2184003 2196961 2211738 2225618 2236114 2241520 2241497 2236832 
3725.664 2229412 2221302 2214330 2209797 2208455 2210419 2215751 2224066 
3729.522 2234815 2246757 2258302 2267180 2271334 2269208 2260460 2245966 
3733.379 2228034 2209723 2194206 2184167 2181326 2186136 2197686 2213920 
3737.237 2232169 2249432 2263336 2272333 2276571 2277354 2277296 2279123 
3741.094 2285199 2296142 2311038 2327209 2341272 2350029 2351779 2346619 
3744.951 2336600 2324577 2313571 2305270 2300014 2296759 2293856 2289705 
3748.809 2283726 2276336 2269020 2263528 2261387 2263291 2269002 2277286 
3752.666 2286732 2295891 2303880 2310446 2315890 2320605 2325042 2329077 
3756.524 2332230 2333501 2332146 2327659 2320417 2311443 2302277 2294297 
3760.381 2288338 2283918 2279889 2274380 2266038 2254738 2242082 2231118 
3764.239 2225804 2229338 2243333 2266692 2295794 2325402 2349932 2365150 
3768.096 2369392 2363767 2351819 2338488 2328651 2325591 2330501 2342080 
3771.953 2357225 2372032 2383027 2388025 2386846 2381429 2375185 2371719 
3775.811 2374193 2383813 2399519 2418100 2435075 2445677 2446383 2435639 
3779.668 2414509 2386096 2355088 2326098 2303128 2288631 2283306 2286228 
3783.526 2295328 2307826 2320823 2331562 2337990 2338873 2334209 2324923 
3787.383 2313015 2300748 2290630 2284378 2282785 2285405 2290840 2296990 
3791.240 2301894 2303880 2302275 2297280 2289989 2281882 2274614 2269282 
3795.098 2266536 2266250 2267571 2269351 2270328 2269583 2266796 2262006 
3798.955 2256015 2249717 2244259 2240447 2239110 2240658 2245373 2253128 
3802.813 2263671 2276171 2289582 2302525 2313657 2321877 2326634 2328042 
3806.670 2326955 2324679 2322568 2321647 2322555 2325254 2329428 2334229 
3810.528 2338980 2342631 2344452 2343634 2339908 2333182 2324111 2313833 
3814.385 2303823 2295476 2289896 2287263 2287231 2288764 2290925 2292946 
3818.242 2294813 2296732 2299152 2302163 2305520 2308417 2310018 2309783 
3822.100 2307943 2305383 2303606 2303986 2307360 2313497 2321268 2328437 
3825.957 2332793 2332122 2325267 2312354 2294822 2275295 2257359 2244565 
3829.815 2240063 2245465 2260478 2282509 2307329 2329764 2345099 2350276 
3833.672 2344826 2330976 2313090 2296272 2285288 2283024 2290218 2305122 
3837.530 2324350 2343560 2358648 2366208 2364221 2351924 2330090 2300794 
3841.387 2267240 2233284 2203054 2179762 2165484 2160389 2163150 2171241 
3845.244 2182033 2193486 2204827 2216093 2227971 2240717 2253700 2265279 
3849.102 2273267 2275595 2271522 2261694 2248489 2234971 2224244 2218108 
3852.959 2217053 2219853 2224685 2229648 2233784 2237054 2240299 2244425 
3856.817 2250171 2257265 2264919 2271732 2276565 2278664 2278184 2275824 
3860.674 2272828 2270518 2270075 2272473 2278218 2287403 2299601 2313814 
3864.531 2328565 2341867 2352081 2357947 2359319 2356976 2352592 2348103 
3868.389 2344964 2343775 2343963 2344060 2342467 2337817 2329889 2319397 
3872.246 2308018 2297535 2289638 2285370 2285082 2288568 2295425 2305057 
3876.104 2316879 2330020 2343335 2355273 2364139 2368460 2367451 2361254 
3879.961 2351197 2339104 2327283 2317455 2310663 2306920 2305407 2304780 
3883.819 2303736 2301230 2296949 2291219 2285096 2279963 2277322 2278101 
3887.676 2282809 2290810 2300888 2311127 2319749 2325420 2327668 2326977 
3891.533 2324559 2321775 2319605 2318257 2317289 2315640 2312369 2306912 
3895.391 2299440 2290605 2281520 2273153 2266328 2261464 2258943 2259026 
3899.248 2262003 2268031 2277191 2288908 2302292 2316034 2328851 2339691 
3903.106 2347966 2353396 2355930 2355578 2352445 2346779 2339432 2331848 
3906.963 2325849 2323328 2325268 2331279 2339471 2346720 2349767 2346221 
3910.821 2335778 2320169 2302772 2287566 2277770 2274805 2278160 2285657 
3914.678 2294536 2302457 2308225 2311889 2314581 2317734 2322598 2329569 
3918.535 2338582 2348914 2359605 2369627 2378111 2384055 2386878 2386131 
3922.393 2382180 2375699 2367990 2360293 2353556 2347702 2341859 2334433 
3926.250 2324156 2310621 2294987 2280075 2269751 2267668 2276310 2295722 
3930.108 2323483 2354899 2384374 2406674 2418504 2418933 2409938 2395246 
3933.965 2379679 2367453 2361332 2362164 2368879 2379101 2389986 2398971 
3937.823 2404438 2405685 2403042 2397287 2389506 2380691 2371702 2363148 
3941.680 2355506 2348988 2343461 2338358 2333001 2326597 2318946 2310486 
3945.537 2302646 2297416 2296755 2301820 2312548 2327109 2342656 2355769 
3949.395 2363897 2365645 2361687 2354079 2345807 2339801 2338322 2342311 
3953.252 2351678 2365352 2381886 2399581 2416871 2432185 2443982 2451127 
3957.110 2452955 2449410 2441382 2430386 2418469 2407429 2398662 2392620 
3960.967 2389093 2387001 2385149 2382284 2377635 2370829 2362262 2352723 
3964.824 2343368 2335476 2329900 2327053 2326563 2327339 2328008 2327372 
3968.682 2325056 2321713 2319036 2319250 2324239 2334736 2349905 2367334 
3972.539 2383995 2396883 2404263 2406263 2404579 2401920 2400982 2403438 
3976.397 2409460 2417675 2426067 2432322 2435130 2434262 2430773 2426494 
3980.254 2423498 2423551 2427564 2435376 2445988 2457593 2468065 2475231 
3984.112 2477405 2473715 2464358 2450553 2434562 2418850 2405882 2397278 
3987.969 2393495 2393865 2396808 2400260 2402574 2402864 2401198 2398430 
3991.826 2396052 2395228 2396711 2400327 2405313 2410541 2415221 2419042 
3995.684 2422663 2427239 2434044 2443887 2456647 2471239 2485661 2497802 
3999.541 2506035 2509671 2509423 
##END=
