##TITLE=Tecor_ABS_White_Filament_r4_ATR-Corrected
##JCAMP-DX=5.01  $$ Nicolet v. 1
##DATATYPE=INFRARED SPECTRUM
##ORIGIN=Curtin University
##OWNER=Nicolet
##LONGDATE=2024/07/19
##TIME=16:30:04
##SPECTROMETER/DATA SYSTEM=Nicolet iS50
##DATA PROCESSING=
Ratio against background
%Transmittance->Absorbance
ATR Correction
Truncated
ElementMultiply or ElementDivide
##COMMENTS=
Number of sample scans: 32
Collection length: 47.28 sec
Sample gain: 1.0
Background collected on: Fri Jul 19 16:28:50 2024 (GMT+08:00);
Number of background scans: 32
Background gain: 1.0
Sample spacing:  1.000
Number of scan points: 16672
Resolution points: 8192
Number of FFT points: 65536
Apodization: N-B strong;
Phase correction: Mertz;
Laser frequency: 15798.3 cm-1
Number of rejected sample scans: 0
Number of rejected background scans: 0
Bench serial number: AUP1200105;
##RESOLUTION=4.000
##XUNITS=1/CM
##YUNITS=ABSORBANCE
##FIRSTX=400.163452
##LASTX=4000.187744
##FIRSTY=0.011215
##MAXX=4000.187744
##MINX=400.163452
##MAXY=0.432368
##MINY=-0.012479
##XFACTOR=1.000000
##YFACTOR=1.000000E-009
##NPOINTS=7468
##DELTAX=0.482125
##ZPD=8192
##XYDATA=(X++(Y..Y))
400.163 11214826 11487375 11469299 11259879 11020431 10916429 11061385 
403.538 11477276 12086733 12739809 13262049 13511029 13417580 12999831 
406.913 12345661 11575253 10799362 10090313 9474457 8945888 8490815 8112215 
410.770 7838638 7717959 7796408 8096666 8601142 9251424 9961385 10640083 
414.627 11214869 11646975 11933474 12100427 12187643 12235129 12272869 
418.002 12316685 12368246 12417316 12445364 12428968 12342980 12166721 
421.377 11890906 11524914 11099940 10668460 10293685 10036324 9938035 
424.751 10010077 10229649 10545719 10892568 11207309 11444959 11588018 
428.126 11647201 11654874 11652669 11678227 11753162 11876666 12024070 
431.501 12154005 12217794 12172921 11997162 11695803 11304027 10880654 
434.876 10494956 10209262 10063191 10063163 10182342 10369859 10566438 
438.251 10723443 10815795 10849047 10854217 10875397 10953208 11108835 
441.625 11335343 11597061 11838807 12001106 12036378 11922820 11670031 
445.000 11316786 10920508 10543212 10236797 10032097 9934611 9926513 9974548 
448.857 10041011 10094297 10115457 10100436 10057470 10001524 9948897 
452.232 9913680 9906123 9932419 9995768 10095922 10229441 10388175 10560883 
456.089 10733444 10892988 11030111 11140989 11227040 11292762 11342111 
459.464 11376589 11394965 11395604 11380007 11354382 11330069 11320258 
462.839 11334967 11376956 11440237 11512006 11576630 11621326 11638814 
466.213 11627924 11590626 11529359 11445282 11339600 11217138 11089958 
469.588 10978498 10908392 10902669 10974300 11119134 11316314 11533748 
472.963 11738553 11907570 12034240 12128445 12210025 12299145 12407264 
476.338 12532492 12660136 12768351 12834981 12842877 12783292 12654965 
479.713 12463109 12217954 11934826 11635614 11348352 11105015 10936250 
483.088 10864384 10896508 11021734 11212365 11430654 11637878 11803166 
486.462 11909358 11954145 11947714 11907076 11850708 11794278 11748584 
489.837 11719214 11707559 11711735 11727867 11750980 11776047 11798565 
493.212 11815136 11823367 11822250 11810215 11786648 11751912 11709099 
496.587 11665344 11631787 11621757 11647247 11714242 11820043 11952076 
499.962 12091361 12217865 12317478 12386093 12431553 12470143 12521139 
503.336 12600057 12713904 12859959 13028574 13207139 13385497 13558532 
506.711 13727164 13896453 14073323 14263396 14469917 14693062 14930474 
510.086 15177240 15426179 15668379 15893852 16094090 16264858 16409164 
513.461 16539315 16675483 16842672 17064324 17357340 17727618 18169794 
516.836 18669826 19210358 19776444 20359152 20956940 21573478 22213846 
520.211 22881276 23574416 24288146 25014842 25747432 26480836 27211956 
523.585 27938934 28659228 29368900 30063246 30737426 31389638 32021246 
526.960 32636500 33240524 33837172 34427576 35010840 35586100 36155312 
530.335 36724288 37301200 37893788 38504088 39125996 39745644 40345512 
533.710 40911704 41440300 41940180 42430624 42934248 43467516 44033952 
537.085 44621784 45208560 45769604 46287676 46758216 47189336 47595020 
540.459 47986208 48362752 48711664 49010308 49235968 49375068 49429532 
543.834 49417052 49364848 49300380 49242516 49195504 49150360 49088464 
547.209 48990048 48839624 48630232 48363852 48049696 47701460 47334360 
550.584 46963552 46602464 46261420 45946544 45658496 45392508 45139512 
553.959 44888340 44628508 44352584 44056500 43738352 43396872 43030648 
557.333 42638188 42219812 41780176 41329836 40883904 40459172 40069112 
560.708 39719468 39406344 39117412 38836532 38549176 38246568 37927508 
564.083 37596832 37262128 36930084 36604420 36286304 35976168 35675124 
567.458 35386468 35113324 34856764 34612044 34368048 34108396 33815016 
570.833 33473286 33076026 32624666 32128866 31603128 31062820 30521234 
574.208 29988352 29470566 28971936 28494826 28040452 27607624 27193258 
577.582 26792272 26399918 26013474 25635266 25272504 24935850 24635622 
580.957 24376804 24155206 23956380 23758054 23536258 23272312 22959858 
584.332 22608026 22240104 21887212 21580134 21339742 21171742 21064406 
587.707 20993472 20928906 20843870 20721556 20558714 20363526 20151378 
591.082 19938418 19736900 19552308 19384714 19231434 19089872 18959100 
594.456 18839756 18731546 18631548 18532498 18424402 18297362 18145414 
597.831 17968996 17775940 17579426 17394102 17232490 17101596 17002748 
601.206 16932380 16884552 16852922 16831874 16816656 16802392 16783718 
604.581 16755410 16713643 16657652 16591601 16523842 16465502 16427699 
607.956 16417993 16438654 16486272 16553057 16629597 16707053 16779322 
611.331 16843196 16897456 16941822 16975764 16998406 17009538 17010732 
614.705 17007218 17008088 17025634 17073544 17163916 17304360 17495730 
618.080 17730574 17993292 18261436 18507746 18703822 18823710 18847536 
621.455 18764874 18576622 18295998 17946018 17556682 17159730 16783916 
624.830 16450685 16172333 15951704 15784752 15663283 15578003 15520283 
628.205 15482697 15457610 15436810 15410408 15368558 15302839 15209347 
631.579 15090087 14952929 14809648 14672684 14551373 14450271 14368268 
634.954 14300557 14240569 14183094 14124909 14065282 14004791 13944676 
638.329 13885674 13829115 13777373 13734817 13707768 13703707 13729106 
641.704 13787994 13880301 14001396 14142293 14291123 14434316 14558485 
645.079 14652562 14710100 14731871 14727131 14713511 14714008 14751726 
648.454 14843552 14994306 15194936 15423765 15653245 15858579 16025225 
651.828 16153475 16257588 16359579 16481593 16637644 16830182 17050456 
655.203 17283400 17514138 17733976 17942614 18148006 18362684 18599374 
658.578 18867732 19173114 19516108 19893622 20300106 20727722 21166780 
661.953 21607018 22038594 22455062 22854848 23242494 23627304 24020858 
665.328 24433176 24870046 25332542 25818390 26324930 26852156 27403306 
668.702 27983646 28596412 29239264 29901706 30566582 31213646 31826596 
672.077 32398496 32934822 33452808 33976292 34528808 35126724 35775480 
675.452 36469336 37194784 37936800 38684024 39433444 40190604 40968208 
678.827 41781908 42646540 43572992 44567356 45632728 46771792 47990640 
682.202 49301264 50722352 52278796 53998844 55911424 58043504 60419704 
685.577 63063600 66001864 69268840 72912752 77000536 81622528 86895640 
688.951 92966688 100015296 108255520 117936656 129337888 142758256 158495328 
692.326 176812880 197895904 221790688 248334512 277075360 307197248 
695.219 337473344 366288864 391780928 412117696 425874880 432367488 
698.112 431779392 425025728 413434240 398412512 381211456 362823488 
701.004 343971232 325148192 306671616 288731264 271428544 254804768 
703.897 238862848 223584272 208941248 194905840 181454800 168571792 
706.790 156246080 144470848 133241728 122556440 112415968 102827560 93805376 
710.164 85371088 77550632 70368824 63842616 57975592 52755448 48153796 
713.539 44129876 40635576 37620836 35037944 32843340 30998040 29465754 
716.914 28211538 27199630 26393196 25755362 25250340 24846538 24518520 
720.289 24248648 24027054 23849900 23716650 23626682 23576878 23560320 
723.664 23567810 23590104 23621930 23664040 23725058 23819274 23963918 
727.039 24174600 24461660 24828248 25270748 25781232 26350992 26974402 
730.413 27651078 28386958 29193270 30084068 31073628 32173664 33391238 
733.788 34727836 36179064 37734864 39380720 41097908 42864368 44655084 
737.163 46442892 48199764 49900176 51523840 53060252 54511608 55894772 
740.538 57239728 58586232 59978620 61459424 63063688 64815992 66729144 
743.913 68805248 71037616 73414080 75919240 78537088 81252648 84053688 
747.287 86931832 89883552 92909392 96013248 99199776 102472744 105832912 
750.662 109277832 112801376 116394568 120045280 123736760 127445712 
753.555 131140072 134776512 138300928 141650288 144757136 147554192 
756.448 149979920 151982176 153520128 154565104 155099456 155116128 
759.340 154617248 153613728 152125216 150179072 147810496 145060320 
762.233 141974720 138603072 134997600 131211888 127300056 123314464 
765.126 119303248 115306952 111355936 107469896 103658768 99926520 96275408 
768.501 92710096 89239536 85876528 82634432 79523744 76549200 73708024 
771.875 70991304 68386536 65880796 63463172 61125592 58862932 56671560 
775.250 54548304 52489624 50491400 48549832 46661704 44825556 43041716 
778.625 41313056 39644448 38042760 36515696 35071044 33714960 32450988 
782.000 31279180 30196752 29197906 28275814 27422744 26631192 25893134 
785.375 25199972 24543112 23914444 23307660 22719562 22150776 21605520 
788.750 21089098 20606196 20158590 19744266 19358496 18995750 18652034 
792.124 18326718 18022328 17742684 17490874 17266546 17064556 16875910 
795.499 16689129 16494282 16284924 16060337 15825607 15590068 15365162 
798.874 15161091 14984411 14836757 14713741 14607245 14507129 14404921 
802.249 14296551 14183342 14072552 13974104 13897266 13847119 13822610 
805.624 13816531 13818271 13817138 13806229 13784002 13753859 13721867 
808.998 13693091 13669434 13648307 13624215 13590288 13541536 13475762 
812.373 13394171 13299997 13197339 13089879 12980896 12873325 12770222 
815.748 12674528 12588182 12510701 12439020 12367859 12291597 12207199 
819.123 12116483 12027278 11951392 11902358 11890449 11919666 11985638 
822.498 12076496 12175537 12265366 12332196 12368225 12373506 12354469 
825.872 12322203 12288929 12265228 12257375 12265881 12286258 12310516 
829.247 12329844 12337981 12333678 12321900 12313293 12322147 12363185 
832.622 12449520 12589210 12784062 13030593 13319698 13638790 13973447 
835.997 14310988 14642487 14965112 15283104 15606150 15945729 16309833 
839.372 16698733 17101650 17499072 17867044 18184704 18441248 18638684 
842.747 18790714 18915834 19029462 19136840 19230698 19294294 19308312 
846.121 19259960 19148072 18984242 18788374 18581218 18377336 18180966 
849.496 17986040 17781424 17555854 17302510 17021016 16716212 16395021 
852.871 16064694 15731404 15401374 15082031 14782351 14511549 14276855 
856.246 14080437 13918702 13783881 13666850 13561333 13465610 13382133 
859.621 13314780 13264455 13227040 13193192 13151815 13094480 13019565 
862.995 12932885 12845709 12769762 12712710 12675628 12653274 12638157 
866.370 12624621 12612016 12604911 12610342 12633563 12674811 12729298 
869.745 12788614 12844862 12894630 12939585 12984974 13036242 13094386 
873.120 13154213 13205353 13235699 13236609 13207010 13154460 13093352 
876.495 13040265 13009428 13008608 13037699 13090070 13154945 13221430 
879.870 13280804 13327886 13361510 13383641 13398225 13410305 13424872 
883.244 13446419 13478261 13522152 13578020 13644523 13719553 13801117 
886.619 13888539 13982703 14086714 14204684 14340956 14498388 14676918 
889.994 14872479 15076976 15279611 15468813 15635522 15776381 15895942 
893.369 16007204 16130462 16290214 16510757 16812700 17210068 17708892 
896.744 18308042 19001042 19778394 20630274 21547962 22526808 23566422 
900.118 24672974 25858808 27141674 28542566 30081884 31775336 33630276 
903.493 35643196 37800080 40077080 42443188 44861876 47292220 49688372 
906.868 52000004 54172708 56151072 57882524 59322660 60438552 61211508 
910.243 61635824 61716616 61465976 60900652 60040788 58909936 57536072 
913.618 55952624 54197224 52310356 50332220 48300116 46245912 44196128 
916.993 42172892 40195256 38281056 36446984 34708032 33075444 31555112 
920.367 30146686 28844298 27638828 26521484 25486032 24530784 23657786 
923.742 22871578 22174950 21566988 21041662 20588126 20192850 19843460 
927.117 19530288 19248412 18996220 18774586 18583788 18422958 18289070 
930.492 18178984 18090676 18024432 17982428 17967090 17978740 18013606 
933.867 18064154 18121098 18176024 18225848 18273124 18325990 18394624 
937.241 18487144 18607122 18752438 18917648 19097066 19288218 19492286 
940.616 19712730 19950984 20203470 20459722 20704846 20924300 21110400 
943.991 21266010 21405902 21552398 21729132 21954142 22235552 22571336 
947.366 22953272 23372788 23826014 24315980 24852120 25446188 26108580 
950.741 26845934 27661084 28555742 29533338 30601744 31773732 33065804 
954.116 34495644 36080580 37837004 39780568 41928020 44296900 46904316 
957.490 49764456 52883976 56258600 59870748 63688928 67668616 71753968 
960.865 75879520 79971552 83950240 87731216 91229936 94366776 97072184 
964.240 99291864 100990368 102151144 102774952 102875584 102476456 101606872 
967.615 100300544 98595424 96534144 94164056 91537072 88706848 85727096 
970.990 82648840 79518360 76377440 73263168 70208952 67244704 64396828 
974.364 61687688 59134340 56748496 54536404 52498976 50633636 48935184 
977.739 47396356 46008492 44761148 43641908 42636036 41727300 40898932 
981.114 40135736 39426016 38762956 38145076 37575360 37059152 36601336 
984.489 36204360 35867416 35586416 35357060 35176320 35044836 34967532 
987.864 34951968 35005580 35132336 35329444 35586220 35884344 36200352 
991.239 36508772 36785172 37008748 37163128 37236568 37220908 37111760 
994.613 36908664 36616300 36245584 35815500 35352200 34888100 34457488 
997.988 34092524 33818432 33649188 33585600 33614976 33713600 33850212 
1001.363 33991380 34105788 34168432 34163848 34086400 33939636 33734556 
1004.738 33486214 33210426 32920680 32626222 32332194 32040526 31752076 
1008.113 31470090 31201684 30958460 30754070 30602396 30513432 30490070 
1011.487 30528360 30617896 30745904 30899540 31069532 31251226 31443540 
1014.862 31647876 31866394 32100878 32353540 32627660 32928690 33263336 
1018.237 33639064 34062024 34535244 35058844 35631456 36252896 36927280 
1021.612 37664028 38477956 39385872 40402548 41536080 42785000 44135940 
1024.987 45563948 47033068 48497348 49902112 51185544 52281112 53122124 
1028.362 53647412 53808096 53573588 52936080 51911612 50538192 48871800 
1031.737 46980024 44936152 42812988 40678872 38593048 36603556 34745788 
1035.113 33042316 31504460 30134296 28927852 27877852 26975778 26212112 
1038.488 25576174 25055916 24637292 24305698 24046560 23847796 23700098 
1041.863 23596820 23532928 23503380 23502232 23522964 23559050 23606174 
1045.238 23662960 23730824 23812632 23911030 24025886 24154072 24290052 
1048.614 24427720 24562416 24692456 24819108 24945452 25074952 25209338 
1051.989 25348434 25490266 25632518 25773740 25914484 26057354 26206744 
1055.364 26367930 26545682 26744422 26967070 27215686 27490644 27791556 
1058.739 28117850 28468730 28844316 29246234 29677386 30140912 30639760 
1062.115 31174540 31743184 32341000 32960516 33593548 34231076 34863884 
1065.490 35482224 36075700 36632324 37140124 37588120 37968588 38278240 
1068.865 38518572 38694080 38809208 38865788 38860652 38785732 38630216 
1072.240 38384756 38045392 37616996 37114284 36559396 35978420 35396264 
1075.615 34831612 34293976 33783416 33291538 32805488 32312360 31802282 
1078.991 31271640 30723502 30165574 29607798 29059192 28525116 28006446 
1082.366 27500946 27004898 26516618 26038152 25575488 25137146 24731542 
1085.741 24363622 24032790 23733016 23454266 23185574 22918242 22647986 
1089.116 22375798 22107458 21851142 21615656 21408444 21233896 21092808 
1092.492 20982510 20896578 20825988 20760532 20690516 20608886 20512682 
1095.867 20403898 20288024 20172912 20065002 19968212 19881512 19799234 
1099.242 19712788 19612652 19490948 19343268 19169788 18975786 18770636 
1102.617 18567416 18380846 18225448 18112854 18049542 18034608 18059706 
1105.993 18110508 18169232 18219122 18247906 18249866 18226376 18183628 
1109.368 18129698 18071868 18014372 17958778 17904470 17850726 17798050 
1112.743 17748156 17702738 17662484 17625640 17587956 17543034 17484234 
1116.118 17406452 17306756 17184366 17040384 16876678 16695119 16497634 
1119.494 16286483 16064920 15837438 15609412 15386433 15173297 14973491 
1122.869 14788477 14618140 14461599 14316904 14182522 14056389 13937469 
1126.244 13824926 13719372 13623076 13539550 13472831 13425891 13399326 
1129.619 13390238 13392029 13396705 13396598 13387360 13369322 13347639 
1132.995 13330141 13324931 13337237 13368090 13414346 13470455 13531257 
1136.370 13594165 13660222 13733006 13817482 13916431 14029996 14154746 
1139.745 14285454 14416766 14545762 14672985 14801979 14938476 15088893 
1143.120 15258658 15452413 15673941 15927183 16217368 16550723 16934536 
1146.496 17376224 17882268 18458120 19107734 19834496 20641132 21529234 
1149.871 22498738 23545610 24660034 25825238 27016036 28199910 29338956 
1153.246 30392964 31323202 32095752 32685482 33077982 33269822 33268552 
1156.621 33090740 32758880 32299780 31741240 31111370 30437070 29742800 
1159.997 29050108 28377064 27737294 27139980 26590818 26091904 25643906 
1163.372 25246798 24900202 24603864 24356370 24155008 23995152 23870650 
1166.747 23774598 23700852 23645128 23604646 23579058 23568530 23573826 
1170.122 23595890 23635760 23694724 23774922 23878880 24008994 24166620 
1173.498 24352920 24568366 24814418 25095122 25417576 25790832 26224348 
1176.873 26723926 27288478 27908528 28565834 29235660 29890426 30503410 
1180.248 31051654 31517022 31885818 32147966 32295920 32324448 32232388 
1183.623 32023966 31709708 31307038 30838732 30329780 29804284 29282436 
1186.999 28778680 28301246 27853832 27436562 27048888 26691460 26367062 
1190.374 26080812 25839538 25650188 25517508 25442510 25421212 25444858 
1193.749 25501002 25576354 25659048 25740930 25818014 25890118 25958904 
1197.124 26026112 26092000 26154804 26211478 26258412 26292634 26312110 
1200.500 26315312 26301112 26268588 26217270 26148156 26064364 25971426 
1203.875 25876326 25785644 25703752 25630614 25562576 25492730 25413888 
1207.250 25320506 25210862 25087288 24954860 24819882 24687350 24559910 
1210.625 24438112 24320312 24204168 24087538 23968774 23846958 23721234 
1214.000 23591070 23456370 23317012 23173998 23028928 22883954 22741086 
1217.376 22601974 22467588 22337798 22212908 22092746 21978200 21870450 
1220.751 21771108 21682116 21604490 21539080 21485432 21442976 21410228 
1224.126 21386274 21370494 21363318 21366270 21381612 21411638 21457678 
1227.501 21519506 21594350 21677942 21765076 21850930 21933034 22011006 
1230.877 22086692 22163040 22242688 22326610 22414134 22502548 22589154 
1234.252 22672168 22750982 22827250 22903066 22980356 23059248 23137348 
1237.627 23209688 23269490 23309664 23324058 23309538 23266948 23201326 
1241.002 23121016 23036102 22955898 22886200 22828058 22777692 22727760 
1244.378 22670480 22600892 22518834 22429918 22343092 22268566 22213538 
1247.753 22180086 22164914 22160506 22158366 22151348 22135904 22111852 
1251.128 22081432 22047660 22012954 21978778 21945994 21915866 21890340 
1254.503 21871412 21860336 21855916 21854826 21851774 21841868 21822148 
1257.879 21792950 21758002 21722848 21692576 21670086 21655052 21644300 
1261.254 21633796 21619666 21599824 21573872 21542496 21506736 21467640 
1264.629 21426676 21387036 21352854 21330376 21325542 21341908 21378580 
1268.004 21429258 21483288 21528002 21552846 21552018 21527024 21486160 
1271.380 21442978 21412204 21406870 21435282 21499364 21595180 21714092 
1274.755 21845316 21978552 22105708 22222814 22329938 22430540 22530172 
1278.130 22634522 22747168 22869760 23000240 23135214 23269514 23398894 
1281.505 23519758 23630926 23732260 23825562 23914186 24002568 24096540 
1284.881 24202142 24325362 24470100 24637470 24825010 25026394 25233790 
1288.256 25438500 25633856 25816718 25986598 26147102 26302558 26457850 
1291.631 26616292 26779064 26945676 27114202 27281852 27446560 27606922 
1295.006 27763244 27917180 28071492 28229248 28393116 28564502 28742984 
1298.382 28927348 29116150 29308950 29506576 29711348 29925602 30149948 
1301.757 30382088 30616204 30844472 31059248 31256038 31435580 31603724 
1305.132 31769838 31943060 32129220 32328222 32533978 32737144 32928024 
1308.507 33100568 33254146 33392910 33523742 33652844 33783108 33913080 
1311.883 34037572 34150032 34245156 34320812 34378536 34422832 34459016 
1315.258 34491556 34522628 34552696 34580096 34602588 34617888 34624116 
1318.633 34620256 34605660 34580640 34546628 34506644 34465320 34427724 
1322.008 34399684 34385716 34388572 34408832 34444932 34494748 34556108 
1325.384 34627964 34710452 34804300 34909936 35026644 35151584 35280124 
1328.759 35406204 35522744 35623816 35703536 35757428 35782668 35777748 
1332.134 35742904 35681212 35598484 35502968 35405700 35317728 35248636 
1335.509 35205080 35189476 35200768 35235396 35289404 35360488 35448644 
1338.885 35555816 35683552 35832308 35999436 36179520 36365548 36551504 
1342.260 36733948 36913624 37094896 37283496 37484428 37699824 37927172 
1345.635 38160660 38392624 38614764 38821056 39007800 39173592 39318664 
1349.010 39444112 39551428 39641988 39718048 39781416 39834724 39880048 
1352.385 39918776 39951528 39978292 39999400 40015372 40027700 40038480 
1355.761 40048976 40060332 40071784 40082120 40090056 40095092 40097908 
1359.136 40099988 40102640 40106344 40110096 40111516 40108204 40098156 
1362.511 40081292 40058944 40033044 40004932 39975064 39942648 39906236 
1365.886 39865636 39821840 39776856 39732568 39688332 39640436 39581244 
1369.262 39501896 39393892 39253176 39080292 38880904 38662188 38430304 
1372.637 38186660 37927872 37645892 37331284 36976600 36578916 36140452 
1376.012 35667320 35167156 34647340 34112988 33567688 33013932 32454814 
1379.387 31894148 31337250 30788622 30251584 29727264 29214480 28709960 
1382.763 28210176 27712008 27213770 26715658 26219822 25730336 25253264 
1386.138 24795822 24365640 23969234 23610780 23290108 23002742 22740360 
1389.513 22492776 22250666 22007766 21762168 21516362 21275786 21046794 
1392.888 20833880 20638804 20460090 20294154 20136938 19985820 19840700 
1396.264 19704260 19581424 19477552 19398200 19346492 19323790 19328058 
1399.639 19354778 19396598 19444098 19487174 19516028 19522694 19503020 
1403.014 19456784 19388768 19307456 19222930 19145078 19081982 19038016 
1406.389 19014452 19010538 19024506 19055420 19103830 19171824 19262324 
1409.765 19378488 19522294 19695280 19898420 20132740 20400532 20705356 
1413.140 21050984 21439914 21872594 22344450 22845394 23360466 23869820 
1416.515 24351456 24784310 25150174 25437070 25640100 25763466 25818468 
1419.890 25823260 25799884 25772076 25762846 25793346 25881698 26043078 
1423.266 26289528 26631072 27075262 27628890 28297042 29084114 29993746 
1426.641 31027684 32186572 33468428 34870116 36387032 38014544 39748536 
1430.016 41584976 43518764 45542488 47643924 49807616 52014712 54247600 
1433.391 56491924 58739988 60990388 63246632 65513892 67796328 70096536 
1436.767 72415312 74754920 77121856 79527960 81991064 84531968 87173280 
1440.142 89936968 92844104 95916552 99176552 102647696 106352280 110307408 
1443.517 114519752 118982408 123673664 128560600 133605840 138776416 
1446.410 144054304 149442784 154970656 160686592 166644880 172880240 
1449.303 179372256 186007360 192545024 198601648 203664736 207143952 
1452.196 208457088 207134096 202910080 195781920 186011856 174083456 
1455.089 160629088 146345328 131914928 117940208 104895208 93099112 82713392 
1458.465 73761096 66162100 59772348 54420448 49934928 46161272 42968404 
1461.840 40249912 37919768 35909772 34164764 32640434 31300810 30117222 
1465.215 29066830 28130486 27291616 26535078 25846028 25210806 24618024 
1468.590 24060122 23535338 23046686 22601036 22206514 21868562 21587560 
1471.966 21358334 21171048 21015468 20883978 20774928 20691956 20642348 
1475.341 20632488 20664532 20734988 20835416 20956502 21092046 21242944 
1478.716 21418942 21637470 21919966 22288966 22764162 23362030 24096020 
1482.091 24978610 26024164 27250996 28682460 30346380 32274820 34502968 
1485.467 37070992 40027964 43438748 47393392 52014364 57458432 63906424 
1488.842 71535344 80474368 90745832 102203000 114480544 126973200 138862224 
1492.217 149195664 157017728 161523984 162207872 158957728 152076576 
1495.110 142218064 130261616 117160848 103805752 90922904 79029312 68428520 
1498.485 59241252 51451976 44955872 39601256 35219636 31647380 28735960 
1501.861 26358648 24410300 22805592 21475096 20362132 19419168 18607458 
1505.236 17895834 17262034 16692080 16178245 15717374 15306905 14942647 
1508.611 14618788 14328358 14065465 13827090 13613381 13426740 13269516 
1511.986 13141311 13038198 12952518 12874310 12794322 12705645 12605052 
1515.362 12493458 12374341 12253222 12136143 12028069 11933669 11855868 
1518.737 11795592 11752093 11722299 11701562 11684197 11664354 11638135 
1522.112 11602763 11559412 11510745 11461843 11418152 11385432 11368264 
1525.487 11368671 11386306 11417381 11456605 11497709 11535027 11565202 
1528.863 11588180 11605758 11621590 11639082 11660815 11688447 11722652 
1532.238 11765200 11818577 11886263 11971534 12075965 12198135 12333403 
1535.613 12475002 12615005 12746766 12865548 12968889 13056304 13128391 
1538.988 13187319 13236558 13280726 13326692 13381644 13452267 13542171 
1542.364 13650396 13771694 13897055 14016398 14121466 14206538 14269385 
1545.739 14310094 14328846 14325356 14297719 14245239 14168681 14072696 
1549.114 13965660 13857784 13757826 13671135 13596932 13530348 13463362 
1552.489 13389202 13304506 13210896 13113563 13019860 12935773 12864669 
1555.865 12806346 12757394 12713356 12669712 12622835 12570878 12513581 
1559.240 12452777 12391466 12334121 12285748 12250883 12231643 12227830 
1562.615 12235558 12248824 12261098 12266882 12263696 12252535 12236768 
1565.990 12220514 12207050 12197490 12192253 12191189 12196209 12212130 
1569.365 12246481 12307969 12403619 12537875 12710160 12916289 13149791 
1572.741 13404290 13675310 13961441 14264162 14587928 14939721 15329702 
1576.116 15771165 16282555 16886424 17608622 18474444 19503988 20705842 
1579.491 22071062 23567988 25141088 26712844 28190094 29474012 30472852 
1582.866 31113490 31351842 31179118 30623476 29745870 28632452 27382170 
1586.242 26094496 24858832 23746408 22806648 22067412 21537906 21213484 
1589.617 21079750 21117976 21307952 21631562 22074180 22626612 23285394 
1592.992 24054422 24944386 25973682 27167168 28555840 30174114 32056294 
1596.367 34230696 36712800 39496168 42545316 45790120 49123644 52407004 
1599.743 55478700 58170376 60324732 61811476 62542640 62479876 61635084 
1603.118 60068312 57878212 55192104 52152792 48905952 45588992 42320424 
1606.493 39194292 36277512 33610424 31210146 29076276 27196434 25551486 
1609.868 24119558 22879504 21811002 20896346 20119240 19465570 18921858 
1613.244 18475324 18112640 17819990 17581646 17381754 17205330 17040478 
1616.619 16879900 16721619 16569097 16427385 16302079 16195165 16105494 
1619.994 16028410 15958261 15889890 15820272 15747873 15672302 15591801 
1623.369 15503012 15401419 15283060 15147987 15001635 14855501 14724494 
1626.745 14623532 14563303 14547248 14570888 14624341 14695737 14776112 
1630.120 14861781 14955561 15064699 15197936 15362551 15562902 15799386 
1633.495 16069409 16368881 16692992 17035910 17390352 17746948 18093638 
1636.870 18416700 18702166 18937636 19112812 19221410 19259484 19225684 
1640.246 19120182 18944846 18703348 18401400 18047444 17652730 17230454 
1643.621 16795306 16361451 15941929 15547032 15184533 14859149 14573255 
1646.996 14327280 14119661 13947444 13806072 13689758 13592441 13508560 
1650.371 13434111 13367482 13308511 13258764 13219471 13190362 13168937 
1653.747 13150677 13129672 13100834 13061146 13010932 12953429 12894330 
1657.122 12840399 12798458 12773602 12768873 12785005 12820456 12872725 
1660.497 12938187 13013048 13094236 13179068 13266308 13355182 13445518 
1663.872 13537206 13629854 13722170 13812243 13898045 13977431 14048534 
1667.248 14109712 14159094 14194130 14211764 14208877 14183026 14134080 
1670.623 14064395 13979547 13886415 13792339 13703245 13622016 13548883 
1673.998 13481704 13417482 13353626 13289060 13223895 13159319 13096859 
1677.373 13038667 12987064 12944549 12914467 12899769 12901208 12916979 
1680.749 12941490 12966011 12980506 12976398 12948224 12896193 12824661 
1684.124 12741400 12655029 12571970 12496145 12428349 12367852 12313688 
1687.499 12265868 12225183 12192498 12168042 12150915 12139241 12131030 
1690.874 12124523 12118750 12112688 12105254 12094961 12080554 12060946 
1694.250 12037504 12014045 11995655 11987761 11992654 12008918 12030563 
1697.625 12049189 12057187 12051000 12031761 12006672 11985803 11978436 
1701.000 11990197 12022188 12070474 12129396 12193918 12261060 12329796 
1704.375 12400297 12470669 12536603 12590849 12625001 12631732 12607912 
1707.750 12555591 12482464 12400722 12323952 12265576 12235737 12240974 
1711.126 12282753 12358806 12463404 12588729 12726733 12870958 13017949 
1714.501 13168343 13325849 13496145 13685278 13896811 14130954 14384498 
1717.876 14650862 14923099 15193722 15457265 15710333 15951280 16180666 
1721.251 16401036 16617037 16835026 17062950 17307774 17574968 17866036 
1724.627 18178274 18505224 18838996 19172160 19499426 19819022 20131280 
1728.002 20437306 20736258 21024472 21295738 21542116 21755952 21932522 
1731.377 22070294 22171052 22239178 22279490 22296514 22293546 22272460 
1734.752 22234250 22179856 22109204 22022350 21918396 21795848 21652752 
1738.128 21487564 21299210 21088516 20856850 20607354 20342696 20065010 
1741.503 19776018 19476204 19166512 18847898 18523262 18196812 17874170 
1744.878 17562142 17267046 16994326 16746573 16523492 16321646 16136007 
1748.253 15961081 15793905 15633833 15484234 15350148 15236898 15146623 
1751.629 15076972 15020548 14966405 14903055 14821365 14716295 14589611 
1755.004 14446698 14296620 14148744 14011125 13889046 13784888 13697640 
1758.379 13623224 13556010 13487697 13409557 13312986 13192394 13045871 
1761.754 12877806 12697634 12518653 12355110 12219300 12119128 12056747 
1765.130 12028970 12028572 12045766 12069744 12089455 12095669 12079985 
1768.505 12036911 11964109 11863228 11739974 11602559 11460447 11322692 
1771.880 11196145 11085216 10991700 10916736 10861049 10825010 10808035 
1775.255 10807689 10818860 10833913 10844613 10844213 10830668 10806362 
1778.631 10777200 10750056 10729234 10713781 10697661 10672975 10632358 
1782.006 10574899 10505678 10436247 10379597 10345683 10337035 10348938 
1785.381 10369717 10387630 10393254 10384959 10368797 10354965 10354336 
1788.756 10374184 10416153 10476056 10547116 10622370 10698451 10775723 
1792.132 10858097 10951969 11063015 11195353 11350098 11525592 11716794 
1795.507 11915389 12111179 12292485 12450637 12580819 12686208 12776704 
1798.882 12867373 12972954 13103162 13258271 13429211 13599854 13753608 
1802.257 13879754 13976798 14053586 14122937 14197439 14282398 14372529 
1805.633 14454060 14510342 14527814 14501745 14437776 14349864 14254712 
1809.008 14166599 14092364 14031405 13976644 13917579 13844745 13750555 
1812.383 13631092 13485187 13313993 13123190 12921759 12724429 12549411 
1815.758 12415710 12338439 12324046 12366090 12447068 12541009 12621722 
1819.134 12669288 12674423 12639483 12574370 12492000 12402792 12313115 
1822.509 12224443 12137571 12053917 11978138 11917114 11876194 11855941 
1825.884 11849308 11840827 11810902 11739849 11616096 11438646 11219967 
1829.259 10983226 10756508 10565132 10423971 10334575 10283685 10248390 
1832.635 10202191 10124165 10004455 9847845 9672419 9504815 9372600 9295789 
1836.492 9281546 9321421 9393474 9466802 9509166 9494766 9409501 9253706 
1840.349 9042233 8799871 8556223 8339160 8169031 8055337 7996991 7982856 
1844.207 7997163 8023887 8050746 8071319 8084425 8093582 8102124 8114195 
1848.064 8132209 8159017 8197600 8251989 8325794 8419097 8526776 8636197 
1851.922 8728568 8784326 8786921 8731474 8625836 8492463 8363327 8272523 
1855.779 8247527 8303668 8439906 8640421 8878924 9125276 9352392 9540542 
1859.636 9681002 9776019 9835835 9876459 9914982 9968079 10049569 10169489 
1863.494 10334948 10550139 10815267 11125968 11472048 11835955 12194937 
1866.869 12524419 12802785 13018622 13172652 13279011 13359373 13434618 
1870.244 13516394 13600865 13667168 13685698 13627782 13476725 13238500 
1873.620 12941056 12630766 12359093 12172117 12098865 12147400 12305276 
1876.995 12546495 12836435 13140915 13426995 13666535 13837227 13923581 
1880.370 13920751 13834248 13682801 13492637 13293165 13108471 12951997 
1883.745 12824005 12715046 12611249 12503479 12390845 12283879 12198634 
1887.121 12152506 12155737 12208874 12302820 12421856 12548470 12667725 
1890.496 12766440 12835180 12863279 12840770 12758132 12611833 12407911 
1893.871 12164067 11906035 11663300 11458973 11301653 11183445 11081123 
1897.246 10965379 10809137 10596594 10326662 10011777 9669533 9316816 
1900.622 8965472 8620083 8283766 7961349 7666763 7419592 7240445 7143134 
1904.479 7126677 7173046 7250265 7321794 7359779 7352206 7305418 7238521 
1908.336 7172807 7119631 7075619 7021247 6934747 6802765 6632182 6453632 
1912.194 6314992 6266395 6342064 6546665 6853211 7207244 7543741 7803720 
1916.051 7949432 7968935 7875269 7693136 7452603 7176883 6879513 6567676 
1919.909 6243367 5911524 5577533 5250875 4939234 4647280 4375966 4120358 
1923.766 3877251 3645171 3429111 3238997 3095322 3021283 3041452 3175453 
1927.624 3430866 3798075 4247443 4729736 5185849 5555981 5793965 5877297 
1931.481 5812195 5629515 5377382 5109605 4878635 4729959 4702651 4831024 
1935.338 5144171 5658706 6371141 7248854 8230129 9228482 10154020 10933041 
1939.196 11525357 11932393 12186480 12329188 12392098 12375656 12255456 
1942.571 11993404 11567992 10995654 10340480 9701067 9184940 8871497 8785611 
1946.428 8890885 9104843 9328746 9489443 9555966 9555391 9546326 9594161 
1950.286 9739017 9980950 10278757 10570263 10797678 10934095 10983864 
1953.661 10977525 10944752 10893202 10792946 10582296 10185689 9557027 
1957.036 8703667 7711199 6737451 5981397 5631679 5810712 6528444 7674486 
1960.894 9038962 10365180 11411777 12008888 12083339 11659801 10823919 
1964.269 9697850 8385800 6963782 5474742 3950526 2438542 1017691 -193796 
1968.126 -1050456 -1412255 -1179718 -332940 1057680 2821529 4720680 6486227 
1971.984 7891020 8790441 9159206 9095361 8784730 8448626 8279095 8378793 
1975.841 8754292 9314072 9925770 10475524 10923883 11312188 11730560 
1979.217 12253962 12895646 13580840 14169631 14511737 14502716 14129775 
1982.592 13475925 12692290 11943975 11344672 10921145 10605077 10278587 
1985.967 9825868 9192277 8405074 7576691 6851665 6357758 6159378 6240932 
1989.824 6520332 6882574 7222460 7478921 7643432 7746177 7835658 7947384 
1993.682 8091180 8251479 8391261 8479799 8497806 8447032 8346875 8224237 
1997.539 8103427 7996940 7892018 7765138 7576197 7286299 6867482 6315365 
2001.397 5655402 4938789 4225023 3575265 3024718 2584985 2243393 1982256 
2005.254 1795634 1709234 1772719 2049138 2580467 3365086 4347421 5431243 
2009.112 6503986 7478158 8292168 8928628 9381832 9637752 9665540 9416145 
2012.969 8855516 7993252 6907036 5752919 4719977 3993525 3683211 3804389 
2016.826 4266153 4911989 5571460 6120555 6510742 6767852 6961345 7165162 
2020.684 7410916 7677323 7897435 7991872 7898429 7591745 7091223 6447114 
2024.541 5713641 4939342 4148027 3363518 2614892 1957473 1483101 1312790 
2028.399 1574356 2374778 3759195 5699977 8080136 10700963 13306922 15625218 
2032.256 17402994 18459750 18710976 18199860 17077322 15567117 13924243 
2035.631 12368801 11054073 10041879 9301242 8747330 8274064 7795515 7278716 
2039.489 6756258 6312822 6064192 6113149 6528430 7315033 8411290 9699496 
2043.346 11023897 12218792 13131219 13650566 13728864 13395553 12762566 
2046.721 12009713 11361019 11032058 11170157 11795463 12784948 13887450 
2050.097 14794151 15227685 15015954 14135982 12710028 10970319 9203021 
2053.472 7676427 6581613 5991437 5857548 6038882 6362676 6672118 6874328 
2057.329 6942777 6909088 6840952 6810730 6878397 7079809 7419419 7877781 
2061.187 8409726 8955345 9448516 9830179 10064854 10148800 10111265 10014219 
2065.044 9930286 9928798 10055984 10329933 10737007 11239476 11784249 
2068.419 12310354 12752878 13050833 13149625 13017244 12648136 12077555 
2071.795 11372132 10623094 9923290 9342243 8915201 8637745 8475216 8381968 
2075.652 8316030 8251247 8175677 8084869 7973125 7832381 7657837 7458105 
2079.510 7262698 7123436 7101465 7246552 7578989 8073639 8664634 9259073 
2083.367 9760182 10091571 10210672 10109231 9805815 9334003 8731840 8039462 
2087.224 7301074 6570403 5909830 5382737 5039374 4902212 4952152 5130628 
2091.082 5349363 5513519 5547287 5414786 5132570 4768866 4425987 4216925 
2094.939 4231704 4516813 5058170 5785384 6592655 7364372 8007223 8469692 
2098.797 8745902 8870250 8895471 8870460 8825621 8768390 8689835 8580594 
2102.654 8441222 8289714 8155459 8066172 8034607 8051505 8089945 8115524 
2106.511 8104283 8052331 7975563 7902499 7857240 7848324 7862948 7873982 
2110.369 7849405 7768319 7625197 7429340 7197953 6942819 6667963 6369228 
2114.226 6039428 5682949 5317140 4974074 4695955 4521102 4476103 4568358 
2118.084 4781778 5084273 5427470 5756394 6016009 6159248 6154848 5995068 
2121.941 5698140 5305685 4868531 4433436 4027750 3650677 3281642 2893019 
2125.799 2469074 2022961 1597050 1251101 1039279 986078 1071030 1234504 
2129.656 1396668 1484706 1459023 1324500 1126153 927830 788647 745538 798838 
2133.996 928315 1096952 1269450 1419169 1523684 1563733 1522315 1385840 
2137.853 1161379 878434 592966 375314 291853 378462 628491 982523 1347437 
2142.193 1618945 1706999 1565615 1207830 707397 190732 -191091 -289068 4195 
2146.532 724491 1815579 3138644 4496790 5686985 6543327 6979282 6983432 
2150.390 6599751 5883101 4861757 3519407 1816849 -269577 -2690472 -5295316 
2154.247 -7845965 -10056318 -11660598 -12479126 -12434756 -11559881 -9920700 
2157.622 -7593657 -4647089 -1162890 2687191 6609923 10207231 13068481 
2160.998 14892667 15565114 15190829 14044728 12493039 10893918 9530568 
2164.373 8554153 7999820 7814510 7895049 8128740 8407861 8641676 8755377 
2168.230 8699535 8465588 8086096 7635129 7197366 6844510 6596154 6418019 
2172.088 6226871 5947445 5552092 5093015 4706416 4568812 4832717 5557962 
2175.945 6673313 7988257 9247413 10209250 10725887 10785419 10504102 
2179.320 10102246 9827863 9895149 10426681 11417188 12742672 14189707 
2182.696 15513354 16510211 17064702 17186436 16992868 16670085 16407238 
2186.071 16328253 16454501 16704045 16918198 16940448 16663877 16086120 
2189.446 15303060 14477132 13772160 13301092 13084341 13057915 13103871 
2192.821 13097544 12954924 12651386 12214293 11712721 11208986 10757312 
2196.197 10386644 10108706 9930618 9858783 9889277 10000312 10137400 
2199.572 10225950 10182144 9948892 9523114 8974963 8434175 8064905 8008595 
2203.429 8348686 9075679 10085673 11209588 12253375 13046826 13482238 
2206.804 13524930 13208927 12614019 11830394 10937294 9995896 9046662 
2210.180 8131850 7295596 6601031 6113055 5885095 5940591 6258744 6783037 
2214.037 7429737 8114964 8776605 9384803 9940827 10454574 10932788 11357022 
2217.895 11689614 11877421 11881863 11695303 11348458 10910073 10461581 
2221.270 10077653 9806739 9660713 9628445 9687822 9826415 10051759 10393693 
2225.127 10890965 11580408 12477270 13576279 14851804 16267870 17794434 
2228.502 19414976 21134708 22978262 24978634 27170334 29573806 32183114 
2231.878 34961000 37840384 40725776 43512768 46093464 48379224 50301524 
2235.253 51816816 52903196 53555212 53780800 53597804 53037464 52141020 
2238.628 50956888 49532156 47906928 46109336 44159096 42082152 39916788 
2242.003 37730768 35613940 33664820 31966150 30559678 29433044 28521274 
2245.379 27724474 26943362 26103532 25176830 24177800 23149022 22132474 
2248.754 21153486 20204048 19259694 18291702 17290174 16273780 15292263 
2252.129 14408615 13681751 13147119 12807181 12635679 12585944 12608313 
2255.504 12660515 12715696 12765148 12811209 12867825 12950695 13070838 
2258.880 13232008 13423168 13615663 13768401 13834160 13776707 13579869 
2262.255 13261806 12869573 12473380 12147115 11950124 11912644 12031412 
2265.630 12273747 12589626 12923392 13230308 13479178 13658418 13771681 
2269.005 13836132 13877810 13923017 13994641 14104082 14246026 14400118 
2272.381 14531376 14604692 14593343 14488867 14306447 14081020 13858530 
2275.756 13685763 13596369 13608349 13719247 13909487 14146395 14391501 
2279.131 14605807 14759067 14833811 14834953 14789682 14741400 14742444 
2282.506 14834143 15034083 15328729 15671013 15997097 16243847 16367586 
2285.882 16357874 16238423 16055945 15865337 15709568 15610365 15564585 
2289.257 15550606 15539396 15506674 15440484 15342738 15226456 15107442 
2292.632 14998722 14904158 14818667 14731213 14628303 14502521 14353090 
2296.007 14191195 14037439 13914279 13842019 13829639 13871380 13947356 
2299.383 14028388 14086971 14104843 14079891 14027784 13975425 13949888 
2302.758 13971840 14044415 14155498 14281428 14396194 14479480 14523353 
2306.133 14532981 14523380 14513076 14519600 14554213 14619805 14712133 
2309.508 14820348 14931648 15033058 15114467 15172275 15209193 15233209 
2312.884 15254592 15281975 15318552 15362153 15406706 15448319 15488313 
2316.259 15536036 15604599 15706880 15847433 16020918 16214410 16417233 
2319.634 16629867 16868504 17162586 17538404 18000960 18516262 19007096 
2323.009 19366242 19482640 19275698 18718192 17849138 16762760 15587256 
2326.385 14454471 13472016 12705213 12170495 11843821 11676960 11617235 
2329.760 11622529 11666562 11739049 11836812 11956901 12092534 12234188 
2333.135 12372161 12499640 12615209 12719318 12812669 12892745 12953178 
2336.510 12986433 12987308 12955317 12896873 12822950 12745787 12675971 
2339.885 12619632 12578426 12549137 12526983 12505213 12476832 12434534 
2343.261 12373198 12290149 12187342 12072552 11958909 11861584 11792775 
2346.636 11759490 11758758 11779823 11805537 11817803 11801410 11747370 
2350.011 11653775 11525807 11373936 11211787 11053060 10911706 10798358 
2353.386 10718385 10671798 10652543 10649757 10652570 10651832 10644153 
2356.762 10630312 10614732 10600644 10587574 10569053 10534884 10473771 
2360.137 10378825 10250114 10095062 9927800 9762709 9610696 9477683 9362575 
2363.994 9259521 9161022 9060198 8953176 8839244 8722113 8609376 8511396 
2367.852 8441067 8411300 8431529 8505427 8628689 8788049 8965169 9138981 
2371.709 9291640 9410517 9488671 9525356 9523245 9487707 9427860 9355843 
2375.567 9287693 9240091 9225678 9246542 9292133 9338855 9357767 9323793 
2379.424 9227523 9080470 8912137 8760630 8658569 8620534 8639311 8688269 
2383.281 8736215 8759804 8755043 8737930 8738102 8784508 8892653 9056368 
2387.139 9251215 9441785 9594694 9687852 9715375 9684251 9608676 9503421 
2390.996 9380948 9251163 9123343 9008998 8920687 8867219 8850686 8862071 
2394.854 8884581 8900378 8896326 8873933 8848247 8843058 8882334 8979810 
2398.711 9132091 9320145 9513201 9680043 9797599 9854738 9853985 9807679 
2402.569 9731787 9641406 9548746 9463852 9395892 9352028 9337580 9353204 
2406.426 9393373 9444179 9487683 9506247 9486652 9425171 9329760 9216516 
2410.283 9107511 9023769 8980691 8985871 9037083 9124764 9234183 9350113 
2414.141 9460128 9557278 9641071 9715209 9786875 9861485 9940735 10022529 
2417.998 10100237 10166733 10216505 10249868 10272719 10295254 10330677 
2421.374 10387990 10472315 10581323 10706280 10833733 10950378 11044271 
2424.749 11110200 11147654 11161079 11159560 11150971 11140751 11129308 
2428.124 11112331 11080873 11025818 10940485 10824296 10684483 10534869 
2431.499 10395142 10284508 10219652 10211098 10260745 10363102 10503794 
2434.875 10663301 10818329 10944817 11023491 11041826 10999865 10907946 
2438.250 10785721 10656442 10541902 10456062 10405875 10389800 10405003 
2441.625 10450358 10526863 10638637 10787425 10967455 11165181 11358925 
2445.000 11525511 11647540 11718171 11743182 11737709 11719855 11705600 
2448.375 11704951 11722024 11758382 11813881 11888447 11978731 12074891 
2451.751 12161152 12215895 12221256 12171121 12075419 11961678 11864681 
2455.126 11815439 11825985 11886401 11965526 12024927 12032969 11978913 
2458.501 11875748 11753026 11644688 11574053 11546819 11548837 11558270 
2461.876 11554679 11529729 11489837 11447953 11419088 11407045 11404409 
2465.252 11394256 11359578 11291771 11194540 11085554 10987437 10923078 
2468.627 10908192 10948916 11044139 11185958 11362761 11557622 11749774 
2472.002 11912969 12020245 12049434 11990873 11853307 11663574 11460871 
2475.377 11287051 11175606 11143211 11188750 11293938 11433361 11578419 
2478.753 11704617 11793840 11834594 11823103 11762915 11665309 11550137 
2482.128 11441750 11365664 11341269 11378395 11475343 11620433 11796309 
2485.503 11985689 12172257 12343511 12485934 12585486 12628710 12604296 
2488.878 12512133 12364714 12188305 12018198 11888604 11823475 11828771 
2492.254 11891417 11985489 12080693 12149283 12175619 12154316 12088029 
2495.629 11984603 11850622 11693868 11521017 11341271 11166169 11008337 
2499.004 10879070 10785815 10730005 10707228 10710881 10733453 10769175 
2502.379 10815464 10870986 10938258 11019553 11119328 11241369 11387124 
2505.755 11554010 11732654 11908458 12062764 12179767 12250178 12275227 
2509.130 12266491 12238576 12206109 12175731 12146437 12111915 12068879 
2512.505 12023304 11989835 11990283 12042606 12152065 12304465 12469674 
2515.880 12611526 12699977 12722403 12688049 12622968 12556849 12513420 
2519.256 12498421 12503937 12513763 12514298 12505202 12498803 12514886 
2522.631 12570457 12666470 12785792 12896202 12960449 12950989 12859737 
2526.006 12703091 12516521 12342949 12221416 12176065 12209898 12309072 
2529.381 12446176 12590133 12714143 12800039 12841255 12842767 12815250 
2532.757 12773457 12731905 12698152 12674832 12655664 12631564 12592922 
2536.132 12534379 12458728 12376254 12305743 12265904 12272998 12332239 
2539.507 12438984 12574296 12711717 12821014 12877115 12865668 12786725 
2542.882 12656962 12505604 12366225 12270368 12237143 12269732 12355300 
2546.258 12467868 12579889 12667123 12715800 12725976 12707457 12673638 
2549.633 12641259 12621259 12621850 12647576 12702213 12787922 12903699 
2553.008 13043666 13196118 13344279 13469811 13557867 13602251 13606363 
2556.383 13582177 13545720 13512596 13491982 13486804 13492520 13501927 
2559.759 13505246 13490960 13450135 13374594 13259004 13105246 12924649 
2563.134 12737315 12570727 12451179 12398186 12417190 12496027 12612298 
2566.509 12739893 12857054 12956196 13041090 13124649 13219523 13329949 
2569.884 13450077 13566984 13664978 13735933 13781039 13811147 13839884 
2573.260 13877353 13924330 13972539 14008843 14023993 14018583 14006082 
2576.635 14008791 14047899 14135193 14265956 14418500 14560387 14658703 
2580.010 14690627 14651708 14555423 14429998 14308615 14219776 14178926 
2583.385 14186686 14231382 14294829 14357693 14407052 14437940 14451655 
2586.760 14452876 14444975 14427606 14396072 14344805 14270760 14178704 
2590.136 14082101 14000596 13956262 13964772 14031108 14145397 14285843 
2593.511 14424004 14531328 14589324 14592207 14550321 14485065 14426155 
2596.886 14402514 14438919 14548490 14731194 14972019 15244406 15512589 
2600.261 15738828 15891695 15953464 15923988 15821928 15680496 15538326 
2603.637 15430572 15380868 15395611 15466887 15576171 15701879 15824582 
2607.012 15930431 16012413 16066466 16092138 16089942 16061610 16013885 
2610.387 15956758 15903996 15870437 15867662 15899204 15961135 16041618 
2613.762 16125387 16196011 16243814 16265182 16262025 16242603 16215608 
2617.138 16189128 16168186 16154181 16145367 16137687 16126838 16109645 
2620.513 16087247 16065633 16055377 16070485 16123587 16222805 16365094 
2623.888 16537976 16719146 16883204 17009108 17085704 17115958 17116360 
2627.263 17109698 17119818 17163088 17244046 17356786 17487098 17619764 
2630.639 17742848 17851378 17945960 18031104 18109286 18179606 18237018 
2634.014 18273962 18284226 18266282 18225264 18173408 18125968 18096884 
2637.389 18096734 18127746 18184612 18255800 18326130 18380938 18409270 
2640.764 18407034 18376958 18328106 18275058 18232756 18214104 18226062 
2644.140 18267834 18329748 18395246 18445806 18464046 18440142 18373728 
2647.515 18275468 18164436 18062558 17990334 17959282 17971020 18016480 
2650.890 18077750 18134756 18169566 18171350 18137418 18073650 17990836 
2654.265 17901302 17815222 17738946 17674262 17619742 17572802 17531478 
2657.641 17494160 17460946 17430128 17399214 17363728 17317400 17254058 
2661.016 17169394 17062336 16935202 16793262 16642611 16488967 16336722 
2664.391 16188292 16046718 15914869 15798030 15703544 15638052 15606573 
2667.766 15609572 15640529 15687808 15736362 15770944 15780428 15760047 
2671.142 15712745 15648292 15580317 15522552 15487477 15481291 15505276 
2674.517 15554768 15621887 15695862 15767261 15828976 15878223 15916875 
2677.892 15950413 15984865 16025264 16072253 16121596 16163398 16186928 
2681.267 16182182 16145092 16077893 15989317 15892150 15799286 15720276 
2684.643 15660262 15619257 15594376 15582744 15581393 15589511 15605663 
2688.018 15627598 15651437 15672304 15685229 15687406 15678745 15662037 
2691.393 15640806 15617123 15590539 15559065 15520072 15473471 15423324 
2694.768 15377413 15344518 15331245 15338423 15360176 15385918 15405152 
2698.144 15410804 15404588 15395472 15397133 15422544 15479061 15564434 
2701.519 15668442 15774943 15867967 15935974 15973683 15983434 15970116 
2704.894 15940806 15899582 15848892 15788738 15720198 15646551 15573696 
2708.269 15509821 15463660 15442129 15447969 15479652 15530271 15590377 
2711.645 15647957 15692445 15714908 15711324 15682504 15634349 15575972 
2715.020 15518494 15471019 15439759 15426815 15429461 15442509 15460576 
2718.395 15478467 15494629 15509151 15524046 15541135 15561700 15585472 
2721.770 15609980 15630841 15643392 15642045 15622962 15583748 15525959 
2725.146 15454789 15379572 15312848 15266961 15253004 15276024 15335947 
2728.521 15425389 15532635 15644971 15749469 15838154 15905965 15951240 
2731.896 15975796 15981372 15970057 15943872 15905742 15858140 15805475 
2735.271 15752332 15703585 15662992 15633779 15617605 15614014 15620534 
2738.646 15633397 15646722 15653711 15648829 15628859 15595446 15555671 
2742.022 15521222 15505725 15520050 15570299 15653171 15757732 15867034 
2745.397 15963016 16031565 16066104 16067635 16044898 16009331 15971534 
2748.772 15938340 15912058 15891397 15874421 15860399 15851539 15852747 
2752.147 15869200 15903864 15955830 16019462 16085891 16145691 16191261 
2755.523 16219361 16230712 16229941 16222689 16213855 16205765 16198313 
2758.898 16190210 16179606 16166119 16151516 16139042 16132399 16134385 
2762.273 16146475 16168592 16199160 16237067 16282141 16335305 16397869 
2765.648 16471053 16553273 16641291 16728133 16807202 16871980 16919754 
2769.024 16952664 16977484 17002874 17038788 17090732 17159558 17239492 
2772.399 17320390 17389674 17437536 17457914 17453114 17431988 17406380 
2775.774 17389622 17392734 17420770 17474206 17547742 17634656 17727590 
2779.149 17820466 17908706 17990066 18062476 18126124 18181378 18230940 
2782.525 18279120 18330684 18389476 18457192 18531114 18604126 18667048 
2785.900 18710680 18728922 18721378 18693852 18656472 18621422 18598746 
2789.275 18594732 18609962 18641718 18684374 18732966 18783734 18836210 
2792.650 18891712 18953626 19025912 19111384 19211848 19327130 19453562 
2796.026 19586358 19718744 19844026 19956832 20054982 20139504 20215576 
2799.401 20289128 20366106 20450378 20541572 20637148 20731624 20820762 
2802.776 20900954 20971826 21034974 21093418 21150658 21209994 21273044 
2806.151 21341132 21414922 21493662 21577264 21666862 21762278 21866444 
2809.527 21982030 22112266 22258296 22418624 22587846 22758096 22919978 
2812.902 23066834 23198558 23322734 23452760 23604810 23791352 24019470 
2816.277 24284252 24574314 24873498 25168756 25453220 25729356 26007170 
2819.652 26300508 26621414 26980056 27380788 27825962 28316802 28855770 
2823.028 29445358 30087486 30780814 31519700 32297424 33107248 33947232 
2826.403 34820344 35736020 36704896 37736200 38833712 39995592 41216728 
2829.778 42491696 43820000 45205256 46654292 48172040 49758124 51403820 
2833.153 53093712 54809740 56537956 58272520 60017180 61782668 63581236 
2836.529 65420560 67300672 69214280 71147816 73089096 75028240 76959872 
2839.904 78882080 80790928 82678888 84531512 86329656 88052880 89682440 
2843.279 91204832 92612040 93900624 95068872 96114280 97033424 97823368 
2846.654 98482720 99015176 99427472 99728536 99925584 100019872 100007320 
2850.030 99878248 99621632 99232016 98713256 98082176 97365504 96596520 
2853.405 95806616 95018888 94243984 93477344 92705352 91909040 91072120 
2856.780 90184840 89247528 88269872 87267168 86255208 85248728 84257336 
2860.155 83286296 82337464 81410800 80506920 79626328 78771448 77945176 
2863.531 77150952 76392744 75674352 74999304 74370680 73789608 73256272 
2866.906 72768400 72324256 71922712 71564544 71253168 70994592 70795256 
2870.281 70660408 70592952 70592640 70656544 70781296 70964752 71207336 
2873.656 71512136 71882888 72322176 72829720 73399952 74022600 74683696 
2877.031 75367904 76062352 76758600 77455248 78157888 78879112 79634448 
2880.407 80439616 81306448 82239632 83234392 84278480 85355344 86447480 
2883.782 87542048 88633496 89724056 90821488 91933760 93067480 94222544 
2887.157 95394016 96574368 97755768 98935656 100117528 101309264 102522568 
2890.532 103768800 105054904 106382632 107749944 109151056 110580008 
2893.426 112030720 113499488 114983544 116481704 117992832 119517208 
2896.319 121056576 122616152 124202840 125827728 127503456 129241824 
2899.212 131053552 132946296 134922192 136978704 139107920 141296384 
2902.105 143529296 145790112 148066144 150349824 152640432 154944496 
2904.998 157273040 159636496 162043616 164496032 166988480 169510576 
2907.891 172050560 174598096 177147360 179696832 182248080 184802816 
2910.784 187358576 189908304 192439280 194937280 197384208 199765520 
2913.677 202067680 204278112 206385232 208377120 210240768 211964720 
2916.570 213538784 214957552 216219568 217325760 218278448 219078832 
2919.463 219726064 220216512 220545184 220708288 220705536 220540400 
2922.356 220220752 219759280 219170736 218471008 217676336 216803056 
2925.249 215865136 214872192 213829120 212735648 211585392 210370000 
2928.142 209080816 207713568 206270048 204757744 203187360 201569584 
2931.035 199910304 198210720 196466928 194672240 192822944 190918080 
2933.928 188961760 186961632 184926048 182862848 180777680 178676544 
2936.822 176566208 174453152 172344928 170244192 168146752 166040416 
2939.715 163905472 161722304 159477104 157168576 154810480 152427760 
2942.608 150050544 147703984 145401360 143141600 140913136 138699408 
2945.501 136487360 134273600 132063224 129867776 127697992 125560760 
2948.394 123453776 121368088 119291936 117213928 115128288 113034504 
2951.287 110937872 108846920 106771256 104720848 102703936 100725880 
2954.180 98788872 96890400 95023048 93177528 91345128 89522568 87714832 
2957.555 85935480 84203776 82538984 80953104 79448168 78015696 76639664 
2960.930 75302960 73992584 72703904 71439352 70203960 69003648 67841360 
2964.306 66716360 65630028 64585088 63590520 62659560 61803636 61030672 
2967.681 60339232 59719320 59156356 58634840 58146304 57688480 57268724 
2971.056 56895988 56578692 56319064 56111776 55944968 55803424 55673392 
2974.431 55543416 55407968 55266312 55120192 54974052 54830968 54692580 
2977.807 54557356 54419516 54270340 54100128 53900660 53668320 53405784 
2981.182 53121728 52828460 52538572 52261224 51999460 51751060 51512180 
2984.557 51278416 51049772 50829204 50621992 50433252 50264540 50115248 
2987.932 49983504 49869744 49778084 49718080 49700996 49738032 49835328 
2991.308 49993728 50210500 50482836 50809940 51197572 51655944 52196076 
2994.683 52828872 53559684 54391188 55322508 56352220 57478964 58698448 
2998.058 60001824 61367832 62765612 64150924 65476856 66697620 67776936 
3001.433 68690352 69426360 69982136 70359256 70561408 70594056 70465752 
3004.809 70192120 69795656 69304880 68749984 68156216 67542712 66920480 
3008.184 66295752 65674348 65066896 64489400 63963184 63511156 63154928 
3011.559 62911548 62793576 62811784 62977172 63302316 63802084 64491996 
3014.934 65383204 66484764 67799192 69327528 71071792 73036824 75233264 
3018.310 77675128 80376600 83347016 86584728 90074472 93782696 97657664 
3021.685 101631056 105620712 109535952 113282704 116770552 119916296 
3024.578 122648824 124911592 126661344 127868664 128514064 128589408 
3027.471 128094528 127041784 125453784 123366288 120829248 117904072 
3030.364 114663232 111185584 107553920 103848152 100141496 96494008 92951704 
3033.739 89542208 86277464 83158056 80176648 77324984 74597728 71996120 
3037.115 69526952 67201872 65033184 63030212 61196732 59529984 58018896 
3040.490 56648524 55399640 54253416 53192592 52205812 51287276 50438432 
3043.865 49665380 48979084 48389840 47906964 47535296 47275340 47123288 
3047.240 47074352 47121564 47263396 47500036 47835976 48278248 48834248 
3050.615 49509728 50305436 51216112 52230852 53333764 54506836 55732580 
3053.991 56998500 58296552 59625180 60985420 62377284 63795044 65223464 
3057.366 66635108 67991392 69246352 70352952 71268056 71959536 72411712 
3060.741 72621992 72602376 72372880 71955824 71371744 70634048 69750296 
3064.116 68722320 67552760 66250460 64834164 63334384 61791336 60251100 
3067.492 58756156 57342968 56034660 54841336 53764328 52797188 51932828 
3070.867 51164216 50485764 49893332 49383060 48949704 48588476 48295768 
3074.242 48070712 47915204 47834748 47835276 47922216 48098580 48365612 
3077.617 48722012 49165064 49689588 50287868 50946920 51646892 52361016 
3080.993 53055352 53692332 54231544 54633156 54861964 54887044 54684444 
3084.368 54242252 53560504 52654528 51553500 50298336 48936096 47510812 
3087.743 46059724 44608916 43174556 41766216 40391420 39059348 37780860 
3091.118 36567912 35427624 34363320 33371578 32448086 31590432 30801546 
3094.494 30090258 29468740 28945396 28521738 28188902 27930220 27727648 
3097.869 27565804 27438920 27349200 27304728 27313062 27376326 27487004 
3101.244 27631074 27790834 27948772 28090506 28204162 28277952 28299776 
3104.619 28255648 28133340 27926238 27637270 27280322 26877886 26456126 
3107.995 26037102 25634872 25253940 24889688 24534650 24180650 23822960 
3111.370 23460534 23093690 22723896 22352726 21981546 21613284 21252772 
3114.745 20904400 20572040 20256744 19953786 19657720 19363300 19069586 
3118.120 18782136 18512040 18271980 18069490 17905096 17770418 17650380 
3121.496 17530108 17399330 17256260 17107090 16960820 16827098 16710220 
3124.871 16609348 16520927 16441815 16372010 16315505 16278591 16266525 
3128.246 16281724 16320636 16378243 16447093 16521325 16595794 16666187 
3131.621 16724216 16759882 16760783 16717648 16628362 16501326 16355127 
3134.997 16214998 16104802 16040517 16025005 16049132 16094930 16143484 
3138.372 16180160 16199486 16205972 16208144 16217796 16243240 16287865 
3141.747 16349779 16421299 16492218 16549664 16581934 16577834 16531549 
3145.122 16444331 16325658 16191876 16066084 15969694 15919389 15922144 
3148.498 15973128 16058758 16159091 16254501 16329238 16374735 16390558 
3151.873 16381862 16359108 16334651 16319174 16321883 16347116 16395206 
3155.248 16461192 16538205 16617892 16694959 16767181 16835724 16903122 
3158.623 16970230 17034600 17088286 17122914 17131886 17114246 17076976 
3161.999 17032698 16994666 16971156 16960268 16949904 16920750 16853482 
3165.374 16735656 16567066 16361281 16141454 15934017 15763596 15646655 
3168.749 15589891 15590988 15641160 15726084 15829530 15933972 16023884 
3172.124 16086610 16115854 16113516 16088521 16055001 16027754 16017310 
3175.500 16028151 16056454 16093709 16128208 16150998 16156323 16142368 
3178.875 16109651 16061367 16002413 15939388 15882960 15846770 15843306 
3182.250 15882289 15962457 16072320 16189368 16286502 16339362 16333397 
3185.625 16268805 16157625 16021108 15882000 15757389 15659463 15592489 
3189.000 15558731 15559802 15599027 15677288 15791612 15931433 16076768 
3192.376 16203858 16289363 16316874 16282720 16195446 16074847 15945654 
3195.751 15829932 15744919 15699521 15693530 15721399 15773067 15837507 
3199.126 15904438 15965594 16014440 16049035 16068833 16074151 16065625 
3202.501 16041854 16000902 15941467 15865378 15781108 15703369 15651817 
3205.877 15645253 15696488 15806844 15963672 16143685 16316779 16454982 
3209.252 16537506 16555918 16513955 16425693 16310608 16189363 16080899 
3212.627 15998254 15950153 15937254 15954617 15993100 16039459 16083464 
3216.002 16118104 16143808 16168868 16204506 16261945 16345724 16449822 
3219.378 16557084 16644416 16685888 16664090 16571650 16416868 16220367 
3222.753 16010229 15817661 15669236 15583002 15565670 15611003 15703037 
3226.128 15818343 15929371 16011128 16047161 16030516 15967993 15876459 
3229.503 15780138 15703492 15664924 15673647 15727414 15813360 15912116 
3232.879 16002676 16066825 16092738 16078444 16031623 15967771 15908238 
3236.254 15874064 15879249 15929557 16017318 16124642 16227555 16303904 
3239.629 16339557 16331347 16287941 16225079 16158506 16098866 16049322 
3243.004 16006825 15964860 15919838 15871109 15823781 15780898 15743110 
3246.380 15704121 15652608 15577040 15472406 15344572 15212363 15102211 
3249.755 15039919 15043349 15114485 15241290 15398419 15557135 15693033 
3253.130 15791377 15847571 15864965 15851941 15816882 15765995 15705500 
3256.505 15642585 15587182 15549881 15541812 15569656 15632331 15720576 
3259.881 15818030 15905902 15967801 15993219 15980829 15937064 15873278 
3263.256 15803576 15740415 15692981 15665991 15660865 15676195 15708929 
3266.631 15755240 15810763 15871119 15933244 15994407 16054055 16114052 
3270.006 16175820 16241662 16311914 16383393 16450180 16504485 16538510 
3273.382 16547203 16530108 16492264 16442444 16389096 16337935 16288623 
3276.757 16234795 16165581 16070427 15944168 15789762 15619950 15454395 
3280.132 15316378 15225139 15192875 15221699 15303073 15422400 15560688 
3283.507 15700346 15827296 15932618 16014529 16075337 16122397 16163854 
3286.883 16207419 16257277 16313538 16371144 16421709 16458735 16477795 
3290.258 16480207 16470494 16454926 16436046 16409213 16363835 16285891 
3293.633 16164660 15999924 15806459 15611086 15446590 15341446 15309248 
3297.008 15343837 15420179 15503949 15562005 15575329 15544675 15487484 
3300.384 15432383 15407552 15430257 15502288 15613385 15744550 15877200 
3303.759 15998945 16105123 16195944 16271738 16329497 16360352 16353432 
3307.134 16298408 16193943 16048443 15880968 15716903 15582845 15499866 
3310.509 15479062 15519350 15610450 15734304 15867747 15989477 16081275 
3313.885 16130583 16132040 16087852 16005555 15898244 15779914 15664112 
3317.260 15561729 15479658 15422565 15393802 15395259 15427954 15491795 
3320.635 15582121 15690723 15805149 15911270 15997728 16058162 16092671 
3324.010 16109707 16119393 16132094 16151702 16176330 16197845 16204987 
3327.385 16189832 16151257 16094942 16034266 15983272 15953800 15949972 
3330.761 15968014 15996551 16021635 16030874 16017228 15981916 15934423 
3334.136 15889706 15864750 15875647 15933247 16039150 16185777 16354376 
3337.511 16518794 16649939 16720373 16713610 16626822 16475772 16290667 
3340.886 16110683 15975101 15912591 15934480 16030505 16172821 16322812 
3344.262 16440473 16495075 16470995 16370453 16211145 16020527 15829319 
3347.637 15663529 15541662 15471463 15450140 15468291 15511240 15563063 
3351.012 15609968 15642630 15658578 15661163 15661396 15672971 15709370 
3354.387 15778696 15880410 16002612 16122727 16212858 16246900 16206719 
3357.763 16090484 15913596 15707092 15510011 15361267 15288658 15305030 
3361.138 15404682 15566506 15762176 15961867 16139673 16277770 16365085 
3364.513 16395951 16368197 16283043 16147355 15975554 15789628 15618673 
3367.888 15491664 15431626 15446129 15525736 15646104 15771592 15869245 
3371.264 15916906 15907666 15854597 15780050 15711477 15668306 15657213 
3374.639 15671656 15693560 15702358 15682893 15631536 15556986 15479364 
3378.014 15423890 15412405 15458613 15562548 15711112 15882492 16048500 
3381.389 16184557 16273307 16308600 16294947 16246606 16181700 16120069 
3384.765 16079055 16069552 16098946 16166460 16266443 16385071 16504534 
3388.140 16602019 16654341 16645808 16570263 16438361 16274519 16112238 
3391.515 15984461 15914707 15907310 15947072 16005937 16049933 16053690 
3394.890 16006848 15919399 15814414 15720554 15661363 15647316 15674571 
3398.266 15726976 15783951 15828652 15851846 15853297 15841423 15826924 
3401.641 15821651 15832894 15864994 15917730 15986212 16062472 16134189 
3405.016 16188486 16213933 16202765 16154971 16079316 15991207 15907984 
3408.391 15845286 15813282 15815290 15849384 15912384 16002132 16117392 
3411.767 16257262 16415587 16580379 16730592 16843800 16897778 16883342 
3415.142 16805046 16682552 16545730 16424904 16342284 16304638 16303387 
3418.517 16318744 16327571 16312692 16268255 16202377 16132474 16078712 
3421.892 16056797 16072128 16117381 16174572 16221805 16237969 16210087 
3425.268 16136535 16025562 15894374 15761441 15645005 15557231 15506165 
3428.643 15493770 15521548 15588030 15691170 15824672 15975917 16126068 
3432.018 16252823 16333865 16355937 16318442 16236883 16138051 16053809 
3435.393 16009925 16019654 16079212 16172631 16276676 16371539 16446281 
3438.769 16501691 16547211 16594820 16652007 16720392 16793990 16864382 
3442.144 16925338 16973160 17007728 17031804 17044692 17043040 17021064 
3445.519 16975876 16910126 16835348 16769795 16735639 16749879 16819006 
3448.894 16936570 17085854 17244092 17388860 17504184 17581482 17619232 
3452.270 17618684 17581676 17509352 17404596 17273074 17126826 16983676 
3455.645 16864120 16786340 16760193 16784076 16845496 16921654 16988446 
3459.020 17026978 17025990 16987900 16923132 16849998 16784964 16739748 
3462.395 16717488 16713087 16713906 16706718 16679449 16627679 16555119 
3465.771 16471166 16390327 16326539 16289676 16283462 16305124 16347239 
3469.146 16400756 16457072 16508179 16550232 16578808 16592044 16587950 
3472.521 16567687 16535552 16499568 16472768 16469469 16502250 16579743 
3475.896 16700694 16858840 17039534 17225074 17397746 17542156 17646618 
3479.271 17703414 17708668 17663640 17573330 17449282 17308874 17173924 
3482.647 17067774 17010964 17016120 17085836 17209754 17369100 17538324 
3486.022 17692420 17809640 17875696 17884948 17838546 17744650 17616236 
3489.397 17467914 17318630 17185810 17087706 17038480 17048318 17119594 
3492.772 17248128 17423534 17630744 17853500 18075526 18281942 18461124 
3496.148 18601328 18694670 18735020 18721412 18659110 18560648 18445390 
3499.523 18338086 18261156 18233036 18262782 18347252 18473206 18617884 
3502.898 18756736 18865668 18926682 18928698 18868990 18754124 18598078 
3506.273 18420844 18246636 18100974 18005502 17973748 18006452 18090692 
3509.649 18200848 18304334 18369590 18374824 18314586 18201104 18062166 
3513.024 17933562 17850044 17835884 17900180 18035556 18222368 18432952 
3516.399 18640556 18823702 18969636 19076560 19148930 19197010 19233764 
3519.774 19269230 19312972 19368302 19433106 19500050 19555912 19586368 
3523.150 19577104 19519482 19413948 19271384 19110458 18954236 18824246 
3526.525 18734916 18690278 18684906 18706510 18742202 18782994 18825924 
3529.900 18871122 18920356 18971264 19015906 19042670 19042426 19013976 
3533.275 18968692 18930148 18926564 18981080 19099174 19265944 19448198 
3536.651 19602160 19691720 19698204 19628818 19512990 19390486 19297770 
3540.026 19254672 19260616 19296982 19338700 19367122 19375700 19372034 
3543.401 19371820 19386582 19417524 19452518 19468962 19446150 19372764 
3546.776 19254026 19111344 18975778 18876722 18834772 18855664 18930850 
3550.152 19041306 19163594 19274722 19356336 19394242 19382928 19322024 
3553.527 19220572 19095732 18968962 18863270 18795718 18772028 18786616 
3556.902 18823402 18862462 18885546 18882970 18852824 18799396 18730072 
3560.277 18649636 18562010 18471740 18387544 18322672 18294458 18315092 
3563.653 18387820 18498698 18620726 18718644 18761594 18733634 18638814 
3567.028 18499600 18347918 18214518 18118886 18066904 18051516 18061252 
3570.403 18085476 18116884 18148304 18169790 18162542 18102238 17966102 
3573.778 17743110 17442724 17099324 16765131 16496649 16337099 16306609 
3577.154 16392646 16559578 16760001 16949836 17100540 17202610 17262376 
3580.529 17295650 17315734 17331026 17343558 17351294 17354348 17355366 
3583.904 17361062 17377448 17407648 17448072 17489464 17520416 17530942 
3587.279 17516712 17480358 17431492 17383580 17349838 17340622 17360152 
3590.655 17406992 17474184 17548972 17616444 17662148 17675232 17653158 
3594.030 17599770 17527578 17453204 17393146 17360060 17359376 17388936 
3597.405 17441166 17504978 17568932 17621694 17652516 17650902 17607182 
3600.780 17516884 17382046 17214726 17039178 16886040 16785972 16763117 
3604.156 16825470 16964014 17155020 17365664 17562984 17723276 17832856 
3607.531 17890370 17900982 17874352 17819778 17748740 17673456 17611578 
3610.906 17583440 17609504 17701654 17859078 18062450 18277530 18462404 
3614.281 18577798 18601726 18534152 18399046 18237860 18097734 18018200 
3617.656 18023268 18114552 18275004 18476520 18686972 18880392 19039524 
3621.032 19159126 19240384 19290080 19315854 19325472 19326344 19324662 
3624.407 19325530 19332722 19345020 19358784 19365736 19358334 19334874 
3627.782 19299480 19265294 19252032 19276986 19351742 19472908 19624812 
3631.157 19780300 19911350 19995402 20024508 20005468 19957282 19902376 
3634.533 19860874 19840216 19835042 19830962 19810654 19762402 19686314 
3637.908 19595928 19514440 19471006 19487750 19579214 19743490 19965122 
3641.283 20217020 20467682 20686902 20852522 20953988 20994928 20991222 
3644.658 20964264 20938278 20931012 20951164 20996416 21056130 21116228 
3648.034 21165690 21198502 21217352 21228492 21241712 21260330 21285084 
3651.409 21310698 21332766 21349688 21365142 21386364 21422928 21479384 
3654.784 21553532 21636418 21714292 21775610 21813122 21827422 21824156 
3658.159 21807498 21778172 21730532 21654238 21539572 21385064 21199302 
3661.535 21002824 20817498 20663124 20545610 20457328 20378376 20287478 
3664.910 20168028 20019908 19856262 19701816 19581166 19511290 19494912 
3668.285 19520726 19568084 19616070 19649050 19660742 19651750 19626008 
3671.660 19584746 19526350 19444172 19334380 19198572 19047346 18897570 
3675.036 18770808 18683202 18641414 18638810 18659002 18679570 18681156 
3678.411 18650682 18586416 18494628 18387780 18280782 18188196 18120390 
3681.786 18085502 18086636 18124176 18193690 18284214 18380444 18462996 
3685.161 18512472 18513780 18459870 18355530 18214350 18056964 17903624 
3688.537 17767562 17653964 17556040 17460818 17356054 17235452 17103946 
3691.912 16977608 16880056 16835520 16861090 16960506 17124400 17331422 
3695.287 17554114 17764510 17942920 18077914 18168852 18220784 18242612 
3698.662 18243632 18231876 18212310 18189886 18169190 18153578 18148378 
3702.038 18158310 18185734 18233142 18299928 18382868 18477006 18571672 
3705.413 18653198 18708294 18722656 18687814 18601896 18472218 18312570 
3708.788 18140342 17969330 17809230 17663146 17529718 17409312 17307032 
3712.163 17233948 17205724 17236186 17330826 17480352 17663400 17847138 
3715.539 17999446 18094662 18119048 18074698 17975162 17840484 17692080 
3718.914 17550250 17434060 17361572 17351612 17419656 17573842 17808002 
3722.289 18099990 18411570 18698206 18917932 19044854 19075038 19026930 
3725.664 18934726 18834256 18753626 18704212 18682392 18674438 18667482 
3729.040 18657272 18649060 18657098 18692768 18759832 18845928 18927174 
3732.415 18973534 18962598 18886706 18758610 18609466 18477444 18396592 
3735.790 18385446 18441028 18540208 18649810 18737398 18782164 18782458 
3739.165 18753550 18721750 18713634 18745634 18818394 18914752 19004492 
3742.541 19056998 19044898 18958256 18805088 18609602 18406560 18230476 
3745.916 18107194 18049280 18054364 18109792 18195874 18293914 18388212 
3749.291 18468220 18528522 18566974 18583564 18576902 18547230 18496174 
3752.666 18428510 18353410 18283450 18234106 18217200 18240550 18303164 
3756.042 18397636 18512028 18632246 18748724 18857054 18958742 19056934 
3759.417 19153264 19243824 19318528 19362992 19363710 19313726 19217818 
3762.792 19090742 18954810 18833106 18741406 18687410 18666714 18668472 
3766.167 18682728 18701024 18720840 18742554 18766420 18787766 18797498 
3769.542 18786764 18749998 18692250 18629180 18584548 18581870 18635950 
3772.918 18745294 18893626 19052762 19193482 19293624 19345702 19355006 
3776.293 19336086 19301456 19259728 19210646 19148884 19070648 18979090 
3779.668 18887388 18815178 18782988 18806926 18889042 19021758 19187616 
3783.043 19366084 19538400 19689332 19809606 19891080 19926616 19912270 
3786.419 19847764 19740320 19605686 19465562 19342436 19254212 19206104 
3789.794 19191400 19193968 19197044 19189194 19172188 19157468 19163208 
3793.169 19204422 19284564 19392072 19501398 19579200 19595682 19534158 
3796.544 19397012 19206770 19000976 18822514 18709074 18682296 18743488 
3799.920 18871170 19026402 19162582 19239296 19234600 19153052 19024962 
3803.295 18897620 18820724 18832160 18940890 19128084 19349284 19549128 
3806.670 19679866 19715168 19657660 19536308 19392590 19266210 19182588 
3810.045 19146958 19148232 19166368 19184248 19193322 19196516 19202006 
3813.421 19217732 19244320 19271816 19287036 19273872 19225278 19143666 
3816.796 19043622 18943044 18861634 18811302 18797170 18816566 18862076 
3820.171 18927184 19005120 19091782 19183212 19276074 19364480 19441510 
3823.546 19499586 19533068 19537582 19512990 19463130 19395814 19323094 
3826.922 19258702 19217254 19209412 19238520 19298436 19375700 19450030 
3830.297 19503198 19522988 19508492 19470358 19425276 19389694 19372602 
3833.672 19371056 19371436 19354078 19302780 19211616 19089580 18957752 
3837.047 18844928 18777476 18771734 18828110 18934288 19068934 19208256 
3840.423 19334110 19437984 19518200 19583112 19640568 19698044 19758496 
3843.798 19818710 19871722 19908502 19923118 19912336 19879886 19834658 
3847.173 19788388 19752686 19733616 19731828 19738044 19737678 19713048 
3850.548 19650456 19542926 19396780 19227500 19061680 18928756 18855976 
3853.924 18859758 18943742 19094666 19286986 19488298 19665244 19792086 
3857.299 19854952 19854590 19804942 19726180 19641188 19566400 19508676 
3860.674 19465952 19430464 19393930 19352986 19309706 19270942 19242014 
3864.049 19223954 19210552 19190284 19151614 19092724 19019828 18949896 
3867.425 18905480 18905114 18956986 19056448 19187322 19329000 19464758 
3870.800 19584990 19689040 19781176 19862310 19929180 19971526 19979470 
3874.175 19949224 19889484 19819206 19765026 19748904 19780340 19851688 
3877.550 19940082 20015500 20053102 20039468 19979526 19890822 19798462 
3880.926 19722472 19676782 19661790 19670478 19692314 19717934 19740426 
3884.301 19759026 19772288 19782556 19789960 19795802 19799952 19802538 
3887.676 19799000 19781384 19736910 19652274 19518864 19337846 19126034 
3891.051 18914068 18739492 18638030 18631992 18724546 18897350 19117576 
3894.427 19346368 19548744 19702618 19798824 19842024 19843698 19816758 
3897.802 19771778 19715292 19649776 19576014 19495306 19411184 19330838 
3901.177 19264592 19225266 19225286 19274480 19376792 19528458 19716418 
3904.552 19922510 20126582 20312132 20469976 20599052 20704584 20792848 
3907.927 20865800 20920026 20947122 20937120 20884228 20791192 20667840 
3911.303 20530300 20393392 20269318 20162276 20072006 19996806 19936548 
3914.678 19894520 19876232 19884456 19916046 19960908 20003806 20030698 
3918.053 20035792 20024200 20011558 20019010 20065366 20157208 20289568 
3921.428 20444454 20599000 20731362 20829034 20887648 20910746 20904104 
3924.804 20873628 20820244 20746568 20656550 20559802 20470932 20407336 
3928.179 20380204 20393374 20436720 20492196 20537542 20556538 20543898 
3931.554 20509110 20472072 20455856 20481312 20556496 20677614 20828984 
3934.929 20988056 21130818 21237708 21294454 21294154 21238778 21135836 
3938.305 21001306 20856054 20725438 20632720 20595872 20620328 20697918 
3941.680 20806334 20915704 20995620 21026752 21001810 20929376 20827424 
3945.055 20719898 20625314 20554926 20509404 20484780 20473120 20466222 
3948.430 20459718 20449508 20432008 20404310 20363092 20308354 20247116 
3951.806 20190632 20153084 20149050 20183180 20249926 20332732 20410252 
3955.181 20461278 20473850 20447034 20392750 20326776 20266896 20225974 
3958.556 20211854 20226788 20273452 20353456 20468798 20616718 20788062 
3961.931 20961856 21112854 21213918 21246410 21206978 21107838 20974772 
3965.307 20837158 20719606 20635944 20588042 20568864 20568304 20580516 
3968.682 20602178 20634358 20673204 20712856 20739072 20738928 20700694 
3972.057 20623430 20516712 20397718 20287104 20202574 20153732 20142452 
3975.432 20163550 20210780 20277478 20360728 20455870 20560774 20668648 
3978.808 20772544 20863532 20935726 20983378 21004878 20998608 20963764 
3982.183 20901266 20815118 20714798 20615658 20537338 20499346 20513448 
3985.558 20582212 20696164 20838488 20988882 21131698 21258378 21366902 
3988.933 21458464 21535198 21595622 21637720 21658948 21662632 21656950 
3992.309 21653402 21660440 21682882 21714440 21744532 21760024 21756350 
3995.684 21735384 21709850 21693030 21694304 21712344 21735622 21747362 
3999.059 21736568 21703230 21663710 21644312 
##END=
