##TITLE=Tecor_PLA-Bicolour_White_Filament_r7_ATR-Corrected
##JCAMP-DX=5.01  $$ Nicolet v. 1
##DATATYPE=INFRARED SPECTRUM
##ORIGIN=Curtin University
##OWNER=Nicolet
##LONGDATE=2024/07/19
##TIME=11:50:58
##SPECTROMETER/DATA SYSTEM=Nicolet iS50
##DATA PROCESSING=
Ratio against background
%Transmittance->Absorbance
ATR Correction
Truncated
ElementMultiply or ElementDivide
##COMMENTS=
Number of sample scans: 32
Collection length: 47.29 sec
Sample gain: 1.0
Background collected on: Fri Jul 19 11:49:50 2024 (GMT+08:00);
Number of background scans: 32
Background gain: 1.0
Sample spacing:  1.000
Number of scan points: 16672
Resolution points: 8192
Number of FFT points: 65536
Apodization: N-B strong;
Phase correction: Mertz;
Laser frequency: 15798.3 cm-1
Number of rejected sample scans: 0
Number of rejected background scans: 0
Bench serial number: AUP1200105;
##RESOLUTION=4.000
##XUNITS=1/CM
##YUNITS=ABSORBANCE
##FIRSTX=400.163452
##LASTX=4000.187744
##FIRSTY=0.064807
##MAXX=4000.187744
##MINX=400.163452
##MAXY=1.135518
##MINY=-0.024546
##XFACTOR=1.000000
##YFACTOR=1.000000E-008
##NPOINTS=7468
##DELTAX=0.482125
##ZPD=8192
##XYDATA=(X++(Y..Y))
400.163 6480731 6381475 6292126 6209386 6128751 6048535 5969567 5893735 
404.020 5822053 5752941 5682341 5605295 5518784 5423728 5325611 5232864 
407.877 5153908 5093823 5052539 5024916 5002636 4977194 4942665 4896946 
411.734 4841492 4779594 4714252 4646850 4577074 4503918 4427249 4348641 
415.591 4271509 4199909 4137060 4084045 4039637 4000981 3965171 3930408 
419.448 3896528 3864479 3835000 3807351 3778832 3745219 3702395 3648066 
423.305 3583243 3512375 3442403 3380775 3333339 3302806 3288501 3286996 
427.162 3293567 3303538 3313068 3319430 3320618 3315089 3301609 3279573 
431.019 3249604 3213980 3176476 3141663 3113946 3096022 3088298 3088830 
434.876 3094093 3100219 3104233 3104724 3101836 3096501 3089519 3080694 
438.733 3068738 3051779 3028344 2998440 2964091 2929153 2898460 2876462 
442.590 2865973 2867373 2878537 2895586 2914077 2930205 2941721 2948057 
446.447 2950056 2949056 2946159 2941697 2935182 2925710 2912507 2895482 
450.304 2875386 2853647 2831960 2811738 2793749 2778080 2764351 2752051 
454.161 2740973 2731274 2723430 2717967 2715228 2715217 2717645 2722025 
458.017 2727772 2734143 2740047 2743836 2743321 2736106 2720217 2694878 
461.874 2661080 2621603 2580433 2541366 2507775 2480813 2459585 2441817 
465.731 2424998 2407593 2389806 2373481 2361346 2355724 2357484 2365415 
469.588 2376557 2387039 2393259 2392850 2385230 2371442 2353673 2334457 
473.445 2316062 2300064 2287228 2277500 2270180 2264037 2257688 2249830 
477.302 2239759 2227557 2214138 2200937 2189308 2179839 2172080 2164567 
481.159 2155483 2143488 2128510 2111896 2096061 2083390 2075227 2071082 
485.016 2068739 2065025 2057115 2043716 2025698 2005817 1987757 1974758 
488.873 1968454 1968330 1971925 1975759 1976461 1971905 1961830 1947902 
492.730 1933288 1921809 1916964 1920894 1934231 1955270 1980415 2004901 
496.587 2023931 2033895 2033390 2023588 2007829 1990491 1975578 1965457 
500.444 1960288 1958292 1956777 1953445 1947461 1939809 1932927 1929638 
504.301 1932043 1940764 1954806 1972149 1990636 2008788 2026233 2043453 
508.158 2061194 2079646 2097929 2114008 2125185 2128862 2123431 2108862 
512.015 2086863 2060584 2033890 2010541 1993358 1983745 1981504 1985094 
515.871 1992118 1999946 2006274 2009458 2008623 2003518 1994314 1981392 
519.728 1965317 1946964 1927598 1908964 1893066 1881731 1876130 1876272 
523.585 1880962 1888015 1894909 1899334 1900289 1897798 1892891 1887080 
527.442 1881763 1877790 1875330 1873999 1873224 1872500 1871604 1870535 
531.299 1869409 1868258 1866947 1865201 1862667 1859087 1854418 1848916 
535.156 1843146 1838002 1834544 1833764 1836326 1842110 1850060 1858110 
539.013 1863627 1864055 1857733 1844539 1826098 1805399 1785983 1770891 
542.870 1761833 1758827 1760486 1764674 1769385 1773299 1776062 1777908 
546.727 1779264 1780198 1780243 1778510 1774114 1766546 1756011 1743387 
550.584 1730119 1717862 1708231 1702658 1702225 1707557 1718734 1735087 
554.441 1755206 1777088 1798509 1817478 1832970 1844917 1854171 1862089 
558.298 1869910 1878294 1887093 1895508 1902467 1907088 1909001 1908359 
562.155 1905700 1901676 1896875 1891766 1886843 1882698 1880152 1880091 
566.012 1883264 1890049 1900313 1913460 1928572 1944632 1960690 1975905 
569.869 1989540 2000974 2009755 2015764 2019347 2021366 2023005 2025469 
573.725 2029554 2035421 2042621 2050362 2057990 2065326 2072775 2081051 
577.582 2090676 2101496 2112431 2121730 2127565 2128806 2125693 2119948 
581.439 2114448 2112441 2116604 2128342 2147460 2172340 2200460 2228956 
585.296 2255238 2277247 2293624 2303683 2307421 2305476 2299137 2290267 
589.153 2281114 2273990 2270820 2272829 2280231 2292251 2307313 2323383 
593.010 2338458 2350944 2359995 2365621 2368591 2370169 2371744 2374400 
596.867 2378646 2384401 2391117 2398196 2405414 2413139 2422392 2434436 
600.724 2450287 2470146 2493055 2517032 2539528 2558158 2571442 2579213 
604.581 2582659 2583918 2585426 2589266 2596739 2608209 2623335 2641366 
608.438 2661526 2683192 2705941 2729452 2753406 2777378 2800940 2823744 
612.295 2845724 2867132 2888601 2910957 2935011 2961317 2989981 3020523 
616.152 3051976 3083045 3112441 3139191 3163004 3184330 3204329 3224543 
620.009 3246450 3271018 3298365 3327698 3357552 3386227 3412296 3435032 
623.866 3454617 3472004 3488650 3506014 3525193 3546638 3570114 3594835 
627.723 3619723 3643719 3666057 3686419 3704973 3722310 3739298 3756782 
631.579 3775426 3795514 3816855 3838827 3860541 3880991 3899330 3914967 
635.436 3927663 3937525 3944948 3950554 3955126 3959588 3964929 3972084 
639.293 3981870 3994796 4011003 4030225 4051886 4075216 4099456 4123903 
643.150 4148040 4171427 4193715 4214560 4233730 4251161 4267096 4282149 
647.007 4297249 4313418 4331543 4352113 4375009 4399536 4424557 4448777 
650.864 4471078 4490730 4507582 4522050 4535031 4547702 4561261 4576684 
654.721 4594511 4614670 4636435 4658531 4679384 4697466 4711689 4721715 
658.578 4728153 4732382 4736326 4741899 4750611 4763125 4779187 4797781 
662.435 4817506 4837068 4855690 4873316 4890471 4907984 4926477 4945977 
666.292 4965809 4984686 5001298 5014753 5025142 5033618 5042153 5052878 
670.149 5067396 5086130 5108144 5131466 5153716 5172910 5188137 5199758 
674.006 5209205 5218375 5228969 5241964 5257449 5274791 5293094 5311589 
677.863 5329902 5348065 5366253 5384595 5402854 5420519 5436991 5451808 
681.720 5464834 5476298 5486706 5496629 5506553 5516847 5527813 5539780 
685.577 5553121 5568191 5585145 5603720 5623162 5642372 5660181 5675738 
689.433 5688861 5700070 5710440 5721223 5733349 5747141 5762237 5777769 
693.290 5792704 5806247 5818006 5828064 5836770 5844477 5851421 5857573 
697.147 5862818 5867103 5870667 5874064 5878122 5883723 5891534 5901788 
701.004 5914150 5927789 5941474 5953859 5963679 5969968 5972143 5970029 
704.861 5963815 5953946 5941003 5925613 5908358 5889724 5870053 5849560 
708.718 5828290 5806132 5782800 5757906 5730931 5701315 5668537 5632099 
712.575 5591508 5546243 5495723 5439330 5376554 5307119 5231229 5149653 
716.432 5063668 4974854 4884754 4794457 4704422 4614411 4523804 4431986 
720.289 4338823 4244909 4151598 4060645 3973778 3892151 3816150 3745371 
724.146 3679032 3616419 3557409 3502672 3453648 3412203 3380218 3359191 
728.003 3349998 3352968 3368074 3395219 3434478 3486185 3550901 3629224 
731.860 3721584 3828019 3948031 4080531 4223815 4375617 4533260 4693831 
735.717 4854445 5012465 5165764 5312938 5453321 5586999 5714642 5837264 
739.574 5955967 6071636 6184716 6295018 6401825 6503904 6599855 6688524 
743.431 6769348 6842694 6909920 6973278 7035510 7099335 7166992 7239815 
747.287 7318122 7401348 7488309 7577602 7667903 7758097 7847354 7934951 
751.144 8020133 8101989 8179409 8251100 8315702 8371863 8418357 8454059 
755.001 8477999 8489280 8487091 8470723 8439557 8393115 8331100 8253523 
758.858 8160728 8053518 7933235 7801702 7661091 7513673 7361536 7206278 
762.715 7048917 6889927 6729582 6568245 6406775 6246634 6089827 5938551 
766.572 5794758 5659776 5533983 5416882 5307290 5203600 5104197 5007617 
770.429 4912682 4818545 4724650 4630682 4536687 4442988 4350199 4259130 
774.286 4170674 4085591 4004408 3927257 3853908 3783751 3715924 3649361 
778.143 3582946 3515553 3446245 3374415 3299912 3223153 3145086 3066998 
782.000 2990226 2915842 2844311 2775444 2708445 2642168 2575550 2507906 
785.857 2439188 2369995 2301424 2234735 2171113 2111309 2055572 2003633 
789.714 1954798 1908172 1862843 1818076 1773474 1729015 1685110 1642491 
793.571 1602072 1564765 1531286 1501995 1476903 1455720 1438039 1423467 
797.428 1411773 1402824 1396447 1392229 1389364 1386630 1382564 1375766 
801.285 1365321 1351072 1333706 1314604 1295640 1278601 1264863 1255142 
805.141 1249477 1247328 1247812 1249929 1252752 1255525 1257776 1259293 
808.998 1260160 1260675 1261292 1262452 1264481 1267488 1271362 1275812 
812.855 1280554 1285321 1289992 1294509 1298743 1302420 1305148 1306483 
816.712 1306138 1304147 1300937 1297196 1293612 1290625 1288250 1286089 
820.569 1283674 1280717 1277505 1274881 1274067 1276176 1281796 1290674 
824.426 1301700 1313279 1323822 1332245 1338226 1342232 1345285 1348553 
828.283 1353085 1359636 1368620 1380197 1394324 1410724 1428893 1448104 
832.140 1467509 1486401 1504503 1522101 1540167 1559984 1582809 1609486 
835.997 1640257 1674855 1712802 1753826 1798108 1846312 1899351 1957940 
839.854 2022324 2092137 2166562 2244672 2325756 2409406 2495419 2583374 
843.711 2672331 2760615 2845960 2925982 2998696 3062995 3118851 3167133 
847.568 3209272 3246861 3281380 3314221 3346889 3381241 3419653 3464923 
851.425 3520025 3587774 3670553 3770177 3887972 4024903 4181720 4358922 
855.282 4556628 4774320 5010602 5263122 5528568 5802908 6081672 6360323 
859.139 6634505 6900354 7154678 7395133 7620270 7829427 8022577 8199934 
862.995 8361584 8507301 8636405 8748078 8841608 8916820 8974252 9015018 
866.852 9040491 9051824 9049565 9033508 9002841 8956565 8893874 8814468 
870.709 8718672 8607281 8481352 8341950 8190116 8026876 7853329 7670718 
874.566 7480404 7283695 7081689 6875206 6664742 6450676 6233535 6014191 
878.423 5794026 5574913 5359092 5148932 4946772 4754674 4574436 4407461 
882.280 4254824 4117290 3995346 3889213 3798865 3724077 3664396 3619159 
886.137 3587510 3568343 3560355 3562042 3571740 3587667 3607980 3630846 
889.994 3654500 3677351 3698070 3715723 3729806 3740295 3747555 3752219 
893.851 3754943 3756253 3756374 3755187 3752299 3747134 3739162 3728072 
897.708 3713916 3697204 3678919 3660392 3643079 3628269 3616738 3608517 
901.565 3602845 3598327 3593379 3586747 3577937 3567481 3556760 3547585 
905.422 3541540 3539448 3541112 3545376 3550620 3555311 3558529 3560142 
909.279 3560757 3561289 3562596 3565107 3568832 3573443 3578579 3583995 
913.136 3589621 3595401 3601138 3606330 3610239 3612068 3611291 3607825 
916.993 3602109 3594920 3587020 3578889 3570491 3561322 3550635 3537817 
920.849 3522606 3505292 3486640 3467648 3449308 3432281 3416835 3402812 
924.706 3389722 3377002 3364159 3350937 3337447 3324067 3311384 3299899 
928.563 3289955 3281498 3274121 3267198 3260111 3252529 3244597 3236946 
932.420 3230496 3226198 3224681 3226148 3230281 3236446 3243915 3252033 
936.277 3260370 3268641 3276660 3284246 3291300 3297898 3304464 3311846 
940.134 3321249 3333988 3351162 3373346 3400461 3431914 3466779 3504227 
943.991 3543700 3585023 3628302 3673611 3720867 3769645 3819324 3869272 
947.848 3919232 3969415 4020648 4074200 4131427 4193370 4260359 4331756 
951.705 4405918 4480370 4552167 4618433 4676788 4725586 4764014 4791764 
955.562 4808548 4813663 4805628 4782234 4741021 4679898 4597956 4496000 
959.419 4376660 4244117 4103430 3959836 3818019 3681724 3553643 3435444 
963.276 3328023 3231641 3146114 3070937 3005454 2949007 2901132 2861599 
967.133 2830393 2807533 2792810 2785587 2784798 2789022 2796897 2807312 
970.990 2819692 2834003 2850522 2869600 2891401 2915735 2942173 2970094 
974.847 2998887 3028033 3057106 3085790 3113871 3141398 3168781 3196901 
978.703 3227041 3260639 3298815 3342001 3389662 3440315 3491956 3542540 
982.560 3590629 3635690 3678169 3719304 3760660 3803806 3849935 3899816 
986.417 3953724 4011501 4072550 4135961 4200442 4264637 4327413 4388205 
990.274 4447232 4505537 4564733 4626584 4692491 4763127 4838341 4917358 
994.131 4999089 5082571 5167235 5252981 5340054 5428866 5519805 5613079 
997.988 5708826 5807054 5907861 6011383 6117900 6227825 6341688 6460234 
1001.845 6584332 6714940 6852978 6999153 7153816 7316889 7487981 7666537 
1005.702 7852103 8044540 8244134 8451585 8667921 8894268 9131797 9381469 
1009.559 9644033 9919896 10209231 10511962 10827967 11157162 11499793 
1012.934 11856323 12227465 12613867 13015842 13433127 13864866 14309829 
1016.309 14766777 15234828 15713626 16203080 16702934 17212218 17728740 
1019.683 18249266 18769970 19287172 19798142 20301504 20797188 21285878 
1023.058 21768428 22245366 22716864 23183172 23645264 24105378 24567204 
1026.433 25035462 25515186 26010976 26526322 27063590 27624282 28209630 
1029.809 28821004 29460130 30128720 30827922 31557634 32315982 33099108 
1033.184 33901452 34716204 35536072 36353928 37163316 37958644 38735152 
1036.559 39488444 40213960 40906316 41559120 42164960 42716060 43205160 
1039.934 43626656 43977264 44256536 44466288 44610052 44691828 44715540 
1043.310 44684388 44600884 44467312 44286160 44060544 43794556 43493108 
1046.685 43161900 42807068 42434960 42051840 41663632 41275632 40892304 
1050.060 40517032 40152180 39799208 39458956 39131968 38818764 38519856 
1053.435 38235676 37966400 37711832 37471400 37244596 37031444 36833168 
1056.811 36652600 36494400 36364900 36271684 36222968 36227040 36291824 
1060.186 36424552 36631604 36918448 37289412 37747592 38294640 38930668 
1063.561 39654036 40461424 41347768 42306468 43329612 44408440 45533956 
1066.936 46697788 47892832 49113820 50357308 51621272 52904092 54203684 
1070.312 55516468 56837248 58159404 59475916 60780424 62068344 63337152 
1073.687 64586348 65816384 67027588 68218968 69387624 70528656 71635840 
1077.062 72702304 73721328 74686760 75592800 76433512 77202352 77891792 
1080.437 78493640 78999464 79401584 79693608 79870984 79931032 79872880 
1083.813 79697424 79407440 79007880 78506088 77911504 77235248 76489096 
1087.188 75684688 74832488 73941520 73019240 72071872 71104672 70122264 
1090.563 69128800 68128104 67123576 66118472 65115636 64117556 63126256 
1093.938 62143064 61168592 60202868 59245544 58296276 57354976 56421924 
1097.313 55497564 54582228 53675760 52777552 51886528 51001752 50122772 
1100.689 49250040 48384832 47529100 46684976 45854472 45039272 44241004 
1104.064 43461464 42703076 41968928 41262604 40587680 39947180 39343072 
1107.439 38776184 38246320 37752736 37294744 36872236 36485768 36136592 
1110.814 35826132 35555564 35325272 35134544 34981380 34862808 34775160 
1114.190 34714604 34677680 34661560 34664352 34685092 34723564 34780024 
1117.565 34855020 34949192 35063132 35197508 35353000 35530348 35730232 
1120.940 35953000 36198212 36464276 36748088 37044848 37348132 37650244 
1124.315 37942720 38216944 38464708 38678552 38852096 38980040 39058176 
1127.691 39083384 39053544 38967596 38825536 38628428 38378148 38077196 
1131.066 37728188 37333584 36895088 36413560 35888968 35320660 34707796 
1134.441 34049952 33347428 32601606 31815016 30991172 30134446 29249880 
1137.816 28342956 27419508 26485464 25546598 24608214 23675002 22750960 
1141.192 21839622 20944440 20069052 19217686 18394900 17605332 16853100 
1144.567 16141360 15472038 14845790 14262392 13721071 13220958 12761235 
1147.942 12341129 11959818 11616227 11308955 11036360 10796594 10587828 
1151.317 10408285 10256192 10129758 10027163 9946494 9886056 9844407 9820609 
1155.175 9814234 9825270 9853946 9900485 9965104 10047928 10149259 10269731 
1159.032 10410456 10573014 10759326 10971422 11211280 11480793 11781915 
1162.407 12116892 12488538 12900430 13356863 13862717 14423238 15043798 
1165.783 15729842 16486865 17320686 18237534 19244132 20347612 21555142 
1169.158 22873530 24308642 25864890 27544820 29348734 31274414 33316892 
1172.533 35468172 37716980 40048648 42444800 44883132 47337504 49777940 
1175.908 52170964 54480360 56668204 58696432 60528832 62133068 63482712 
1179.284 64558776 65350676 65856796 66084080 66047328 65768016 65272532 
1182.659 64590316 63751824 62786836 61723124 60585856 59397252 58176744 
1186.034 56941200 55705040 54480464 53277368 52103500 50964636 49864892 
1189.409 48807096 47793168 46824416 45901696 45025496 44195996 43413080 
1192.785 42676260 41984780 41337500 40732996 40169416 39644656 39156396 
1196.160 38702400 38280628 37889416 37527452 37193680 36887056 36606428 
1199.535 36350400 36117452 35906000 35714568 35541616 35385568 35244392 
1202.910 35115456 34995484 34880748 34767684 34653260 34535328 34412736 
1206.286 34284932 34151388 34011088 33862116 33701704 33526590 33333730 
1209.661 33120648 32885960 32629320 32351180 32052522 31734460 31398138 
1213.036 31044618 30675026 30290564 29892522 29482312 29061342 28631070 
1216.411 28192946 27748430 27298986 26846090 26391130 25935436 25480274 
1219.787 25026924 24576766 24131248 23691802 23259700 22835796 22420404 
1223.162 22013328 21613934 21221576 20835880 20456962 20085530 19722664 
1226.537 19369554 19027122 18695828 18375618 18066030 17766484 17476474 
1229.912 17195792 16924510 16662900 16411287 16169906 15938756 15717615 
1233.288 15506083 15303616 15109631 14923590 14745139 14574088 14410402 
1236.663 14254221 14105709 13964935 13831791 13705836 13586389 13472620 
1240.038 13363776 13259295 13158938 13062775 12971061 12884073 12802035 
1243.413 12724990 12652965 12585941 12524053 12467532 12416587 12371317 
1246.789 12331589 12297019 12267046 12241132 12218917 12200446 12186036 
1250.164 12176222 12171631 12172722 12179769 12192820 12211841 12236754 
1253.539 12267524 12304113 12346491 12394507 12447839 12506047 12568508 
1256.914 12634519 12703326 12774146 12846191 12918735 12991218 13063246 
1260.290 13134719 13205685 13276272 13346493 13416068 13484330 13550207 
1263.665 13612461 13669714 13720728 13764471 13800126 13827114 13844986 
1267.040 13853411 13852091 13840792 13819271 13787200 13744080 13689221 
1270.415 13621815 13541061 13446321 13337351 13214338 13077827 12928650 
1273.791 12767713 12595777 12413467 12221339 12019948 11809982 11592269 
1277.166 11367673 11137011 10900941 10659979 10414641 10165671 9914246 
1280.541 9662066 9411214 9163949 8922279 8687755 8461337 8243537 8034722 
1284.398 7835380 7646407 7469140 7305174 7156132 7023348 6907738 6809707 
1288.256 6729293 6666302 6620405 6591218 6578263 6580898 6598196 6628934 
1292.113 6671569 6724323 6785301 6852565 6924235 6998630 7074248 7149851 
1295.971 7224409 7297002 7366833 7433098 7495024 7551862 7603093 7648475 
1299.828 7688172 7722722 7752970 7779846 7804259 7826847 7848014 7867876 
1303.686 7886401 7903366 7918530 7931563 7942107 7949798 7954366 7955792 
1307.543 7954346 7950669 7945636 7940148 7934942 7930273 7925906 7921202 
1311.400 7915383 7907851 7898509 7887845 7876827 7866706 7858583 7853187 
1315.258 7850638 7850563 7852249 7854900 7857921 7860967 7863945 7866922 
1319.115 7869939 7872945 7875832 7878518 7881077 7883867 7887388 7892235 
1322.973 7898939 7907726 7918590 7931380 7945989 7962577 7981658 8004045 
1326.830 8030727 8062495 8099862 8142877 8191264 8244597 8302492 8364738 
1330.688 8431254 8501942 8576598 8654860 8736265 8820470 8907515 8997870 
1334.545 9092367 9191857 9296896 9407388 9522569 9641184 9762000 9884185 
1338.402 10007755 10133529 10262932 10397455 10538270 10685817 10839868 
1341.778 10999703 11164566 11333940 11507754 11686420 11870538 12060644 
1345.153 12256964 12459263 12666942 12879182 13095109 13313921 13534977 
1348.528 13757642 13981181 14204681 14426838 14646083 14860658 15068768 
1351.903 15268821 15459512 15639921 15809439 15967658 16114196 16248581 
1355.279 16370200 16478361 16572396 16651820 16716471 16766649 16803112 
1358.654 16827070 16840110 16844056 16840718 16831808 16818800 16802738 
1362.029 16784292 16763788 16741198 16716076 16687739 16655007 16616283 
1365.404 16569448 16512015 16441223 16354334 16248861 16122918 15975423 
1368.780 15806375 15617026 15410207 15190478 14964375 14740461 14529133 
1372.155 14342085 14191571 14089377 14045723 14068216 14160982 14324287 
1375.530 14554311 14843556 15181252 15554132 15947388 16345379 16732693 
1378.905 17095058 17420044 17697536 17919890 18081712 18179626 18211826 
1382.281 18177874 18078548 17915838 17692836 17413642 17083198 16707081 
1385.656 16291276 15842065 15365827 14868796 14356817 13835005 13307489 
1389.031 12777284 12246390 11716010 11187008 10660266 10137118 9619547 
1392.406 9110285 8612727 8130713 7668176 7228814 6815690 6431079 6076268 
1396.264 5751595 5456561 5189994 4950175 4735004 4542151 4369203 4213861 
1400.121 4074026 3947944 3834241 3731770 3639641 3556927 3482697 3415969 
1403.979 3355727 3301006 3251052 3205187 3163001 3124181 3088551 3055952 
1407.836 3026245 2999248 2974665 2952138 2931192 2911370 2892276 2873729 
1411.693 2855719 2838485 2822421 2807997 2795665 2785787 2778644 2774416 
1415.551 2773134 2774614 2778480 2784072 2790587 2797235 2803527 2809405 
1419.408 2815381 2822345 2831290 2843002 2857781 2875475 2895575 2917606 
1423.266 2941320 2966885 2994748 3025458 3059358 3096480 3136545 3179304 
1427.123 3224698 3273112 3325348 3382384 3445115 3514062 3589388 3671033 
1430.980 3759133 3854244 3957666 4071310 4197590 4339118 4498524 4678344 
1434.838 4881060 5109075 5364796 5650548 5968518 6320685 6708931 7135069 
1438.695 7600840 8107880 8657228 9248898 9881411 10551337 11253309 11980177 
1442.553 12723543 13474216 14222917 14960627 15678994 16370611 17029048 
1445.928 17648876 18225602 18755616 19236250 19665850 20043904 20370944 
1449.303 20648282 20877590 21060368 21197644 21289962 21337732 21341474 
1452.678 21302140 21220958 21098890 20936226 20732214 20485196 20193360 
1456.054 19855600 19472360 19046046 18580564 18080712 17551262 16996458 
1459.429 16420010 15825377 15216297 14596872 13971560 13344857 12720838 
1462.804 12103029 11494474 10897920 10316062 9751651 9207311 8685306 8187342 
1466.662 7714517 7267397 6846188 6450961 6081616 5737864 5419051 5124223 
1470.519 4852090 4601281 4370542 4158784 3965138 3788774 3628784 3484058 
1474.376 3353357 3235376 3128907 3032882 2946379 2868513 2798295 2734649 
1478.234 2676413 2622577 2572312 2525237 2481265 2440550 2403244 2369358 
1482.091 2338610 2310530 2284506 2259978 2236577 2214128 2192675 2172335 
1485.949 2153260 2135543 2119200 2104198 2090494 2078021 2066744 2056573 
1489.806 2047415 2039067 2031281 2023776 2016302 2008697 2000954 1993202 
1493.664 1985707 1978696 1972346 1966630 1961314 1956035 1950375 1944027 
1497.521 1936934 1929326 1921606 1914331 1907907 1902554 1898200 1894500 
1501.378 1891027 1887336 1883193 1878528 1873518 1868433 1863559 1859083 
1505.236 1855071 1851452 1848117 1844961 1841955 1839169 1836746 1834783 
1509.093 1833298 1832098 1830831 1829012 1826178 1822029 1816584 1810214 
1512.951 1803566 1797416 1792442 1789032 1787208 1786642 1786844 1787273 
1516.808 1787568 1787563 1787273 1786745 1785983 1784808 1782937 1780114 
1520.666 1776186 1771245 1765577 1759657 1753904 1748563 1743716 1739249 
1524.523 1735003 1730857 1726797 1722948 1719501 1716575 1714209 1712236 
1528.380 1710381 1708244 1705465 1701733 1696891 1690927 1684034 1676506 
1532.238 1668752 1661148 1654026 1647550 1641737 1636474 1631609 1627027 
1536.095 1622699 1618633 1614873 1611282 1607633 1603536 1598576 1592531 
1539.953 1585459 1577745 1570017 1562990 1557199 1552853 1549838 1547758 
1543.810 1546075 1544353 1542259 1539649 1536456 1532700 1528381 1523587 
1547.667 1518376 1512994 1507698 1502756 1498336 1494433 1490848 1487313 
1551.525 1483545 1479422 1475013 1470575 1466418 1462816 1459944 1457891 
1555.382 1456569 1455903 1455765 1455947 1456171 1456052 1455205 1453386 
1559.240 1450632 1447358 1444289 1442252 1441895 1443408 1446428 1450143 
1563.097 1453453 1455415 1455414 1453352 1449610 1444838 1439691 1434642 
1566.955 1429968 1425671 1421792 1418414 1415772 1414242 1414167 1415754 
1570.812 1418952 1423422 1428597 1433775 1438270 1441559 1443354 1443705 
1574.669 1442986 1441861 1441204 1441810 1444235 1448642 1454654 1461481 
1578.527 1468067 1473336 1476412 1476793 1474429 1469709 1463333 1456246 
1582.384 1449466 1443935 1440470 1439504 1441170 1445158 1450791 1457231 
1586.242 1463671 1469508 1474531 1478870 1482895 1487024 1491489 1496338 
1590.099 1501358 1506321 1511094 1515713 1520431 1525531 1531237 1537558 
1593.957 1544314 1551221 1558018 1564615 1571118 1577734 1584630 1591780 
1597.814 1598945 1605709 1611680 1616580 1620453 1623579 1626387 1629310 
1601.671 1632631 1636481 1640893 1645922 1651738 1658625 1666953 1676926 
1605.529 1688530 1701452 1715049 1728579 1741367 1753022 1763417 1772765 
1609.386 1781500 1790149 1799159 1808860 1819489 1831045 1843400 1856302 
1613.244 1869295 1881870 1893487 1903743 1912456 1919683 1925837 1931465 
1617.101 1937207 1943537 1950692 1958623 1967023 1975484 1983558 1990870 
1620.958 1997103 2002058 2005589 2007596 2008098 2007212 2005267 2002767 
1624.816 2000393 1998876 1998843 2000633 2004265 2009324 2015074 2020628 
1628.673 2025141 2027968 2028846 2027857 2025287 2021571 2017051 2011951 
1632.531 2006318 2000160 1993474 1986435 1979380 1972729 1966904 1962090 
1636.388 1958265 1955046 1951897 1948311 1944014 1939090 1934018 1929478 
1640.246 1926243 1924855 1925504 1927931 1931505 1935404 1938831 1941180 
1644.103 1942241 1942067 1940967 1939373 1937621 1935908 1934288 1932667 
1647.960 1931056 1929540 1928454 1928271 1929553 1932735 1937981 1945130 
1651.818 1953672 1962884 1972034 1980577 1988252 1995098 2001344 2007268 
1655.675 2013076 2018956 2025093 2031810 2039565 2048913 2060365 2074066 
1659.533 2089718 2106446 2123000 2138048 2150567 2160115 2166951 2171991 
1663.390 2176494 2181614 2188254 2196779 2207080 2218788 2231397 2244545 
1667.248 2258039 2271885 2286105 2300787 2315960 2331566 2347453 2363426 
1671.105 2379320 2394911 2409986 2424385 2438033 2450915 2463165 2475003 
1674.962 2486804 2498969 2512045 2526504 2542890 2561568 2582748 2606298 
1678.820 2631684 2658040 2684216 2709128 2731969 2752452 2770879 2788000 
1682.677 2804834 2822369 2841362 2862176 2884851 2909266 2935201 2962533 
1686.535 2991240 3021336 3052865 3085854 3120393 3156555 3194462 3234141 
1690.392 3275484 3318151 3361586 3405223 3448804 3492551 3537378 3584730 
1694.250 3636190 3693068 3755871 3824159 3896628 3971681 4047949 4124777 
1698.107 4202595 4282512 4366068 4454668 4549177 4649816 4756282 4867939 
1701.964 4984304 5105174 5230690 5361205 5497194 5639086 5787285 5942224 
1705.822 6104466 6274613 6453435 6641554 6839499 7047473 7265401 7492995 
1709.679 7729772 7975321 8229300 8491567 8762235 9041644 9330284 9628588 
1713.537 9936725 10254499 10581110 10915403 11256106 11602094 11952683 
1716.912 12307683 12667237 13031535 13400485 13773654 14150609 14531334 
1720.287 14916824 15309441 15712848 16131575 16570356 17033384 17523986 
1723.662 18044690 18597562 19184858 19809674 20476102 21189342 21955516 
1727.038 22781364 23673992 24640716 25688670 26824852 28055784 29387664 
1730.413 30826628 32379488 34054252 35860404 37808332 39907812 42166036 
1733.788 44585456 47162868 49889988 52755504 55747872 58857544 62076984 
1737.163 65398968 68813088 72302296 75840864 79394856 82925144 86391712 
1740.539 89757304 92989000 96057984 98937712 101602856 104029664 106197856 
1743.914 108092688 109705784 111034576 112080096 112845192 113333736 
1746.807 113551768 113508832 113218880 112699640 111970328 111049232 
1749.700 109952280 108693120 107284472 105739784 104073880 102302040 
1752.593 100438448 98494400 96477968 94394984 92250888 90052704 87809816 
1755.968 85533640 83236072 80928048 78618560 76314816 74023408 71751448 
1759.344 69507256 67300472 65141080 63038172 60998972 59028572 57129844 
1762.719 55304176 53551840 51872568 50265600 48729652 47263028 45863768 
1766.094 44529928 43259580 42050964 40901980 39809856 38770648 37779280 
1769.469 36829680 35915472 35030664 34170248 33330452 32508724 31703248 
1772.844 30912536 30134922 29368324 28610212 27857900 27108836 26360782 
1776.220 25612188 24862026 24109900 23355640 22599284 21840904 21080614 
1779.595 20318844 19556612 18795820 18039366 17291012 16555035 15835804 
1782.970 15137190 14462225 13812953 13190487 12595145 12026741 11484861 
1786.345 10968928 10478427 10012887 9571899 9155118 8762319 8393338 8048045 
1790.203 7726173 7427336 7150731 6895094 6658691 6439551 6235693 6045431 
1794.060 5867721 5701986 5548111 5405994 5275143 5154535 5042467 4936980 
1797.918 4836177 4738694 4643976 4552277 4464345 4381178 4303548 4231859 
1801.775 4166097 4105863 4050519 3999278 3951130 3905035 3859929 3814908 
1805.633 3769469 3723706 3678247 3633995 3591650 3551475 3512922 3474889 
1809.490 3436176 3396043 3354587 3312906 3272653 3235338 3201706 3171284 
1813.347 3142572 3113611 3082758 3049444 3014459 2979683 2947584 2920247 
1817.205 2898782 2883046 2871822 2863229 2855308 2846302 2834841 2819776 
1821.062 2800153 2775481 2745741 2711835 2675545 2639322 2605600 2576153 
1824.920 2551465 2530576 2511484 2491963 2470207 2445611 2418706 2390809 
1828.777 2363438 2337604 2313456 2290489 2267841 2244844 2221255 2197205 
1832.635 2172944 2148315 2122559 2094382 2062384 2025729 1984720 1940949 
1836.492 1897179 1856675 1822232 1795669 1777173 1765448 1758110 1752315 
1840.349 1745525 1735872 1722562 1705768 1686320 1665463 1644482 1624351 
1844.207 1605734 1588802 1573411 1559167 1545524 1532020 1518111 1503324 
1848.064 1487254 1469568 1450107 1429167 1407542 1386629 1368243 1354305 
1851.922 1346190 1344400 1348184 1355473 1363315 1368575 1368706 1362316 
1855.779 1349613 1332317 1313183 1295532 1282246 1275624 1276474 1284340 
1859.636 1297307 1312237 1325379 1332750 1331157 1318809 1295801 1264455 
1863.494 1228830 1193922 1164627 1144602 1135658 1137488 1148067 1164288 
1867.351 1182824 1200708 1215601 1225959 1230777 1229717 1223083 1211872 
1871.209 1197818 1183118 1170075 1160343 1154511 1151899 1150747 1148826 
1875.066 1144124 1135325 1122048 1104682 1083838 1060222 1034578 1007864 
1878.924 981788 958932 942511 935581 940069 955823 980315 1008999 1036634 
1883.263 1058635 1072469 1078227 1078434 1077001 1077751 1083339 1094328 
1887.121 1109215 1125031 1138194 1145407 1144506 1134712 1116685 1092204 
1890.978 1063771 1033892 1004776 977959 954462 934913 920111 911117 909394 
1895.318 916070 931250 953024 977238 997813 1008142 1002999 980358 942461 
1899.657 895557 848339 809614 785772 779083 787538 805712 826860 845131 
1903.997 856748 860860 858667 852544 844785 837086 830176 824609 820942 
1908.336 820467 824896 835935 854422 879523 908254 935505 954992 960463 
1912.676 947455 914841 865648 806738 747520 697618 664391 651121 656302 
1917.016 674663 699265 723898 744998 762162 776846 790802 804041 814223 
1921.355 817339 809462 789146 758428 722570 688606 662375 646666 640567 
1925.695 640181 641132 640695 639131 639529 645837 660771 684267 713338 
1930.034 743375 770134 791191 806500 817301 824675 828024 825184 813484 
1934.374 791771 761921 729330 701212 684316 682151 693477 712865 732442 
1938.714 744748 744992 731705 706349 671726 630619 585069 536989 489223 
1943.053 446450 414982 401468 411135 445740 503094 577204 659916 742847 
1947.393 818245 880455 925099 949871 953966 939085 909201 871516 834319 
1951.732 805646 790605 789788 798671 809258 812190 800361 770229 723264 
1956.072 664439 601500 542264 493920 461781 449578 458654 487844 532845 
1960.412 586641 640203 685033 714451 726849 724778 714355 702137 692532 
1964.751 685582 677605 661912 633153 589521 535145 479926 437377 421306 
1969.091 441939 502961 599872 719738 843464 948603 1014092 1024796 975530 
1973.430 873258 737744 597465 484934 429394 449699 550263 719300 930894 
1977.770 1151634 1347559 1492731 1573216 1587883 1545922 1463221 1357818 
1981.627 1248070 1149582 1074742 1030739 1018986 1035173 1070402 1112544 
1985.485 1149493 1170613 1169403 1144626 1099948 1042371 980321 920409 
1989.342 866136 816044 765438 708006 640083 562622 483043 413455 367543 
1993.682 355247 378988 431314 497166 557882 597924 609079 593429 560713 
1998.021 524090 493685 472219 453545 425256 373496 289641 173430 34258 
2002.361 -111954 -246731 -354839 -425929 -455354 -441620 -384198 -282155 
2006.219 -134911 55534 281621 529203 778394 1008137 1199647 1341397 1429371 
2010.558 1467792 1465738 1434824 1385367 1326713 1265649 1207662 1157151 
2014.416 1117231 1087982 1066042 1042421 1005656 943043 846189 714872 560071 
2018.755 402930 270816 189663 176039 230866 337863 467383 585743 664883 
2023.095 691832 671064 623346 576178 554261 570684 622709 694529 764794 
2027.434 814238 833055 821239 785928 735175 673983 602278 519153 426557 
2031.774 334595 259554 220940 232285 295016 396037 511249 614076 685317 
2036.114 718323 719915 705301 690028 683434 685440 688224 682435 661620 
2040.453 626290 583477 543741 516816 508559 518925 544656 580419 622474 
2044.793 669443 722778 785517 861774 954718 1066329 1194241 1330807 1461147 
2049.132 1564565 1618975 1607466 1524247 1378681 1193659 1001213 834335 
2052.990 718839 665875 669412 708435 755843 787887 792903 773500 743282 
2057.329 719094 713235 727805 755336 782352 796752 792916 774492 751799 
2061.669 737476 740094 761672 797023 837000 872726 899506 917852 932594 
2066.009 949911 974826 1008893 1050391 1094812 1136700 1170612 1192011 
2069.866 1197640 1186436 1159748 1122576 1082666 1049763 1032979 1038271 
2073.723 1066026 1111049 1163531 1212074 1246697 1261384 1254442 1228351 
2077.581 1187504 1137411 1083196 1030006 982792 946736 926249 923838 938928 
2081.920 967782 1003768 1039596 1069237 1089531 1100317 1103704 1101805 
2085.778 1095911 1085516 1069241 1045980 1016222 982228 947386 914261 883761 
2090.117 854222 822751 787012 747337 707452 674243 655140 655961 678037 
2094.457 717912 768239 820452 867313 904692 931680 949377 958783 959916 
2098.797 951683 933166 905074 871012 836794 809617 795184 796034 810230 
2103.136 832156 854266 869585 873734 866597 851719 835568 825258 826483 
2107.476 841871 870242 906641 944046 974850 993416 997594 989459 974716 
2111.815 960549 953456 956722 969032 984995 996620 996295 978940 943767 
2116.155 894084 836182 777080 722649 676341 639026 609935 587632 571034 
2120.495 559691 553385 551545 552562 553741 551631 542867 524454 494869 
2124.834 453599 401288 339340 270050 195887 119753 44310 -28221 -96714 
2129.174 -161173 -222491 -281657 -338716 -392377 -439825 -477144 -501373 
2133.031 -510905 -507351 -494646 -478408 -464265 -456365 -456503 -465002 
2136.889 -480984 -504254 -535437 -576292 -628205 -691729 -764844 -843437 
2140.746 -921185 -991294 -1047189 -1084487 -1101346 -1099369 -1083043 
2144.121 -1059094 -1035696 -1019994 -1016433 -1025263 -1042310 -1060720 
2147.497 -1072761 -1074655 -1068310 -1062257 -1069289 -1101832 -1166265 
2150.872 -1260815 -1372958 -1485178 -1579731 -1646217 -1685825 -1712313 
2154.247 -1746735 -1810651 -1915866 -2059028 -2219702 -2363998 -2453213 
2157.622 -2454611 -2351206 -2147149 -1865391 -1539729 -1203295 -880858 
2160.998 -587059 -329857 -115791 47291 152011 194134 176850 112890 22697 
2165.337 -70138 -144597 -188957 -201672 -191528 -172488 -159045 -161239 
2169.195 -182868 -221594 -271858 -326697 -381277 -432564 -479627 -522000 
2173.052 -558403 -586135 -601311 -599454 -577752 -535955 -477753 -410293 
2176.909 -343653 -288833 -256051 -251667 -276688 -325585 -386758 -444517 
2180.767 -482931 -489926 -460682 -398742 -314918 -223204 -136808 -64484 
2184.624 -9293 30143 57491 76436 88743 94631 93665 86400 74518 60788 47598 
2189.928 36118 25476 14119 1219 -11560 -19973 -18408 -2521 28642 70509 
2194.750 114780 151237 172694 177041 169176 158399 155625 168244 197650 
2199.090 238552 281309 315204 332955 332421 317951 297432 280318 273462 
2203.429 280192 298893 324707 351310 373383 388015 395741 400174 406760 
2207.769 420962 446535 483687 529680 579021 625609 664849 694993 717762 
2212.108 737289 758033 782834 811690 841854 869376 891162 906590 917668 
2216.448 928277 942060 960509 982415 1004247 1022325 1034542 1041436 1045908 
2220.788 1051960 1062151 1076680 1092975 1106962 1115026 1115313 1108182 
2224.645 1095786 1080187 1062310 1041573 1016426 985996 951113 914566 880558 
2228.985 852760 833251 821851 816715 815714 818194 825098 839189 862767 
2233.324 896644 938939 985534 1031033 1071076 1103091 1126974 1144170 
2237.182 1156672 1165903 1172819 1178011 1182718 1188906 1198923 1214017 
2241.039 1233226 1252395 1265193 1264863 1246767 1210226 1159335 1101544 
2244.896 1045424 997896 962446 938527 923021 911885 902519 894330 888627 
2249.236 887344 891957 902080 915882 930760 944841 957792 971142 987735 
2253.576 1010749 1042452 1083399 1132067 1185462 1239309 1288975 1329703 
2257.433 1357087 1367428 1358168 1328177 1278947 1214188 1140109 1064608 
2261.291 996149 941962 907079 892821 897332 915872 942482 971466 999016 
2265.630 1023900 1047396 1072252 1101629 1137273 1179060 1224710 1270583 
2269.488 1312404 1346628 1370558 1383240 1384877 1376888 1361729 1342909 
2273.345 1324635 1311745 1308572 1318336 1341835 1377177 1420335 1465979 
2277.202 1509051 1546234 1576344 1600361 1620310 1638289 1655465 1672098 
2281.060 1687710 1702046 1715437 1729019 1744048 1761027 1779186 1796370 
2284.917 1809700 1816568 1815655 1807652 1794763 1780118 1766442 1755346 
2288.775 1746817 1739628 1731865 1722015 1709290 1694012 1677217 1660402 
2292.632 1644764 1631123 1619570 1609853 1601160 1592680 1583563 1573215 
2296.490 1561349 1548126 1534057 1520007 1506896 1495498 1486285 1479442 
2300.347 1474887 1472466 1472031 1473547 1476875 1481884 1488251 1495683 
2304.204 1503924 1513045 1523193 1534612 1547177 1560307 1572785 1583327 
2308.062 1590797 1594984 1596623 1597384 1599203 1603667 1611377 1621932 
2311.919 1633964 1646041 1656939 1666238 1674263 1681739 1689428 1697917 
2315.777 1707534 1718435 1730810 1744895 1760917 1778957 1799065 1821587 
2319.634 1847504 1878803 1917749 1966182 2023549 2085716 2144362 2188089 
2323.491 2204876 2185283 2125290 2027795 1902284 1762635 1624290 1500802 
2327.349 1401282 1329166 1282375 1255083 1240092 1231121 1224006 1217100 
2331.206 1210559 1205165 1201426 1199328 1198293 1197805 1197521 1197611 
2335.064 1198446 1200252 1202833 1205769 1208415 1210295 1211226 1211413 
2338.921 1211067 1210305 1209024 1206943 1203872 1200022 1195850 1192115 
2342.779 1189360 1187751 1186903 1186102 1184735 1182668 1180387 1178947 
2346.636 1179354 1182098 1186653 1191501 1194462 1193392 1186982 1175080 
2350.493 1158905 1140709 1122974 1108047 1097323 1091260 1089308 1090241 
2354.351 1092601 1094954 1096164 1095615 1093109 1088897 1083406 1077114 
2358.208 1070394 1063332 1055826 1047582 1038348 1027926 1016158 1003185 
2362.066 988873 973254 956144 937521 917638 897189 877312 859534 845395 
2366.405 836255 832907 835552 843885 857159 874358 894433 916049 937837 
2370.745 958322 976155 990300 1000310 1006451 1009609 1011077 1012116 
2374.602 1013736 1016390 1020118 1024602 1029430 1034197 1038616 1042352 
2378.460 1045056 1046430 1046291 1044751 1042294 1039740 1037823 1037100 
2382.317 1037541 1038605 1039437 1039416 1038485 1037330 1037221 1039522 
2386.175 1045059 1053753 1064562 1075718 1085570 1093219 1098767 1103454 
2390.032 1108943 1116684 1127247 1139931 1152965 1164059 1171245 1173366 
2393.889 1170538 1164139 1156205 1149079 1144736 1144348 1148216 1155843 
2397.747 1165884 1176629 1186102 1192411 1194058 1190308 1181287 1168266 
2401.604 1153293 1139129 1128567 1123932 1126725 1137242 1154577 1176895 
2405.462 1201749 1226466 1248665 1266470 1278721 1285099 1286108 1282705 
2409.319 1276368 1268558 1260713 1253795 1248337 1244342 1241444 1239120 
2413.177 1236868 1234501 1232126 1230105 1228796 1228402 1228704 1229038 
2417.034 1228392 1225655 1219974 1211082 1199471 1186430 1173782 1163491 
2420.891 1157234 1156086 1160202 1168840 1180632 1193786 1206581 1217530 
2424.749 1225648 1230558 1232364 1231495 1228664 1224727 1220454 1216684 
2428.606 1213947 1212673 1212963 1214311 1215953 1216716 1215327 1210662 
2432.464 1202163 1190107 1175602 1160441 1146654 1136182 1130208 1129029 
2436.321 1132010 1137808 1144922 1151975 1158164 1163352 1167741 1171707 
2440.178 1175397 1178622 1180801 1181312 1179565 1175584 1169907 1163720 
2444.036 1158490 1155910 1157219 1163353 1174349 1189440 1206950 1224412 
2447.893 1238930 1247660 1248522 1240729 1225191 1204731 1183232 1165202 
2451.751 1154419 1153069 1161429 1177706 1198719 1220699 1240166 1254442 
2455.608 1261760 1261448 1253509 1238410 1217255 1191673 1164020 1137096 
2459.466 1113586 1095638 1084224 1078762 1077680 1078723 1080162 1081165 
2463.323 1082218 1084582 1089619 1097818 1108316 1118983 1126939 1129670 
2467.180 1125926 1116207 1102626 1088216 1075975 1068004 1065195 1067271 
2471.038 1073243 1082179 1093584 1107395 1123788 1142692 1163395 1184426 
2474.895 1203719 1219073 1228761 1231880 1228501 1219691 1206794 1191386 
2478.753 1174629 1157320 1139775 1122193 1104963 1088967 1075367 1065784 
2482.610 1061530 1063356 1070901 1082613 1096186 1109026 1119167 1125593 
2486.468 1128658 1129660 1130253 1131730 1134657 1138902 1144007 1150023 
2490.325 1157535 1167953 1182522 1201533 1223401 1244563 1260239 1265815 
2494.182 1258586 1239072 1210993 1180486 1153855 1135896 1127922 1127906 
2498.040 1131260 1132791 1128768 1118167 1102926 1087097 1075230 1070717 
2501.897 1075017 1087592 1106398 1129111 1153790 1179114 1204092 1227592 
2505.755 1247805 1262518 1269584 1267886 1258010 1242541 1225429 1210936 
2509.612 1202207 1200453 1204384 1210925 1216231 1217222 1212388 1202577 
2513.469 1190457 1179714 1173860 1175020 1183695 1198408 1216324 1234038 
2517.327 1248345 1256938 1258824 1254135 1244177 1230863 1216483 1203145 
2521.184 1192430 1185251 1181753 1181252 1182686 1184788 1186486 1187152 
2525.042 1186821 1185931 1185176 1185267 1186644 1189495 1193641 1198823 
2528.899 1204736 1211270 1218357 1225888 1233660 1241189 1247831 1252787 
2532.757 1255258 1254877 1251770 1246624 1240874 1236243 1234575 1237316 
2536.614 1244980 1257017 1271561 1286060 1297717 1304466 1305616 1302109 
2540.471 1296267 1291061 1288972 1291278 1297481 1305638 1313134 1317741 
2544.329 1318306 1315263 1310093 1304759 1300730 1298603 1297952 1297984 
2548.186 1297973 1297954 1298576 1300950 1305838 1313310 1322497 1331961 
2552.044 1340352 1346888 1351680 1355404 1358838 1362213 1364836 1365368 
2555.901 1362153 1354016 1340809 1323371 1303417 1282850 1263437 1246618 
2559.759 1233431 1224923 1222057 1225668 1235888 1251899 1271525 1291617 
2563.616 1308892 1320863 1326555 1326881 1324000 1320721 1319326 1320942 
2567.473 1325589 1332606 1341382 1351877 1364643 1380570 1399834 1421601 
2571.331 1443751 1463394 1477891 1485674 1486765 1482930 1476743 1470718 
2575.188 1466386 1463954 1462534 1460645 1457129 1451709 1445024 1438397 
2579.046 1433109 1430018 1429160 1429748 1430716 1431009 1429995 1427679 
2582.903 1424401 1420757 1417164 1413891 1411041 1408755 1407369 1407544 
2586.760 1410176 1416177 1426105 1439798 1456260 1473827 1490280 1503698 
2590.618 1512695 1516988 1517418 1515611 1513664 1513302 1515542 1520293 
2594.475 1526561 1532832 1537615 1539950 1539608 1537330 1534335 1532098 
2598.333 1531780 1534055 1538870 1545547 1553049 1560090 1565517 1568421 
2602.190 1568414 1565575 1560539 1554347 1548276 1543541 1541123 1541548 
2606.048 1544669 1549832 1555915 1561546 1565392 1566417 1564157 1558669 
2609.905 1550752 1541771 1533348 1527186 1524644 1526557 1533095 1543760 
2613.762 1557521 1573168 1589410 1605011 1618985 1630608 1639264 1644756 
2617.620 1647101 1646876 1644909 1642333 1640222 1639459 1640350 1642705 
2621.477 1645906 1649294 1652330 1654997 1657691 1661171 1666056 1672698 
2625.335 1680844 1689787 1698400 1705655 1710616 1712927 1712737 1710488 
2629.192 1706955 1703076 1699788 1698021 1698527 1701971 1708488 1717832 
2633.050 1729084 1740926 1751940 1760770 1766669 1769608 1770260 1769750 
2636.907 1769239 1769608 1771112 1773309 1775329 1776239 1775276 1772259 
2640.764 1767483 1761709 1755605 1749854 1744582 1739707 1734992 1730301 
2644.622 1725769 1721831 1719004 1717706 1717877 1719054 1720275 1720677 
2648.479 1719556 1716832 1713072 1709294 1706539 1705575 1706437 1708549 
2652.337 1710795 1711936 1710944 1707355 1701311 1693408 1684512 1675390 
2656.194 1666515 1658084 1649910 1641652 1632982 1623522 1613114 1601639 
2660.052 1589052 1575453 1560921 1545555 1529506 1512979 1496216 1479611 
2663.909 1463538 1448481 1434859 1422924 1412667 1403729 1395470 1387136 
2667.766 1378039 1367973 1357154 1346421 1336928 1329822 1325909 1325424 
2671.624 1327839 1332036 1336585 1340097 1341449 1340141 1336116 1329866 
2675.481 1322260 1314168 1306530 1300003 1294990 1291599 1289615 1288662 
2679.339 1288122 1287591 1286754 1285531 1284199 1283091 1282684 1283301 
2683.196 1285096 1287997 1291663 1295592 1299081 1301564 1302355 1301113 
2687.053 1297745 1292576 1286351 1279999 1274581 1270828 1269155 1269292 
2690.911 1270538 1271847 1272255 1271113 1268301 1264324 1260067 1256629 
2694.768 1254904 1255373 1258098 1262558 1268040 1273714 1278866 1283126 
2698.626 1286320 1288639 1290352 1291758 1292975 1294065 1294894 1295279 
2702.483 1295039 1294020 1292150 1289401 1285826 1281471 1276470 1271115 
2706.341 1265795 1261062 1257433 1255254 1254507 1254758 1255199 1254850 
2710.198 1252977 1249433 1244599 1239563 1235516 1233519 1234029 1236602 
2714.055 1240165 1243249 1244470 1243036 1238964 1233036 1226587 1220992 
2717.913 1217305 1215983 1216809 1218964 1221319 1222847 1222854 1221113 
2721.770 1217994 1214364 1211262 1209644 1210196 1213082 1217957 1224148 
2725.628 1230779 1237185 1242808 1247347 1250544 1252117 1251535 1248448 
2729.485 1242518 1234064 1224035 1213930 1205633 1200789 1200343 1204204 
2733.343 1211397 1220249 1229124 1236646 1242203 1245830 1247955 1249146 
2737.200 1249778 1249962 1249696 1248963 1247981 1247137 1246916 1247713 
2741.057 1249603 1252393 1255551 1258481 1260631 1261725 1261699 1260643 
2744.915 1258843 1256683 1254568 1253023 1252434 1253160 1255220 1258265 
2748.772 1261596 1264368 1265777 1265410 1263403 1260418 1257406 1255350 
2752.630 1254887 1256085 1258628 1261661 1264243 1265562 1265091 1262673 
2756.487 1258510 1253081 1247050 1241203 1236193 1232595 1230649 1230319 
2760.344 1231181 1232671 1234115 1235052 1235203 1234688 1233840 1233213 
2764.202 1233317 1234532 1236922 1240184 1243567 1246109 1246585 1244060 
2768.059 1237939 1228442 1216589 1204140 1193096 1185387 1182070 1183278 
2771.917 1188084 1194923 1202063 1208249 1212757 1215744 1217673 1219055 
2775.774 1220177 1220937 1220973 1220004 1217957 1215212 1212270 1209653 
2779.632 1207677 1206361 1205416 1204676 1204196 1204377 1205703 1208678 
2783.489 1213237 1218786 1224440 1229116 1232201 1233794 1234745 1236432 
2787.346 1240257 1247097 1256992 1268992 1281455 1292513 1300558 1304801 
2791.204 1305242 1302896 1299306 1296295 1295377 1297556 1303048 1311322 
2795.061 1321256 1331522 1340902 1348600 1354296 1358241 1360819 1362535 
2798.919 1363735 1364411 1364534 1364102 1363211 1362235 1361568 1361493 
2802.776 1361990 1362628 1362909 1362270 1360597 1358359 1356468 1356090 
2806.634 1358232 1363355 1371181 1380835 1391086 1400843 1409360 1416525 
2810.491 1422722 1428657 1434915 1441797 1449192 1456684 1463810 1470166 
2814.348 1475693 1480704 1485631 1490985 1497077 1503862 1510961 1517874 
2818.206 1524042 1529267 1533605 1537311 1540829 1544386 1547944 1551143 
2822.063 1553425 1554420 1554013 1552649 1551075 1550298 1551065 1553671 
2825.921 1557900 1563117 1568506 1573337 1577249 1580176 1582231 1583687 
2829.778 1584688 1585395 1586017 1586914 1588486 1591095 1594874 1599416 
2833.635 1603844 1607019 1607901 1605833 1600910 1593900 1585822 1577865 
2837.493 1570649 1564526 1559458 1555456 1552767 1552049 1553990 1559067 
2841.350 1567121 1577152 1587616 1596663 1602841 1605432 1604702 1601766 
2845.208 1598027 1594993 1593764 1595027 1598938 1605249 1613399 1622574 
2849.065 1631782 1639970 1646342 1650564 1652959 1654483 1656496 1660109 
2852.923 1665880 1673510 1681748 1689079 1694033 1695873 1694836 1691994 
2856.780 1688817 1686741 1686593 1688616 1692481 1697597 1703474 1709824 
2860.637 1716579 1723798 1731424 1739341 1747309 1755233 1763188 1771454 
2864.495 1780513 1790817 1802802 1816729 1832820 1851426 1873029 1898291 
2868.352 1927861 1962140 2001212 2044726 2091799 2141538 2192929 2245182 
2872.210 2297784 2350503 2403261 2456020 2508722 2561240 2613242 2664281 
2876.067 2713769 2761053 2805327 2845907 2882151 2913535 2939636 2960152 
2879.925 2974884 2983719 2986662 2984024 2976358 2964544 2949422 2931852 
2883.782 2912410 2891410 2868910 2844902 2819403 2792669 2765100 2737138 
2887.639 2709094 2681184 2653535 2626411 2600378 2576355 2555476 2538826 
2891.497 2526933 2519699 2516150 2514907 2514505 2513896 2512770 2511378 
2895.354 2510308 2510110 2510861 2512091 2512960 2512575 2510485 2506926 
2899.212 2502805 2499537 2498639 2501094 2507304 2516655 2527805 2538969 
2903.069 2548341 2554645 2557308 2556780 2554238 2551263 2549290 2549162 
2906.927 2550823 2553616 2556408 2558602 2560226 2562303 2566555 2574675 
2910.784 2587692 2605458 2626493 2648623 2669530 2687679 2702728 2715466 
2914.641 2727351 2739852 2753751 2769116 2785348 2801855 2818407 2835541 
2918.499 2854176 2875431 2899942 2927703 2957994 2989918 3022712 3056270 
2922.356 3091066 3127937 3167563 3210044 3254750 3300609 3346421 3391626 
2926.214 3436293 3481410 3528371 3578557 3632971 3691891 3755074 3822041 
2930.071 3892316 3965858 4042923 4124053 4209900 4301126 4398312 4502126 
2933.928 4613355 4733142 4862786 5003517 5156134 5320921 5497421 5684568 
2937.786 5880795 6084563 6294223 6508187 6724588 6941004 7154268 7360469 
2941.643 7555208 7734116 7893530 8030939 8145065 8235899 8304096 8350682 
2945.501 8376481 8382021 8367739 8334078 8281819 8212225 8126823 8027284 
2949.358 7915172 7792040 7659483 7519411 7374260 7227056 7080862 6938457 
2953.216 6801582 6670768 6545330 6423805 6304661 6187007 6070902 5957320 
2957.073 5847821 5743966 5646777 5556714 5473457 5396406 5324843 5258224 
2960.930 5196183 5138463 5084813 5035005 4988723 4945624 4905557 4868416 
2964.788 4833946 4802024 4772312 4744505 4718591 4694753 4673369 4654989 
2968.645 4639829 4627733 4618083 4610032 4602691 4595849 4589729 4585352 
2972.503 4583953 4586748 4594606 4607901 4626541 4650290 4678710 4711450 
2976.360 4747994 4787741 4829880 4873837 4919350 4966965 5017977 5074426 
2980.218 5138324 5211299 5294319 5387375 5490051 5601972 5723146 5854419 
2984.075 5996914 6151823 6319768 6500535 6693078 6895713 7106618 7323942 
2987.932 7545768 7769955 7993691 8213618 8425932 8627049 8814075 8985504 
2991.790 9140906 9280782 9405743 9515975 9610774 9688791 9748397 9788114 
2995.647 9807143 9805555 9784075 9743788 9685964 9611763 9522522 9419610 
2999.505 9304389 9178545 9043567 8900727 8751033 8595421 8434631 8269749 
3003.362 8101829 7931947 7760945 7589146 7416465 7242783 7067910 6892262 
3007.219 6716923 6543169 6372273 6205027 6041504 5881078 5722945 5566620 
3011.077 5412336 5261146 5114620 4974267 4841147 4715253 4595780 4481269 
3014.934 4370199 4261324 4153931 4047807 3943137 3840259 3739589 3641618 
3018.792 3546978 3456351 3370624 3290261 3215196 3144649 3076978 3010356 
3022.649 2943019 2874190 2804302 2735216 2669561 2610123 2558881 2516411 
3026.507 2481461 2451466 2423143 2393520 2360696 2324408 2285882 2247498 
3030.364 2211727 2180466 2154573 2133526 2115855 2099590 2082882 2064313 
3034.221 2043188 2019436 1993537 1966307 1938737 1911992 1887315 1865851 
3038.079 1848313 1834988 1825141 1817579 1810504 1802244 1791663 1778546 
3041.936 1763711 1748882 1735981 1726857 1722605 1723368 1728261 1735701 
3045.794 1743542 1749760 1752584 1751091 1745096 1735405 1723379 1710756 
3049.651 1698919 1688788 1680323 1672777 1664912 1655683 1644527 1631812 
3053.509 1618612 1606495 1596895 1590714 1587819 1587609 1588802 1590416 
3057.366 1591949 1593522 1595794 1599656 1605643 1613735 1623063 1632229 
3061.223 1639622 1643947 1644607 1641959 1637183 1631881 1627533 1625076 
3065.081 1624396 1624426 1623488 1619949 1612787 1602199 1589314 1576118 
3068.938 1564451 1555447 1549085 1544142 1538888 1531718 1522024 1510392 
3072.796 1498531 1488655 1482679 1481696 1485719 1493875 1504765 1517092 
3076.653 1529754 1541833 1552483 1560743 1565456 1565784 1561497 1553286 
3080.510 1542739 1532067 1523291 1517643 1515256 1515194 1515916 1515916 
3084.368 1514179 1510529 1505338 1499080 1492314 1485174 1477763 1470319 
3088.225 1463452 1458156 1455373 1455755 1458963 1463974 1469089 1472704 
3092.083 1473825 1472501 1469612 1466639 1464930 1465054 1466692 1468901 
3095.940 1470437 1470479 1468675 1465532 1461879 1458641 1456314 1454974 
3099.798 1454141 1453173 1451457 1448660 1444793 1440260 1435610 1431646 
3103.655 1429114 1428775 1431170 1436539 1444551 1454366 1464726 1474049 
3107.512 1480992 1484688 1484950 1482327 1477724 1472234 1466378 1460312 
3111.370 1453401 1444872 1434205 1421482 1407808 1395183 1385965 1382416 
3115.227 1385706 1395651 1410472 1427292 1442669 1453750 1458778 1457677 
3119.085 1451708 1443199 1434427 1427251 1422477 1419885 1418516 1417229 
3122.942 1415096 1411738 1407427 1402833 1398750 1396027 1395101 1396258 
3126.800 1399415 1404205 1410045 1416096 1421666 1426108 1429188 1431190 
3130.657 1432784 1434954 1438510 1443839 1450754 1458458 1465923 1472111 
3134.514 1476421 1478727 1479248 1478310 1476069 1472345 1466866 1459452 
3138.372 1450280 1440151 1430270 1422007 1416464 1414063 1414470 1416864 
3142.229 1419974 1422780 1424672 1425511 1425488 1424990 1424209 1423216 
3146.087 1421707 1419333 1415905 1411381 1406086 1400589 1395681 1392152 
3149.944 1390657 1391608 1394985 1400336 1406848 1413469 1419184 1423244 
3153.802 1425351 1425759 1425037 1424061 1423560 1424053 1425739 1428547 
3157.659 1432074 1435803 1439047 1441033 1440882 1437981 1431989 1423212 
3161.516 1412645 1401715 1391916 1384347 1379127 1375589 1372272 1367927 
3165.374 1362014 1355240 1349567 1347579 1351546 1362372 1379246 1399564 
3169.231 1419688 1436108 1446399 1449942 1447816 1442259 1435788 1430430 
3173.089 1427099 1425807 1425928 1426634 1427403 1428003 1428539 1429106 
3176.946 1429738 1430327 1430619 1430527 1429967 1429184 1428240 1427211 
3180.803 1426075 1424769 1423227 1421589 1420079 1418877 1417834 1416471 
3184.661 1413914 1409267 1402059 1392525 1381859 1371883 1364645 1361673 
3188.518 1363533 1369672 1378566 1388286 1397016 1403646 1407874 1410202 
3192.376 1411612 1413161 1415812 1420109 1426322 1434419 1444081 1454709 
3196.233 1465587 1475838 1484840 1492121 1497626 1501559 1504142 1505441 
3200.091 1504864 1501532 1494232 1482063 1464928 1443854 1421106 1399522 
3203.948 1382020 1370873 1367080 1370363 1379312 1391912 1406084 1420078 
3207.805 1432683 1443262 1451557 1457470 1461182 1462960 1463308 1462937 
3211.663 1462619 1463118 1464929 1468140 1472524 1477373 1481943 1485589 
3215.520 1487696 1488210 1487238 1485370 1483309 1481872 1481792 1483674 
3219.378 1487723 1493833 1501401 1509640 1517397 1523559 1527079 1527135 
3223.235 1523434 1516168 1506191 1494839 1483712 1474365 1467812 1464391 
3227.093 1463411 1463554 1463222 1461289 1457486 1452622 1448492 1447173 
3230.950 1450298 1458304 1470023 1482959 1493713 1499003 1496519 1485598 
3234.807 1467386 1444644 1421042 1400362 1385571 1378325 1378671 1385236 
3238.665 1395575 1407121 1417695 1426147 1432672 1438418 1444958 1453670 
3242.522 1464861 1477792 1490588 1501129 1507534 1509073 1506222 1500532 
3246.380 1494092 1488628 1485098 1483393 1482678 1481745 1479506 1475548 
3250.237 1469989 1463536 1457005 1451038 1446170 1442454 1439630 1437251 
3254.094 1434654 1431153 1426299 1419864 1412338 1404766 1398664 1395612 
3257.952 1396789 1402687 1412687 1425462 1439191 1452161 1463040 1471008 
3261.809 1475659 1476751 1474162 1467661 1457499 1444308 1429377 1414366 
3265.667 1400894 1389932 1381711 1375608 1370706 1366393 1362877 1361230 
3269.524 1363050 1369639 1381416 1397292 1415034 1431525 1443915 1450120 
3273.382 1449369 1442230 1430235 1415585 1400592 1387493 1378216 1374111 
3277.239 1375716 1382465 1392704 1403955 1413620 1419776 1421873 1420819 
3281.096 1418744 1417997 1420260 1425917 1433773 1442006 1448614 1452818 
3284.954 1454999 1456697 1459748 1465540 1474205 1484722 1495364 1504391 
3288.811 1510745 1514150 1514856 1513260 1509251 1502243 1491299 1476000 
3292.669 1456685 1434933 1413320 1394658 1381327 1374717 1374698 1380048 
3296.526 1388753 1398596 1407671 1414697 1418998 1420597 1419976 1417931 
3300.384 1415378 1413154 1411770 1411457 1411973 1412963 1414164 1415487 
3304.241 1417187 1419583 1422887 1426755 1430305 1432195 1431164 1426371 
3308.098 1417911 1406992 1395429 1385302 1378141 1374743 1374588 1376439 
3311.956 1378567 1379466 1378282 1375035 1370835 1367387 1366688 1370424 
3315.813 1379441 1393231 1410067 1427054 1441062 1449378 1450721 1445622 
3319.671 1436267 1425955 1417807 1413957 1414784 1418924 1424033 1427709 
3323.528 1428550 1426666 1423536 1421306 1421857 1426114 1433589 1442614 
3327.385 1450918 1456408 1457621 1454145 1446322 1435244 1422347 1409370 
3331.243 1398040 1390329 1387810 1391589 1401670 1416940 1434850 1452097 
3335.100 1465355 1472008 1470836 1462361 1448445 1431802 1415189 1400639 
3338.958 1389102 1380657 1374634 1370375 1367466 1366043 1366665 1370115 
3342.815 1376675 1386166 1397663 1409757 1420938 1429850 1435777 1438503 
3346.673 1438308 1435513 1430354 1422898 1413043 1400933 1387084 1372684 
3350.530 1359457 1349253 1343597 1343253 1348031 1356757 1367696 1378998 
3354.387 1389047 1396889 1402242 1405452 1407226 1408618 1410539 1413774 
3358.245 1418707 1425192 1432613 1439979 1446280 1450682 1453038 1453685 
3362.102 1453489 1453089 1452792 1452156 1450135 1445637 1438221 1428428 
3365.960 1418149 1409860 1405895 1407583 1414646 1425002 1435677 1443639 
3369.817 1446720 1444221 1436758 1425842 1413018 1399469 1385669 1371799 
3373.675 1357983 1344931 1333783 1325748 1321942 1322616 1327174 1334240 
3377.532 1342346 1350241 1357212 1363259 1368720 1374070 1379613 1385554 
3381.389 1391938 1399037 1407111 1416296 1426504 1436839 1445910 1451937 
3385.247 1453344 1449541 1440978 1429603 1418124 1409600 1406480 1410047 
3389.104 1420054 1434760 1451410 1466888 1478308 1483841 1482849 1476214 
3392.962 1465785 1454036 1443296 1435097 1429861 1426963 1425155 1423107 
3396.819 1420071 1416056 1411870 1408581 1406950 1407104 1408532 1410426 
3400.677 1412185 1414023 1416750 1421685 1429729 1440747 1453182 1464288 
3404.534 1470875 1470422 1461959 1446576 1427122 1407540 1391545 1381928 
3408.391 1379719 1384314 1393769 1405427 1416509 1424718 1428549 1427369 
3412.249 1421464 1412316 1401955 1393008 1387952 1388594 1395483 1407721 
3416.106 1422980 1438153 1449960 1455904 1454760 1446914 1434135 1419147 
3419.964 1405117 1394893 1390582 1393215 1402441 1416833 1433990 1451016 
3423.821 1465116 1474213 1477344 1474766 1467844 1458604 1449018 1440600 
3427.678 1434003 1429193 1425667 1422954 1420906 1420050 1421122 1424960 
3431.536 1432001 1442041 1454072 1466624 1478100 1487098 1492858 1495298 
3435.393 1494910 1492762 1489752 1486752 1484016 1481210 1477553 1472007 
3439.251 1463559 1451727 1436831 1420045 1403383 1389135 1379488 1375802 
3443.108 1378516 1386815 1398896 1412593 1425754 1436833 1445000 1450448 
3446.966 1453857 1456390 1459155 1462947 1468090 1474239 1480632 1486173 
3450.823 1489822 1490919 1489476 1486438 1483191 1481364 1482056 1485534 
3454.680 1490736 1495707 1498264 1496680 1490758 1481955 1473265 1468507 
3458.538 1471049 1482700 1503363 1530623 1560606 1588784 1611213 1625235 
3462.395 1629960 1626360 1616681 1604193 1592363 1584266 1582062 1586564 
3466.253 1596987 1611395 1626935 1640750 1650864 1656857 1659679 1661513 
3470.110 1664743 1670881 1680230 1691455 1702451 1711228 1716761 1719630 
3473.968 1721731 1725580 1733249 1745615 1761994 1780605 1799001 1815411 
3477.825 1828783 1839360 1848109 1856207 1864681 1874150 1884790 1896800 
3481.682 1910216 1925308 1941902 1959647 1977726 1995112 2010912 2024916 
3485.540 2037743 2050820 2065799 2084052 2106131 2131454 2158581 2185510 
3489.397 2210280 2231377 2247740 2258933 2264928 2266074 2263134 2257362 
3493.255 2250649 2245180 2243092 2246081 2254712 2268624 2286387 2306308 
3497.112 2326650 2346411 2365262 2383354 2401124 2418807 2436261 2453143 
3500.969 2469030 2483602 2496764 2508575 2519044 2528076 2535270 2540176 
3504.827 2542344 2541666 2538508 2533471 2527357 2520841 2514358 2507968 
3508.684 2501412 2494286 2486083 2476531 2465369 2452668 2438735 2424137 
3512.542 2409573 2395857 2383593 2373123 2364248 2356471 2349047 2341160 
3516.399 2332218 2321937 2310175 2296967 2282397 2266605 2249922 2233095 
3520.257 2217318 2203988 2194301 2188837 2186947 2186773 2185616 2180622 
3524.114 2169633 2151963 2128464 2101433 2073795 2048286 2026860 2010452 
3527.971 1999061 1992110 1988971 1989041 1991671 1996078 2000973 2004803 
3531.829 2005894 2003014 1995615 1984301 1970412 1955855 1942316 1931135 
3535.686 1922893 1917769 1915539 1916168 1919752 1926210 1935293 1945995 
3539.544 1956605 1964842 1968460 1965627 1955698 1939386 1918554 1895854 
3543.401 1874150 1855936 1842913 1835913 1834855 1839004 1847019 1857332 
3547.259 1868076 1877432 1883899 1886571 1885471 1881560 1876505 1872343 
3551.116 1870596 1871862 1875357 1879292 1881192 1879052 1872024 1860692 
3554.973 1847355 1834982 1826456 1823520 1826272 1833246 1841797 1849455 
3558.831 1854407 1856294 1856163 1855866 1857311 1861634 1868790 1877525 
3562.688 1885820 1891716 1894003 1892598 1888550 1883712 1880105 1879151 
3566.546 1881223 1885641 1890801 1894706 1895740 1893040 1886891 1878514 
3570.403 1869572 1861622 1855695 1851885 1849644 1848001 1846154 1843719 
3574.260 1840816 1838020 1835619 1833481 1830791 1826230 1818381 1806514 
3578.118 1790819 1772555 1753556 1735767 1720696 1708766 1699556 1692095 
3581.975 1685376 1679004 1673062 1668343 1665699 1665695 1668392 1673203 
3585.833 1678965 1684620 1688978 1691188 1690646 1686871 1679538 1668693 
3589.690 1654673 1638583 1622021 1607031 1595597 1589162 1588209 1592211 
3593.548 1599509 1607940 1615292 1619937 1621045 1618831 1614160 1608404 
3597.405 1602828 1598213 1594561 1591354 1587639 1582539 1575702 1567670 
3601.262 1559987 1554856 1554570 1560963 1574556 1594378 1617972 1641986 
3605.120 1662630 1676894 1682879 1680314 1670404 1655600 1638945 1623701 
3608.977 1612453 1606942 1607567 1613510 1622888 1633248 1642379 1648681 
3612.835 1651768 1652460 1652379 1653313 1656378 1661840 1668830 1676039 
3616.692 1682161 1686952 1691103 1696029 1703357 1713803 1726762 1740452 
3620.550 1752171 1759756 1762138 1759982 1755580 1751966 1751847 1756864 
3624.407 1766922 1780444 1794980 1807965 1817528 1822765 1823944 1822180 
3628.264 1819236 1817191 1817919 1823100 1833551 1849251 1869010 1890689 
3632.122 1911755 1929832 1943371 1952319 1957917 1962310 1967911 1976442 
3635.979 1988585 2003930 2021257 2039177 2056395 2071897 2084742 2094072 
3639.837 2098736 2097841 2091261 2080060 2066680 2054863 2048251 2049684 
3643.694 2059996 2077883 2100195 2123164 2143620 2159933 2172161 2181954 
3647.552 2191285 2201698 2213450 2225831 2237468 2246999 2253737 2257985 
3651.409 2260553 2262558 2264771 2267428 2270256 2272668 2274073 2274005 
3655.266 2272302 2269088 2264742 2259929 2255458 2252240 2250878 2251629 
3659.124 2253894 2256490 2257956 2257208 2253962 2249042 2244194 2241191 
3662.981 2240969 2243074 2245450 2245191 2239711 2227887 2210543 2190291 
3666.839 2170380 2153459 2140330 2129574 2118177 2102810 2081109 2053222 
3670.696 2021428 1989890 1962895 1943878 1934255 1933351 1938915 1947770 
3674.553 1956554 1962616 1963836 1959087 1947975 1930942 1909209 1884624 
3678.411 1859334 1835793 1815860 1800944 1791364 1786493 1784952 1784864 
3682.268 1784148 1780989 1774262 1763660 1750131 1735611 1722595 1713588 
3686.126 1709801 1710851 1714211 1715831 1711337 1697518 1673530 1641538 
3689.983 1605974 1572484 1545943 1529179 1522439 1523465 1528617 1534388 
3693.841 1538295 1539596 1539006 1538366 1539494 1543726 1551421 1561877 
3697.698 1573574 1584544 1592535 1595912 1593557 1585532 1572997 1558207 
3701.555 1543762 1532112 1524831 1522404 1524287 1529268 1536207 1544327 
3705.413 1553204 1562618 1572047 1580474 1586447 1588651 1586500 1580713 
3709.270 1573038 1565982 1561605 1560927 1563476 1567144 1569421 1568209 
3713.128 1562537 1553174 1542206 1532504 1526851 1527285 1534617 1548416 
3716.985 1566772 1586738 1604622 1616738 1620158 1613647 1598073 1576645 
3720.843 1553884 1534604 1522418 1518743 1522538 1531041 1540954 1549936 
3724.700 1557152 1563310 1569969 1578275 1588104 1598149 1606301 1610888 
3728.557 1611383 1608846 1605385 1603371 1604190 1608055 1613769 1619660 
3732.415 1624291 1627175 1628709 1629794 1631142 1632840 1634251 1634549 
3736.272 1632935 1629256 1623888 1617506 1610472 1602711 1593810 1583392 
3740.130 1571785 1560300 1550966 1545822 1546333 1552491 1562846 1574831 
3743.987 1585618 1593214 1596827 1597133 1595734 1594599 1595042 1597730 
3747.844 1602374 1608061 1613700 1618273 1621079 1621965 1621282 1619708 
3751.702 1618196 1617551 1617985 1619184 1620146 1619600 1616366 1610141 
3755.559 1601413 1591565 1582344 1575069 1570142 1566862 1563756 1559330 
3759.417 1552752 1544412 1535744 1528733 1524967 1525049 1528340 1533154 
3763.274 1537403 1539350 1538238 1534166 1528256 1521979 1516720 1513665 
3767.132 1513443 1516257 1521731 1529008 1536780 1543494 1547714 1548643 
3770.989 1546142 1541143 1535083 1529703 1526227 1525235 1526629 1529866 
3774.846 1534543 1540661 1548700 1559280 1572731 1588562 1605499 1621695 
3778.704 1634951 1643608 1646752 1644343 1637051 1626150 1613135 1599624 
3782.561 1587389 1578226 1573479 1574072 1579716 1589135 1599988 1609692 
3786.419 1616066 1617995 1615642 1610397 1604101 1598588 1594976 1593619 
3790.276 1594151 1595901 1598286 1600810 1603171 1604948 1605571 1604379 
3794.134 1600699 1594263 1585464 1575254 1565170 1556848 1551611 1550182 
3797.991 1552538 1557779 1564457 1570781 1574946 1575679 1572498 1566124 
3801.848 1558286 1551400 1547743 1548728 1554420 1563244 1572592 1579498 
3805.706 1581748 1578422 1570257 1559199 1547834 1538313 1532165 1529939 
3809.563 1531406 1536289 1544218 1554788 1567286 1580324 1591874 1599448 
3813.421 1600581 1593754 1578721 1556885 1530989 1504721 1481818 1465573 
3817.278 1458204 1460889 1473429 1494346 1521222 1550588 1578624 1601636 
3821.135 1616871 1623200 1621128 1612598 1600281 1586874 1574232 1563519 
3824.993 1554941 1548280 1543242 1539470 1536746 1534687 1533050 1531464 
3828.850 1530210 1529967 1532119 1538127 1548979 1564459 1582945 1601603 
3832.708 1617049 1626602 1629038 1624933 1616477 1606507 1597355 1590216 
3836.565 1584667 1579155 1571614 1560528 1545346 1526837 1506631 1486987 
3840.423 1469818 1456638 1448245 1444948 1446362 1451950 1460790 1471881 
3844.280 1484157 1496720 1508747 1519724 1529418 1537610 1544273 1549536 
3848.137 1553694 1557235 1560777 1565040 1570503 1577074 1584059 1590287 
3851.995 1594235 1594770 1591477 1584754 1575904 1566601 1558379 1552140 
3855.852 1548092 1545797 1544507 1543514 1542262 1540661 1538699 1536401 
3859.710 1533934 1531403 1528948 1526944 1525805 1525970 1527581 1530471 
3863.567 1533943 1537119 1538926 1538627 1535885 1531035 1524840 1518450 
3867.425 1512950 1509350 1508090 1509196 1512217 1516571 1521638 1527160 
3871.282 1533356 1540848 1550246 1561926 1575332 1589261 1601678 1610548 
3875.139 1614404 1613075 1607545 1599913 1592344 1586447 1582623 1580122 
3878.997 1577517 1573652 1568437 1563078 1559924 1561480 1569411 1583577 
3882.854 1601980 1621313 1637833 1648484 1651717 1647516 1637190 1622417 
3886.712 1604898 1585790 1565939 1546358 1528426 1513897 1504775 1502361 
3890.569 1506722 1516469 1528873 1540683 1549190 1552845 1551852 1547735 
3894.427 1542575 1538429 1536236 1536088 1537229 1538514 1539251 1539298 
3898.284 1539059 1539223 1540143 1541781 1543498 1544705 1545001 1544957 
3902.141 1545631 1548562 1554939 1565038 1577895 1591474 1603294 1611134 
3905.999 1614024 1612211 1607183 1600873 1594941 1590262 1586667 1583333 
3909.856 1579344 1574217 1568409 1562978 1559404 1558798 1561554 1567216 
3913.714 1574463 1581843 1587890 1591804 1593205 1592353 1589668 1585776 
3917.571 1581386 1577048 1573350 1570595 1568822 1567547 1566088 1563462 
3921.428 1559013 1552609 1544878 1537213 1531092 1527922 1528530 1532812 
3925.286 1540047 1549017 1558396 1567279 1574747 1580246 1583238 1583419 
3929.143 1580618 1575306 1568469 1561656 1556367 1553876 1554356 1557176 
3933.001 1560865 1564068 1565917 1566543 1567024 1568862 1573199 1580184 
3936.858 1588764 1596858 1602269 1603189 1598986 1590237 1578337 1565092 
3940.716 1552161 1540663 1531483 1525345 1523186 1525942 1534447 1548770 
3944.573 1567911 1589657 1610950 1628462 1639750 1643502 1640256 1632031 
3948.430 1621718 1612275 1606013 1603766 1605005 1607804 1609480 1606993 
3952.288 1598136 1582046 1559636 1533774 1508795 1489470 1479950 1482814 
3956.145 1498014 1523191 1554305 1586530 1615711 1639303 1656441 1667901 
3960.003 1675060 1679226 1681047 1680363 1676631 1669452 1658956 1646218 
3963.860 1632709 1620099 1609596 1601756 1596486 1593391 1592046 1592187 
3967.718 1593773 1596687 1600611 1604880 1608633 1611072 1611905 1611503 
3971.575 1610729 1610566 1611691 1614225 1617584 1620850 1623161 1624129 
3975.432 1624020 1623339 1622672 1622097 1620977 1618353 1613187 1605333 
3979.290 1595654 1586159 1579524 1578265 1583847 1596181 1613606 1633168 
3983.147 1651538 1665863 1674261 1676370 1673093 1666456 1659071 1653524 
3987.005 1652044 1656032 1665730 1680181 1697213 1713863 1727047 1734066 
3990.862 1733475 1725416 1711506 1694575 1677842 1664339 1656030 1653918 
3994.719 1657605 1665931 1677360 1690089 1702662 1713767 1722507 1728241 
3998.577 1730751 1730143 1726858 1721806 1715990 
##END=
