##TITLE=Tecor_PETG_White_Filament_r7_ATR-Corrected
##JCAMP-DX=5.01  $$ Nicolet v. 1
##DATATYPE=INFRARED SPECTRUM
##ORIGIN=Curtin University
##OWNER=Nicolet
##LONGDATE=2024/07/19
##TIME=09:38:14
##SPECTROMETER/DATA SYSTEM=Nicolet iS50
##DATA PROCESSING=
Ratio against background
%Transmittance->Absorbance
ATR Correction
Truncated
ElementMultiply or ElementDivide
##COMMENTS=
Number of sample scans: 32
Collection length: 47.28 sec
Sample gain: 1.0
Background collected on: Fri Jul 19 09:37:02 2024 (GMT+08:00);
Number of background scans: 32
Background gain: 1.0
Sample spacing:  1.000
Number of scan points: 16672
Resolution points: 8192
Number of FFT points: 65536
Apodization: N-B strong;
Phase correction: Mertz;
Laser frequency: 15798.3 cm-1
Number of rejected sample scans: 0
Number of rejected background scans: 0
Bench serial number: AUP1200105;
##RESOLUTION=4.000
##XUNITS=1/CM
##YUNITS=ABSORBANCE
##FIRSTX=400.163452
##LASTX=4000.187744
##FIRSTY=0.042974
##MAXX=4000.187744
##MINX=400.163452
##MAXY=1.713252
##MINY=-0.024177
##XFACTOR=1.000000
##YFACTOR=1.000000E-008
##NPOINTS=7468
##DELTAX=0.482125
##ZPD=8192
##XYDATA=(X++(Y..Y))
400.163 4297445 4285327 4267810 4246862 4226554 4210742 4201723 4199552 
404.020 4202081 4205762 4206594 4201141 4187322 4164908 4135755 4103522 
407.877 4072811 4047902 4031438 4023337 4020712 4018704 4012205 3998031 
411.734 3976188 3950125 3925421 3907780 3900978 3905971 3921218 3944208 
415.591 3973209 4008268 4051058 4103491 4165873 4235666 4307515 4374790 
419.448 4431827 4475991 4508470 4533246 4554969 4576475 4597334 4613942 
423.305 4621160 4614710 4593303 4559660 4520023 4482529 4454998 4443263 
427.162 4450182 4475527 4516373 4567667 4622697 4673737 4712966 4733886 
431.019 4732800 4710097 4670405 4621797 4574112 4536174 4513951 4509356 
434.876 4520272 4541626 4566953 4589952 4605564 4610468 4603285 4584488 
438.733 4556341 4522648 4488178 4457797 4435336 4422525 4418470 4419990 
442.590 4422602 4422090 4415861 4403697 4387494 4370408 4355429 4344422 
446.447 4337625 4333845 4331159 4327688 4322083 4313761 4302698 4289250 
450.304 4273936 4257424 4240500 4224016 4208690 4194766 4181864 4169119 
454.161 4155607 4140941 4125817 4112100 4102381 4099182 4103907 4116219 
458.017 4133801 4152869 4169085 4178613 4178947 4169424 4151192 4127058 
461.874 4100993 4077543 4061116 4055154 4061433 4079306 4105701 4135640 
465.731 4163459 4184307 4195518 4197351 4192785 4186438 4183002 4185823 
469.588 4196055 4212716 4233358 4255125 4275653 4293560 4308387 4320294 
473.445 4329616 4336654 4341704 4345270 4348161 4351452 4356222 4363170 
477.302 4372400 4383427 4395500 4408039 4421100 4435422 4452278 4472948 
481.159 4498179 4527732 4560275 4593563 4624964 4652055 4673297 4688534 
485.016 4699202 4708304 4719931 4738553 4768089 4810951 4867387 4935386 
488.873 5011090 5089902 5167801 5242536 5314206 5385270 5459584 5541244 
492.730 5633271 5736786 5850807 5972596 6098658 6225604 6350929 6473366 
496.587 6592700 6709227 6823022 6933273 7037805 7132940 7213867 7275282 
500.444 7312370 7321792 7302521 7256109 7186477 7098946 6999013 6891109 
504.301 6777809 6659732 6536155 6406110 6269438 6127546 5983391 5840999 
508.158 5704478 5577202 5461302 5357656 5266249 5186647 5118250 5060334 
512.015 5011826 4971088 4935907 4903825 4872741 4841498 4810225 4780217 
515.871 4753354 4731294 4714773 4703342 4695534 4689488 4683578 4676842 
519.728 4668981 4659966 4649502 4636671 4619996 4597925 4569566 4535281 
523.585 4496784 4456681 4417591 4381140 4347310 4314472 4280026 4241484 
527.442 4197483 4148389 4096206 4043888 3994359 3949639 3910301 3875571 
531.299 3843837 3813321 3782732 3751595 3720238 3689497 3660321 3633422 
535.156 3609034 3586834 3565936 3545109 3522883 3497871 3469014 3435881 
539.013 3398782 3358816 3317660 3277312 3239677 3206297 3178107 3155370 
542.870 3137614 3123690 3111836 3099895 3085624 3067197 3043727 3015674 
546.727 2984872 2954167 2926611 2904546 2888798 2878470 2871285 2864522 
550.584 2856024 2845037 2832342 2819819 2809395 2802178 2797801 2794582 
554.441 2790180 2782585 2770893 2755699 2738629 2721715 2706517 2693568 
558.298 2682324 2671596 2660229 2647676 2634297 2621162 2609595 2600671 
562.155 2594794 2591656 2590379 2589981 2589708 2589286 2588998 2589501 
566.012 2591508 2595512 2601389 2608291 2614650 2618419 2617563 2610652 
569.869 2597360 2578766 2557271 2536083 2518417 2506700 2501879 2503294 
573.725 2508902 2515975 2521868 2524734 2523864 2519714 2513528 2506888 
577.582 2501227 2497458 2495827 2495968 2497130 2498482 2499482 2500176 
581.439 2501297 2504166 2510317 2520926 2536293 2555498 2576452 2596411 
585.296 2612713 2623600 2628723 2629221 2627223 2625140 2624795 2626955 
589.153 2631175 2636134 2640213 2642075 2640985 2636946 2630502 2622549 
593.010 2614054 2605965 2599158 2594375 2592105 2592527 2595283 2599583 
596.867 2604282 2608174 2610270 2610012 2607291 2602409 2595801 2587960 
600.724 2579370 2570529 2562042 2554671 2549165 2546079 2545515 2547045 
604.581 2549762 2552626 2554785 2555911 2556348 2556890 2558487 2561842 
608.438 2567127 2573924 2581431 2588798 2595441 2601308 2606879 2613048 
612.295 2620862 2631252 2644791 2661609 2681362 2703311 2726401 2749459 
616.152 2771321 2791004 2807869 2821734 2832948 2842361 2851215 2860959 
620.009 2872973 2888319 2907504 2930367 2956160 2983669 3011532 3038561 
623.866 3063953 3087510 3109721 3131890 3156302 3186460 3227173 3284434 
627.723 3364633 3473211 3612714 3780807 3968797 4161346 4337980 4476380 
631.579 4556875 4567091 4505056 4379913 4209746 4017403 3825635 3652976 
635.436 3511230 3405005 3332776 3289004 3266455 3258048 3258037 3262387 
639.293 3268659 3275630 3282968 3290974 3300364 3312059 3326866 3345251 
643.150 3367167 3392010 3418879 3446778 3474880 3502598 3529480 3555120 
647.007 3578991 3600550 3619453 3635874 3650716 3665643 3682759 3704152 
650.864 3731332 3764859 3804182 3847865 3893940 3940366 3985408 4027754 
654.721 4066490 4100987 4130712 4155234 4174269 4187866 4196538 4201433 
658.578 4204195 4206823 4211372 4219659 4233023 4252214 4277394 4308258 
662.435 4344190 4384378 4427990 4474176 4522189 4571391 4621379 4672042 
666.292 4723640 4776709 4831986 4890112 4951434 5015859 5082828 5151525 
670.149 5221126 5291124 5361445 5432512 5505110 5580176 5658605 5741223 
674.006 5828733 5921752 6020725 6125755 6236233 6350598 6466106 6579049 
677.863 6685149 6780266 6861046 6925493 6973137 7004914 7022813 7029479 
681.720 7027836 7020894 7011634 7002941 6997433 6997275 7003984 7018345 
685.577 7040449 7069991 7106523 7149708 7199476 7255897 7319072 7389004 
689.433 7465639 7549044 7639689 7738676 7847774 7969253 8105439 8258360 
693.290 8429360 8619056 8827420 9054048 9298415 9559977 9838138 10132056 
697.147 10440508 10761756 11093556 11433315 11778314 12125909 12473739 
700.522 12819931 13163254 13503228 13840237 14175442 14510551 14847414 
703.897 15187538 15531701 15879814 16231060 16584432 16939368 17296386 
707.272 17657390 18025724 18405812 18802756 19221956 19669032 20150166 
710.647 20672712 21245862 21881182 22592860 23397564 24313890 25361576 
714.021 26560688 27930788 29490232 31255600 33241222 35458664 37916236 
717.396 40618368 43564732 46749360 50158824 53770040 57546360 61431588 
720.771 65341480 69152960 72694296 75742616 78040888 79342408 79478752 
724.146 78420392 76292232 73332144 69820088 66016836 62130576 58309700 
727.521 54649748 51205224 48001164 45042336 42319916 39816272 37508248 
730.896 35369812 33374154 31495702 29711580 28002722 26354330 24755792 
734.270 23200076 21683152 20203410 18761434 17359944 16003910 14700289 
737.645 13457502 12284552 11189771 10179801 9258601 8427127 7683316 7022528 
741.502 6438379 5923439 5470056 5070982 4719900 4411578 4141865 3907513 
745.359 3705749 3533861 3388900 3267480 3165875 3080252 3007050 2943362 
749.216 2887149 2837338 2793663 2756466 2726309 2703711 2688841 2681405 
753.073 2680568 2685095 2693491 2704346 2716571 2729631 2743628 2759160 
756.930 2777090 2798161 2822682 2850339 2880172 2910719 2940328 2967490 
760.787 2991100 3010693 3026514 3039472 3051014 3062845 3076666 3093906 
764.644 3115460 3141697 3172479 3207433 3246161 3288310 3333560 3381317 
768.501 3430410 3478887 3524110 3563195 3593685 3614298 3625318 3628623 
772.358 3627205 3624300 3622525 3623376 3627071 3632955 3640143 3648049 
776.214 3656841 3667325 3680748 3698358 3721096 3749548 3784001 3824658 
780.071 3871769 3925680 3986777 4055410 4131889 4216550 4309929 4412753 
783.928 4525915 4650273 4786430 4934631 5094928 5267472 5452963 5652838 
787.785 5869125 6103747 6357517 6628956 6913396 7202576 7484904 7746332 
791.642 7971646 8145932 8256025 8291811 8247313 8121552 7919158 7650467 
795.499 7331020 6980366 6620151 6271833 5954392 5682437 5464940 5304970 
799.356 5200162 5143976 5127257 5140082 5173255 5219344 5273207 5331767 
803.213 5393531 5457701 5523509 5589746 5654634 5716186 5772555 5822570 
807.070 5865957 5903397 5936255 5966215 5994854 6023315 6052188 6081467 
810.927 6110676 6139003 6165438 6188974 6208679 6223957 6234522 6240559 
814.784 6242621 6241520 6238146 6233420 6228188 6223253 6219439 6217619 
818.641 6218614 6223049 6231153 6242718 6257104 6273520 6291296 6310212 
822.498 6330560 6353055 6378595 6407886 6441273 6478620 6519466 6563236 
826.355 6609481 6657978 6708750 6762027 6818151 6877599 6941010 7009203 
830.212 7083066 7163371 7250458 7343997 7442914 7545539 7649950 7754472 
834.068 7858003 7960082 8060719 8160110 8258207 8354634 8448707 8539736 
837.925 8627291 8711394 8792453 8870979 8947194 9020789 9090924 9156428 
841.782 9216185 9269477 9316101 9356290 9390396 9418673 9441107 9457608 
845.639 9468330 9473965 9476035 9476671 9478271 9482881 9491678 9504683 
849.496 9520853 9538446 9555557 9570733 9583238 9593260 9601785 9610338 
853.353 9620723 9634779 9654118 9680050 9713378 9754427 9802953 9858447 
857.210 9920338 9988385 10063079 10145921 10239331 10346515 10470924 
860.585 10615784 10783595 10975965 11193760 11437473 11707852 12006544 
863.960 12336455 12701972 13108638 13562579 14069644 14634311 15258604 
867.335 15941076 16675977 17452688 18255604 19064424 19855018 20600812 
870.709 21274536 21850234 22305302 22622312 22790292 22805450 22670988 
874.084 22396364 21995952 21487436 20890226 20224174 19508446 18760898 
877.459 17997528 17232246 16476756 15740475 15030634 14352444 13709332 
880.834 13103385 12535696 12006873 11517310 11067452 10657758 10288483 
884.209 9959373 9669315 9416094 9196468 9006374 8841392 8697233 8570250 
888.066 8457662 8357730 8269637 8193361 8129424 8078672 8042033 8020214 
891.922 8013454 8021200 8041932 8073161 8111568 8153354 8194722 8232417 
895.779 8264038 8288261 8304880 8314457 8317981 8316408 8310202 8299067 
899.636 8281865 8256870 8222068 8175838 8117280 8046680 7965511 7876200 
903.493 7781606 7684466 7586923 7490284 7395049 7301166 7208366 7116426 
907.350 7025326 6935245 6846432 6759201 6673854 6590803 6510614 6434031 
911.207 6361854 6294838 6233475 6177957 6128267 6084347 6046234 6014185 
915.064 5988533 5969468 5956761 5949728 5947316 5948516 5952804 5960495 
918.921 5972746 5991271 6017714 6053059 6097208 6148960 6206362 6267333 
922.778 6330285 6394461 6459947 6527379 6597420 6670283 6745537 6822176 
926.635 6898919 6974630 7048634 7120874 7191779 7262025 7332134 7402237 
930.492 7471946 7540416 7606590 7669493 7728503 7783533 7835030 7883827 
934.349 7930929 7977243 8023406 8069717 8116144 8162452 8208230 8252953 
938.206 8295913 8336179 8372620 8404014 8429309 8447958 8460204 8467179 
942.063 8470808 8473564 8478022 8486522 8500911 8522511 8552199 8590461 
945.920 8637585 8693590 8758272 8831147 8911558 8998781 9092201 9191356 
949.776 9295949 9405586 9519612 9636993 9756364 9876459 9996481 10116656 
953.633 10238327 10363884 10496230 10638221 10792065 10958984 11139348 
957.008 11332903 11539137 11757646 11988183 12230553 12484318 12748586 
960.383 13021831 13301991 13586596 13872992 14158469 14440422 14716351 
963.758 14984068 15241721 15488048 15722458 15944947 16155846 16355489 
967.133 16543706 16719663 16881864 17028478 17157822 17268928 17361778 
970.508 17437298 17497028 17542530 17574848 17594150 17599514 17589276 
973.882 17561338 17513820 17445468 17356038 17246400 17118310 16974076 
977.257 16815998 16645883 16464691 16272497 16068728 15852588 15623744 
980.632 15382652 15130824 14870630 14604890 14336303 14067085 13798676 
984.007 13532013 13267738 13006632 12749925 12499309 12256835 12024592 
987.382 11804509 11598156 11406673 11230999 11071914 10930135 10806310 
990.756 10700887 10614023 10545436 10494526 10460387 10441998 10438386 
994.131 10448706 10472313 10508741 10557707 10619123 10693108 10780000 
997.506 10880284 10994532 11123277 11266862 11425387 11598720 11786620 
1000.881 11988879 12205584 12437268 12685102 12950973 13237622 13548645 
1004.256 13888592 14262925 14677930 15140466 15657771 16237114 16885632 
1007.630 17610432 18418934 19319546 20322492 21440572 22689394 24086910 
1011.005 25651806 27400592 29343572 31479762 33791224 36237456 38750860 
1014.380 41234732 43565556 45601524 47197992 48228420 48606084 48300096 
1017.755 47340100 45808356 43822892 41517572 39024772 36463280 33931712 
1021.130 31506308 29241770 27173594 25321272 23691502 22281330 21080752 
1024.505 20075018 19246312 18575084 18041102 17624182 17304940 17065520 
1027.880 16890026 16765139 16680217 16627274 16600603 16596255 16611448 
1031.255 16644028 16692206 16754313 16828882 16914722 17010986 17117194 
1034.630 17233144 17358742 17493790 17637762 17789630 17947826 18110142 
1038.006 18273916 18436142 18593674 18743392 18882550 19008782 19120324 
1041.381 19215984 19295088 19357332 19402622 19430842 19441758 19435040 
1044.756 19410344 19367510 19306816 19229146 19136028 19029584 18912428 
1048.131 18787390 18657498 18525792 18395358 18269122 18149782 18039602 
1051.507 17940112 17852044 17775388 17709648 17654216 17608952 17574418 
1054.882 17551972 17543634 17551708 17578378 17625410 17694098 17785300 
1058.257 17899686 18037884 18200570 18388436 18602090 18842030 19108674 
1061.632 19402526 19724332 20075168 20456340 20869080 21314224 21791850 
1065.008 22301316 22841456 23411114 24009744 24637864 25297176 25990360 
1068.383 26720604 27491006 28304196 29162196 30066466 31018222 32018546 
1071.758 33068522 34169080 35320748 36523520 37776704 39079012 40428716 
1075.133 41823796 43261852 44740124 46255292 47803396 49379640 50978588 
1078.509 52594132 54219324 55846472 57466972 59071744 60651612 62198532 
1081.884 63706332 65171664 66594012 67975336 69319144 70629304 71909616 
1085.259 73163464 74394032 75604776 76799544 77982304 79156640 80325064 
1088.634 81488416 82645616 83793544 84927032 86038480 87117544 88150728 
1092.010 89121576 90011488 90801328 91473384 92012880 92408648 92652928 
1095.385 92740216 92666184 92427208 92020568 91445384 90703752 89801320 
1098.760 88747240 87553128 86231872 84796424 83258912 81630336 79920904 
1102.135 78140648 76300496 74413104 72493856 70561144 68636344 66743176 
1105.510 64906776 63152508 61504968 59987204 58620292 57422684 56409752 
1108.886 55592912 54978664 54567320 54352028 54318072 54442988 54697256 
1112.261 55046028 55451208 55874020 56277496 56628428 56898856 57066704 
1115.636 57116116 57037224 56825580 56481528 56009316 55416132 54711132 
1119.011 53904812 53008276 52032864 50989972 49890756 48745868 47565364 
1122.387 46358556 45134100 43900092 42664216 41433792 40215708 39016252 
1125.762 37840836 36693916 35578936 34498624 33455204 32450596 31486552 
1129.137 30564460 29685130 28848490 28053386 27297708 26578734 25893402 
1132.512 25238830 24612554 24012468 23436802 22883768 22351440 21837660 
1135.888 21340212 20857042 20386382 19926914 19477608 19037678 18606282 
1139.263 18182516 17765426 17354236 16948472 16548090 16153425 15765060 
1142.638 15383543 15009288 14642519 14283332 13931938 13588730 13254307 
1146.013 12929322 12614316 12309500 12014715 11729524 11453402 11185916 
1149.389 10926849 10676076 10433469 10198690 9971098 9749984 9534772 9325446 
1153.246 9122737 8928116 8743580 8571126 8412264 8267714 8137221 8019811 
1157.104 7914091 7818665 7732506 7655080 7586376 7526768 7476888 7437476 
1160.961 7409326 7393320 7390474 7402054 7429632 7475211 7541156 7630110 
1164.818 7744801 7887673 8060547 8264183 8497985 8759794 9045801 9350675 
1168.676 9667706 9989097 10306336 10610625 10893358 11146702 11364041 
1172.051 11540415 11672654 11759347 11800667 11797994 11753675 11670733 
1175.426 11552784 11403918 11228681 11031857 10818356 10592872 10359763 
1178.802 10122919 9885843 9651812 9424109 9206083 9001187 8812755 8643783 
1182.659 8496633 8372879 8273304 8197942 8146231 8117155 8109380 8121250 
1186.516 8151033 8196917 8257323 8331012 8417207 8515666 8626536 8750006 
1190.374 8886145 9034616 9194548 9364704 9543660 9730153 9923351 10122958 
1194.231 10329277 10542894 10764391 10994050 11231577 11476059 11726180 
1197.606 11980484 12237747 12497345 12759313 13024433 13293898 13569027 
1200.982 13850978 14140487 14437822 14742918 15055497 15375349 15702431 
1204.357 16037008 16379616 16731061 17092310 17464424 17848520 18245764 
1207.732 18657326 19084396 19528172 19989890 20470768 20971998 21494720 
1211.107 22039996 22608808 23202160 23821098 24466850 25140828 25844604 
1214.483 26579684 27347350 28148336 28982752 29850092 30749456 31679892 
1217.858 32640716 33631788 34653536 35706804 36792564 37911644 39064468 
1221.233 40251004 41470788 42723072 44007068 45322260 46668492 48046300 
1224.608 49457148 50903280 52387784 53914272 55486460 57107824 58781344 
1227.984 60509296 62293352 64134808 66034724 67994000 70013216 72092472 
1231.359 74231032 76426968 78676952 80975928 83317024 85691112 88086632 
1234.734 90489408 92882840 95248088 97564920 99812112 101968432 104012968 
1238.109 105925680 107687808 109282136 110693360 111908368 112916408 
1241.002 113709304 114281880 114632824 114765464 114688920 114418016 
1243.896 113972440 113374976 112649096 111817280 110899592 109914192 
1246.789 108878040 107807792 106720408 105632600 104560112 103516400 
1249.682 102512192 101555336 100651624 99805672 99021856 98304528 97657904 
1253.057 97085472 96589288 96169288 95822672 95543272 95321144 95142056 
1256.432 94987384 94834712 94659224 94435696 94140992 93755976 93266816 
1259.807 92665032 91946848 91111896 90162432 89102968 87940416 86684280 
1263.183 85346576 83941256 82483200 80987128 79466928 77935192 76403448 
1266.558 74882088 73380376 71906368 70466504 69065616 67707136 66393448 
1269.933 65126384 63907504 62737972 61618024 60546680 59521388 58538348 
1273.308 57593192 56681908 55801428 54949712 54125436 53327076 52552152 
1276.684 51796944 51056760 50326740 49602864 48882624 48165192 47451024 
1280.059 46741004 46035784 45335244 44638608 43944700 43252484 42561336 
1283.434 41870948 41181144 40491568 39801392 39109536 38414832 37716456 
1286.809 37014080 36308024 35599004 34887824 34175220 33461690 32747564 
1290.185 32033104 31318686 30604786 29892034 29181092 28472670 27767574 
1293.560 27066774 26371468 25683204 25003750 24335144 23679530 23039132 
1296.935 22416452 21814176 21235330 20683192 20161132 19672316 19219266 
1300.310 18803436 18424904 18082122 17771990 17490024 17230708 16987968 
1303.686 16755663 16528082 16300231 16068257 15829438 15582307 15326546 
1307.061 15062863 14792776 14518376 14242053 13966238 13693134 13424607 
1310.436 13162065 12906453 12658460 12418506 12186978 11964151 11750194 
1313.811 11545020 11348189 11158796 10975540 10796795 10620870 10446164 
1317.187 10271417 10095767 9918847 9740697 9561694 9382426 9203647 9026188 
1321.044 8850938 8678806 8510744 8347769 8190939 8041411 7900470 7769529 
1324.901 7650150 7544122 7453432 7380303 7327269 7296970 7292426 7316737 
1328.759 7373137 7464906 7595317 7767487 7984218 8247701 8559215 8918633 
1332.616 9323937 9770858 10252531 10759330 11279088 11797497 12298895 
1335.991 12767215 13187228 13545425 13831021 14036343 14157097 14192308 
1339.367 14144129 14017512 13819793 13560116 13248754 12896334 12513177 
1342.742 12108745 11691353 11268123 10845093 10427419 10019532 9625245 
1346.117 9247776 8889680 8552770 8238127 7946077 7676389 7428416 7201248 
1349.975 6993998 6805770 6635890 6483767 6349041 6231444 6130777 6046842 
1353.832 5979383 5927990 5892112 5871118 5864502 5872049 5894140 5931844 
1357.689 5987002 6062066 6159964 6283721 6436313 6620470 6838638 7092904 
1361.547 7384921 7715802 8085815 8494195 8938916 9416587 9922465 10450559 
1365.404 10993860 11544485 12093979 12633570 13154456 13648146 14106746 
1368.780 14523202 14891511 15206820 15465640 15665860 15807022 15890145 
1372.155 15917821 15893908 15823261 15711287 15563616 15385655 15182298 
1375.530 14957629 14714843 14456166 14183174 13896972 13598602 13289440 
1378.905 12971307 12646595 12318166 11989029 11662205 11340451 11026231 
1382.281 10721671 10428675 10148956 9884144 9635730 9405087 9193468 9001843 
1386.138 8831034 8681565 8553757 8447728 8363490 8300885 8259730 8239804 
1389.995 8240911 8262985 8306146 8370854 8458024 8569039 8705751 8870347 
1393.853 9065313 9293143 9556326 9857252 10198086 10580599 11005923 11474340 
1397.710 11984857 12535255 13122141 13741456 14389339 15063006 15761559 
1401.085 16486511 17241572 18032014 18863144 19738462 20657506 21613646 
1404.461 22592352 23570160 24514592 25385532 26137752 26724660 27102772 
1407.836 27236444 27102104 26691354 26012236 25088682 23957830 22666070 
1411.211 21264320 19803394 18330150 16884812 15499482 14197776 12995179 
1414.586 11900078 10914868 10037273 9261541 8579605 7982153 7459466 7002306 
1418.444 6602352 6252543 5947100 5681220 5450917 5252508 5082619 4938072 
1422.301 4816102 4714511 4631760 4566911 4519448 4488998 4475155 4477360 
1426.159 4494948 4527281 4573852 4634309 4708414 4795901 4896362 5009159 
1430.016 5133530 5268571 5413346 5566928 5728309 5896296 6069446 6246065 
1433.874 6424189 6601615 6776059 6945152 7106676 7258672 7399682 7528986 
1437.731 7646613 7753264 7850124 7938503 8019527 8094062 8162684 8225924 
1441.588 8284504 8339551 8392668 8445791 8500934 8559889 8624100 8694566 
1445.446 8771937 8856620 8948946 9048987 9156562 9270922 9390708 9514015 
1449.303 9638512 9761792 9881565 9995857 10103064 10201870 10291202 10370247 
1453.161 10438309 10494939 10539762 10572547 10593027 10600967 10596133 
1456.536 10578474 10548197 10505773 10451932 10387496 10313245 10229856 
1459.911 10137889 10038020 9931172 9818716 9702463 9584592 9467538 9353737 
1463.769 9245620 9145622 9056289 8980422 8921008 8881208 8864053 8872068 
1467.626 8906978 8969424 9058922 9173843 9311594 9468620 9640355 9821081 
1471.483 10003822 10180289 10341282 10477196 10578837 10638152 10648859 
1474.859 10606692 10509570 10357547 10152648 9898741 9601304 9267040 8903500 
1478.716 8518648 8120391 7716285 7313238 6917368 6533860 6166864 5819464 
1482.573 5493729 5190773 4910971 4654066 4419320 4205715 4011935 3836579 
1486.431 3678183 3535340 3406791 3291493 3188654 3097634 3017971 2949179 
1490.288 2890749 2842228 2803148 2773280 2752718 2741817 2741324 2752231 
1494.146 2775664 2812807 2864902 2933213 3019129 3124416 3251408 3403332 
1498.003 3584537 3800657 4058311 4364357 4724506 5141414 5612488 6127953 
1501.861 6669789 7211865 7721708 8163822 8503904 8713582 8774717 8682301 
1505.718 8445381 8085597 7633555 7123958 6590813 6063403 5564238 5108312 
1509.575 4703841 4353502 4055940 3807091 3601295 3432234 3293559 3179466 
1513.433 3084950 3006026 2939755 2884130 2837904 2800423 2771250 2750063 
1517.290 2736304 2729138 2727410 2729807 2735081 2742179 2750431 2759472 
1521.148 2769129 2779187 2789283 2798850 2807207 2813827 2818390 2820984 
1525.005 2821891 2821497 2819988 2817280 2812912 2806256 2796628 2783482 
1528.863 2766529 2745651 2720826 2692167 2659786 2624023 2585397 2544887 
1532.720 2503712 2463232 2424713 2389021 2356477 2326888 2299727 2274393 
1536.577 2250437 2227760 2206567 2187310 2170531 2156649 2145894 2138226 
1540.435 2133362 2130804 2129979 2130249 2131105 2132183 2133298 2134509 
1544.292 2135967 2137892 2140420 2143573 2147288 2151461 2156091 2161369 
1548.150 2167684 2175546 2185485 2197824 2212556 2229332 2247441 2265984 
1552.007 2284023 2300719 2315517 2328180 2338864 2348052 2356409 2364744 
1555.865 2373785 2384071 2395935 2409428 2424403 2440573 2457591 2475094 
1559.722 2492870 2510816 2528996 2547740 2567607 2589314 2613752 2641793 
1563.579 2674179 2711371 2753550 2800669 2852522 2909004 2970164 3036360 
1567.437 3108159 3186450 3272292 3366948 3471839 3588511 3718514 3863192 
1571.294 4023557 4199975 4392198 4599164 4819070 5049236 5285934 5524199 
1575.152 5757566 5978165 6176894 6344218 6471089 6549862 6575127 6544211 
1579.009 6457363 6317815 6131519 5906825 5653840 5383669 5107398 4835194 
1582.866 4575483 4334536 4116240 3922419 3753025 3606829 3481716 3375212 
1586.724 3284668 3207416 3140847 3082507 3030204 2982083 2936852 2893860 
1590.581 2852988 2814698 2779727 2748853 2722721 2701683 2685763 2674735 
1594.439 2668214 2665791 2667190 2672354 2681435 2694747 2712702 2735660 
1598.296 2763874 2797388 2836075 2879706 2928067 2980996 3038473 3100508 
1602.154 3167072 3237999 3312854 3391027 3471742 3554313 3638092 3722755 
1606.011 3808136 3894221 3981058 4068639 4156860 4245456 4333891 4421390 
1609.868 4506773 4588397 4664253 4731988 4789131 4833227 4862068 4873801 
1613.726 4866998 4840733 4794805 4729895 4647772 4551493 4445185 4333717 
1617.583 4222090 4114828 4015481 3926389 3848670 3782462 3727134 3681660 
1621.441 3644809 3615322 3592081 3574229 3561158 3552493 3547945 3547158 
1625.298 3549576 3554458 3560890 3568142 3575749 3583616 3592056 3601415 
1629.156 3611916 3623362 3635167 3646520 3656652 3665178 3672224 3678350 
1633.013 3684298 3690751 3698130 3706553 3715992 3726492 3738216 3751526 
1636.870 3766628 3783527 3801756 3820531 3839023 3856630 3873257 3889312 
1640.728 3905487 3922473 3940639 3959901 3979867 4000098 4020448 4041248 
1644.585 4063183 4087123 4113692 4143100 4175017 4208753 4243548 4278837 
1648.443 4314434 4350563 4387662 4426342 4467171 4510578 4557019 4606754 
1652.300 4659991 4716722 4776789 4839899 4905838 4974605 5046604 5122731 
1656.157 5204152 5292213 5388109 5492631 5605981 5727871 5857526 5994067 
1660.015 6136629 6284681 6438115 6597282 6762829 6935567 7116098 7304616 
1663.872 7500720 7703402 7911288 8122849 8336725 8551841 8767451 8983207 
1667.730 9198838 9414321 9629810 9845756 10063045 10282779 10506013 10733474 
1671.587 10965268 11201016 11440182 11682662 11929258 12181822 12442961 
1674.962 12715352 13000767 13299651 13610864 13932265 14261468 14596443 
1678.338 14936033 15279667 15626970 15977262 16329405 16682063 17034272 
1681.713 17385868 17737718 18091474 18448814 18810912 19178016 19549642 
1685.088 19925236 20304978 20690210 21083594 21488548 21908716 22347494 
1688.463 22808018 23293344 23806960 24352912 24935690 25559754 26229178 
1691.839 26947618 27718726 28547012 29438526 30400776 31442026 32569542 
1695.214 33788252 35099964 36504540 38002332 39597292 41299104 43123764 
1698.589 45091216 47222036 49533360 52036412 54736656 57636516 60739732 
1701.964 64055000 67597216 71385488 75438800 79771384 84389176 89289024 
1705.340 94459944 99885144 105542592 111402728 117424152 123548696 129699504 
1708.715 135783648 141698592 147340176 152606864 157400448 161623040 
1711.608 165177216 167973120 169942832 171055456 171325168 170805936 
1714.501 169576816 167724736 165333696 162482912 159250384 155716656 
1717.394 151963856 148069856 144100624 140105040 136114624 132147896 
1720.287 128216944 124332712 120507536 116754304 113084152 109504048 
1723.180 106016144 102619120 99310424 96088624 92954280 89909264 86955288 
1726.555 84092152 81317048 78624832 76009568 73465664 70989200 68577592 
1729.931 66228796 63940280 61708184 59527276 57391848 55296744 53238696 
1733.306 51216716 49231992 47286676 45382760 43520868 41699884 39917152 
1736.681 38169600 36454624 34771180 33120074 31503918 29926438 28391772 
1740.056 26903772 25465656 24079938 22748778 21473990 20257206 19099804 
1743.432 18002572 16965704 15988682 15070599 14210391 13407004 12659454 
1746.807 11966661 11327136 10738698 10198456 9702814 9247895 8829752 8444768 
1750.664 8089770 7762103 7459634 7180505 6923050 6685686 6466705 6264349 
1754.522 6076816 5902421 5739780 5587880 5446135 5314234 5191912 5078691 
1758.379 4973805 4876214 4784672 4698196 4615936 4537474 4462582 4391075 
1762.237 4322841 4257602 4195184 4135567 4078870 4025326 3975043 3927827 
1766.094 3883053 3839923 3797626 3755797 3714621 3674858 3637448 3603053 
1769.951 3571689 3542577 3514251 3485142 3453952 3420075 3383746 3345794 
1773.809 3307430 3269881 3234151 3201135 3171377 3145334 3123136 3104488 
1777.666 3088580 3074200 3059943 3044706 3027968 3010058 2992015 2975162 
1781.524 2960670 2949068 2939970 2932335 2924628 2915365 2903496 2888601 
1785.381 2870976 2851387 2830853 2810313 2790437 2771427 2753031 2734746 
1789.239 2715854 2695956 2675033 2653576 2632568 2613028 2595808 2581088 
1793.096 2568445 2556927 2545477 2533305 2520249 2506666 2493342 2481057 
1796.953 2470286 2461120 2453346 2446669 2440868 2435839 2431545 2427736 
1800.811 2423813 2419002 2412532 2404045 2393781 2382496 2371188 2360621 
1804.668 2350888 2341545 2331655 2320529 2308017 2294748 2281918 2270754 
1808.526 2261985 2255513 2250537 2245953 2240904 2235185 2229180 2223499 
1812.383 2218531 2213975 2208959 2202532 2194204 2184567 2175354 2168913 
1816.240 2167472 2172156 2182555 2196768 2212001 2225528 2235523 2241357 
1820.098 2243371 2242427 2239315 2234432 2227963 2220057 2211103 2201823 
1823.955 2192973 2184933 2177444 2169640 2160328 2148456 2133701 2116416 
1827.813 2097553 2078156 2058790 2039431 2019538 1998402 1975726 1951936 
1831.670 1928210 1905964 1886536 1870590 1858021 1847992 1839271 1830565 
1835.528 1820947 1809739 1796633 1781680 1765042 1747248 1729049 1711305 
1839.385 1694727 1679537 1665258 1650799 1634673 1615571 1592940 1567258 
1843.242 1540008 1513127 1488327 1466521 1447530 1430295 1413553 1396307 
1847.100 1378471 1360785 1344408 1330398 1319167 1310285 1302721 1295303 
1850.957 1287258 1278543 1269613 1261015 1252994 1245043 1236242 1225427 
1854.815 1211908 1196080 1179369 1164130 1152681 1146845 1147186 1152973 
1858.672 1162431 1173101 1182539 1188606 1189740 1184954 1173858 1156656 
1862.530 1134404 1109036 1083132 1059813 1041869 1031293 1028579 1032727 
1866.387 1041425 1051606 1060208 1064752 1063641 1056256 1042776 1023914 
1870.244 1000675 974318 946056 917238 888897 861913 836837 814257 794844 
1874.584 779640 770050 767419 772491 784911 802891 823366 842964 858991 
1878.924 870360 878092 884922 894175 908423 928249 951798 975037 993097 
1883.263 1001531 997801 982101 957209 927884 899634 877544 865133 863711 
1887.603 872244 887554 905240 920610 929994 931619 926003 915778 904435 
1891.942 895134 889397 886460 883649 877544 865499 847177 824999 803754 
1896.282 789076 785679 795722 817989 848082 879861 906603 923081 926403 
1900.622 916640 896392 870204 843343 820704 805770 800109 803082 812276 
1904.961 824287 835719 843924 847615 846738 841940 834082 823634 810780 
1909.301 795693 779094 762489 748045 737935 733692 735667 743078 754580 
1913.640 769020 785992 805795 828931 854958 881892 906235 923917 931698 
1917.980 928739 916972 900729 885020 873716 868412 868077 869935 871280 
1922.320 870527 868196 866430 867626 873455 883940 897371 911418 923860 
1926.659 933496 940161 944103 945483 943807 938057 927657 912709 894652 
1930.999 875827 858717 844983 835177 828820 825449 825163 829162 839268 
1935.338 856940 882227 913059 945566 975316 998613 1013829 1021649 1024270 
1939.678 1024336 1023543 1021982 1018668 1012286 1002483 990703 980209 
1943.535 975227 979854 996465 1024893 1062097 1102928 1140765 1168971 
1947.393 1182561 1179130 1159819 1129273 1094738 1064590 1046128 1043834 
1951.250 1058336 1086358 1121351 1155981 1182912 1196936 1195596 1179197 
1955.108 1150671 1115142 1079032 1049090 1030129 1023739 1025994 1027449 
1958.965 1014603 973839 896140 782032 642520 497965 372261 286615 253329 
1963.305 273175 335895 424609 520623 608844 679491 728422 755037 759766 
1967.644 743293 707120 653986 590145 524901 468496 429828 412864 414914 
1971.984 426611 434092 422944 381438 305001 196848 69334 -58576 -164237 
1976.323 -226211 -228246 -164533 -40323 128543 321064 515859 696418 851791 
1980.663 976119 1066162 1120130 1136971 1118978 1072921 1011897 953937 
1984.521 918229 920479 967691 1055667 1169956 1289390 1392336 1461410 
1988.378 1487900 1471509 1419412 1342651 1254037 1165733 1088994 1032699 
1992.235 1002928 1001040 1022757 1058102 1092951 1112512 1105751 1068089 
1996.093 1002514 917374 822797 726563 632223 538354 442091 341253 237513 
2000.432 136363 44813 -31266 -89435 -130895 -158341 -172556 -170113 -143115 
2004.772 -82730 15342 146217 292350 427239 521629 554182 518098 424400 
2009.112 298429 172226 75082 27123 34621 90873 178457 274084 353561 396108 
2013.933 387148 321166 200933 37722 -150982 -344523 -522034 -665076 -759652 
2018.273 -796008 -769006 -676454 -520281 -306490 -47039 239173 526776 787133 
2022.613 991512 1117299 1151618 1093159 951553 744787 494726 223853 -48422 
2026.952 -306825 -540637 -743985 -914410 -1052019 -1158481 -1235606 -1284270 
2030.810 -1304154 -1293170 -1250168 -1175449 -1073004 -951191 -822290 
2034.185 -699397 -594831 -516473 -466580 -442194 -435222 -435123 -429603 
2038.042 -407049 -357381 -274322 -156368 -8427 158154 326927 479862 600909 
2042.382 679904 714495 709907 676715 627372 572776 520758 475226 438436 
2046.721 413362 404090 416754 456405 524246 615328 718348 818663 902658 
2051.061 961695 994344 1006143 1006826 1007186 1014793 1031538 1052744 
2054.918 1069044 1069785 1047165 999416 931520 853980 779856 721259 686379 
2059.258 677836 692340 722272 758192 791000 814798 827704 831843 832658 
2063.598 836621 848863 871396 901921 934288 960192 971967 965147 940227 
2067.937 902402 860313 823142 798089 788671 794716 813489 841439 875468 
2072.277 913485 953633 993525 1029748 1058361 1076643 1084603 1086178 
2076.134 1088665 1099998 1126137 1167824 1219933 1272626 1314799 1337904 
2079.992 1339403 1323240 1298733 1276978 1267228 1274232 1297004 1329899 
2083.849 1364931 1393624 1409239 1407327 1385784 1344569 1285274 1211159 
2087.707 1126748 1037505 948924 865442 789722 722602 663595 612285 569641 
2092.046 538132 521533 523669 546284 588367 646059 713467 784626 854933 
2096.386 921579 982954 1037445 1082210 1113419 1127065 1121148 1096808 
2100.243 1059395 1016977 978253 950061 935515 933449 939830 949559 958780 
2104.583 965990 972273 980217 992482 1010603 1034512 1062704 1092996 1123311 
2108.922 1151704 1176607 1196407 1209036 1212466 1204768 1185188 1154376 
2112.780 1114767 1070028 1024660 982813 947903 921832 905242 897688 897992 
2117.119 904756 916611 932053 949519 966832 981048 988342 984640 966029 
2121.459 930109 876603 808206 729939 648826 572257 506588 456266 423080 
2125.799 406345 403380 410047 421057 430664 432709 421223 391325 340437 
2130.138 269478 183092 90048 1483 -70528 -115570 -127143 -104206 -52073 
2134.478 18169 91244 150746 182236 176873 133894 60645 -28016 -114384 
2138.817 -181765 -219227 -224956 -205671 -174007 -143826 -124918 -119928 
2142.675 -123932 -127449 -121016 -99402 -63672 -21041 20112 51841 71566 
2147.014 80773 83284 81493 73077 50479 2827 -80300 -204569 -368593 -564406 
2151.836 -779935 -1002785 -1224064 -1438936 -1646835 -1847210 -2036769 
2155.211 -2206561 -2340701 -2417738 -2415055 -2314308 -2108859 -1809167 
2158.587 -1446064 -1065734 -719715 -449627 -277116 -199705 -197155 -238485 
2162.444 -293628 -340103 -366736 -373824 -369935 -366588 -373352 -393503 
2166.302 -423783 -455368 -477855 -482163 -464151 -425793 -375134 -323987 
2170.159 -285357 -270484 -284831 -326921 -388234 -455252 -513903 -552907 
2174.016 -568102 -562528 -545308 -527024 -516258 -514902 -519693 -523897 
2177.874 -521760 -511769 -497765 -486124 -483170 -490349 -504035 -516927 
2181.731 -522310 -518514 -510688 -508189 -520031 -547037 -580090 -599767 
2185.589 -583168 -513019 -385149 -212393 -22871 147718 266584 312757 282161 
2189.928 187309 52158 -94544 -226135 -322493 -372183 -372062 -326827 -247070 
2194.268 -147708 -45742 42623 105158 136400 139127 123332 103435 93798 
2198.607 105224 141651 200636 274017 351504 423081 481216 521520 543105 
2202.947 547562 538534 520669 499321 479238 463937 454844 451543 452310 
2207.287 455466 460453 468619 482121 503062 531746 565696 600233 630431 
2211.626 652655 666900 676369 686367 701335 722446 746182 765235 770640 
2215.966 755511 717640 660454 592611 525192 468684 430091 412342 414189 
2220.305 431724 460447 495768 533773 570337 601127 620834 624907 610180 
2224.645 577414 531656 482610 442407 422962 432547 473520 541233 625764 
2228.985 714199 794888 859890 907164 939462 963004 984074 1006921 1032408 
2233.324 1058526 1081444 1097870 1105700 1105025 1097045 1083502 1065655 
2237.182 1044162 1019592 992929 965556 939633 916395 896380 878609 861507 
2241.521 844041 827178 813884 808986 816700 838845 873406 914405 953494 
2245.861 983099 998603 1000231 992713 983281 979090 984824 1001274 1025981 
2250.200 1054405 1081998 1105536 1123716 1136654 1145384 1151045 1154895 
2254.058 1158233 1163182 1172157 1187844 1211873 1244269 1282583 1322543 
2257.915 1358652 1385826 1400363 1400836 1388202 1365585 1337101 1307520 
2261.773 1281040 1261003 1249403 1246776 1252473 1264661 1280992 1298860 
2265.630 1315879 1330245 1340599 1346504 1348306 1347221 1345153 1344509 
2269.488 1347188 1354062 1364128 1374610 1381442 1380926 1371203 1353719 
2273.345 1333170 1316693 1311367 1321849 1348667 1387760 1431796 1472502 
2277.202 1503390 1521325 1527403 1525618 1521378 1519629 1523710 1535258 
2281.060 1554559 1581406 1615472 1656254 1702602 1752610 1803157 1850743 
2284.917 1892113 1924971 1948214 1961852 1966323 1961921 1948605 1926256 
2288.775 1895130 1856581 1813148 1768326 1725907 1689024 1659497 1637717 
2292.632 1622688 1612597 1605460 1599332 1592554 1583795 1571865 1555967 
2296.490 1535723 1511434 1484219 1455772 1428141 1403402 1383324 1369159 
2300.347 1361643 1360862 1366241 1376532 1389953 1404178 1416995 1426775 
2304.204 1432905 1435916 1437371 1439129 1442677 1448616 1456504 1465256 
2308.062 1473726 1481291 1488232 1495292 1503388 1512934 1523440 1533532 
2311.919 1541498 1545850 1545775 1541474 1534011 1525027 1516367 1509923 
2315.777 1507341 1510038 1519002 1534619 1556562 1583879 1615281 1649869 
2319.634 1687492 1728913 1775267 1826891 1882043 1936031 1981367 2009067 
2323.491 2010897 1981722 1921078 1833598 1727975 1615151 1506100 1409786 
2327.349 1331868 1274143 1235026 1210642 1196179 1187156 1180184 1173303 
2331.206 1165826 1157940 1150364 1144004 1139628 1137854 1138919 1142721 
2335.064 1148802 1156435 1164737 1172809 1179850 1185210 1188480 1189454 
2338.921 1188233 1185208 1181107 1176785 1173018 1170325 1168768 1167980 
2342.779 1167396 1166553 1165355 1164220 1163870 1165069 1168115 1172758 
2346.636 1178135 1183255 1187259 1189974 1191770 1193582 1196276 1200193 
2350.493 1205041 1209899 1213837 1216175 1217174 1217755 1219393 1223479 
2354.351 1230716 1240902 1252903 1265075 1275681 1283288 1287006 1286558 
2358.208 1282058 1274003 1263074 1250107 1236091 1221953 1208461 1195858 
2362.066 1183854 1171768 1158743 1144400 1129246 1114705 1102980 1096424 
2365.923 1096783 1104487 1118498 1136441 1155236 1171939 1184491 1192077 
2369.781 1195100 1194819 1192797 1190385 1188433 1187188 1186427 1185690 
2373.638 1184531 1182774 1180539 1178240 1176592 1176330 1178073 1182128 
2377.495 1188249 1195742 1203543 1210621 1216306 1220518 1223918 1227566 
2381.353 1232526 1239372 1247907 1257069 1265349 1271281 1274074 1273963 
2385.210 1272077 1270125 1269830 1272272 1277597 1284999 1293158 1300599 
2389.068 1306208 1309470 1310336 1309052 1305995 1301292 1295014 1287265 
2392.925 1278286 1268581 1258914 1250102 1242845 1237522 1234124 1232267 
2396.782 1231334 1230416 1228598 1224970 1218807 1209804 1198256 1185224 
2400.640 1172318 1161484 1154275 1151448 1152468 1155831 1159381 1161224 
2404.497 1160506 1157685 1154557 1153386 1156132 1163484 1174525 1187081 
2408.355 1198457 1206463 1210153 1210031 1207802 1205433 1204454 1205196 
2412.212 1206820 1207635 1205798 1200061 1190163 1177116 1162535 1148468 
2416.070 1136567 1127656 1121681 1117558 1113886 1109192 1102545 1093952 
2419.927 1084391 1075566 1069443 1067484 1070129 1076447 1084309 1091015 
2423.784 1093909 1091295 1082688 1068974 1051732 1032911 1014014 996078 
2427.642 979656 965163 953150 944447 940005 940484 945822 955218 966992 
2431.981 979252 990143 998387 1003330 1004921 1003353 999065 992478 984316 
2436.321 975557 967553 961869 959867 962307 969110 979179 990811 1002057 
2440.661 1011292 1017559 1020676 1020984 1019069 1015617 1011060 1005644 
2444.518 999628 993325 987428 982698 980143 980549 984302 991045 999519 
2448.858 1007964 1014011 1015531 1011206 1000921 986206 969750 955028 945311 
2453.197 942766 947954 959692 975277 991420 1004845 1013035 1014688 1009652 
2457.537 998985 984648 969206 955568 946219 942918 946039 954393 965425 
2461.876 975821 982566 983895 979936 972417 964138 957701 954436 953856 
2466.216 954026 952217 946292 935359 920207 902850 885752 871010 859663 
2470.556 851934 847496 845870 846878 850255 855442 861193 865343 865463 
2474.895 859473 846488 827448 805073 783116 765667 755936 755712 765089 
2479.235 782637 805823 831474 856246 876873 890714 896128 892785 881918 
2483.574 866128 848759 833111 821749 815884 815478 819330 825890 833649 
2487.914 841296 847807 852202 853655 851451 845437 836303 825568 815421 
2492.254 808025 804886 806423 812181 821281 832825 846732 863531 883723 
2496.593 907155 932370 956498 975747 986594 986793 976262 957104 932970 
2500.933 908172 886645 871281 863677 864412 873173 889064 910561 935510 
2505.272 961111 984306 1002236 1012840 1015407 1010638 1000390 987212 973763 
2509.612 962373 954755 952027 954551 961929 972962 985664 997717 1006969 
2513.952 1012240 1013745 1013191 1013175 1016213 1023654 1035087 1048455 
2517.809 1060818 1069632 1073612 1073388 1070946 1068748 1068683 1071350 
2521.667 1076111 1081684 1087217 1092761 1099211 1107868 1119166 1132363 
2525.524 1145270 1155189 1160265 1160495 1158178 1157281 1161913 1174634 
2529.381 1195096 1220086 1244413 1262733 1271381 1269654 1259669 1245285 
2533.239 1230634 1218560 1209826 1203493 1197829 1191518 1184525 1178064 
2537.096 1174133 1174348 1179161 1187546 1197364 1206276 1212725 1216682 
2540.954 1219348 1222772 1228897 1238577 1251311 1265271 1278257 1288205 
2544.811 1293900 1295254 1292888 1287773 1280795 1272406 1262708 1251675 
2548.668 1239504 1226945 1215134 1205592 1199780 1198973 1204147 1215693 
2552.526 1233555 1256978 1284463 1313610 1341395 1364382 1379760 1385808 
2556.383 1382536 1371929 1357332 1342756 1331659 1326239 1326995 1332910 
2560.241 1342055 1352459 1362626 1371827 1379872 1386691 1392137 1395641 
2564.098 1396583 1394592 1389897 1383566 1377181 1372300 1369940 1370180 
2567.956 1372091 1373986 1374218 1371572 1365890 1357957 1349435 1342212 
2571.813 1337841 1337229 1340370 1346377 1353870 1361246 1367235 1371145 
2575.670 1373095 1374026 1375467 1379156 1386556 1398292 1414022 1432399 
2579.528 1451211 1468231 1481378 1489454 1492176 1490175 1484558 1476632 
2583.385 1467602 1458361 1449656 1442127 1436384 1433198 1433144 1436693 
2587.243 1443733 1453790 1465884 1478810 1491324 1502314 1510848 1516149 
2591.100 1517579 1514590 1506837 1494365 1477746 1458189 1437497 1417829 
2594.958 1401229 1389466 1383359 1383007 1387644 1395935 1406434 1417809 
2598.815 1428990 1439320 1448669 1457019 1464595 1471581 1478220 1484530 
2602.672 1490319 1495244 1498659 1499802 1498042 1492985 1484890 1474720 
2606.530 1463934 1454467 1448024 1445745 1447929 1453897 1462213 1471121 
2610.387 1479033 1484959 1488740 1490847 1492288 1494152 1497200 1501767 
2614.245 1507652 1514330 1521064 1527212 1532413 1536553 1539825 1542614 
2618.102 1545281 1548151 1551260 1554502 1557472 1559783 1561082 1561378 
2621.959 1560961 1560579 1561156 1563690 1568887 1577039 1587770 1600278 
2625.817 1613171 1625233 1635162 1642200 1646026 1646893 1645437 1642487 
2629.674 1638988 1635734 1633373 1632249 1632415 1633687 1635765 1638144 
2633.532 1640259 1641524 1641302 1638990 1634214 1626824 1617172 1606064 
2637.389 1594803 1584877 1577695 1574154 1574460 1577895 1583097 1588363 
2641.247 1592104 1593407 1592197 1589194 1585773 1583389 1583198 1585734 
2645.104 1590768 1597395 1604398 1610515 1614775 1616644 1616102 1613549 
2648.961 1609517 1604620 1599348 1593869 1588255 1582345 1575997 1569210 
2652.819 1562091 1554988 1548266 1542291 1537187 1532848 1528980 1525164 
2656.676 1521008 1516361 1511327 1506212 1501443 1497217 1493499 1489931 
2660.534 1485772 1480147 1472243 1461478 1447593 1430730 1411425 1390436 
2664.391 1368720 1347286 1327162 1309294 1294468 1283212 1275742 1271915 
2668.249 1271260 1273036 1276280 1279989 1283235 1285238 1285542 1283966 
2672.106 1280689 1276282 1271489 1267178 1264146 1262986 1263930 1266775 
2675.963 1271063 1276143 1281332 1286110 1290199 1293572 1296255 1298427 
2679.821 1300052 1300960 1300844 1299317 1296055 1291005 1284416 1276800 
2683.678 1268966 1261768 1255961 1251979 1249928 1249594 1250575 1252446 
2687.536 1254947 1258098 1262115 1267322 1273900 1281805 1290596 1299509 
2691.393 1307650 1314243 1318727 1321003 1321239 1319959 1317586 1314590 
2695.250 1311177 1307546 1303742 1300018 1296771 1294473 1293628 1294592 
2699.108 1297301 1301430 1306294 1311115 1315077 1317675 1318752 1318498 
2702.965 1317329 1315798 1314402 1313449 1313167 1313691 1315194 1317868 
2706.823 1322003 1327727 1335041 1343428 1351974 1359397 1364325 1365685 
2710.680 1363039 1356784 1348174 1339088 1331537 1327273 1327409 1332128 
2714.538 1340843 1352227 1364808 1376986 1387456 1395254 1399938 1401417 
2718.395 1400143 1396946 1392982 1389627 1388150 1389536 1394262 1402174 
2722.252 1412563 1424398 1436523 1448095 1458457 1467316 1474432 1479621 
2726.110 1482426 1482395 1479108 1472644 1463579 1453203 1443263 1435490 
2729.967 1431304 1431337 1435372 1442367 1451033 1459986 1468448 1476125 
2733.825 1483246 1490304 1497697 1505441 1513105 1520084 1525660 1529466 
2737.682 1531499 1532146 1532076 1531766 1531567 1531303 1530552 1528861 
2741.540 1525928 1521752 1516774 1511693 1507264 1504104 1502582 1502864 
2745.397 1504777 1508220 1512908 1518603 1524871 1531142 1536742 1540849 
2749.254 1542983 1542857 1540847 1537665 1534389 1531961 1530918 1531233 
2753.112 1532277 1532989 1532360 1529717 1525103 1519305 1513624 1509635 
2756.969 1508511 1510931 1516553 1524306 1532562 1539618 1544138 1545492 
2760.827 1543807 1539989 1535263 1530915 1527909 1526850 1527747 1530444 
2764.684 1534616 1539923 1546048 1552658 1559262 1565302 1569996 1572676 
2768.542 1572941 1570687 1566424 1560997 1555457 1550845 1547897 1547115 
2772.399 1548565 1552250 1557854 1565070 1573351 1582044 1590285 1597169 
2776.256 1601846 1603839 1603241 1600647 1597222 1594206 1592813 1593761 
2780.114 1597211 1602856 1609931 1617636 1625147 1631960 1637748 1642313 
2783.971 1645617 1647548 1648105 1647315 1645335 1642495 1639344 1636529 
2787.829 1634715 1634445 1636076 1639666 1645046 1651844 1659553 1667687 
2791.686 1675815 1683589 1690795 1697252 1702849 1707546 1711305 1714202 
2795.543 1716395 1718082 1719543 1721052 1722816 1724993 1727651 1730893 
2799.401 1734879 1739864 1746112 1753916 1763323 1774063 1785542 1796913 
2803.258 1807166 1815492 1821330 1824681 1825872 1825648 1824829 1824151 
2807.116 1824162 1825090 1826942 1829495 1832445 1835424 1838121 1840270 
2810.973 1841664 1842225 1841955 1840994 1839455 1837584 1835628 1833869 
2814.831 1832650 1832330 1833297 1835960 1840509 1846945 1854977 1864053 
2818.688 1873466 1882541 1890681 1897656 1903533 1908586 1913204 1917814 
2822.545 1922587 1927657 1933033 1938762 1944949 1951890 1959928 1969367 
2826.403 1980361 1992826 2006315 2020238 2033806 2046284 2057174 2066115 
2830.260 2073143 2078466 2082560 2085987 2089358 2093265 2098252 2104798 
2834.118 2113151 2123486 2135697 2149549 2164660 2180609 2196988 2213469 
2837.975 2229805 2245860 2261559 2276863 2291790 2306369 2320772 2335278 
2841.833 2350145 2365758 2382309 2400030 2418970 2439265 2461146 2485000 
2845.690 2511253 2540312 2572257 2606812 2643132 2679996 2716110 2750202 
2849.547 2781320 2808979 2833039 2853622 2871043 2885504 2897494 2907554 
2853.405 2916388 2924926 2933922 2943842 2954763 2966251 2977928 2989513 
2857.262 3001334 3014258 3029622 3048720 3072226 3100009 3131043 3163854 
2861.120 3197005 3229700 3262063 3294990 3329818 3367756 3409716 3455900 
2864.977 3506080 3559931 3617254 3678045 3742389 3810265 3881377 3955082 
2868.834 4030593 4107244 4184725 4263047 4342585 4423580 4505975 4589290 
2872.692 4672589 4754714 4834534 4911034 4983264 5050510 5111986 5167176 
2876.549 5215949 5258791 5296956 5332160 5366040 5399811 5433602 5466405 
2880.407 5496475 5522012 5542045 5556836 5568049 5578377 5590737 5607499 
2884.264 5629844 5657660 5689753 5724324 5759389 5793199 5824335 5851619 
2888.122 5874244 5891504 5903012 5908692 5908816 5903828 5894303 5880688 
2891.979 5863324 5842484 5818498 5791909 5763499 5734163 5704705 5675604 
2895.836 5646921 5618358 5589489 5560077 5530340 5500911 5472844 5447221 
2899.694 5425106 5407150 5393713 5384759 5380095 5379374 5382034 5387565 
2903.551 5395248 5404298 5413955 5423383 5431871 5438633 5442923 5443966 
2907.409 5441068 5433853 5422281 5406993 5388867 5369107 5348648 5328097 
2911.266 5307522 5286641 5265053 5242767 5220248 5198458 5178586 5161607 
2915.124 5147895 5137047 5127914 5119043 5109061 5097205 5083384 5068241 
2918.981 5052914 5038822 5027282 5019364 5016006 5017870 5025467 5039110 
2922.838 5058825 5084286 5114621 5148523 5184454 5220689 5255885 5289352 
2926.696 5321090 5351914 5383372 5417258 5455275 5498746 5548279 5603841 
2930.553 5664704 5729961 5798525 5869487 5942018 6015468 6089278 6163072 
2934.411 6236637 6310174 6384369 6460104 6538385 6619875 6704528 6791473 
2938.268 6879190 6965925 7050473 7132454 7212853 7293536 7377100 7465891 
2942.125 7561504 7664431 7773971 7888586 8006578 8126484 8247389 8369240 
2945.983 8492557 8618182 8746842 8878874 9014007 9151241 9289096 9426058 
2949.840 9560637 9692089 9820493 9946646 10071874 10197532 10324553 10453125 
2953.698 10582715 10712166 10840380 10966490 11090357 11212296 11333051 
2957.073 11453343 11573591 11693706 11813357 11931886 12048673 12163013 
2960.448 12274197 12381199 12482700 12577038 12662481 12737593 12801510 
2963.823 12853996 12895533 12926927 12948985 12962468 12967673 12964791 
2967.199 12953852 12934835 12907748 12872648 12829405 12777865 12717807 
2970.574 12649156 12572101 12486960 12394257 12294522 12187970 12074582 
2973.949 11954030 11825917 11690104 11546782 11396617 11240732 11080389 
2977.324 10916933 10751501 10584912 10417720 10249998 10081621 9912175 
2980.700 9740972 9567519 9391420 9212749 9032089 8850481 8669200 8489690 
2984.557 8313104 8140423 7972178 7808597 7649707 7495250 7344565 7196875 
2988.415 7051054 6906114 6761531 6617462 6475006 6335878 6201991 6074930 
2992.272 5955200 5842355 5735150 5632050 5532001 5434875 5341450 5252910 
2996.129 5170157 5093324 5021261 4951907 4883053 4812885 4740908 4667858 
2999.987 4595689 4526512 4462033 4402933 4348624 4297466 4247463 4196653 
3003.844 4143718 4088190 4030389 3971281 3912090 3853974 3797874 3744284 
3007.702 3693108 3643893 3595818 3548103 3500300 3452263 3404373 3357211 
3011.559 3311207 3266414 3222306 3177974 3132457 3085377 3037206 2989354 
3015.417 2943834 2902688 2867190 2837370 2812062 2789048 2766032 2741183 
3019.274 2713738 2684155 2653670 2623828 2595758 2569901 2545797 2522557 
3023.131 2499151 2475026 2450338 2425911 2402909 2382427 2365054 2350464 
3026.989 2337638 2324911 2310558 2293261 2272489 2248876 2224044 2200118 
3030.846 2179435 2163741 2153793 2149192 2148574 2149866 2150912 2150120 
3034.704 2146527 2140143 2131518 2121572 2111359 2101807 2093714 2087952 
3038.561 2085235 2086446 2092118 2102458 2116968 2134566 2153873 2173433 
3042.418 2192470 2210880 2229606 2250135 2274296 2303632 2339145 2381008 
3046.276 2428797 2481597 2538221 2597492 2658230 2719210 2779257 2837162 
3050.133 2891918 2942600 2988633 3029618 3065370 3095729 3120614 3139981 
3053.991 3153666 3161864 3164727 3162676 3156052 3145226 3130779 3113353 
3057.848 3094014 3074248 3055816 3040357 3029105 3022332 3019323 3018793 
3061.706 3019195 3019650 3020240 3022251 3027566 3037961 3054261 3075733 
3065.563 3100125 3124260 3144837 3159492 3167368 3169177 3166761 3162291 
3069.420 3157654 3153860 3150959 3148422 3145468 3141585 3136722 3131242 
3073.278 3125656 3120528 3116158 3112581 3109606 3107100 3104959 3103275 
3077.135 3102395 3102787 3104849 3108770 3114321 3120574 3126170 3129240 
3080.993 3127776 3120250 3105834 3084968 3059217 3030925 3002807 2976943 
3084.850 2954430 2934944 2916938 2898062 2875954 2848942 2816578 2779898 
3088.708 2740950 2702617 2667739 2638530 2616219 2600797 2591188 2585607 
3092.565 2581937 2578401 2573683 2567251 2559260 2550410 2541807 2534625 
3096.422 2529897 2528525 2530978 2537323 2547175 2559636 2573410 2587179 
3100.280 2599896 2611068 2620893 2630123 2639776 2650366 2661663 2672250 
3104.137 2679882 2682072 2676937 2663909 2644119 2620232 2595671 2573626 
3107.995 2556257 2543871 2535081 2527192 2517044 2501917 2480289 2452139 
3111.852 2418864 2383025 2347542 2315269 2288344 2267785 2253665 2245010 
3115.709 2240362 2238105 2236898 2235974 2234954 2233945 2233019 2232115 
3119.567 2230810 2228485 2224657 2219009 2211773 2203546 2195170 2187328 
3123.424 2180462 2174677 2169911 2166175 2163647 2162708 2163757 2166817 
3127.282 2171373 2176457 2180605 2182616 2181604 2177346 2170262 2160964 
3131.139 2149903 2137049 2121956 2104004 2082919 2059079 2033813 2009060 
3134.997 1986992 1969389 1957096 1949933 1946796 1945967 1945792 1944930 
3138.854 1942560 1938459 1932700 1925537 1917241 1908195 1898830 1889800 
3142.711 1881929 1876052 1872792 1872297 1874158 1877256 1880270 1881794 
3146.569 1880783 1876811 1869994 1860955 1850465 1839190 1827563 1815861 
3150.426 1804345 1793440 1783856 1776247 1771250 1768823 1768225 1768062 
3154.284 1766702 1762768 1755826 1746405 1735891 1726072 1718370 1713379 
3158.141 1710695 1709345 1708123 1706443 1704393 1702798 1702687 1704813 
3161.999 1709114 1714860 1720766 1725614 1728573 1729526 1728802 1726878 
3165.856 1724050 1720255 1715470 1709782 1703963 1699238 1697116 1698618 
3169.713 1703948 1712024 1720793 1727864 1731404 1730486 1725693 1718493 
3173.571 1710802 1704226 1699651 1697065 1695906 1695493 1695462 1695826 
3177.428 1697043 1699613 1703795 1709534 1716320 1723344 1729729 1734570 
3181.286 1737095 1736803 1733458 1727399 1719481 1711091 1704034 1699955 
3185.143 1700063 1704701 1713199 1723966 1735144 1744839 1751885 1755926 
3189.000 1757508 1757741 1757964 1759311 1762361 1766922 1772223 1776733 
3192.858 1778812 1777077 1770754 1760098 1746354 1731641 1718352 1708351 
3196.715 1702658 1701081 1702496 1705306 1708181 1710541 1712581 1715157 
3200.573 1719077 1724565 1730935 1736825 1740589 1740926 1737663 1731519 
3204.430 1724126 1717408 1712914 1711591 1713494 1718108 1724714 1732420 
3208.288 1740505 1748280 1754950 1759683 1761714 1760513 1756112 1749081 
3212.145 1740431 1731392 1723083 1716163 1710922 1707362 1705354 1704941 
3216.002 1706221 1709347 1714199 1720294 1726759 1732480 1736465 1738162 
3219.860 1737579 1735409 1732698 1730645 1730136 1731573 1734935 1739585 
3223.717 1744646 1749191 1752449 1754009 1753882 1752466 1750618 1749277 
3227.575 1749387 1751738 1756657 1764059 1773305 1783248 1792523 1799437 
3231.432 1802384 1800147 1792161 1778792 1761505 1742446 1724468 1710155 
3235.290 1701296 1698468 1700837 1706409 1712689 1717276 1718586 1716050 
3239.147 1710037 1701448 1691325 1680537 1669703 1659356 1650266 1643414 
3243.004 1640049 1641185 1647192 1657421 1670319 1683495 1694661 1702022 
3246.862 1705072 1704422 1701767 1699231 1698808 1701795 1708673 1718955 
3250.719 1731432 1744502 1756410 1765410 1770178 1769829 1764481 1754983 
3254.577 1743191 1731450 1722339 1717920 1719430 1726905 1739332 1754845 
3258.434 1771305 1786448 1798524 1806086 1808333 1804924 1796130 1782780 
3262.292 1766452 1749146 1732932 1719604 1710105 1704238 1700876 1698193 
3266.149 1694512 1688694 1680652 1671303 1662248 1655120 1651430 1651861 
3270.006 1656620 1665404 1677745 1692931 1710043 1727831 1744628 1758632 
3273.864 1768193 1772474 1771801 1767601 1762224 1758153 1757236 1760155 
3277.721 1766395 1774518 1782808 1789924 1795271 1798826 1800896 1801821 
3281.579 1801513 1799795 1796557 1792140 1787578 1784227 1783475 1785996 
3285.436 1791417 1798647 1805935 1811847 1815709 1817905 1819574 1821904 
3289.293 1825604 1830641 1836132 1840940 1844226 1845877 1846468 1846848 
3293.151 1847660 1848760 1849296 1847986 1843722 1836305 1826619 1816499 
3297.008 1808014 1802802 1801450 1803263 1806493 1808926 1808582 1804073 
3300.866 1794802 1781076 1763837 1744490 1724908 1707106 1693244 1685072 
3304.723 1683623 1688866 1699541 1713379 1727754 1740272 1749644 1755768 
3308.581 1759730 1763161 1767703 1774211 1782543 1791743 1800347 1806843 
3312.438 1810273 1810337 1807410 1802381 1796438 1790773 1786585 1784753 
3316.295 1785903 1790379 1797940 1807929 1819314 1830825 1841260 1849827 
3320.153 1856113 1860339 1863172 1865427 1867883 1871088 1875162 1879696 
3324.010 1883907 1886859 1887556 1885285 1879831 1871529 1861226 1850385 
3327.868 1840592 1833275 1829530 1829840 1834150 1841768 1851849 1863341 
3331.725 1875352 1887255 1898570 1909061 1918514 1926818 1933792 1939335 
3335.583 1943311 1945609 1946148 1944838 1941589 1936198 1928541 1918574 
3339.440 1906362 1892297 1876997 1861313 1846130 1832178 1819849 1809233 
3343.297 1800051 1792055 1785146 1779569 1775910 1774786 1776579 1780910 
3347.155 1786544 1791573 1793864 1791753 1784664 1773473 1760348 1748096 
3351.012 1739302 1735564 1736903 1741773 1747814 1752383 1753692 1751064 
3354.870 1745140 1737460 1729822 1723668 1719673 1717714 1717004 1716665 
3358.727 1715932 1714613 1712910 1711399 1710665 1711068 1712722 1715402 
3362.584 1718691 1722320 1726187 1730551 1735819 1742329 1750184 1758787 
3366.442 1766907 1772772 1774426 1770287 1759764 1743535 1723610 1703060 
3370.299 1685309 1673316 1668934 1672382 1682284 1695919 1710069 1721679 
3374.157 1728610 1730000 1726310 1719122 1710393 1702046 1695362 1690827 
3378.014 1688046 1686215 1684462 1682256 1679675 1677264 1675804 1675805 
3381.872 1677347 1679876 1682360 1683847 1683645 1681753 1678907 1676333 
3385.729 1675369 1677139 1682270 1690830 1702402 1716227 1731306 1746369 
3389.586 1759948 1770475 1776650 1777653 1773539 1765522 1755592 1746161 
3393.444 1739458 1736906 1738871 1744866 1753913 1765104 1778167 1793319 
3397.301 1810938 1831221 1853666 1876896 1899110 1918468 1933863 1945051 
3401.159 1952794 1958542 1963639 1969127 1975234 1981696 1987898 1993199 
3405.016 1997197 1999767 2000965 2000906 1999793 1997971 1996148 1995491 
3408.874 1997365 2003418 2014981 2032803 2057014 2087024 2121818 2160232 
3412.731 2201204 2243804 2287303 2330906 2373752 2414817 2452855 2486472 
3416.588 2514417 2535776 2550268 2558277 2561335 2561615 2561896 2564885 
3420.446 2572580 2585917 2604519 2626994 2651603 2677007 2702792 2729432 
3424.303 2757968 2789085 2822401 2856174 2887361 2912691 2929731 2937775 
3428.161 2938292 2934732 2931298 2931814 2938775 2952357 2970816 2990905 
3432.018 3008879 3021383 3026241 3022591 3011127 2993659 2972809 2951399 
3435.875 2931983 2916232 2904868 2897356 2892211 2887507 2881396 2872355 
3439.733 2859503 2842582 2821627 2796882 2768731 2737883 2705405 2672857 
3443.590 2642234 2615302 2593151 2575734 2561857 2549522 2536696 2522056 
3447.448 2505392 2487692 2470442 2454943 2441555 2429199 2416003 2399739 
3451.305 2378673 2352295 2321662 2289123 2257661 2230251 2209179 2195549 
3455.163 2189060 2188239 2190531 2192777 2191945 2185555 2172375 2152695 
3459.020 2128327 2102027 2076794 2055115 2038186 2025939 2017270 2010807 
3462.877 2005308 2000332 1996005 1992619 1990267 1988368 1985736 1980916 
3466.735 1972789 1961111 1946602 1930833 1915702 1902768 1893173 1887067 
3470.592 1884163 1883714 1885001 1887289 1889916 1892171 1893331 1892638 
3474.450 1889555 1883814 1875634 1865564 1854512 1843457 1833311 1824946 
3478.307 1818865 1815431 1814469 1815479 1817470 1819227 1819666 1818144 
3482.165 1814752 1810461 1806671 1804958 1806341 1811043 1818375 1826948 
3486.022 1835127 1841625 1845610 1846789 1845384 1841825 1836721 1830737 
3489.879 1824835 1820113 1817917 1819175 1824461 1833438 1845018 1857644 
3493.737 1869678 1880027 1888387 1894991 1900507 1905437 1910087 1914164 
3497.594 1917409 1919751 1921576 1923955 1928142 1935219 1945693 1959144 
3501.452 1974245 1989233 2002076 2011207 2015741 2015607 2011461 2004713 
3505.309 1997305 1991307 1988721 1990936 1998509 2010784 2026030 2041659 
3509.167 2054820 2063140 2065180 2060724 2050879 2037318 2022197 2007522 
3513.024 1994813 1985098 1978978 1976725 1978306 1983533 1991960 2002821 
3516.881 2015244 2028120 2040458 2051287 2059817 2065700 2068797 2069340 
3520.739 2067909 2065485 2063165 2062088 2063068 2066497 2072247 2079632 
3524.596 2087729 2095663 2102783 2108780 2113771 2118017 2121885 2125660 
3528.454 2129542 2133686 2138317 2143733 2150395 2158792 2169399 2182513 
3532.311 2198030 2215524 2233868 2251447 2266299 2276461 2280362 2277392 
3536.168 2268213 2254645 2239482 2225778 2216103 2211981 2213697 2220448 
3540.026 2230829 2243451 2257293 2271806 2286848 2302146 2317247 2331448 
3543.883 2343841 2353758 2360984 2365706 2368354 2369332 2368724 2366408 
3547.741 2362086 2355890 2348414 2340914 2334855 2331494 2331453 2334457 
3551.598 2339421 2345128 2350405 2354669 2357989 2360616 2362659 2363804 
3555.456 2363312 2360211 2353962 2344781 2333719 2322536 2313252 2307222 
3559.313 2304902 2305669 2307945 2309659 2308761 2303744 2293862 2279150 
3563.170 2260375 2238913 2216203 2193933 2173433 2155746 2141446 2130798 
3567.028 2124016 2121296 2122949 2129276 2140186 2154865 2171503 2187333 
3570.885 2199099 2203849 2199765 2186569 2165929 2140688 2114304 2089730 
3574.743 2068921 2052348 2039528 2029287 2020533 2012544 2005143 1998352 
3578.600 1992292 1986844 1981634 1976243 1970465 1964399 1958583 1953667 
3582.458 1950228 1948375 1947663 1947192 1945830 1942556 1936731 1928439 
3586.315 1918341 1907579 1897681 1890139 1886097 1886183 1890480 1898354 
3590.172 1908676 1920096 1931111 1940623 1947777 1952148 1953844 1953335 
3594.030 1951210 1948698 1946849 1946989 1950170 1957092 1967817 1981636 
3597.887 1997041 2012150 2025054 2034373 2039709 2041686 2041923 2042342 
3601.745 2044646 2049757 2057457 2066490 2075102 2081552 2084892 2085304 
3605.602 2084021 2083016 2084227 2088914 2097152 2107730 2118530 2127297 
3609.459 2132346 2133237 2130830 2127234 2125068 2126625 2133400 2145649 
3613.317 2162320 2181705 2201740 2220678 2237461 2251673 2263691 2274022 
3617.174 2283457 2292469 2301168 2309431 2316736 2322533 2326263 2327790 
3621.032 2327102 2324842 2321924 2319627 2319205 2321767 2328011 2338083 
3624.889 2351474 2366942 2382709 2396553 2406364 2410089 2406601 2395814 
3628.747 2379044 2358902 2338843 2322345 2312205 2309765 2314736 2325289 
3632.604 2338728 2352185 2363470 2371496 2376260 2378617 2379618 2379933 
3636.461 2379625 2378155 2374861 2369253 2361761 2353557 2346526 2342577 
3640.319 2343156 2348584 2357920 2369169 2379650 2386900 2389238 2386012 
3644.176 2377871 2366234 2352904 2339399 2326812 2315693 2306043 2297630 
3648.034 2290049 2282650 2274574 2264425 2250728 2232086 2208019 2179386 
3651.891 2148618 2119282 2095156 2079244 2072723 2074359 2081024 2088636 
3655.749 2093342 2092710 2086161 2074896 2060817 2045852 2031265 2017376 
3659.606 2004245 1992057 1981648 1974478 1972000 1975072 1983257 1994763 
3663.463 2006849 2016801 2022685 2024021 2021865 2018034 2014523 2012438 
3667.321 2011632 2010703 2007336 1999083 1984204 1962037 1933675 1901569 
3671.178 1869338 1840872 1819613 1807643 1805284 1811048 1821972 1834440 
3675.036 1845212 1852057 1854173 1852062 1846907 1839989 1832180 1824100 
3678.893 1816177 1809227 1804298 1802463 1804216 1809041 1815126 1820126 
3682.750 1821550 1818134 1810139 1799155 1787316 1776204 1766089 1755739 
3686.608 1743138 1726720 1706347 1683835 1662322 1645052 1634140 1629513 
3690.465 1628935 1629222 1627038 1620380 1608729 1592948 1574396 1554273 
3694.323 1533355 1512015 1491092 1471971 1456740 1447463 1445365 1450263 
3698.180 1460232 1472344 1483755 1492571 1498470 1502291 1505384 1508563 
3702.038 1511607 1513389 1512422 1507813 1499698 1489363 1478742 1469357 
3705.895 1461879 1455861 1450163 1443560 1435505 1426420 1417556 1410500 
3709.752 1406703 1407196 1412377 1422310 1436502 1454013 1473218 1491723 
3713.610 1506595 1514914 1514776 1505940 1490169 1471016 1452954 1440021 
3717.467 1434827 1438095 1448612 1464017 1481717 1499485 1516053 1530710 
3721.325 1543367 1553938 1562208 1567778 1570173 1568957 1563715 1554211 
3725.182 1540618 1523634 1504778 1486218 1470708 1460891 1458600 1464223 
3729.040 1476693 1493532 1511724 1528600 1542437 1552572 1559426 1563673 
3732.897 1565961 1566400 1565016 1561558 1556188 1549529 1542419 1535745 
3736.754 1530006 1525542 1522363 1520709 1521093 1524191 1530716 1540883 
3740.612 1554231 1569737 1586150 1602405 1618040 1633054 1647722 1661994 
3744.469 1675131 1685752 1692364 1693973 1690642 1683497 1674681 1666404 
3748.327 1660471 1657535 1657258 1658438 1659480 1659103 1656341 1650865 
3752.184 1642752 1632539 1621106 1609746 1599879 1592786 1589360 1589514 
3756.042 1592281 1595917 1598573 1598941 1596657 1592423 1587673 1583814 
3759.899 1581879 1582082 1584323 1588402 1594495 1603095 1614682 1629006 
3763.756 1644719 1659342 1669812 1673491 1669345 1658226 1643059 1627536 
3767.614 1615289 1608523 1607733 1611672 1618184 1624976 1630395 1633443 
3771.471 1634068 1632460 1629058 1624330 1618818 1613329 1608762 1606012 
3775.329 1605560 1607433 1611189 1616108 1621484 1626911 1632138 1636936 
3779.186 1640623 1642148 1640055 1633179 1621128 1604886 1586832 1569953 
3783.043 1557360 1551155 1552011 1558892 1569675 1581689 1592795 1601548 
3786.901 1607631 1611523 1614364 1617067 1620543 1625086 1630593 1636381 
3790.758 1641714 1645767 1648007 1648229 1647004 1644929 1642865 1641297 
3794.616 1640210 1639161 1637490 1634840 1631249 1627340 1624027 1621958 
3798.473 1621262 1621213 1620847 1619095 1615613 1610973 1606599 1603877 
3802.331 1603915 1606752 1611498 1616666 1621007 1623950 1625976 1628054 
3806.188 1631330 1636198 1642215 1647965 1651895 1652563 1649636 1643484 
3810.045 1635150 1625897 1616616 1607945 1600102 1593392 1588351 1585695 
3813.903 1586112 1589821 1596479 1604824 1613146 1619568 1622735 1621944 
3817.760 1617448 1610142 1601632 1593568 1587445 1584323 1584715 1588148 
3821.618 1593564 1599506 1604631 1608261 1610536 1612415 1615280 1620205 
3825.475 1627347 1635860 1644029 1650140 1652858 1652016 1648266 1642734 
3829.333 1636227 1628693 1619556 1608033 1594112 1579125 1565750 1557244 
3833.190 1556120 1563187 1577015 1594311 1611189 1624596 1633374 1638406 
3837.047 1641872 1645956 1651685 1658315 1663816 1666004 1663797 1657928 
3840.905 1650771 1645490 1644553 1648796 1656975 1666160 1672891 1674413 
3844.762 1669450 1658594 1643862 1627892 1613374 1602380 1596261 1595393 
3848.620 1599455 1607497 1617846 1628378 1636995 1642006 1642881 1640174 
3852.477 1635649 1631639 1630309 1632718 1638764 1647107 1656046 1663904 
3856.334 1669752 1673484 1675513 1676536 1677146 1677678 1678353 1679570 
3860.192 1681963 1686256 1693121 1702496 1713503 1724357 1732654 1736001 
3864.049 1732751 1722295 1705614 1684740 1662492 1641728 1624869 1613208 
3867.907 1607082 1605574 1606978 1609327 1610861 1610647 1608789 1606451 
3871.764 1605447 1607629 1614177 1625106 1639058 1653546 1665679 1672772 
3875.622 1673162 1666729 1654743 1639747 1624799 1612872 1606248 1605955 
3879.479 1611708 1621903 1634138 1645935 1655178 1660878 1663332 1663681 
3883.336 1663563 1664185 1666094 1668433 1669810 1668730 1664412 1657388 
3887.194 1649595 1643778 1642577 1647490 1658507 1673680 1690042 1704326 
3891.051 1713796 1717108 1714195 1706004 1694047 1679795 1664641 1649759 
3894.909 1636359 1625616 1618754 1616426 1618490 1623905 1630794 1637047 
3898.766 1641045 1642227 1641268 1639984 1640434 1644239 1651909 1662610 
3902.624 1674567 1685575 1693934 1698781 1700507 1700168 1699254 1699033 
3906.481 1700249 1703087 1707455 1713094 1719976 1727960 1736887 1746067 
3910.338 1754319 1760178 1762267 1759800 1753220 1744019 1734737 1728021 
3914.196 1725876 1729063 1736903 1747274 1757570 1765195 1768428 1766600 
3918.053 1760049 1749759 1737053 1723033 1708657 1694881 1682770 1673425 
3921.911 1668133 1667734 1672336 1681074 1692086 1702971 1711441 1715921 
3925.768 1715961 1712492 1707407 1703030 1701478 1704158 1711375 1722486 
3929.625 1736152 1750453 1763667 1774293 1781448 1784865 1784807 1782090 
3933.483 1777462 1771819 1765675 1759094 1751986 1744283 1735998 1727541 
3937.340 1719793 1713797 1710343 1709933 1712265 1716522 1721519 1726068 
3941.198 1729326 1731002 1731174 1730185 1728325 1725593 1721990 1717276 
3945.055 1711532 1705166 1699182 1694754 1693152 1695367 1701967 1712917 
3948.913 1727597 1745044 1763846 1782456 1799207 1812405 1820778 1823488 
3952.770 1820454 1812549 1801478 1789267 1778033 1769233 1763556 1760607 
3956.627 1759272 1758016 1755462 1750641 1743541 1734690 1725294 1716784 
3960.485 1710446 1707275 1707734 1711668 1718532 1727308 1736844 1745943 
3964.342 1753480 1758510 1760383 1758726 1753616 1745319 1734644 1722638 
3968.200 1710379 1699153 1689851 1683256 1679635 1679029 1681265 1686080 
3972.057 1693196 1702227 1712603 1723448 1733671 1741943 1747356 1749550 
3975.915 1749190 1747565 1746513 1747510 1751197 1756882 1762847 1766751 
3979.772 1766578 1761290 1751431 1738732 1725804 1715073 1708125 1705319 
3983.629 1706086 1709198 1713578 1718679 1724609 1731620 1739928 1749185 
3987.487 1758338 1766012 1770965 1772434 1770792 1767106 1763327 1761389 
3991.344 1763071 1769337 1780241 1795012 1811966 1828832 1843029 1852040 
3995.202 1853856 1847429 1833013 1812159 1787623 1762696 1740550 1723739 
3999.059 1713697 1710652 1714057 1722670 
##END=
