##TITLE=3D-Fillies_PETG_White_Filament_r4_ATR-Corrected
##JCAMP-DX=5.01  $$ Nicolet v. 1
##DATATYPE=INFRARED SPECTRUM
##ORIGIN=Curtin University
##OWNER=Nicolet
##LONGDATE=2024/07/18
##TIME=12:29:33
##SPECTROMETER/DATA SYSTEM=Nicolet iS50
##DATA PROCESSING=
Ratio against background
%Transmittance->Absorbance
ATR Correction
Truncated
ElementMultiply or ElementDivide
##COMMENTS=
Number of sample scans: 32
Collection length: 47.28 sec
Sample gain: 1.0
Background collected on: Thu Jul 18 12:25:32 2024 (GMT+08:00);
Number of background scans: 32
Background gain: 1.0
Sample spacing:  1.000
Number of scan points: 16672
Resolution points: 8192
Number of FFT points: 65536
Apodization: N-B strong;
Phase correction: Mertz;
Laser frequency: 15798.3 cm-1
Number of rejected sample scans: 0
Number of rejected background scans: 0
Bench serial number: AUP1200105;
##RESOLUTION=4.000
##XUNITS=1/CM
##YUNITS=ABSORBANCE
##FIRSTX=400.163452
##LASTX=4000.187744
##FIRSTY=0.038053
##MAXX=4000.187744
##MINX=400.163452
##MAXY=1.520235
##MINY=-0.020860
##XFACTOR=1.000000
##YFACTOR=1.000000E-008
##NPOINTS=7468
##DELTAX=0.482125
##ZPD=8192
##XYDATA=(X++(Y..Y))
400.163 3805346 3829112 3860001 3890620 3913618 3924491 3923745 3916931 
404.020 3912506 3918666 3940116 3976438 4021896 4067193 4102056 4118101 
407.877 4110652 4079538 4028501 3963964 3893505 3824555 3763455 3715015 
411.734 3682179 3666145 3666396 3681117 3707640 3742961 3784280 3829455 
415.591 3877104 3926470 3976956 4027719 4077063 4122385 4160436 4188122 
419.448 4203630 4207388 4202439 4194111 4188575 4191151 4204508 4227752 
423.305 4256573 4284801 4306483 4318207 4320287 4316589 4312817 4314103 
427.162 4322706 4336982 4351936 4361237 4359890 4346376 4323521 4297738 
431.019 4276860 4267528 4273077 4292645 4322006 4354695 4384028 4404681 
434.876 4413536 4409837 4394704 4370535 4340290 4306973 4273253 4241127 
438.733 4211664 4184959 4160260 4136503 4112926 4089657 4067896 4049612 
442.590 4036781 4030462 4030211 4034011 4038960 4042239 4042060 4038151 
446.447 4031470 4023473 4015179 4006654 3996993 3984981 3969958 3952438 
450.304 3934088 3917048 3902853 3891598 3881688 3870524 3855753 3836608 
454.161 3814725 3793919 3779009 3774124 3781110 3798808 3823357 3849582 
458.017 3872753 3890050 3901185 3908005 3913294 3919478 3927566 3937029 
461.874 3946287 3953671 3958337 3960688 3962339 3965323 3971262 3980729 
465.731 3993128 4006975 4020587 4032789 4043262 4052659 4062218 4073261 
469.588 4086706 4102897 4121586 4142242 4164416 4187971 4213111 4240247 
473.445 4269536 4300583 4332131 4362163 4388199 4407935 4419910 4424151 
477.302 4422434 4418111 4415492 4418937 4431864 4455884 4490449 4532921 
481.159 4579235 4624873 4665893 4699930 4726588 4747507 4765821 4785396 
485.016 4809878 4841987 4883048 4932872 4990009 5052175 5116850 5181890 
488.873 5246033 5309231 5372734 5438942 5510954 5591872 5684078 5788544 
492.730 5904372 6028737 6157225 6284658 6406036 6517461 6616838 6703969 
496.587 6780125 6847186 6906651 6958903 7002869 7036275 7056295 7060327 
500.444 7046598 7014394 6963890 6895790 6810917 6710042 6593982 6463958 
504.301 6321976 6171002 6014869 5857831 5703927 5556330 5416933 5286342 
508.158 5164196 5049776 4942662 4843200 4752519 4672268 4603963 4548304 
512.015 4504684 4471091 4444359 4420928 4397617 4372342 4344532 4315015 
515.871 4285612 4258416 4235068 4216340 4201969 4190925 4181830 4173403 
519.728 4164735 4155305 4144780 4132811 4118878 4102392 4082945 4060684 
523.585 4036427 4011672 3988161 3967397 3950040 3935711 3923035 3910100 
527.442 3895035 3876574 3854338 3828815 3801052 3772276 3743570 3715746 
531.299 3689396 3665018 3643065 3623908 3607648 3593922 3581813 3570037 
535.156 3557255 3542526 3525642 3507236 3488528 3470900 3455321 3441987 
539.013 3430237 3418785 3406170 3391396 3374271 3355611 3337022 3320432 
542.870 3307519 3299137 3295001 3293631 3292660 3289395 3281464 3267443 
546.727 3247166 3221805 3193415 3164418 3136902 3112143 3090373 3071012 
550.584 3053010 3035388 3017659 2999912 2982695 2966664 2952215 2939234 
554.441 2927090 2914732 2901012 2884900 2865619 2842713 2816028 2785687 
558.298 2752041 2715726 2677600 2638713 2600083 2562560 2526685 2492738 
562.155 2460869 2431355 2404732 2381836 2363539 2350445 2342512 2338933 
566.012 2338226 2338612 2338468 2336729 2333003 2327412 2320302 2311927 
569.869 2302262 2291183 2278636 2265018 2251225 2238536 2228223 2221145 
573.725 2217433 2216395 2216806 2217286 2216696 2214425 2210396 2204929 
577.582 2198579 2192002 2185944 2181350 2179307 2180940 2187030 2197720 
581.439 2212173 2228647 2244834 2258483 2268045 2273148 2274576 2273990 
585.296 2273251 2273857 2276572 2281540 2288603 2297912 2310330 2327504 
589.153 2351601 2384716 2428208 2482246 2545648 2616193 2691151 2767997 
593.010 2844895 2921002 2996264 3071006 3145334 3218513 3288697 3352881 
596.867 3407299 3448040 3471804 3476512 3461681 3428460 3379257 3317236 
600.724 3245737 3167832 3086134 3002831 2919828 2838866 2761549 2689208 
604.581 2622718 2562422 2508180 2459700 2416868 2380075 2350281 2328740 
608.438 2316531 2314006 2320346 2333626 2351013 2369364 2385863 2398447 
612.295 2405994 2408279 2405729 2399224 2389972 2379479 2369524 2362018 
616.152 2358752 2360999 2369202 2382825 2400550 2420642 2441463 2461879 
620.009 2481480 2500486 2519434 2538899 2559243 2580579 2602833 2625865 
623.866 2649552 2673778 2698537 2724149 2751748 2783837 2824675 2880231 
627.723 2957246 3061575 3195958 3357987 3538836 3723406 3892244 4024989 
631.579 4104532 4120862 4073269 3970382 3827963 3665274 3501246 3351309 
635.436 3225713 3129087 3061349 3019181 2997612 2991339 2995593 3006475 
639.293 3021037 3037141 3053384 3069019 3083862 3098190 3112536 3127447 
643.150 3143279 3160061 3177490 3195092 3212345 3228763 3243939 3257400 
647.007 3268560 3276699 3281058 3281166 3277138 3269877 3261065 3252887 
650.864 3247539 3246683 3251082 3260502 3273895 3289871 3307107 3324714 
654.721 3342301 3359859 3377519 3395338 3413210 3430968 3448547 3466090 
658.578 3483999 3502740 3522643 3543726 3565623 3587722 3609429 3630387 
662.435 3650631 3670565 3690756 3711767 3733945 3757397 3782098 3807943 
666.292 3834951 3863197 3892837 3924006 3956832 3991503 4028329 4067866 
670.149 4110855 4158086 4210236 4267752 4330844 4399623 4474254 4555127 
674.006 4642801 4737719 4839923 4948703 5062530 5179158 5296016 5410569 
677.863 5520531 5623913 5718817 5803230 5875066 5932305 5973637 5998904 
681.720 6009468 6008114 5998552 5984707 5969983 5956864 5947008 5941558 
685.577 5941621 5948561 5963899 5988951 6024321 6069591 6123388 6183865 
689.433 6249422 6319353 6394145 6475342 6564922 6664602 6775206 6896473 
693.290 7027282 7166270 7312510 7466102 7628441 7802088 7990420 8196936 
697.147 8424756 8676030 8951625 9250937 9571969 9911492 10265429 10629224 
701.004 10998248 11368183 11735229 12096214 12448701 12790968 13121988 
704.379 13441420 13749515 14046971 14334807 14614235 14886594 15153427 
707.754 15416624 15678549 15942229 16211426 16490775 16785932 17103986 
711.129 17453796 17846310 18294690 18814034 19420626 20130966 20960786 
714.504 21924298 23034002 24300900 25735036 27345890 29142236 31131474 
717.878 33318142 35702404 38278300 41032916 43945696 46988096 50122280 
721.253 53298368 56449420 59484732 62284344 64698924 66561156 67712408 
724.628 68039656 67509528 66180576 64187300 61704468 58909916 55958204 
728.003 52969204 50027160 47185776 44475048 41907924 39485720 37202428 
731.378 35047744 33009350 31074246 29229636 27463386 25764420 24123004 
734.752 22531324 20984034 19478854 18016800 16602068 15241303 13942625 
738.127 12714395 11564159 10497829 9519289 8630239 7830310 7117168 6486861 
741.984 5933856 5451508 5032427 4668991 4353909 4080549 3843169 3636866 
745.841 3457382 3300990 3164331 3044462 2938915 2845749 2763527 2691186 
749.698 2627796 2572507 2524414 2482710 2446726 2416031 2390314 2369269 
753.555 2352325 2338596 2327025 2316598 2306764 2297623 2289925 2284770 
757.412 2283094 2285250 2290707 2298280 2306501 2314246 2321265 2328406 
761.269 2337399 2350478 2369664 2396262 2430542 2471627 2517770 2566771 
765.126 2616382 2664843 2711164 2755431 2798738 2843012 2890553 2943413 
768.983 3002778 3068518 3139034 3211517 3282560 3348964 3408407 3459971 
772.840 3504072 3542117 3575936 3607175 3636939 3665756 3693774 3721146 
776.697 3748354 3776355 3806492 3840269 3878987 3923591 3974537 4032019 
780.554 4096160 4167302 4246136 4333666 4431062 4539380 4659363 4791369 
784.410 4935425 5091398 5259231 5439079 5631304 5836345 6054548 6285894 
788.267 6529779 6784916 7049107 7319033 7589764 7854394 8103601 8325563 
792.124 8506539 8632035 8688722 8666687 8561548 8375974 8120013 7810288 
795.981 7467963 7116130 6776906 6468999 6205906 5995077 5838025 5731199 
799.838 5667448 5637708 5632648 5644019 5665391 5692377 5722335 5753890 
803.695 5786236 5818750 5850744 5881530 5910520 5937367 5961995 5984512 
807.552 6005046 6023587 6039919 6053669 6064495 6072227 6077101 6079832 
811.409 6081488 6083402 6086841 6092822 6101785 6113516 6127180 6141491 
815.266 6154978 6166405 6175028 6180765 6184161 6186171 6187889 6190290 
819.123 6193987 6199380 6206695 6216212 6228404 6243879 6263267 6286986 
822.980 6315023 6346965 6382007 6419211 6457702 6496869 6536373 6576154 
826.837 6616375 6657373 6699692 6744184 6791913 6844102 6901911 6966080 
830.694 7036742 7113281 7194474 7278765 7364622 7450879 7536896 7622586 
834.551 7708218 7794165 7880669 7967695 8054968 8141910 8227926 8312478 
838.408 8395190 8475980 8554979 8632479 8708760 8783964 8857876 8929978 
842.264 8999392 9065054 9125908 9181041 9229753 9271644 9306473 9334228 
846.121 9355130 9369639 9378556 9383050 9384447 9384045 9382860 9381502 
849.978 9380149 9378774 9377498 9376786 9377617 9381332 9389245 9402332 
853.835 9420883 9444546 9472517 9503966 9538480 9576315 9618437 9666408 
857.692 9722029 9787172 9863558 9952778 10056373 10175890 10313023 10469638 
861.549 10647780 10849816 11078425 11336652 11627804 11955187 12321783 
864.924 12729825 13180520 13673989 14209239 14784415 15396707 16042174 
868.299 16715097 17407176 18106688 18798054 19461880 20075942 20616694 
871.674 21061548 21391078 21591162 21654328 21580272 21375406 21051606 
875.048 20624394 20111190 19529692 18896944 18228718 17539536 16842646 
878.423 16150127 15472673 14819363 14197260 13611241 13063982 12556332 
881.798 12087931 11657783 11264772 10907948 10586363 10299037 10044584 
885.173 9821262 9627028 9459715 9317230 9197514 9098484 9017819 8952886 
889.030 8900858 8859076 8825430 8798716 8778630 8765434 8759357 8760070 
892.887 8766343 8776113 8786982 8796795 8804233 8808947 8811466 8812615 
896.744 8813000 8812517 8810249 8804529 8793286 8774246 8745264 8704344 
900.601 8649805 8580367 8495329 8394802 8279805 8152164 8014386 7869166 
904.458 7719193 7566867 7414346 7263681 7116983 6976437 6844258 6722329 
908.314 6612010 6513855 6427658 6352604 6287551 6231313 6182881 6141489 
912.171 6106578 6077791 6054935 6037912 6026696 6021244 6021334 6026514 
916.028 6036071 6049153 6065095 6083630 6105082 6130291 6160286 6195788 
919.885 6236844 6282575 6331312 6381023 6429923 6476906 6521880 6565593 
923.742 6609306 6654265 6701320 6750646 6801791 6853822 6905623 6956081 
927.599 7004306 7049688 7092055 7131626 7169188 7205941 7243404 7283118 
931.456 7326332 7373716 7425298 7480508 7538534 7598721 7660904 7725616 
935.313 7794017 7867662 7948178 8036926 8134859 8242520 8360146 8487853 
939.170 8625782 8774138 8933150 9102967 9283621 9474962 9676698 9888386 
943.027 10109478 10339198 10576452 10819674 11066785 11315334 11562720 
946.402 11806538 12044990 12276993 12502195 12720783 12933151 13139683 
949.776 13340747 13536817 13728791 13918138 14106789 14296673 14488915 
953.151 14682937 14875799 15061961 15233770 15382454 15499496 15578020 
956.526 15613855 15606129 15557179 15472151 15358220 15223783 15077667 
959.901 14928487 14784135 14651364 14535515 14440297 14367799 14318530 
963.276 14291668 14285238 14296472 14321928 14357825 14400177 14445063 
966.651 14488892 14528519 14561303 14585124 14598131 14598633 14584994 
970.025 14555693 14509471 14445643 14364111 14265449 14150679 14020884 
973.400 13877034 13719837 13549954 13368361 13176723 12977715 12774938 
976.775 12572637 12375034 12185869 12007902 11842860 11691547 11554255 
980.150 11431063 11322068 11227380 11146957 11080361 11026633 10984157 
983.525 10950893 10924543 10902863 10883860 10865910 10847794 10828608 
986.899 10807724 10784693 10759239 10731293 10701141 10669555 10637825 
990.274 10607795 10581665 10561752 10550188 10548598 10557954 10578627 
993.649 10610515 10653367 10706985 10771409 10846869 10933702 11032157 
997.024 11142360 11264251 11397834 11543219 11700758 11871028 12054724 
1000.399 12252519 12465087 12693141 12937792 13200717 13484457 13792449 
1003.774 14128837 14498259 14905518 15355378 15852484 16401419 17006796 
1007.148 17673398 18406464 19211998 20097322 21071750 22147208 23338490 
1010.523 24662686 26137512 27778370 29594204 31582562 33724372 35979148 
1013.898 38281424 40539752 42639252 44449396 45837384 46686200 46913692 
1017.273 46487696 45431720 43819968 41763240 39390884 36833796 34211676 
1020.648 31625340 29153634 26853618 24762616 22901272 21276710 19885670 
1024.022 18717110 17754542 16977934 16365331 15894237 15542634 15289959 
1027.398 15117653 15009505 14951739 14932942 14943880 14977321 15027912 
1030.773 15092014 15167525 15253627 15350334 15458058 15577048 15707073 
1034.148 15847225 15995985 16151492 16311875 16475481 16641080 16807694 
1037.523 16974478 17140410 17304174 17464106 17618256 17764572 17901052 
1040.899 18025820 18137144 18233380 18312948 18374342 18416316 18438020 
1044.274 18439286 18420666 18383540 18330022 18262704 18184518 18098476 
1047.649 18007528 17914430 17821664 17731414 17645590 17565760 17493292 
1051.024 17429446 17375452 17332720 17302778 17287334 17288062 17306568 
1054.400 17344152 17401858 17480498 17580774 17703410 17849160 18018732 
1057.775 18212568 18430666 18672406 18936660 19221984 19526990 19850732 
1061.150 20193010 20554442 20936310 21340286 21768000 22220658 22698752 
1064.525 23202026 23729538 24280018 24852202 25445346 26059502 26695732 
1067.901 27356110 28043434 28760800 29511276 30297502 31121606 31985270 
1071.276 32890082 33837792 34830696 35871644 36963944 38110892 39315268 
1074.651 40578716 41901280 43281128 44714580 46196372 47720096 49278544 
1078.026 50864136 52468980 54084684 55702196 57311760 58903056 60465668 
1081.402 61990024 63468152 64894404 66265684 67581552 68843832 70056104 
1084.777 71223792 72353344 73452088 74527288 75585368 76631120 77667200 
1088.152 78694072 79710600 80714432 81702400 82670320 83612136 84519232 
1091.527 85379816 86179264 86901168 87528664 88045976 88438896 88694968 
1094.903 88803112 88753872 88540064 88158272 87609920 86901640 86044064 
1098.278 85049728 83930472 82695912 81353040 79907688 78366344 76737872 
1101.653 75034216 73270152 71462176 69627360 67782936 65946460 64136480 
1105.028 62373276 60678880 59076828 57590872 56243848 55056228 54044984 
1108.404 53222596 52596332 52167504 51930816 51873904 51977144 52213956 
1111.779 52551876 52954220 53382344 53798120 54166372 54456700 54644864 
1115.154 54713308 54651256 54454340 54123836 53665704 53089432 52406876 
1118.529 51631172 50775932 49854528 48879632 47862904 46814712 45743976 
1121.905 44658264 43564132 42467564 41374460 40290812 39222660 38175680 
1125.280 37154572 36162444 35200696 34269016 33366018 32489866 31638968 
1128.655 30812260 30009368 29230258 28474816 27742466 27032012 26341656 
1132.030 25669330 25012996 24371078 23742732 23127854 22526950 21940994 
1135.406 21370952 20817614 20281366 19762144 19259472 18772688 18301004 
1138.781 17843736 17400360 16970506 16553919 16150473 15760118 15382913 
1142.156 15019034 14668773 14332511 14010644 13703474 13411169 13133755 
1145.531 12871058 12622720 12388200 12166657 11956923 11757411 11566227 
1148.906 11381222 11200340 11021834 10844485 10667756 10491642 10316528 
1152.282 10142910 9971168 9801498 9633943 9468532 9305453 9145172 8988500 
1156.139 8836509 8690404 8551463 8420944 8300010 8189782 8091186 8004968 
1159.997 7931535 7870935 7822912 7787037 7763011 7750939 7751565 7766425 
1163.854 7797649 7847775 7919377 8014705 8135364 8282143 8454901 8652405 
1167.711 8872214 9110524 9362097 9620281 9877341 10124918 10354777 10559448 
1171.569 10732823 10870399 10969307 11028051 11046286 11024623 10964565 
1174.944 10868601 10740235 10583895 10404731 10208115 9999239 9782743 
1178.319 9562533 9341834 9123485 8910203 8704766 8510075 8328995 8164090 
1182.177 8017421 7890443 7784023 7698557 7634135 7590668 7567905 7565373 
1186.034 7582372 7617913 7670837 7739912 7823974 7922024 8033217 8156771 
1189.892 8291895 8437587 8592669 8755793 8925547 9100582 9279809 9462447 
1193.749 9648078 9836727 10028717 10224626 10425201 10631184 10843278 
1197.124 11062019 11287780 11520761 11761018 12008524 12263259 12525237 
1200.500 12794603 13071720 13357112 13651487 13955636 14270301 14596100 
1203.875 14933316 15282066 15642235 16013759 16396742 16791562 17198990 
1207.250 17620050 18055946 18507890 18977096 19464744 19971976 20499942 
1210.625 21049672 21621994 22217440 22836330 23478732 24144952 24835588 
1214.000 25551838 26295292 27067548 27869544 28701010 29559768 30441666 
1217.376 31340718 32249758 33161206 34068124 34965108 35849220 36720420 
1220.751 37582032 38440496 39304988 40186512 41096812 42047280 43047948 
1224.126 44106864 45229956 46420976 47681992 49013792 50416268 51888864 
1227.501 53430896 55041824 56721692 58471268 60292328 62187260 64158880 
1230.877 66209536 68340680 70552096 72841440 75204088 77633032 80118648 
1234.252 82648848 85208776 87780952 90345144 92878584 95355840 97749232 
1237.627 100029216 102165416 104128336 105891720 107434400 108742392 
1240.520 109808592 110631848 111215104 111563728 111684824 111588264 
1243.413 111287680 110801936 110154680 109372664 108483168 107511280 
1246.306 106478288 105401768 104296408 103175736 102053104 100942096 
1249.199 99855816 98806032 97802368 96852120 95960720 95132616 94371864 
1252.575 93682384 93067448 92528824 92065504 91673032 91343040 91063832 
1255.950 90820856 90597944 90378312 90145352 89883128 89576912 89212880 
1259.325 88778480 88262312 87654832 86948808 86140536 85230592 84224608 
1262.700 83132920 81969552 80750448 79491464 78206664 76907656 75603248 
1266.076 74300424 73004944 71722152 70457144 69214640 67998640 66812180 
1269.451 65657128 64534400 63443984 62385120 61356128 60354484 59376676 
1272.826 58418596 57475996 56545180 55623548 54709728 53803628 52905792 
1276.201 52016848 51137060 50266044 49402948 48546636 47696124 46850732 
1279.577 46010344 45175148 44345768 43522952 42707680 41900968 41103980 
1282.952 40317948 39544204 38784276 38039944 37313140 36605896 35920012 
1286.327 35256656 34616064 33997400 33398718 32817468 32250858 31696296 
1289.702 31151440 30614086 30081704 29551216 29018736 28480014 27930966 
1293.078 27368472 26791016 26198984 25594420 24980656 24361632 23741542 
1296.453 23124466 22514616 21916214 21333616 20771090 20232510 19720968 
1299.828 19238508 18786008 18363270 17969166 17601848 17258766 16936708 
1303.203 16631733 16339321 16054590 15772875 15490265 15204188 14913684 
1306.579 14619492 14323711 14029387 13739905 13458613 13188434 12931742 
1309.954 12690261 12465043 12256430 12063988 11886520 11722101 11568166 
1313.329 11421744 11279660 11138832 10996508 10850456 10699069 10541542 
1316.704 10377797 10208472 10034738 9858091 9680039 9501852 9324332 9147803 
1320.562 8972134 8797011 8622159 8447672 8274162 8102815 7935408 7774158 
1324.419 7621614 7480518 7353677 7243968 7154212 7087222 7045705 7032453 
1328.277 7050251 7102024 7190893 7320133 7492973 7712225 7979725 8295778 
1332.134 8658509 9063531 9503716 9969281 10447986 10925771 11387263 11816864 
1335.991 12199631 12522499 12775217 12951060 13047069 13063906 13005207 
1339.367 12877063 12687132 12444164 12157346 11836057 11489426 11126110 
1342.742 10753993 10380024 10009981 9648557 9299229 8964560 8646298 8345661 
1346.599 8063484 7800410 7556767 7332705 7128042 6942251 6774463 6623547 
1350.457 6488211 6367164 6259259 6163585 6079556 6006833 5945169 5894279 
1354.314 5853595 5822268 5799131 5782974 5772796 5768101 5769149 5776869 
1358.172 5792740 5818619 5856364 5907762 5974402 6057829 6159525 6280943 
1362.029 6423332 6587470 6773343 6980037 7205504 7446678 7699588 7959474 
1365.886 8220970 8478259 8725420 8956837 9167648 9354310 9514824 9648819 
1369.744 9757218 9841748 9904408 9947036 9971114 9977795 9968085 9943028 
1373.601 9903814 9851712 9787901 9713430 9629043 9535441 9433468 9324439 
1377.459 9210233 9093408 8976983 8864155 8757961 8661135 8575949 8504280 
1381.316 8447599 8407000 8383105 8375936 8384806 8408424 8444960 8492423 
1385.174 8548816 8612375 8681581 8755072 8831495 8909384 8987136 9063101 
1389.031 9135719 9203833 9266810 9324747 9378448 9429390 9479564 9531227 
1392.888 9586673 9648123 9717634 9797159 9888745 9994767 10118110 10262311 
1396.746 10431485 10630160 10863037 11134818 11450027 11813128 12228794 
1400.121 12702143 13238874 13845299 14527699 15291516 16139941 17072232 
1403.496 18081898 19154962 20268560 21390378 22479024 23485914 24358500 
1406.872 25044706 25498086 25682958 25578642 25182014 24507934 23587522 
1410.247 22464474 21190260 19818950 18402490 16987198 15611467 14304735 
1413.622 13087600 11972416 10964575 10063797 9265612 8562753 7946526 7407687 
1417.479 6937326 6527208 6169975 5859074 5588675 5353511 5148907 4970748 
1421.337 4815683 4681198 4565692 4468320 4388859 4327253 4283292 4256348 
1425.194 4245265 4248583 4264861 4292994 4332490 4383488 4446584 4522531 
1429.052 4611943 4715018 4831528 4960825 5101978 5253906 5415415 5585219 
1432.909 5761993 5944355 6130913 6320281 6511110 6702044 6891768 7078894 
1436.767 7262161 7440471 7613057 7779597 7940303 8095905 8247829 8398154 
1440.624 8549787 8706373 8872246 9051968 9249771 9468853 9710756 9974978 
1444.481 10259014 10558722 10869017 11184548 11500225 11811351 12113445 
1447.857 12401877 12671496 12916422 13130145 13305920 13437390 13519280 
1451.232 13548228 13523330 13446452 13322054 13156560 12957519 12732711 
1454.607 12489530 12234785 11974662 11714840 11460300 11215097 10981927 
1457.982 10761861 10554468 10358268 10171330 9991903 9818795 9651344 9489162 
1461.840 9331731 9178080 9026865 8876473 8725459 8572832 8418275 8261883 
1465.697 8104080 7945256 7785684 7625601 7465459 7306079 7148747 6994974 
1469.555 6846153 6703248 6566463 6435273 6308692 6185531 6064817 5945849 
1473.412 5828254 5711782 5596111 5480685 5364797 5247631 5128524 5006995 
1477.270 4882965 4756609 4628435 4499120 4369575 4240857 4114073 3990383 
1481.127 3870650 3755420 3644821 3538588 3436263 3337427 3241933 3149910 
1484.984 3061788 2978077 2899252 2825618 2757355 2694561 2637442 2586390 
1488.842 2541865 2504417 2474438 2452044 2437161 2429516 2428962 2435471 
1492.699 2449452 2471619 2503041 2544983 2598925 2666539 2749617 2850314 
1496.557 2971110 3115103 3286223 3489429 3730815 4017157 4355109 4749476 
1500.414 5201176 5704837 6247040 6805584 7350366 7845925 8255489 8545797 
1504.271 8691950 8681347 8515891 8211823 7797090 7306669 6777140 6241670 
1508.129 5726648 5250262 4822955 4448741 4127165 3854864 3626903 3437615 
1511.986 3281179 3152023 3045111 2956150 2881764 2819410 2767377 2724573 
1515.844 2690256 2663845 2644720 2632113 2625125 2622787 2624253 2628827 
1519.701 2636053 2645613 2657210 2670383 2684476 2698632 2711990 2723827 
1523.559 2733754 2741708 2747804 2752249 2755105 2756208 2755255 2751922 
1527.416 2746076 2737763 2727238 2714736 2700302 2683645 2664105 2640969 
1531.273 2613674 2582099 2546738 2508652 2469247 2429973 2392098 2356451 
1535.131 2323581 2293734 2267116 2243887 2224211 2208136 2195451 2185662 
1538.988 2178070 2171881 2166369 2161074 2155744 2150333 2144886 2139436 
1542.846 2134025 2128727 2123711 2119325 2116073 2114477 2115105 2118340 
1546.703 2124326 2132994 2144024 2156831 2170718 2184881 2198594 2211250 
1550.561 2222504 2232411 2241230 2249460 2257600 2265969 2274683 2283639 
1554.418 2292659 2301631 2310658 2320086 2330423 2342161 2355558 2370617 
1558.275 2386977 2404131 2421626 2439249 2457154 2475819 2495960 2518202 
1562.133 2543005 2570504 2600673 2633328 2668427 2706137 2747028 2791868 
1565.990 2841584 2896981 2958746 3027340 3103161 3186831 3279412 3382521 
1569.848 3498323 3629111 3776978 3943210 4128054 4330588 4548749 4779586 
1573.705 5019353 5263414 5506124 5740491 5958091 6149426 6304612 6414480 
1577.563 6471631 6471374 6412288 6296260 6128440 5916726 5671092 5402743 
1581.420 5123041 4842566 4570386 4313535 4077024 3863932 3675709 3512342 
1585.277 3372659 3254519 3155221 3071696 3001047 2940787 2889005 2844405 
1589.135 2806120 2773496 2745868 2722456 2702343 2684662 2668686 2653970 
1592.992 2640461 2628388 2618273 2610737 2606527 2606305 2610695 2620041 
1596.850 2634372 2653306 2676041 2701592 2729024 2757706 2787659 2819489 
1600.707 2854288 2893188 2936969 2985818 3039232 3096177 3155597 3216666 
1604.564 3279210 3343581 3410567 3480911 3555056 3632927 3714026 3797553 
1608.422 3882635 3968528 4054571 4139952 4223670 4304126 4379346 4446926 
1612.279 4504269 4548819 4578287 4590729 4584815 4559922 4516500 4456268 
1616.137 4382235 4298523 4209845 4120865 4035541 3956841 3886591 3825748 
1619.994 3774634 3733186 3701062 3677632 3661894 3652593 3648316 3647701 
1623.852 3649639 3653347 3658287 3664041 3670160 3676113 3681422 3685858 
1627.709 3689581 3693249 3697782 3704098 3712745 3723652 3736182 3749315 
1631.566 3761994 3773508 3783654 3792722 3801316 3810092 3819531 3829794 
1635.424 3840720 3851894 3862927 3873479 3883403 3892754 3901813 3910975 
1639.281 3920739 3931543 3943738 3957476 3972752 3989444 4007471 4026796 
1643.139 4047532 4069782 4093552 4118600 4144456 4170503 4196201 4221287 
1646.996 4245937 4270690 4296304 4323473 4352763 4384362 4418371 4454741 
1650.854 4493472 4534553 4577889 4623255 4670286 4718654 4768409 4820054 
1654.711 4874667 4933610 4998171 5069166 5146678 5230182 5318884 5412106 
1658.568 5509706 5612159 5720300 5835066 5957050 6086344 6222772 6366040 
1662.426 6516176 6673484 6838488 7011462 7192155 7379671 7572521 7769120 
1666.283 7968026 8168217 8369160 8570509 8772014 8973389 9174547 9375712 
1670.141 9577655 9781568 9988716 10200007 10415746 10635456 10858359 
1673.516 11083740 11311476 11542128 11776745 12016339 12261529 12512216 
1676.891 12767860 13027775 13291588 13559198 13830580 14105381 14382610 
1680.266 14660749 14938332 15214606 15490319 15767696 16049896 16340174 
1683.642 16640644 16951846 17272848 17602180 17939144 18284594 18641370 
1687.017 19013676 19406324 19823750 20269626 20746914 21258188 21805986 
1690.392 22392994 23021840 23694986 24414868 25184580 26008672 26894042 
1693.767 27849796 28886198 30012762 31236132 32559102 33981452 35502712 
1697.143 37125772 38859636 40720088 42727508 44902760 47262548 49816196 
1700.518 52565592 55508184 58642144 61970800 65504092 69256272 73240984 
1703.893 77465776 81928192 86615224 91504840 96568808 101773608 107078456 
1707.268 112431256 117764760 122996392 128033088 132779912 137148672 
1710.161 141062160 144454304 147267264 149452288 150975136 151825504 
1713.054 152023520 151617760 150674384 149262352 147442240 145263232 
1715.948 142768416 140003024 137019712 133877528 130634728 127340056 
1718.841 124027072 120714176 117409240 114116872 110843560 107599688 
1721.734 104398168 101251088 98166856 95149336 92198736 89314104 86495072 
1725.109 83742896 81059512 78446224 75902456 73425576 71011704 68657264 
1728.484 66359876 64118876 61934316 59805716 57730848 55705340 53723304 
1731.859 51778620 49866412 47984196 46132084 44312176 42527448 40780484 
1735.235 39072640 37403752 35772524 34177268 32616424 31089098 29595158 
1738.610 28135318 26710916 25323936 23976948 22673196 21416458 20210906 
1741.985 19060710 17969412 16939468 15971920 15066305 14220917 13433290 
1745.360 12700565 12019781 11387983 10802272 10259693 9757385 9292816 
1748.736 8863781 8468574 8105576 7773155 7469125 7190779 6934873 6698261 
1752.593 6478221 6272907 6081260 5902884 5737447 5584386 5442577 5310489 
1756.450 5186484 5069154 4957748 4852013 4752228 4658926 4572415 4492722 
1760.308 4419306 4351233 4287145 4225639 4165481 4105843 4046455 3987709 
1764.165 3930374 3875352 3823370 3774697 3729070 3685864 3644330 3603876 
1768.023 3564269 3525656 3488274 3452374 3418016 3385029 3353154 3322176 
1771.880 3291996 3262602 3233908 3205662 3177473 3149023 3120236 3091592 
1775.738 3064026 3038684 3016458 2997533 2981264 2966313 2951111 2934502 
1779.595 2915995 2895958 2875192 2854568 2834404 2814620 2794646 2774049 
1783.452 2752686 2730969 2709607 2689164 2669903 2651494 2633380 2615027 
1787.310 2596301 2577594 2559537 2542680 2527085 2512245 2497406 2481979 
1791.167 2466118 2450846 2437682 2428123 2422776 2420975 2420682 2419296 
1795.025 2414204 2403820 2387849 2367411 2344655 2322028 2301813 2285673 
1798.882 2274478 2268349 2266661 2268158 2271148 2273889 2274811 2273133 
1802.740 2268890 2263014 2256859 2251649 2247857 2245042 2241966 2237226 
1806.597 2229835 2219824 2208138 2196319 2185771 2177153 2170048 2163185 
1810.454 2155050 2144536 2131521 2116879 2102207 2089251 2079331 2073140 
1814.312 2070612 2071304 2074553 2079866 2086758 2094858 2103651 2112689 
1818.169 2121448 2129730 2137502 2145038 2152565 2160171 2167657 2174589 
1822.027 2180377 2184604 2187013 2187449 2185785 2181740 2174790 2164506 
1825.884 2150593 2133274 2113328 2091915 2070303 2049544 2030129 2011951 
1829.741 1994519 1977139 1959243 1940583 1921296 1901848 1882836 1865043 
1833.599 1849136 1835511 1824170 1814491 1805132 1794307 1780074 1761088 
1837.456 1736914 1708442 1677707 1647372 1619881 1596825 1578335 1563298 
1841.314 1549679 1535266 1518235 1497666 1473569 1446694 1418245 1389625 
1845.171 1362113 1336921 1314895 1296570 1281908 1270344 1260599 1251247 
1849.029 1240915 1228973 1215671 1202431 1191248 1184174 1182496 1186193 
1852.886 1193679 1202192 1208297 1209073 1202818 1189567 1171077 1150348 
1856.743 1130587 1114139 1101817 1092810 1084898 1075672 1063339 1047673 
1860.601 1029942 1012549 997792 987095 980217 975579 970820 964290 955582 
1864.940 946076 938322 935188 938439 948162 962511 978474 992818 1003160 
1869.280 1008417 1009003 1006151 1001259 995372 989037 982147 974437 965412 
1873.620 954674 941834 926727 909524 891141 873324 858593 849676 848819 
1877.959 856890 873030 894582 917995 939638 956808 968177 973799 974623 
1882.299 971774 966278 958684 949319 938567 926933 915029 903437 892548 
1886.638 882697 874416 868489 866144 868459 875847 887455 901134 913854 
1890.978 923026 927394 927948 927461 929467 936442 948582 962970 974840 
1895.318 978895 971803 953183 926175 895895 867759 845362 829734 819343 
1899.657 811517 803890 795694 787953 782772 782131 787000 796780 809954 
1903.997 824762 840230 856378 873883 893239 914079 934582 952256 964461 
1908.336 969899 969031 964232 958638 955230 955298 957986 960330 958515 
1912.676 948910 929820 901957 868693 835040 806690 788194 782100 788206 
1917.016 803949 824931 846648 865119 877884 883992 883931 878706 869576 
1921.355 857573 843771 829096 814828 801861 790756 781159 772118 762269 
1925.695 751309 740544 733819 736663 754820 792063 848264 918437 993561 
1930.034 1062792 1116569 1149324 1161141 1157374 1146823 1138604 1139811 
1933.892 1153365 1178120 1209170 1240279 1265177 1279300 1280316 1268800 
1937.749 1247356 1220551 1193662 1171837 1158777 1155800 1161191 1170955 
1941.607 1179628 1182538 1177329 1165238 1150884 1140860 1141574 1156869 
1945.464 1186266 1225062 1264745 1295701 1309271 1300452 1269110 1220515 
1949.322 1164315 1112896 1078498 1070667 1093542 1144981 1215785 1292075 
1953.179 1357226 1395620 1395451 1350868 1262185 1135922 982225 814076 
1957.036 644543 486360 350219 244380 173025 135501 126201 135548 151890 
1961.376 165222 169346 164059 154333 148545 154115 175384 210509 252471 
1965.716 290813 315872 321489 308347 283099 257532 244113 253378 290192 
1970.055 353102 434402 522317 603082 665313 701141 708470 689909 653053 
1974.395 607643 565298 536367 530063 551542 603135 681074 777734 881192 
1978.734 978517 1057795 1112289 1140026 1144626 1132473 1111157 1085806 
1982.592 1058255 1026058 985156 931241 864197 788164 712693 649191 607734 
1986.931 592263 599256 616853 629477 621532 583339 514273 423577 327913 
1991.271 247075 197672 189021 220098 280607 353423 419630 462563 472365 
1995.611 446927 392348 320466 246087 183654 144825 135907 157879 205908 
1999.950 271021 341025 402793 444290 456952 436763 387063 317119 241633 
2004.290 176742 136353 126671 143840 173069 192539 179636 119276 8936 
2008.629 -139332 -302626 -453499 -568542 -633023 -644578 -610437 -543638 
2012.487 -456905 -358733 -251377 -133704 -4017 134815 273782 397354 488008 
2016.826 529554 513691 440202 319344 166839 1806 -158526 -300334 -415431 
2021.166 -501014 -559117 -595112 -617483 -634967 -655544 -683127 -716829 
2025.023 -749436 -770446 -767229 -732182 -663810 -570982 -470079 -382349 
2028.881 -327559 -319565 -361954 -449518 -569639 -707603 -848317 -978560 
2032.738 -1085338 -1156176 -1177410 -1138309 -1033927 -870427 -665983 
2036.114 -449087 -251312 -99550 -7459 26737 20372 -2195 -16830 -8096 27201 
2040.935 80492 138561 188776 225556 251188 274253 303769 345417 398687 
2045.275 459071 520492 580769 642161 711124 793513 890170 993066 1087385 
2049.615 1154588 1180179 1157245 1089289 987560 867334 744238 631522 538148 
2053.954 469460 427183 410791 417756 443453 480909 521990 557958 582118 
2058.294 591474 588351 579650 575053 583192 608986 651260 703328 754762 
2062.633 795058 816784 817775 800908 773513 744078 720696 708858 711239 
2066.973 727539 755577 791718 831873 871726 907286 935128 953224 961171 
2071.313 960354 953258 943419 933750 926471 922230 920487 919596 917914 
2075.652 913750 906465 896217 884436 873339 865791 864886 873140 891620 
2079.992 919845 954925 992642 1027503 1054711 1070739 1074590 1067721 
2083.849 1053823 1037160 1021799 1010206 1002886 998519 994947 989528 980729 
2088.189 967934 951757 933379 914122 895224 877440 861282 847392 836491 
2092.528 829638 827478 830210 836913 845678 853720 858878 859910 857878 
2096.868 855487 856771 865241 882560 907292 935126 959509 974435 975841 
2101.208 964188 944418 925143 915904 924828 955236 1004914 1066184 1128305 
2105.547 1180066 1213133 1223723 1213596 1188496 1156821 1126953 1105787 
2109.405 1097685 1104537 1125747 1159188 1200991 1245902 1287456 1318579 
2113.262 1332725 1325419 1295281 1245081 1180764 1110326 1041130 978582 
2117.119 924387 876922 832398 787203 739391 690082 642814 602466 573090 
2121.459 556466 551112 553253 557730 560370 558671 552559 543485 532835 
2125.799 520369 503499 477275 435650 373143 287106 178517 52697 -81736 
2130.138 -214169 -333926 -431679 -500683 -537506 -542145 -518207 -472777 
2133.996 -415275 -356683 -307079 -274211 -261360 -267199 -286107 -311047 
2137.853 -335448 -356565 -375802 -398220 -429951 -474745 -531246 -592673 
2141.710 -647674 -685309 -698930 -690806 -672192 -661376 -678096 -737130 
2145.568 -842808 -987589 -1153370 -1317074 -1455764 -1552787 -1599288 
2148.943 -1594831 -1544181 -1456038 -1341446 -1214886 -1093810 -999654 
2152.318 -954466 -976424 -1073670 -1240606 -1455653 -1685310 -1889872 
2155.694 -2032362 -2086006 -2039739 -1898323 -1681893 -1421004 -1152521 
2159.069 -912047 -729513 -622898 -596666 -640743 -734592 -849226 -955921 
2162.926 -1029171 -1054346 -1029552 -966399 -884354 -805302 -746846 -718183 
2166.784 -719020 -743013 -781073 -825308 -870753 -915947 -960122 -1002994 
2170.641 -1042444 -1075055 -1096631 -1103938 -1095425 -1072458 -1038606 
2174.016 -1000336 -965742 -943771 -942610 -967363 -1017819 -1087546 -1162996 
2177.874 -1226824 -1260781 -1249911 -1186597 -1073440 -921409 -748831 
2181.249 -576422 -423333 -303080 -221950 -179080 -168388 -180676 -206525 
2185.106 -237708 -268252 -293724 -311388 -319083 -315318 -298926 -269909 
2188.964 -230394 -185539 -142968 -111740 -99699 -110455 -140780 -180731 
2192.821 -215006 -227850 -207732 -152020 -67769 28901 118487 182720 210452 
2197.161 199249 155808 92471 24151 -35833 -77545 -96395 -92323 -69654 -35931 
2201.983 -590 27164 40298 37224 21842 3513 -6457 1359 30349 76237 128390 
2207.287 174381 204389 216356 216037 215123 226052 256648 306502 368119 
2211.626 429536 479962 513278 530605 537948 543228 552209 566738 584414 
2215.966 601015 612675 618175 618598 616491 613763 611247 608072 603394 
2220.305 596433 587731 577626 565881 550534 528792 498071 459233 416494 
2224.645 378061 352931 348034 364899 399521 443258 486692 522721 549191 
2228.985 567753 582247 594928 605184 609041 602433 583717 556821 531268 
2233.324 519977 534578 581704 659745 759474 866239 964404 1041143 1089059 
2237.664 1107109 1099660 1074298 1040165 1005550 977057 958231 949252 946554 
2242.003 944305 935498 914618 879481 832823 781760 736525 707131 701257 
2246.343 721530 765642 826341 893432 955700 1002640 1025889 1020912 987687 
2250.683 931569 862999 795989 745296 723130 735671 781526 851451 931401 
2255.022 1006371 1064543 1100012 1113275 1109466 1095839 1078773 1062686 
2258.880 1049697 1041061 1037991 1042618 1056877 1081681 1115148 1152661 
2262.737 1187244 1212061 1222510 1218334 1203735 1186755 1176227 1179273 
2266.594 1198884 1232904 1274697 1315101 1345085 1358541 1353668 1333897 
2270.452 1306604 1281541 1268114 1273194 1299193 1343917 1400666 1460630 
2274.309 1514349 1554560 1577123 1581909 1572305 1553985 1533423 1516458 
2278.167 1507038 1506989 1515827 1531579 1551400 1572892 1594589 1616506 
2282.024 1639568 1665229 1694169 1725554 1756770 1783816 1802376 1809226 
2285.882 1803260 1786070 1761332 1734013 1708519 1688040 1673596 1664376 
2289.739 1658416 1653496 1647725 1640007 1629870 1617391 1602847 1586856 
2293.596 1570174 1554043 1539676 1528285 1520351 1515564 1512700 1510097 
2297.454 1506079 1499655 1490771 1480175 1469042 1458479 1448979 1440497 
2301.311 1432483 1424312 1415589 1406344 1396834 1387552 1378956 1371372 
2305.169 1365054 1360391 1357679 1357165 1358719 1361932 1365969 1369968 
2309.026 1373256 1375831 1378415 1382327 1388865 1399056 1413011 1430091 
2312.884 1448898 1467841 1485519 1501060 1514241 1525460 1535430 1545030 
2316.741 1555018 1565876 1577972 1591580 1607233 1626018 1649587 1680081 
2320.598 1719324 1767786 1823410 1880952 1932103 1967023 1976380 1953990 
2324.456 1898568 1814296 1710028 1597409 1488194 1392135 1315000 1258336 
2328.313 1219839 1195127 1179422 1168983 1161907 1157883 1157255 1160441 
2332.171 1167293 1177206 1189447 1203438 1218855 1235383 1252313 1268210 
2336.028 1281004 1288583 1289523 1283688 1272453 1258351 1244426 1233047 
2339.885 1225579 1222136 1221861 1223605 1226299 1229371 1232579 1235669 
2343.743 1238156 1239275 1238248 1234681 1228807 1221782 1215117 1210542 
2347.600 1209264 1211646 1217115 1224549 1232498 1239780 1245718 1250263 
2351.458 1253832 1257174 1261093 1266150 1272647 1280488 1289195 1298127 
2355.315 1306541 1313884 1319760 1324270 1327571 1329963 1331494 1331909 
2359.173 1330637 1326996 1320471 1310957 1298849 1285065 1270715 1256909 
2363.030 1244437 1233809 1225183 1218710 1214383 1212339 1212697 1215491 
2366.887 1220579 1227583 1235955 1245126 1254396 1263265 1271225 1277987 
2370.745 1283369 1287576 1291036 1294522 1298654 1303903 1310165 1316701 
2374.602 1322204 1325350 1325117 1321311 1314712 1306891 1299738 1294919 
2378.460 1293386 1295141 1299443 1305128 1310896 1315987 1319985 1323082 
2382.317 1325660 1328303 1331308 1334841 1338592 1342096 1344625 1345578 
2386.175 1344568 1341820 1338109 1334749 1333023 1333918 1337458 1342757 
2390.032 1347937 1351001 1350246 1345149 1336316 1325466 1314531 1305079 
2393.889 1297455 1290922 1283823 1274552 1262161 1247075 1231093 1216939 
2397.747 1207379 1204535 1209078 1220058 1235065 1250982 1264492 1273089 
2401.604 1275455 1271715 1263308 1252490 1241523 1232269 1225503 1221105 
2405.462 1218101 1215522 1212789 1210152 1208530 1209136 1212607 1218728 
2409.319 1225941 1232060 1234738 1232601 1225589 1215365 1204515 1195959 
2413.177 1191750 1192708 1197962 1205549 1212889 1217697 1218297 1214223 
2417.034 1206080 1195254 1183671 1173397 1165988 1162127 1161338 1162112 
2420.891 1162027 1158787 1150759 1137869 1121656 1104945 1090802 1081459 
2424.749 1077396 1077189 1078101 1077170 1072275 1063097 1051122 1038656 
2428.606 1027827 1019556 1013158 1006710 998130 986400 972090 957564 945849 
2432.946 939603 939935 945890 954892 963726 969723 971731 970237 967040 
2437.285 964069 962679 963130 964731 966382 967348 967710 968489 970974 
2441.625 976317 984725 995343 1006424 1015940 1022035 1023545 1019928 
2445.482 1011335 998281 981689 962852 943561 926131 913189 906978 908940 
2449.822 919050 935904 957020 979624 1001266 1020451 1036528 1049430 1059021 
2454.162 1064805 1065721 1060927 1050050 1033969 1014754 995181 977889 
2458.019 964759 956145 951253 948488 946453 944344 942169 940346 939164 
2462.359 938212 936519 932709 925918 916200 904840 893782 885160 880159 
2466.698 878938 880371 883032 885753 888524 892368 899011 909808 925226 
2471.038 944038 963786 981107 992980 997160 993120 981732 965253 946670 
2475.377 929323 916183 909618 910764 919426 933830 951018 967269 979203 
2479.717 984384 982105 973321 960413 946174 933292 923435 917491 915370 
2484.057 916776 921338 928791 938856 951011 964228 977153 988245 996332 
2488.396 1000644 1001204 998434 993083 985622 976695 966648 956157 946095 
2492.736 937647 932005 930068 932040 937614 945842 955676 966307 977244 
2497.075 988503 1000210 1012399 1024811 1036578 1046568 1053461 1056174 
2500.933 1053984 1046890 1035509 1021372 1006544 993646 985399 984249 991674 
2505.272 1007899 1031490 1059565 1087918 1112092 1127827 1132243 1124179 
2509.130 1104667 1076652 1044612 1013508 988102 971760 966211 971201 984946 
2513.469 1004674 1027549 1051077 1073483 1093679 1110948 1124672 1134517 
2517.327 1140238 1142471 1142664 1143204 1146822 1155908 1171404 1192430 
2521.184 1216255 1239047 1256915 1267157 1268981 1263666 1253993 1243463 
2525.042 1235028 1230660 1230827 1234770 1240772 1246751 1250615 1250828 
2528.899 1246304 1237032 1223866 1208646 1193761 1181738 1174511 1172920 
2532.757 1176341 1183037 1190484 1196363 1198926 1197923 1194159 1189374 
2536.614 1185497 1184295 1186764 1192914 1202085 1213072 1224430 1234960 
2540.471 1243885 1251129 1257225 1263120 1269759 1277764 1286906 1296249 
2544.329 1304257 1309487 1311117 1309325 1305399 1301283 1298541 1298146 
2548.186 1299511 1301081 1300686 1296599 1288117 1276109 1262611 1250264 
2552.044 1241445 1237711 1239433 1246075 1256529 1269701 1284651 1300698 
2555.901 1317181 1333252 1347686 1359133 1366141 1367677 1363377 1353711 
2559.759 1340008 1324250 1308703 1295667 1287127 1284295 1287663 1296677 
2563.616 1310026 1325927 1342481 1358217 1372163 1384187 1394599 1404128 
2567.473 1413333 1422621 1432059 1441406 1450335 1458466 1465461 1471078 
2571.331 1475075 1477363 1477960 1477062 1474937 1472034 1468637 1464927 
2575.188 1460854 1456433 1451802 1447318 1443636 1441613 1441736 1444082 
2579.046 1448074 1452596 1456444 1458769 1459319 1458777 1458261 1459079 
2582.903 1461996 1467030 1473392 1479723 1484564 1486959 1486498 1483641 
2586.760 1479297 1474631 1470606 1467969 1466878 1467291 1468825 1471193 
2590.618 1474094 1477586 1481837 1487299 1494417 1503532 1514567 1527070 
2594.475 1540068 1552173 1561922 1567985 1569315 1565540 1556782 1543912 
2598.333 1528290 1511835 1496720 1485258 1479301 1480029 1487368 1500039 
2602.190 1515581 1530930 1543086 1550062 1551058 1546821 1539198 1530671 
2606.048 1523524 1519552 1519518 1523451 1530625 1539913 1549907 1559134 
2609.905 1566155 1569926 1569917 1566558 1560951 1555132 1551207 1551001 
2613.762 1555510 1564632 1577428 1592428 1608269 1624014 1639115 1653458 
2617.620 1666681 1678203 1687097 1692472 1693902 1691879 1687820 1683715 
2621.477 1681415 1681936 1685103 1689505 1693159 1694211 1691981 1686872 
2625.335 1680641 1675528 1673364 1675084 1680162 1687194 1694167 1699464 
2629.192 1702189 1702484 1701124 1699189 1697421 1696033 1694848 1693388 
2633.050 1691608 1689837 1688907 1689933 1693645 1700105 1708430 1716944 
2636.907 1723732 1727126 1726288 1721492 1713997 1705780 1698884 1694897 
2640.764 1694505 1697496 1702798 1708858 1713996 1716824 1716435 1712604 
2644.622 1705651 1696560 1686541 1676992 1669085 1663624 1660990 1660927 
2648.479 1662895 1666109 1669770 1673361 1676543 1679317 1681788 1684109 
2652.337 1686448 1689038 1692066 1695818 1700535 1706351 1713036 1719983 
2656.194 1726200 1730462 1731617 1728954 1722322 1712362 1700128 1686997 
2660.052 1674175 1662539 1652376 1643516 1635459 1627712 1619704 1611254 
2663.909 1602319 1593041 1583608 1574342 1565486 1557308 1550112 1544150 
2667.766 1539691 1536878 1535678 1535955 1537236 1539074 1540796 1541845 
2671.624 1541693 1540015 1536713 1531947 1526030 1519447 1512763 1506562 
2675.481 1501419 1497864 1496283 1496948 1499743 1504345 1509974 1515577 
2679.339 1520068 1522537 1522442 1519926 1515717 1510967 1506981 1504883 
2683.196 1505289 1508244 1513145 1519094 1524865 1529448 1531860 1531567 
2687.053 1528387 1522562 1514878 1506460 1498725 1493181 1490867 1492272 
2690.911 1496992 1503862 1511188 1517287 1520858 1521510 1519630 1516366 
2694.768 1513128 1511093 1510684 1511733 1513234 1513921 1512544 1508476 
2698.626 1501654 1492829 1483276 1474455 1467669 1463780 1462982 1464920 
2702.483 1468681 1473259 1477731 1481451 1484283 1486426 1488235 1490188 
2706.341 1492534 1495352 1498553 1502082 1505866 1509952 1514376 1519075 
2710.198 1523611 1527330 1529422 1529221 1526443 1521461 1515294 1509362 
2714.055 1505212 1504004 1506267 1511938 1520210 1530144 1540711 1551220 
2717.913 1561185 1570443 1578847 1586267 1592321 1596559 1598632 1598249 
2721.770 1595442 1590670 1584643 1578275 1572565 1568426 1566526 1567288 
2725.628 1570777 1576758 1584699 1593954 1603716 1613198 1621677 1628526 
2729.485 1633307 1635759 1635764 1633502 1629451 1624297 1618921 1614113 
2733.343 1610597 1608586 1608006 1608455 1609290 1610153 1610868 1611777 
2737.200 1613385 1616253 1620676 1626379 1632563 1637994 1641320 1641682 
2741.057 1638804 1633281 1626541 1620379 1616620 1616831 1621796 1631576 
2744.915 1645573 1662620 1681300 1700035 1717339 1731927 1742826 1749498 
2748.772 1751875 1750546 1746527 1741119 1735626 1731186 1728354 1727158 
2752.630 1727081 1727319 1727057 1725813 1723366 1720139 1716782 1714146 
2756.487 1713009 1713949 1717103 1722307 1729061 1736773 1744776 1752596 
2760.344 1759900 1766538 1772417 1777417 1781285 1783603 1783941 1782013 
2764.202 1777909 1772213 1765967 1760418 1756632 1755190 1755859 1757802 
2768.059 1759756 1760648 1760015 1758208 1756344 1755895 1758064 1763374 
2771.917 1771388 1780934 1790372 1798434 1804353 1808175 1810514 1812257 
2775.774 1813954 1815810 1817461 1818430 1818438 1817492 1816162 1815271 
2779.632 1815493 1817201 1820266 1824024 1827652 1830514 1832292 1833246 
2783.489 1833994 1835380 1838170 1842845 1849517 1857991 1867773 1878308 
2787.346 1888969 1899185 1908438 1916343 1922562 1927045 1929904 1931497 
2791.204 1932413 1933301 1934932 1937833 1942550 1949196 1957717 1967794 
2795.061 1978826 1990277 2001676 2012760 2023500 2034216 2045275 2056981 
2798.919 2069456 2082502 2095554 2107950 2118993 2128236 2135564 2141214 
2802.776 2145675 2149437 2152918 2156305 2159532 2162552 2165223 2167659 
2806.634 2170085 2172938 2176503 2180883 2185862 2190889 2195303 2198561 
2810.491 2200541 2201554 2202405 2204149 2207696 2213521 2221438 2230705 
2814.348 2240232 2249023 2256648 2263202 2269483 2276631 2285580 2296862 
2818.206 2310337 2325428 2341343 2357457 2373663 2390440 2408549 2428774 
2822.063 2451498 2476448 2502834 2529406 2554951 2578752 2600634 2621168 
2825.921 2641464 2662957 2687007 2714796 2746968 2783732 2824862 2869724 
2829.778 2917613 2967813 3019732 3073018 3127421 3182869 3239217 3296372 
2833.635 3354265 3413055 3473390 3536586 3604422 3679132 3762710 3856652 
2837.493 3961463 4076621 4200856 4332612 4470640 4614444 4764576 4922385 
2841.350 5089716 5268434 5459859 5664501 5881979 6111056 6349760 6595733 
2845.208 6846291 7098837 7350828 7600105 7844879 8083799 8315780 8539855 
2849.065 8755025 8960122 9153705 9334229 9500161 9650075 9782794 9897481 
2852.923 9993517 10070664 10128950 10168722 10190658 10195768 10185204 
2856.298 10160030 10121174 10069267 10004731 9927918 9839386 9740010 9631117 
2860.155 9514359 9391641 9264949 9136257 9007502 8880510 8756908 8638065 
2864.013 8524758 8417049 8314340 8215328 8118722 8023418 7929046 7836111 
2867.870 7745877 7659983 7580011 7507110 7441667 7383483 7331824 7285838 
2871.728 7244561 7207186 7172937 7141214 7111516 7083770 7058459 7036584 
2875.585 7019853 7010144 7009233 7018433 7038197 7068140 7107183 7153898 
2879.442 7206889 7265047 7327761 7394830 7466466 7543012 7624897 7712365 
2883.300 7805523 7904012 8007202 8113986 8223029 8332873 8442256 8550282 
2887.157 8656579 8761205 8864418 8966640 9067854 9167613 9265012 9358788 
2891.015 9447563 9530172 9605806 9674194 9735604 9790556 9839979 9884705 
2894.872 9925548 9963165 9998146 10030974 10062500 10093618 10125604 
2898.247 10159887 10197972 10240974 10289625 10343928 10403376 10466997 
2901.623 10533928 10603353 10675138 10749540 10827366 10909446 10996667 
2904.998 11089362 11187698 11291184 11399220 11510918 11625535 11742160 
2908.373 11860137 11978946 12098359 12218632 12340552 12465439 12594999 
2911.748 12730953 12874562 13026364 13185862 13351399 13520660 13690941 
2915.124 13859840 14025670 14187528 14345399 14499719 14650983 14799462 
2918.499 14944819 15086253 15222752 15353255 15476888 15593357 15702680 
2921.874 15805233 15901364 15991358 16075321 16153000 16224001 16287754 
2925.249 16343646 16391219 16430090 16460490 16482951 16498587 16508740 
2928.625 16514881 16518174 16519314 16518317 16514802 16508220 16498108 
2932.000 16484469 16467629 16448134 16426310 16401997 16374499 16342783 
2935.375 16305940 16263589 16216180 16164821 16110916 16055696 15999606 
2938.750 15942258 15882549 15819241 15751417 15678874 15602031 15521497 
2942.125 15437609 15349968 15257473 15158594 15052126 14937763 14816402 
2945.501 14690217 14561856 14434077 14308548 14185756 14065108 13945232 
2948.876 13824542 13702036 13577460 13451396 13325067 13199899 13077299 
2952.251 12958196 12843031 12731627 12623224 12516662 12410329 12302555 
2955.626 12192017 12077826 11959984 11839186 11716876 11594472 11473252 
2959.002 11353686 11235446 11117438 10998405 10877032 10753027 10626727 
2962.377 10499436 10372852 10248861 10128640 10012782 9900928 9792054 
2965.752 9684911 9578376 9471567 9364148 9256185 9147867 9039280 8930423 
2969.610 8821004 8710656 8599051 8486194 8372290 8257767 8143217 8029058 
2973.467 7915572 7802906 7690929 7579694 7469232 7359747 7251459 7144562 
2977.324 7039117 6934900 6831693 6729170 6627132 6525716 6425073 6325565 
2981.182 6227555 6131203 6036518 5943478 5851828 5761653 5673164 5586917 
2985.039 5503715 5424510 5350030 5280804 5216786 5157384 5101408 5047447 
2988.897 4994016 4940043 4884967 4828847 4772230 4715825 4660187 4605348 
2992.754 4550934 4496320 4440923 4384782 4328669 4274110 4222991 4176962 
2996.612 4136918 4102593 4072641 4044859 4016797 3986274 3952030 3913593 
3000.469 3871306 3826091 3778972 3731089 3683352 3636629 3591852 3549837 
3004.326 3511248 3476584 3445619 3417749 3391656 3365988 3339111 3310033 
3008.184 3278183 3243623 3206914 3168887 3130379 3092044 3054167 3016799 
3012.041 2979727 2942786 2905834 2869053 2832884 2797938 2764897 2734344 
3015.899 2706522 2681461 2658764 2637827 2618061 2598903 2580017 2561189 
3019.756 2542297 2523258 2503799 2483549 2461971 2438818 2414000 2387781 
3023.614 2360793 2333905 2308064 2284066 2262502 2243667 2227675 2214577 
3027.471 2204260 2196603 2191157 2187108 2183252 2178211 2170545 2159395 
3031.328 2144722 2127574 2109801 2093791 2081453 2073870 2070697 2070270 
3035.186 2069996 2067352 2060405 2048623 2032812 2014953 1997552 1982876 
3039.043 1972612 1967589 1968034 1974113 1985861 2003741 2028168 2059345 
3042.901 2096868 2139630 2185751 2233287 2280516 2326524 2371422 2416154 
3046.758 2462045 2510344 2561527 2615197 2670028 2724116 2775518 2822651 
3050.615 2864651 2901480 2933535 2961501 2985758 3006167 3021989 3032001 
3054.473 3034851 3029759 3016628 2996598 2971728 2944949 2919235 2897348 
3058.330 2881183 2871706 2868896 2872011 2879882 2891186 2904537 2918649 
3062.188 2932177 2943832 2952493 2957379 2958228 2955527 2950323 2944110 
3066.045 2938384 2934161 2931828 2931053 2930859 2930249 2928361 2924912 
3069.903 2920225 2915131 2910514 2907144 2905240 2904645 2904768 2905067 
3073.760 2905107 2904906 2904779 2905162 2906304 2908093 2909925 2911027 
3077.617 2910566 2908134 2903827 2898245 2892109 2886076 2880187 2873869 
3081.475 2866058 2855605 2841655 2824145 2803648 2781458 2758826 2736713 
3085.332 2715389 2694417 2672909 2649855 2624554 2596862 2567071 2535920 
3089.190 2504309 2473280 2443770 2416990 2394136 2376638 2365549 2361622 
3093.047 2364670 2373718 2386881 2402115 2417293 2430952 2442454 2451778 
3096.905 2459391 2465794 2471331 2475962 2479494 2481752 2482766 2483069 
3100.762 2483266 2484145 2486038 2488843 2491743 2493440 2492434 2487520 
3104.619 2478058 2464297 2447212 2428395 2409460 2391716 2375635 2360756 
3108.477 2345926 2329636 2310451 2287720 2261644 2233301 2204368 2176574 
3112.334 2151324 2129434 2111123 2096267 2084520 2075747 2069884 2066914 
3116.192 2066374 2067564 2069184 2069881 2068481 2064437 2058030 2050279 
3120.049 2042840 2037310 2034780 2035819 2040249 2047370 2056342 2066368 
3123.906 2076860 2087408 2097635 2106929 2114543 2119351 2120288 2116406 
3127.764 2107270 2093016 2074455 2053059 2030407 2008373 1988357 1971411 
3131.621 1958009 1948067 1941134 1936589 1933823 1932077 1930858 1929469 
3135.479 1927174 1923139 1916542 1906708 1893456 1877103 1858564 1839168 
3139.336 1820444 1803772 1790123 1780181 1774086 1771659 1772490 1775884 
3143.194 1780946 1786538 1791256 1793779 1792924 1788173 1779756 1768685 
3147.051 1756620 1745450 1736664 1731193 1729060 1729472 1731122 1732560 
3150.908 1732603 1730500 1725963 1719163 1710435 1700329 1689344 1678218 
3154.766 1667809 1659154 1653365 1651427 1653796 1660380 1670366 1682293 
3158.623 1694458 1705123 1713026 1717390 1717970 1715062 1709150 1700925 
3162.481 1691107 1680597 1670445 1661925 1656310 1654843 1658279 1666749 
3166.338 1679672 1695775 1713107 1729469 1742552 1750249 1750803 1743348 
3170.196 1727934 1705870 1679719 1652906 1629227 1611893 1602842 1602256 
3174.053 1608394 1618279 1628509 1636283 1640057 1639954 1637189 1633602 
3177.910 1630824 1629708 1630242 1631779 1633392 1634322 1634282 1633196 
3181.768 1631214 1628560 1625338 1621946 1619033 1617677 1619107 1624423 
3185.625 1634025 1647283 1662501 1677395 1689536 1697159 1699447 1696784 
3189.483 1690430 1682169 1673575 1666060 1660276 1656471 1654355 1653160 
3193.340 1651814 1649162 1644067 1635992 1625367 1613572 1602931 1595994 
3197.198 1594810 1600205 1611187 1625250 1638933 1648749 1652227 1648419 
3201.055 1638054 1623114 1606079 1589309 1574629 1563080 1555082 1550667 
3204.912 1549623 1551574 1555824 1561451 1567198 1571958 1574775 1575462 
3208.770 1574484 1572990 1572473 1574269 1579153 1587106 1597192 1607993 
3212.627 1617731 1625007 1628859 1629265 1626848 1622803 1618541 1615432 
3216.485 1614326 1615625 1619156 1624522 1631055 1638162 1645271 1651811 
3220.342 1657284 1661085 1662737 1662101 1659292 1655078 1650376 1646246 
3224.199 1643347 1641690 1640725 1639629 1637744 1635036 1632251 1630797 
3228.057 1632177 1637323 1646032 1657018 1668029 1676813 1681646 1681962 
3231.914 1678626 1673404 1668342 1665230 1664828 1667039 1670779 1674738 
3235.772 1677559 1678384 1676768 1672871 1667150 1660255 1652924 1645688 
3239.629 1639059 1633221 1628240 1624007 1620478 1617601 1615407 1614028 
3243.487 1613366 1613105 1612540 1610975 1607691 1602610 1596430 1590563 
3247.344 1586959 1587379 1592818 1603244 1617365 1633126 1648076 1660209 
3251.201 1668118 1671396 1670161 1665043 1656674 1645828 1633289 1619940 
3255.059 1607035 1595786 1587371 1582685 1582014 1585118 1591291 1599541 
3258.916 1608907 1618473 1627332 1634818 1640360 1643729 1645109 1645177 
3262.774 1644918 1645379 1647099 1649903 1652674 1653597 1650820 1643050 
3266.631 1630198 1613676 1595958 1580239 1569380 1565286 1568409 1577732 
3270.489 1590982 1605245 1617738 1626255 1629565 1627633 1621511 1613071 
3274.346 1604521 1597954 1594699 1595198 1598692 1603725 1608332 1610809 
3278.203 1610069 1606109 1599664 1592263 1585508 1580916 1579653 1582282 
3282.061 1588903 1599265 1612712 1628221 1644474 1660051 1673629 1684261 
3285.918 1691713 1696490 1699571 1702168 1705195 1708941 1712941 1716291 
3289.776 1717922 1717302 1714398 1710069 1705441 1701662 1699394 1698583 
3293.633 1698600 1698451 1697275 1694739 1691186 1687522 1684940 1684335 
3297.490 1686195 1690212 1695391 1700417 1704018 1705461 1704803 1703138 
3301.348 1702080 1703646 1709232 1719426 1733368 1748966 1763274 1773230 
3305.205 1776527 1772351 1761530 1746517 1730546 1716934 1708156 1705232 
3309.063 1707678 1713708 1720816 1726595 1729156 1727564 1721963 1713373 
3312.920 1703359 1693676 1685791 1680537 1677937 1677270 1677091 1675790 
3316.778 1672109 1665425 1656182 1645847 1636400 1629842 1627620 1630082 
3320.635 1636627 1645813 1655970 1665730 1674391 1682030 1689181 1696569 
3324.492 1704628 1713459 1722772 1732054 1740872 1748968 1756206 1762644 
3328.350 1768168 1772678 1775805 1777425 1777548 1776643 1775437 1774889 
3332.207 1775872 1778980 1784347 1791717 1800263 1808925 1816571 1822037 
3336.065 1824484 1823695 1819984 1814368 1808315 1803222 1800123 1799285 
3339.922 1800071 1801171 1801028 1798564 1793252 1785585 1776727 1768047 
3343.780 1760609 1754997 1751067 1748357 1746399 1744923 1744053 1744023 
3347.637 1745071 1747130 1749830 1752856 1755849 1758899 1762118 1765518 
3351.494 1768672 1770579 1769597 1764342 1753935 1738712 1720372 1701455 
3355.352 1684672 1672171 1664864 1662291 1663092 1665582 1668432 1670810 
3359.209 1672614 1674037 1675178 1675970 1676053 1675268 1673706 1671940 
3363.067 1670692 1670627 1671904 1674162 1676522 1678149 1678672 1678370 
3366.924 1678374 1679946 1684227 1691637 1701715 1713241 1724478 1733730 
3370.781 1739561 1741042 1737820 1730064 1718575 1704721 1690434 1677999 
3374.639 1669633 1667122 1671207 1681481 1696422 1713881 1731551 1747484 
3378.496 1760410 1769544 1774454 1774877 1770675 1761972 1749525 1734739 
3382.354 1719781 1706930 1698124 1694373 1695432 1700063 1706433 1712974 
3386.211 1718825 1724156 1729727 1736651 1745554 1756436 1768516 1780634 
3390.069 1791609 1800790 1807995 1813713 1818499 1823002 1827518 1832081 
3393.926 1836337 1839980 1842633 1844080 1844227 1843293 1841686 1840123 
3397.783 1839632 1841410 1846562 1855857 1869318 1886218 1905202 1924445 
3401.641 1942108 1956740 1967459 1974103 1977045 1977165 1975685 1973952 
3405.498 1973591 1976295 1983678 1997093 2017082 2043374 2074489 2108047 
3409.356 2141187 2171201 2196277 2215983 2231281 2244380 2257920 2274244 
3413.213 2294674 2319386 2347178 2376350 2405237 2432803 2459070 2484854 
3417.071 2511375 2539567 2569534 2600542 2630861 2658588 2681967 2700070 
3420.928 2712881 2721299 2726636 2730612 2734658 2740115 2748047 2759274 
3424.785 2774321 2793282 2815719 2840724 2866828 2892179 2915017 2933937 
3428.643 2947952 2956849 2960823 2960544 2956867 2950860 2943470 2935696 
3432.500 2928361 2922032 2917095 2913664 2911532 2910363 2909727 2908975 
3436.358 2907188 2903358 2896067 2884060 2866371 2842769 2814019 2781762 
3440.215 2748236 2715626 2685451 2658292 2633835 2611162 2589485 2568536 
3444.073 2548814 2531423 2517418 2507206 2500162 2494752 2488959 2480911 
3447.930 2469597 2455181 2438868 2422413 2407466 2394978 2384950 2376605 
3451.787 2368699 2360094 2350070 2338510 2325959 2313126 2300780 2289326 
3455.645 2278881 2269224 2259961 2250695 2241358 2231914 2222607 2213612 
3459.502 2204941 2196431 2187640 2178311 2168387 2158263 2148882 2141372 
3463.360 2136642 2135193 2136737 2140317 2144668 2148728 2152056 2154733 
3467.217 2157293 2160122 2162777 2164185 2162434 2155936 2143827 2126736 
3471.074 2106808 2087005 2070348 2058832 2052948 2051693 2053331 2056067 
3474.932 2058978 2062124 2066215 2072177 2080289 2089759 2099139 2106605 
3478.789 2110742 2111081 2108065 2102792 2096500 2090124 2083981 2077813 
3482.647 2071258 2064010 2056094 2047907 2039929 2032792 2027034 2023135 
3486.504 2021682 2023203 2028061 2036131 2046662 2058217 2068955 2077270 
3490.362 2082259 2084481 2085426 2087590 2093240 2103866 2119214 2137490 
3494.219 2155480 2169742 2177301 2176790 2168689 2155263 2139989 2126664 
3498.076 2118354 2116977 2122653 2134139 2149158 2165264 2180434 2193551 
3501.934 2204377 2213440 2221270 2228183 2233803 2237197 2237104 2232450 
3505.791 2222727 2208216 2189943 2169710 2149427 2131405 2117741 2110428 
3509.649 2111012 2120406 2138354 2163365 2192718 2222911 2250296 2272080 
3513.506 2286890 2295194 2298865 2300812 2303670 2309544 2319158 2332159 
3517.364 2347176 2362506 2376432 2387510 2394849 2397997 2397081 2392918 
3521.221 2386847 2380928 2377236 2377941 2384467 2397352 2416206 2439791 
3525.078 2466210 2493484 2519546 2542757 2561641 2575349 2583511 2586515 
3528.936 2585466 2582025 2578001 2575094 2574375 2576250 2580481 2586844 
3532.793 2595065 2605337 2617983 2633206 2650448 2668435 2684939 2697693 
3536.651 2704894 2705955 2701862 2694858 2687649 2682824 2681901 2685346 
3540.508 2692384 2701909 2712690 2724108 2735936 2748424 2761647 2775519 
3544.365 2789576 2803160 2815503 2826009 2834387 2840494 2844292 2845911 
3548.223 2845461 2843116 2839287 2834665 2830222 2826880 2825407 2826329 
3552.080 2829542 2834517 2840226 2845396 2848697 2849023 2845667 2838602 
3555.938 2828319 2815922 2802707 2789885 2778165 2767559 2757491 2746869 
3559.795 2734731 2720659 2705083 2689336 2675425 2665436 2660909 2662254 
3563.653 2668452 2677127 2684915 2688439 2684993 2673383 2654378 2630669 
3567.510 2606153 2584952 2570214 2563072 2562288 2564666 2565987 2562340 
3571.367 2551391 2533137 2509865 2485291 2463336 2446756 2436319 2430740 
3575.225 2427291 2422900 2415393 2404201 2390467 2376742 2365663 2359409 
3579.082 2358584 2362164 2367770 2372509 2373780 2370136 2361550 2349408 
3582.940 2335878 2323285 2313245 2306348 2302078 2299193 2296512 2293456 
3586.797 2290400 2288633 2289580 2294303 2302552 2312806 2322496 2328917 
3590.655 2330196 2326101 2318091 2309005 2301789 2298812 2300848 2306934 
3594.512 2314979 2322458 2327521 2329647 2329476 2328578 2328588 2330630 
3598.369 2334888 2340829 2347437 2354048 2360357 2366850 2374350 2383658 
3602.227 2395030 2408114 2421856 2435156 2447113 2457558 2467108 2476977 
3606.084 2488537 2502831 2519925 2539028 2558540 2576577 2591448 2602153 
3609.942 2608496 2610960 2610555 2608361 2605448 2602778 2601507 2602840 
3613.799 2608008 2618097 2633535 2653669 2676771 2700102 2720724 2735952 
3617.656 2744208 2745293 2740291 2731334 2720777 2710950 2703659 2700163 
3621.514 2701243 2707292 2718202 2733463 2752042 2772435 2792971 2812341 
3625.371 2829480 2844070 2856144 2865872 2873107 2877344 2877764 2873665 
3629.229 2864875 2852103 2836660 2820504 2805472 2793155 2784413 2779748 
3633.086 2779064 2781908 2787546 2794939 2802812 2809793 2814899 2817897 
3636.944 2819154 2819761 2820576 2821883 2822821 2821477 2815749 2804397 
3640.801 2787997 2769188 2752059 2740709 2737609 2742319 2751465 2759704 
3644.658 2761790 2754351 2737104 2713071 2687094 2664062 2647259 2637322 
3648.516 2632128 2628210 2622140 2611717 2596644 2578151 2558352 2539288 
3652.373 2522336 2508012 2496219 2486415 2478000 2470430 2463130 2455459 
3656.231 2446889 2436840 2424919 2410818 2394266 2374857 2352295 2326704 
3660.088 2298883 2270789 2245104 2224952 2212585 2208643 2211457 2217127 
3663.946 2220791 2217809 2205505 2183891 2155922 2126350 2100579 2083139 
3667.803 2076617 2081483 2095957 2116940 2140617 2162973 2180677 2191247 
3671.660 2193361 2187161 2174126 2156771 2137846 2120030 2105048 2093455 
3675.518 2084822 2078148 2072375 2066920 2061538 2056081 2050203 2043324 
3679.375 2034454 2023114 2009463 1994858 1981523 1971828 1967528 1969157 
3683.233 1975543 1984464 1993078 1999062 2000696 1997323 1988829 1975362 
3687.090 1957046 1934262 1907482 1878004 1847880 1819324 1794500 1774619 
3690.948 1759865 1749486 1742270 1737044 1733140 1730360 1728471 1726976 
3694.805 1724727 1720200 1711984 1699521 1683441 1665824 1649294 1636350 
3698.662 1628455 1625597 1626280 1628362 1629812 1629418 1627066 1623771 
3702.520 1620885 1619633 1620700 1623935 1628411 1632852 1635743 1635658 
3706.377 1631257 1621631 1606457 1586182 1562121 1536692 1512774 1493679 
3710.235 1482174 1480220 1488515 1506533 1532565 1564185 1598552 1632749 
3714.092 1664028 1690036 1708951 1719822 1722447 1717867 1707834 1694800 
3717.949 1681327 1669620 1661333 1657216 1657331 1661120 1667675 1675852 
3721.807 1684455 1692237 1697953 1700878 1700624 1697715 1693558 1690173 
3725.664 1689892 1694639 1705352 1721385 1740768 1760297 1776473 1786271 
3729.522 1788027 1781635 1768633 1751729 1734048 1718613 1707725 1702421 
3733.379 1702979 1708599 1717960 1729325 1740794 1750452 1756697 1758588 
3737.237 1755923 1749440 1740690 1731562 1723822 1718509 1715775 1714744 
3741.094 1713925 1711716 1706962 1699263 1689257 1678434 1668825 1662409 
3744.951 1660818 1664793 1674098 1687582 1703191 1718541 1731299 1739568 
3748.809 1742541 1740568 1735066 1728131 1721860 1717798 1716574 1718076 
3752.666 1721866 1727855 1736335 1748124 1763852 1783410 1805239 1826436 
3756.524 1843411 1852862 1852937 1843994 1828414 1810061 1792662 1778660 
3760.381 1768649 1761368 1754427 1745619 1733735 1719116 1703259 1688244 
3764.239 1675709 1666485 1660385 1656854 1655403 1656346 1660681 1669821 
3768.096 1684830 1705710 1730776 1757177 1781013 1798758 1807856 1807481 
3771.953 1798538 1783453 1765283 1747236 1731979 1721383 1716358 1716981 
3775.811 1722472 1731619 1742425 1752640 1759859 1761944 1757689 1747257 
3779.668 1732356 1715960 1701711 1692980 1691765 1698045 1709785 1723302 
3783.526 1734479 1739768 1737265 1727158 1711561 1693643 1676825 1663958 
3787.383 1656615 1655305 1659623 1668660 1681264 1696371 1712828 1729392 
3791.240 1744795 1757726 1767169 1772589 1773983 1771883 1767229 1761049 
3795.098 1754385 1748304 1743836 1741807 1742957 1747400 1754489 1762776 
3798.955 1770060 1773873 1772240 1764231 1750620 1733850 1717497 1705572 
3802.813 1701294 1706412 1720826 1742455 1767889 1793065 1814224 1828428 
3806.670 1834449 1832768 1825270 1814773 1804019 1795291 1789688 1787196 
3810.528 1786988 1787853 1788602 1788446 1786986 1783943 1779009 1771673 
3814.385 1761321 1747774 1731400 1713505 1696182 1681909 1672898 1670323 
3818.242 1674304 1683897 1697391 1712833 1728473 1742864 1755021 1764047 
3822.100 1769401 1770674 1767889 1761672 1753225 1744355 1736916 1732397 
3825.957 1731616 1734550 1740214 1747289 1754058 1759240 1761808 1761094 
3829.815 1756981 1749905 1740775 1730976 1722343 1716467 1714501 1716680 
3833.672 1722055 1728792 1734607 1737573 1736725 1732436 1726270 1720579 
3837.530 1717570 1718775 1724542 1733935 1745220 1756367 1765692 1772113 
3841.387 1775114 1774989 1772227 1767483 1761347 1754220 1746447 1738299 
3845.244 1730060 1722166 1714914 1708692 1703845 1700556 1699030 1699462 
3849.102 1702071 1707064 1714598 1724673 1736827 1750351 1764009 1776639 
3852.959 1787390 1795821 1802331 1807629 1812542 1817366 1821545 1823723 
3856.817 1822104 1815019 1801719 1782679 1759620 1735149 1712071 1692737 
3860.674 1678762 1670780 1668792 1672309 1680674 1692829 1707394 1722377 
3864.531 1735528 1744686 1748514 1746843 1740938 1733233 1726497 1723061 
3868.389 1724208 1729849 1738860 1749687 1760879 1771674 1781863 1791679 
3872.246 1801303 1810593 1819030 1825873 1830564 1832894 1832953 1831169 
3876.104 1828255 1824848 1821608 1819094 1817891 1818364 1820396 1823403 
3879.961 1826189 1827404 1826149 1822333 1817060 1812384 1810503 1812782 
3883.819 1819173 1827959 1836070 1840424 1838856 1831066 1818927 1805562 
3887.676 1794316 1787704 1786428 1789723 1795663 1802229 1808093 1812904 
3891.533 1817169 1821656 1826706 1831886 1835908 1837179 1834354 1827028 
3895.391 1815970 1803070 1790885 1782026 1778423 1780979 1789174 1801393 
3899.248 1815078 1827631 1836700 1841108 1840682 1836506 1830316 1823890 
3903.106 1818612 1814850 1812433 1810460 1808304 1805741 1803309 1801896 
3906.963 1802368 1804971 1808937 1812785 1814658 1813102 1807983 1800546 
3910.821 1793396 1789623 1791874 1801199 1816789 1835859 1854751 1869599 
3914.678 1877933 1879109 1874342 1866296 1857972 1851628 1848155 1847136 
3918.535 1847127 1846698 1845153 1842938 1841445 1842380 1846967 1855207 
3922.393 1865867 1876964 1886447 1893107 1896824 1898608 1899814 1901350 
3926.250 1903307 1904672 1904011 1900336 1893595 1885128 1877146 1872045 
3930.108 1871524 1875783 1883743 1893220 1901922 1907952 1910255 1908710 
3933.965 1903672 1895997 1886580 1876502 1867081 1859795 1855896 1856136 
3937.823 1860135 1866497 1872992 1877523 1878611 1876333 1872075 1867895 
3941.680 1865654 1866160 1868804 1871714 1872749 1870455 1864513 1856100 
3945.537 1847460 1840813 1837906 1839347 1844648 1852608 1861589 1870109 
3949.395 1876767 1880436 1880347 1876276 1868882 1859752 1851428 1846597 
3953.252 1847484 1854860 1867495 1882506 1896077 1904604 1905857 1899647 
3957.110 1887643 1872761 1858261 1846715 1839528 1836862 1838093 1841964 
3960.967 1847375 1853239 1858824 1863762 1867904 1871742 1875820 1880789 
3964.824 1886901 1893599 1899488 1902457 1900641 1893032 1880210 1864610 
3968.682 1849671 1839156 1835737 1840241 1851474 1866700 1882557 1895998 
3972.539 1905077 1908782 1907150 1900432 1889240 1874039 1855812 1836013 
3976.397 1816942 1801265 1791550 1789583 1796087 1810384 1830722 1854586 
3980.254 1879299 1902180 1921056 1934215 1940800 1941021 1936386 1929306 
3984.112 1922866 1919668 1920955 1925954 1932103 1935569 1932931 1922638 
3987.969 1905757 1885974 1868567 1858612 1859278 1870715 1890028 1912062 
3991.826 1931363 1943421 1946170 1939769 1926543 1909649 1892296 1876775 
3995.684 1864450 1855815 1850686 1848674 1849138 1851409 1854632 1858136 
3999.541 1861414 1864452 1867731 
##END=
