##TITLE=3D-Fillies_PLA-Rainbow_Salmon-Pink_Filament_r3_ATR-Corrected
##JCAMP-DX=5.01  $$ Nicolet v. 1
##DATATYPE=INFRARED SPECTRUM
##ORIGIN=Curtin University
##OWNER=Nicolet
##LONGDATE=2024/07/18
##TIME=16:38:20
##SPECTROMETER/DATA SYSTEM=Nicolet iS50
##DATA PROCESSING=
Ratio against background
%Transmittance->Absorbance
ATR Correction
Truncated
ElementMultiply or ElementDivide
##COMMENTS=
Number of sample scans: 32
Collection length: 47.29 sec
Sample gain: 1.0
Background collected on: Thu Jul 18 16:36:34 2024 (GMT+08:00);
Number of background scans: 32
Background gain: 1.0
Sample spacing:  1.000
Number of scan points: 16672
Resolution points: 8192
Number of FFT points: 65536
Apodization: N-B strong;
Phase correction: Mertz;
Laser frequency: 15798.3 cm-1
Number of rejected sample scans: 0
Number of rejected background scans: 0
Bench serial number: AUP1200105;
##RESOLUTION=4.000
##XUNITS=1/CM
##YUNITS=ABSORBANCE
##FIRSTX=400.163452
##LASTX=4000.187744
##FIRSTY=0.049317
##MAXX=4000.187744
##MINX=400.163452
##MAXY=0.881969
##MINY=-0.032189
##XFACTOR=1.000000
##YFACTOR=1.000000E-009
##NPOINTS=7468
##DELTAX=0.482125
##ZPD=8192
##XYDATA=(X++(Y..Y))
400.163 49317456 48750912 48555620 48677020 48986448 49328324 49544772 
403.538 49507396 49136592 48410200 47360216 46062024 44619820 43147476 
406.913 41749076 40501288 39442552 38572652 37863508 37274656 36770084 
410.288 36326368 35934308 35590320 35288328 35012092 34735796 34430356 
413.663 34071928 33652192 33180080 32680572 32187030 31733512 31347964 
417.038 31049992 30847904 30738100 30701598 30703444 30693738 30615808 
420.412 30418498 30070830 29573106 28959898 28292846 27644536 27078994 
423.787 26636496 26326306 26130886 26019658 25964330 25950336 25978832 
427.162 26059328 26197342 26383250 26588152 26767942 26876340 26879598 
430.537 26768050 26561234 26301994 26043742 25835038 25709522 25676366 
433.912 25722036 25817692 25927858 26020308 26071966 26072156 26021932 
437.286 25931132 25814456 25687534 25563578 25451094 25352562 25264358 
440.661 25177300 25079132 24957492 24804482 24620958 24419054 24221856 
444.036 24060416 23966122 23963278 24061072 24249598 24499514 24767316 
447.411 25002652 25158914 25201302 25113906 24902354 24593516 24231392 
450.786 23870476 23566554 23366568 23298560 23363246 23530502 23743606 
454.161 23929424 24016122 23951112 23715760 23331422 22855146 22366534 
457.535 21948088 21666066 21556276 21617468 21815532 22093002 22384586 
460.910 22630730 22789036 22840664 22791182 22665564 22496446 22322662 
464.285 22170272 22049280 21953236 21864372 21763160 21638020 21491922 
467.660 21342492 21215304 21132632 21102684 21114172 21138668 21140404 
471.035 21090146 20976524 20810938 20623778 20453418 20333054 20280096 
474.409 20292024 20349616 20425134 20491738 20530314 20531634 20494442 
477.784 20422000 20318026 20186462 20030978 19857698 19675004 19493926 
481.159 19325176 19177208 19053900 18954014 18871340 18796234 18717140 
484.534 18623320 18507070 18367822 18214596 18067238 17954480 17907428 
487.909 17951550 18097500 18336136 18639224 18966204 19275592 19536038 
491.284 19734534 19877620 19986636 20088572 20207142 20356204 20537702 
494.658 20748464 20979430 21220174 21459874 21686450 21886314 22045264 
498.033 22152150 22202346 22201150 22162362 22104122 22041684 21982036 
501.408 21920498 21843658 21734720 21581026 21379016 21135692 20865804 
504.783 20587274 20316288 20065022 19841182 19649786 19494154 19375884 
508.158 19293474 19240620 19205954 19175376 19135544 19078356 19003438 
511.532 18917492 18831742 18756770 18698798 18657708 18627466 18598902 
514.907 18562014 18508128 18430348 18323798 18186464 18020176 17832390 
518.282 17636492 17450456 17292290 17175112 17102788 17068808 17059306 
521.657 17058068 17053294 17040144 17020166 16996664 16969088 16929222 
525.032 16860474 16747845 16581675 16365541 16118133 15869116 15650190 
528.406 15485012 15381814 15331890 15313952 15301726 15273156 15215580 
531.781 15127870 15018095 14899351 14785395 14687390 14612810 14564686 
535.156 14542028 14539354 14547638 14555781 14552590 14530141 14485864 
538.531 14422975 14348504 14270490 14193966 14120053 14046185 13969268 
541.906 13889140 13810198 13741254 13692644 13672194 13682329 13719297 
545.281 13774826 13839471 13905257 13967012 14021024 14063622 14089067 
548.655 14090041 14059247 13993073 13894165 13771611 13639948 13514810 
552.030 13409705 13332899 13286620 13268261 13271382 13287592 13307853 
555.405 13322877 13325100 13312303 13288515 13265373 13260782 13293328 
558.780 13376050 13509315 13678614 13856092 14008816 14107934 14137704 
562.155 14099040 14007221 13884740 13752560 13623995 13503809 13391889 
565.529 13289019 13202053 13144205 13130482 13170389 13261711 13387911 
568.904 13522418 13636726 13710754 13739273 13732536 13711783 13699588 
572.279 13711717 13751949 13813093 13881625 13945698 14000182 14048633 
575.654 14101312 14169117 14258871 14369574 14493418 14618717 14735121 
579.029 14837441 14927272 15011644 15099505 15197716 15307255 15422415 
582.404 15531762 15621767 15680542 15702270 15689099 15651334 15604391 
585.778 15564746 15544869 15549965 15576830 15615406 15652647 15677629 
589.153 15684450 15673835 15652293 15628476 15610547 15603932 15611709 
592.528 15635313 15676809 15739050 15824020 15930953 16052887 16176786 
595.903 16285332 16361713 16395606 16386628 16345628 16291110 16243216 
599.278 16217260 16219670 16247503 16291397 16341327 16390515 16438132 
602.652 16487701 16543781 16607840 16675938 16739544 16788474 16815220 
606.027 16818122 16803160 16782430 16771695 16786636 16840150 16940340 
609.402 17090126 17286134 17519676 17776300 18038150 18286742 18507548 
612.777 18694466 18852118 18995514 19145032 19319552 19529148 19770096 
616.152 20025424 20269992 20478786 20635858 20739676 20803464 20850776 
619.527 20907882 20996294 21127806 21303694 21517322 21758064 22015272 
622.901 22280146 22544796 22801312 23040822 23253784 23433220 23577528 
626.276 23693116 23795138 23904140 24041704 24224816 24461292 24747696 
629.651 25070340 25408400 25738346 26038624 26293718 26495852 26646040 
633.026 26753008 26830282 26893180 26955314 27025244 27105396 27192316 
636.401 27279486 27360858 27434060 27502702 27576264 27667234 27787228 
639.775 27942890 28133584 28350988 28580786 28806646 29013732 29191508 
643.150 29335946 29449272 29539682 29619472 29703110 29804890 29936040 
646.525 30102572 30303746 30532158 30775700 31021708 31260658 31489950 
649.900 31715032 31947474 32200906 32485906 32805886 33154674 33517950 
653.275 33875788 34207240 34494140 34723756 34889572 34991416 35034528 
656.650 35028808 34987816 34927476 34863748 34809748 34773356 34755960 
660.024 34753492 34759564 34769472 34784220 34811264 34863176 34952456 
663.399 35086380 35262936 35470064 35688432 35897600 36082176 36236088 
666.774 36363732 36476884 36589944 36714692 36857400 37018128 37193568 
670.149 37379752 37574652 37778268 37992040 38216028 38447728 38682504 
673.524 38915340 39143640 39369760 39600320 39844804 40110572 40399504 
676.898 40704992 41012620 41303540 41558884 41765116 41917344 42019228 
680.273 42081452 42118952 42146936 42179032 42226276 42297128 42397880 
683.648 42531744 42698244 42891704 43100908 43310816 43505856 43674204 
687.023 43812340 43926892 44033536 44153196 44305120 44501440 44742660 
690.398 45017416 45305876 45585280 45836400 46048476 46220976 46363024 
693.773 46489912 46619324 46767632 46947792 47168044 47432248 47740380 
697.147 48089752 48475632 48892936 49337184 49805516 50296848 50811424 
700.522 51348592 51904884 52472068 53037092 53584236 54098368 54568672 
703.897 54992040 55373020 55721460 56048628 56361608 56660680 56938448 
707.272 57182532 57380692 57525656 57618772 57671152 57701340 57731088 
710.647 57779596 57859524 57974292 58118144 58277984 58437800 58583208 
714.021 58705492 58805424 58894012 58992928 59131992 59347056 59677644 
717.396 60167064 60863548 61824000 63117692 64829768 67060820 69923264 
720.771 73532312 77993632 83387576 89751464 97065272 105237160 114097976 
724.146 123401176 132834312 142040656 150650176 158317600 164758880 
727.039 169781568 173298640 175325584 175961200 175357312 173688944 
729.931 171129056 167832800 163930880 159529312 154713312 149551408 
732.824 144100816 138412576 132537160 126528400 120448008 114364784 
735.717 108352944 102487432 96838176 91466536 86422056 81743728 77460608 
739.091 73594448 70160128 67165280 64608656 62479216 60755672 59408060 
742.466 58400644 57694728 57251668 57033984 57004932 57128480 57368784 
745.841 57691716 58067444 58472812 58894024 59327004 59776024 60250992 
749.216 60764216 61327080 61947816 62629744 63368932 64153888 64964244 
752.591 65771728 66542520 67241960 67839224 68311760 68647208 68841864 
755.966 68897360 68815288 68594944 68231400 67719432 67056448 66247000 
759.340 65304464 64249872 63107960 61903156 60655964 59382404 58094612 
762.715 56803320 55519796 54255860 53022800 51829128 50678696 49570672 
766.090 48500944 47464856 46459084 45483324 44539332 43629424 42755152 
769.465 41916300 41111712 40340228 39601296 38894956 38219188 37569468 
772.840 36936336 36307436 35670576 35018324 34351916 33682160 33027030 
776.214 32406076 31834476 31317980 30851894 30423146 30015990 29616854 
779.589 29217972 28817452 28416852 28017510 27617498 27211628 26793466 
782.964 26358158 25906564 25445212 24985904 24542150 24125986 23745598 
786.339 23405532 23107820 22853630 22644610 22482282 22366618 22293960 
789.714 22256118 22241882 22239016 22237672 22231824 22219270 22199626 
793.089 22170500 22124984 22051264 21935162 21764822 21536394 21256960 
796.463 20945796 20630392 20340310 20100756 19926888 19822396 19780634 
799.838 19788946 19833496 19903512 19992648 20098414 20219726 20353502 
803.213 20494490 20633336 20759028 20860868 20931116 20966266 20966734 
806.588 20936032 20878686 20798756 20699286 20582278 20449478 20303380 
809.963 20147644 19987066 19826656 19670816 19522932 19384398 19255422 
813.337 19135640 19025018 18924580 18836428 18763140 18707466 18671106 
816.712 18653986 18654178 18667784 18690078 18715758 18739912 18758926 
820.087 18770734 18775322 18775140 18774948 18781832 18804080 18850598 
823.462 18928922 19043676 19194892 19377918 19583182 19798780 20011916 
826.837 20211616 20390566 20545248 20675474 20783244 20870992 20941456 
830.212 20997476 21043632 21086766 21137300 21207470 21309930 21454494 
833.586 21645820 21883352 22160908 22469246 22799080 23143158 23498034 
836.961 23863310 24240482 24631750 25038830 25463674 25909058 26379652 
840.336 26882300 27425114 28015426 28657012 29349010 30084414 30851356 
843.711 31634226 32415506 33177316 33901668 34570532 35167012 35676188 
847.086 36087728 36398748 36615920 36757364 36850836 36930712 37034084 
850.460 37195304 37443500 37799848 38279416 38892476 39647624 40553752 
853.835 41620744 42858384 44274260 45870348 47641304 49572680 51641548 
857.210 53818824 56072268 58369184 60679616 62976772 65237032 67439688 
860.585 69566512 71601296 73531880 75351376 77058944 78659328 80160368 
863.960 81569976 82892848 84128568 85273184 86322264 87274984 88137776 
867.335 88925944 89660936 90366048 91059328 91747584 92422208 93056944 
870.709 93610280 94028536 94251760 94220048 93880032 93191504 92132640 
874.084 90703096 88925224 86841440 84508408 81990544 79351808 76649552 
877.459 73930744 71231176 68576920 65987364 63478464 61064628 58759572 
880.834 56575908 54524132 52613064 50849484 49239628 47789032 46502696 
884.209 45383940 44431976 43641304 43001472 42497844 42115492 41840792 
887.583 41663212 41575316 41569592 41636240 41760204 41920768 42093552 
890.958 42254388 42383584 42469160 42508284 42505620 42470184 42412160 
894.333 42340248 42260820 42178632 42097912 42023020 41958616 41907616 
897.708 41869756 41840820 41812732 41775712 41721208 41644396 41545488 
901.083 41429100 41302520 41173188 41047516 40930368 40826264 40740844 
904.458 40681528 40656260 40670900 40727168 40819864 40937920 41066676 
907.832 41192740 41308200 41413204 41515352 41626680 41758608 41917652 
911.207 42103860 42311472 42532400 42759868 42990932 43227080 43471316 
914.582 43725916 43988812 44253540 44511164 44752492 44972228 45169488 
917.957 45347852 45511996 45665424 45808200 45937424 46049644 46143176 
921.332 46220508 46288268 46355116 46428476 46511716 46603556 46699224 
924.706 46794152 46887568 46984668 47096556 47237656 47421000 47654876 
928.081 47939904 48269316 48631092 49011124 49396496 49776884 50145300 
931.456 50497132 50829184 51138340 51421764 51676988 51903128 52101208 
934.831 52273608 52424280 52556732 52673036 52772668 52852292 52906440 
938.206 52929040 52916368 52869428 52795956 52710820 52634516 52588928 
941.581 52592456 52655488 52776752 52944256 53139036 53340556 53534684 
944.955 53717832 53898816 54096344 54333492 54630828 55001252 55446736 
948.330 55959656 56525960 57129756 57756652 58395836 59039728 59682440 
951.705 60318324 60940504 61540400 62108204 62631944 63096456 63482048 
955.080 63763356 63910544 63891768 63678964 63253968 62613136 61769912 
958.455 60753944 59606180 58372220 57097060 55820180 54574184 53385092 
961.829 52273752 51256132 50343928 49542896 48852108 48264316 47766720 
965.204 47344652 46984768 46677624 46418996 46208528 46047792 45938004 
968.579 45878012 45864040 45890616 45951892 46042452 46157204 46291148 
971.954 46437796 46589628 46738040 46875312 46996640 47101636 47194664 
975.329 47283972 47379692 47491524 47627072 47790952 47984760 48207088 
978.703 48455028 48723172 49004636 49291176 49573824 49844280 50096392 
982.078 50328036 50541088 50742188 50940964 51148360 51374848 51628276 
985.453 51912584 52227376 52567848 52926100 53292980 53661084 54025668 
988.828 54387776 54753972 55134892 55541544 55982632 56460572 56971148 
992.203 57504456 58048412 58592924 59133608 59672884 60220040 60788364 
995.578 61391888 62042820 62750256 63519768 64354204 65253236 66213800 
998.952 67228752 68286720 69371888 70467264 71556936 72630448 73684776 
1002.327 74726072 75767928 76829232 77931080 79094376 80339560 81685680 
1005.702 83151392 84755656 86517488 88455864 90589448 92936976 95518288 
1009.077 98356088 101477144 104913392 108702400 112886296 117508760 
1011.970 122610664 128222912 134355936 140987328 148048288 155412800 
1014.862 162893600 170248112 177198656 183463104 188793248 193011744 
1017.755 196039520 197905648 198740608 198752080 198193728 197333360 
1020.648 196422592 195676864 195262144 195288896 195812784 196839872 
1023.540 198336336 200242176 202485920 204999072 207727008 210634864 
1026.433 213707264 216943696 220352640 223944672 227729120 231713472 
1029.326 235904496 240309168 244936640 249795632 254892912 260230176 
1032.219 265801520 271593760 277585728 283750880 290059136 296477408 
1035.113 302969888 309496576 316012576 322465600 328796864 334940800 
1038.006 340828704 346392448 351569184 356305888 360562272 364310816 
1040.899 367536352 370232128 372395808 374026848 375123616 375682944 
1043.792 375701088 375176128 374110400 372514688 370411232 367835456 
1046.685 364837376 361480448 357838400 353991488 350021568 346007168 
1049.578 342018912 338115136 334338816 330715520 327253216 323943360 
1052.471 320766592 317698528 314716608 311806784 308967520 306210624 
1055.364 303558496 301040768 298690656 296541408 294627488 292985504 
1058.257 291658240 290696480 290159680 290114816 290632192 291780896 
1061.150 293624800 296218144 299604832 303817600 308879200 314802368 
1064.043 321590464 329237216 337726272 347030400 357112192 367925952 
1066.936 379420288 391540608 404232128 417440256 431111424 445192384 
1069.829 459629568 474367456 489348544 504511776 519793024 535125248 
1072.722 550440960 565675136 580769344 595673728 610347584 624755520 
1075.615 638861952 652626816 666002816 678937984 691380672 703286784 
1078.509 714622528 725361408 735477120 744932800 753675584 761633472 
1081.402 768723584 774861248 779972672 784000384 786906752 788671552 
1084.295 789288768 788769216 787142784 784461056 780800320 776255872 
1087.188 770935040 764945984 758387968 751346496 743892864 736085888 
1090.081 727977664 719615744 711047040 702319104 693480384 684578752 
1092.974 675659520 666760384 657905984 649104384 640346304 631610048 
1095.867 622869760 614105408 605310144 596489408 587658432 578828800 
1098.760 570001536 561159808 552271616 543298112 534204832 524971232 
1101.653 515595808 506093696 496492256 486822784 477118496 467413888 
1104.546 457749664 448175808 438755712 429562560 420675904 412175104 
1107.439 404134944 396621280 389692640 383400288 377789376 372896512 
1110.332 368747648 365353088 362704352 360772640 359511456 358859712 
1113.225 358748576 359105984 359860704 360943968 362290784 363839904 
1116.118 365536160 367333088 369195200 371101088 373043072 375025152 
1119.011 377060000 379162944 381348416 383626176 385999072 388460800 
1121.905 390995168 393575136 396161984 398704960 401143360 403408928 
1124.798 405430336 407138112 408470496 409376768 409820704 409780480 
1127.691 409247872 408225152 406722400 404753696 402337056 399492512 
1130.584 396242592 392611200 388622112 384293344 379635072 374644768 
1133.477 369307616 363600224 357499168 350988096 344066304 336751808 
1136.370 329080224 321098592 312860064 304417184 295819872 287116960 
1139.263 278357856 269595872 260889120 252298688 243885520 235707424 
1142.156 227816128 220257072 213069664 206288000 199941664 194054224 
1145.049 188641872 183711920 179262176 175282800 171758464 168671968 
1147.942 166007504 163750880 161889984 160411968 159302144 158542112 
1150.835 158110192 157983504 158138640 158554032 159209008 160083296 
1153.728 161155360 162401152 163794864 165310592 166924976 168618864 
1156.621 170378768 172196400 174066896 175987200 177955712 179971952 
1159.514 182038704 184162192 186353824 188628496 191003968 193497472 
1162.407 196125392 198901856 201840096 204953232 208257360 211772544 
1165.301 215524368 219544192 223870000 228546320 233624576 239162256 
1168.194 245222144 251870368 259173808 267198000 276004320 285648736 
1171.087 296181632 307646656 320080608 333510688 347950816 363396480 
1173.980 379815776 397141728 415263104 434018144 453189536 472505728 
1176.873 491645888 510251168 527941888 544336064 559072768 571831936 
1179.766 582353920 590455936 596043328 599113024 599751616 598122688 
1182.659 594449984 588993600 582029056 573830400 564658112 554753728 
1185.552 544337792 533607840 522737376 511873792 501136288 490617536 
1188.445 480386272 470492576 460974528 451862976 443182784 434953408 
1191.338 427186176 419883200 413036928 406633184 400655616 395089760 
1194.231 389926688 385162080 380794400 376821184 373234720 370020160 
1197.124 367156192 364617216 362376480 360409632 358695936 357219680 
1200.017 355968608 354933024 354103776 353470528 353020224 352734848 
1202.910 352590752 352557824 352600352 352680576 352760608 352805216 
1205.803 352783904 352669856 352439616 352071648 351544864 350840992 
1208.697 349945472 348850880 347556192 346065600 344385280 342519424 
1211.590 340467904 338226176 335788160 333151040 330319520 327307776 
1214.483 324139456 320844000 317452640 313994336 310492768 306966816 
1217.376 303430592 299897120 296378880 292890048 289446080 286062912 
1220.269 282755936 279537120 276414208 273388928 270457120 267609120 
1223.162 264832736 262116112 259450464 256833760 254270640 251771536 
1226.055 249349728 247018288 244786560 242659152 240635072 238710048 
1228.948 236878320 235134848 233477216 231906352 230426736 229047248 
1231.841 227780048 226640272 225643968 224805936 224137104 223641904 
1234.734 223318448 223160208 223158464 223307152 223604816 224055760 
1237.627 224668048 225448752 226399600 227512560 228769648 230144848 
1240.520 231607936 233128960 234681680 236244304 237798832 239328992 
1243.413 240818160 242248384 243601632 244859456 246005664 247026480 
1246.306 247911616 248655712 249258992 249729312 250083296 250345952 
1249.199 250549072 250727472 250914160 251136176 251412000 251751632 
1252.093 252157600 252628768 253162080 253754912 254404512 255107456 
1254.986 255859792 256657040 257495856 258376352 259302704 260282960 
1257.879 261326400 262440320 263625232 264874160 266171600 267497120 
1260.772 268828864 270148192 271441920 272702240 273925152 275105696 
1263.665 276234432 277294656 278260768 279100224 279775264 280247552 
1266.558 280481568 280447328 280122528 279492512 278550624 277296864 
1269.451 275735392 273873472 271719552 269282272 266569968 263591440 
1272.344 260357104 256881088 253182048 249284528 245217968 241013728 
1275.237 236703504 232315808 227875248 223400912 218908880 214413040 
1278.130 209926368 205462288 201033856 196653776 192333696 188084464 
1281.023 183916512 179840688 175868992 172014128 168289408 164706272 
1283.916 161273728 157997168 154878000 151915072 149105616 146446736 
1286.809 143936832 141575952 139365152 137306672 135401776 133650544 
1289.702 132049648 130593048 129271312 128072408 126982704 125988872 
1292.595 125078704 124242672 123474112 122769080 122125608 121541920 
1295.489 121015224 120540880 120111864 119720160 119357464 119016720 
1298.382 118694328 118389360 118103968 117842000 117607136 117401392 
1301.275 117224000 117071408 116936872 116812304 116688456 116556104 
1304.168 116406432 116231944 116026176 115784720 115505304 115187624 
1307.061 114833408 114446016 114029280 113586680 113120200 112629440 
1309.954 112110824 111557736 110961016 110309984 109594872 108808320 
1312.847 107948416 107020000 106035104 105012920 103976144 102948336 
1315.740 101951088 101000456 100107312 99276656 98509664 97804960 97160384 
1319.115 96571688 96032568 95533552 95061712 94602680 94142840 93674104 
1322.490 93195752 92716072 92250456 91818184 91437136 91119816 90871064 
1325.866 90688136 90562288 90483424 90442520 90434312 90458944 90520880 
1329.241 90629216 90795096 91031584 91351952 91767640 92287024 92913008 
1332.616 93642256 94464840 95365432 96325880 97327616 98354016 99391248 
1335.991 100428800 101457872 102470336 103457672 104410624 105319968 
1338.885 106177752 106979080 107722752 108413136 109058896 109673592 
1341.778 110274472 110881856 111517568 112203360 112959472 113802536 
1344.671 114743640 115787576 116933880 118176920 119509480 120924560 
1347.564 122417040 123984520 125625760 127339288 129120904 130961032 
1350.457 132844968 134753488 136664048 138553856 140401360 142188016 
1353.350 143897680 145517408 147035504 148442128 149728544 150887696 
1356.243 151913712 152802560 153551040 154158016 154625408 154959536 
1359.136 155171808 155280160 155306864 155276368 155211696 155130624 
1362.029 155044400 154956448 154864736 154763408 154644192 154496752 
1364.922 154306976 154055248 153715920 153256528 152642384 151840512 
1367.815 150825808 149585280 148120944 146450912 144608192 142638704 
1370.708 140601088 138564784 136610320 134827408 133311984 132160960 
1373.601 131464320 131296664 131708112 132717904 134310960 136438432 
1376.494 139021200 141956672 145125600 148401056 151655824 154770128 
1379.387 157638448 160172176 162301280 163972704 165148656 165803616 
1382.281 165923456 165504896 164555376 163092928 161144560 158745504 
1385.174 155937248 152766368 149284224 145545696 141606576 137521936 
1388.067 133342016 129109456 124858552 120615136 116398104 112222160 
1390.960 108100200 104044760 100070352 96193240 92431608 88805256 85334968 
1394.335 82040376 78939136 76045368 73368704 70914880 68686144 66681944 
1397.710 64899252 63331984 61970976 60804092 59816924 58994940 58326604 
1401.085 57805328 57430844 57209028 57149632 57263900 57560012 58041308 
1404.461 58702224 59527068 60488388 61546644 62649572 63734660 64731552 
1407.836 65567344 66173004 66490428 66479036 66120700 65421572 64411492 
1411.211 63139140 61666508 60061744 58393032 56723024 55105304 53580828 
1414.586 52177736 50910048 49779532 48778308 47892108 47105088 46402980 
1417.962 45776532 45221364 44738124 44329084 43995868 43737284 43548408 
1421.337 43421336 43347368 43317184 43324128 43361980 43425648 43508644 
1424.712 43603708 43702228 43796148 43880496 43955052 44026556 44107660 
1428.087 44217268 44377028 44609776 44936892 45375688 45939672 46636260 
1431.463 47468672 48435584 49534400 50762904 52121912 53617428 55260568 
1434.838 57065808 59049308 61225328 63605220 66197968 69012952 72062872 
1438.213 75365480 78943264 82819952 87014384 91535592 96378168 101521856 
1441.588 106932568 112565912 118369328 124284608 130248576 136194016 
1444.481 142052096 147755536 153241840 158455712 163350432 167886704 
1447.375 172033056 175765312 179069360 181941904 184390912 186432416 
1450.268 188085744 189367808 190288784 190852032 191056384 190899216 
1453.161 190378688 189493888 188242368 186618128 184611728 182213328 
1456.054 179418816 176235952 172685680 168801520 164622848 160189296 
1458.947 155535664 150693312 145692000 140564096 135346064 130077736 
1461.840 124798216 119542656 114340512 109216000 104190976 99287432 94529248 
1465.215 89940920 85544992 81359912 77398144 73667184 70171464 66913268 
1468.590 63894020 61112216 58562608 56234036 54109184 52166768 50383620 
1471.966 48738132 47212572 45793868 44472988 43242832 42097164 41027704 
1475.341 40025236 39078752 38177408 37311256 36472056 35654328 34854308 
1478.716 34071060 33304684 32556382 31827650 31119670 30432460 29765088 
1482.091 29115554 28481416 27860226 27251192 26654950 26073790 25510906 
1485.467 24970770 24456924 23971578 23515368 23088346 22689824 22320448 
1488.842 21981664 21676520 21408158 21177800 20984310 20822542 20683722 
1492.217 20558264 20437444 20316202 20195986 20083672 19991116 19931770 
1495.592 19917862 19956996 20051022 20196282 20386610 20615480 20879996 
1498.968 21182184 21528496 21928548 22390474 22916880 23500346 24121194 
1502.343 24747048 25335834 25839590 26211770 26414296 26423694 26235842 
1505.718 25866702 25350240 24731626 24059380 23378086 22721596 22112452 
1509.093 21562192 21075006 20650712 20287032 19980400 19725638 19514880 
1512.469 19338590 19185036 19043040 18904028 18763200 18620350 18479294 
1515.844 18345878 18226394 18125352 18045078 17986110 17946952 17925864 
1519.219 17920128 17926796 17942160 17961158 17978196 17987672 17985962 
1522.594 17972220 17948976 17921258 17895124 17875462 17864294 17860026 
1525.969 17858190 17852974 17839122 17813670 17777328 17732430 17683606 
1529.345 17633920 17585660 17538464 17491710 17443778 17393940 17342302 
1532.720 17288860 17233250 17174116 17108894 17035552 16953400 16864944 
1536.095 16775766 16693903 16627347 16582057 16560199 16559536 16574135 
1539.470 16596690 16620979 16644392 16667396 16692666 16723236 16760008 
1542.846 16800368 16838810 16867306 16878030 16864460 16822994 16753362 
1546.221 16658166 16542124 16411841 16274463 16138235 16010934 15899923 
1549.596 15810199 15744403 15701337 15677445 15666535 15662404 15660057 
1552.971 15656494 15650820 15643556 15635550 15626164 15613445 15594282 
1556.347 15565765 15525775 15475516 15419106 15362926 15314902 15282014 
1559.722 15268083 15272855 15293124 15322714 15355710 15387928 15418150 
1563.097 15448287 15482839 15526157 15581755 15649909 15727293 15807701 
1566.472 15884446 15951574 16006881 16052760 16095527 16143961 16207332 
1569.848 16292162 16401354 16533818 16685430 16851098 17026406 17209074 
1573.223 17398314 17594030 17795218 17998832 18199350 18389966 18563410 
1576.598 18714184 18838868 18935536 19003088 19039492 19041540 19005600 
1579.973 18929546 18814648 18666916 18497434 18320080 18148534 17993342 
1583.349 17860058 17748800 17655906 17576484 17506832 17445118 17391718 
1586.724 17347294 17312012 17283448 17257186 17228480 17193224 17150166 
1590.099 17100930 17049446 17000584 16958878 16927096 16905780 16894836 
1593.474 16893456 16901330 16919054 16946912 16985244 17033242 17089994 
1596.850 17154052 17225148 17304704 17395332 17501452 17627106 17775692 
1600.225 17948878 18146538 18368224 18611690 18875948 19159942 19463276 
1603.600 19785392 20125298 20480944 20848754 21223556 21598554 21964572 
1606.975 22311696 22628936 22906914 23138004 23318368 23448040 23530418 
1610.351 23571012 23576086 23550732 23497962 23419260 23315324 23186586 
1613.726 23035028 22864130 22679132 22486058 22291378 22100890 21919732 
1617.101 21752052 21601558 21471178 21363576 21279974 21220000 21181344 
1620.476 21159538 21148956 21144340 21141156 21137528 21133724 21132134 
1623.852 21135192 21145128 21162278 21186148 21215192 21248470 21285764 
1627.227 21328134 21376532 21430852 21489094 21546984 21598284 21637864 
1630.602 21662200 21672058 21672444 21671658 21678728 21701200 21742148 
1633.977 21799702 21866616 21932734 21987712 22024046 22039492 22037700 
1637.353 22026678 22016822 22017088 22033426 22065676 22109658 22157476 
1640.728 22200892 22233894 22255972 22271098 22287122 22313044 22355722 
1644.103 22417252 22494678 22581490 22669426 22751506 22824178 22887936 
1647.478 22946096 23002596 23060768 23121570 23184660 23249258 23315534 
1650.854 23385124 23461600 23548080 23646888 23757080 23875224 23995374 
1654.229 24111812 24219878 24318490 24408822 24495638 24584836 24684378 
1657.604 24801550 24943138 25114258 25316874 25549852 25808798 26087028 
1660.979 26376538 26669684 26961062 27247160 27527866 27804936 28082088 
1664.354 28363626 28655240 28962578 29291708 29647626 30032864 30447728 
1667.730 30889114 31351556 31829278 32316826 32811624 33312358 33819332 
1671.105 34331580 34846788 35360604 35868304 36366560 36854624 37334408 
1674.480 37809676 38283872 38758872 39234484 39710020 40186000 40666132 
1677.855 41156708 41665012 42196340 42751344 43324548 43905892 44484404 
1681.231 45051108 45602960 46142392 46675556 47209924 47751148 48302668 
1684.606 48866336 49444772 50043048 50669120 51332432 52041160 52800456 
1687.981 53611228 54471288 55377340 56326988 57319656 58355700 59436468 
1691.356 60562464 61735580 62959380 64243324 65603212 67060552 68638552 
1694.732 70357480 72229792 74259392 76445240 78788248 81298776 84002928 
1698.107 86942072 90168808 93737384 97696576 102082696 106921040 112230856 
1701.482 118035400 124370864 131290880 138865648 147175520 156302224 
1704.375 166319840 177288448 189248864 202220304 216198288 231151856 
1707.268 247022944 263725872 281154368 299191328 317718432 336622848 
1710.161 355794784 375115232 394439296 413580320 432309184 450362560 
1713.054 467467680 483369984 497858400 510783200 522065824 531702400 
1715.948 539765248 546397888 551800256 556203840 559835968 562885184 
1718.841 565480832 567687424 569521664 570977600 572050176 572748416 
1721.734 573096256 573123904 572858048 572319680 571529280 570515840 
1724.627 569325952 568020736 566667776 565325696 564031680 562796992 
1727.520 561614464 560470528 559358208 558285248 557271680 556341312 
1730.413 555514624 554803712 554216640 553765056 553471936 553374528 
1733.306 553521728 553965696 554754304 555929600 557533248 559615296 
1736.199 562244160 565507392 569504128 574332032 580071104 586771712 
1739.092 594454720 603117824 612748608 623335552 634869888 647338368 
1741.985 660710720 674924352 689880576 705442432 721449152 737722176 
1744.878 754073344 770303040 786197952 801529280 816060736 829561344 
1747.771 841821504 852664256 861948800 869563136 875420736 879457920 
1750.664 881640000 881969216 880488000 877265280 872377024 865880640 
1753.557 857801280 848133312 836863296 823998208 809594752 793770816 
1756.450 776702080 758601408 739692544 720187264 700275200 680118592 
1759.344 659858112 639617600 619508800 599632768 580080960 560937728 
1762.237 542279104 524173792 506680320 489841568 473681760 458203104 
1765.130 443388928 429208448 415626208 402609472 390133600 378182752 
1768.023 366745856 355811648 345364704 335382240 325836064 316694304 
1770.916 307924704 299494464 291369088 283512032 275883456 268440384 
1773.809 261141456 253949488 246835120 239777072 232761808 225778896 
1776.702 218819792 211874928 204935344 197994304 191051616 184114256 
1779.595 177198640 170327984 163529888 156831712 150257696 143828272 
1782.488 137559616 131465288 125558496 119852872 114363136 109103272 
1785.381 104085704 99320336 94813408 90567576 86582200 82852368 79369480 
1788.756 76120240 73088680 70257128 67609592 65134488 62824272 60675740 
1792.132 58687308 56855004 55170516 53620964 52190020 50861244 49621076 
1795.507 48459280 47369828 46347656 45388332 44485732 43632856 42823400 
1798.882 42052976 41319628 40624784 39969424 39354120 38776368 38230896 
1802.257 37709952 37205500 36710624 36220692 35733680 35251416 34777268 
1805.633 34317336 33878248 33466220 33085298 32736198 32414730 32114136 
1809.008 31824422 31537224 31244484 30941716 30624992 30290208 29931066 
1812.383 29540106 29110492 28641386 28140112 27625756 27126844 26676202 
1815.758 26303582 26028208 25852236 25760244 25722278 25702090 25664898 
1819.134 25586342 25455016 25273640 25053914 24812716 24565302 24322318 
1822.509 24089114 23865006 23646016 23428894 23210846 22993740 22782246 
1825.884 22582582 22399666 22235688 22087342 21946970 21802756 21643048 
1829.259 21456822 21236978 20979722 20685936 20359172 20007044 19640204 
1832.635 19273216 18922814 18606026 18336084 18120190 17955604 17831636 
1836.010 17731570 17637928 17536474 17420106 17286766 17139686 16981850 
1839.385 16816120 16643487 16465951 16286554 16112018 15950194 15808238 
1842.760 15687400 15583331 15484638 15377994 15251124 15097232 14917245 
1846.135 14717395 14506958 14296593 14095644 13914077 13761926 13650851 
1849.511 13590089 13583033 13622679 13690415 13757316 13791983 13767791 
1852.886 13672083 13508268 13294567 13057396 12822107 12607117 12422360 
1856.261 12268271 12142483 12041135 11962483 11903103 11858319 11817203 
1859.636 11767499 11697200 11601542 11486392 11367946 11267783 11205686 
1863.012 11191564 11221819 11279766 11341884 11385108 11394758 11365979 
1866.387 11303511 11216302 11114319 11003887 10888834 10772543 10661669 
1869.762 10565125 10495220 10461132 10466404 10503399 10554930 10596432 
1873.137 10602808 10553589 10438429 10259449 10030597 9774524 9518966 
1876.513 9293729 9126801 9041018 9052023 9163352 9364987 9631101 9924358 
1880.370 10199321 10414485 10539011 10564450 10504236 10393322 10273708 
1883.745 10185207 10150708 10172021 10227115 10281862 10299552 10253825 
1887.121 10135654 9954701 9730711 9489831 9252124 9032154 8837703 8675290 
1890.978 8550939 8472638 8445981 8469545 8529559 8602855 8659578 8674723 
1894.835 8633851 8539280 8406277 8258694 8117664 7997340 7899890 7822909 
1898.693 7760247 7711150 7677593 7665118 7676152 7709634 7759224 7819592 
1902.550 7887440 7966595 8062418 8177986 8305226 8424388 8504845 8520076 
1906.408 8457076 8326653 8162485 8013075 7922087 7913937 7982998 8098103 
1910.265 8211811 8280957 8280040 8210033 8094443 7969724 7870492 7823895 
1914.123 7839760 7914739 8034160 8176667 8312277 8408656 8430790 8355194 
1917.980 8173737 7905979 7595120 7301157 7079514 6964125 6951178 7002416 
1921.837 7053746 7042606 6929442 6716598 6442421 6173207 5973630 5887180 
1925.695 5919626 6042720 6205250 6353801 6445620 6459657 6392630 6254290 
1929.552 6054982 5803915 5508693 5180467 4837015 4507820 4227560 4035281 
1933.410 3960337 4023966 4231586 4577413 5042113 5597171 6203992 6816920 
1937.267 7382354 7847025 8163865 8302374 8251557 8030256 7680254 7266534 
1941.125 6861889 6538726 6351860 6329898 6465941 6721366 7029147 7313274 
1944.982 7499585 7540334 7419068 7157070 6798583 6404052 6027128 5711468 
1948.839 5477718 5331589 5261400 5247356 5256587 5245007 5157426 4934671 
1952.697 4524388 3903046 3088038 2149944 1197444 364257 -226164 -488393 
1956.554 -398907 583 612604 1311973 1972586 2504421 2870593 3098597 3262024 
1960.894 3465419 3802507 4331688 5043191 5860140 6638279 7202257 7378430 
1964.751 7047266 6171993 4823508 3166830 1440293 -93588 -1190896 -1680019 
1968.609 -1485443 -646161 695267 2300758 3887293 5156747 5859085 5830914 
1972.466 5037789 3575662 1664935 -396628 -2282548 -3701826 -4426492 -4336453 
1976.323 -3405290 -1694879 658520 3449121 6431300 9319735 11848432 13791261 
1980.181 15016069 15488113 15283190 14550593 13485790 12274059 11058657 
1983.556 9908071 8820427 7751079 6647746 5479946 4270774 3083385 2012192 
1987.414 1147766 562726 295455 355515 719924 1347954 2171482 3106272 4043852 
1991.753 4866491 5463304 5753961 5702237 5332537 4711800 3939630 3107404 
1995.611 2288967 1522450 826359 207591 -312329 -695938 -887559 -843508 
1999.468 -548022 -36311 606931 1251359 1757429 2000204 1904006 1455409 
2003.325 708244 -232204 -1224480 -2122613 -2789881 -3131831 -3099468 
2006.701 -2711366 -2037192 -1190007 -296162 522246 1175894 1610989 1818705 
2010.558 1820009 1669426 1430139 1179657 981792 887487 910137 1028592 
2014.416 1178530 1277954 1251378 1071371 768342 446888 247269 300561 659722 
2018.755 1267339 1945330 2438337 2491476 1938806 763611 -874952 -2696413 
2022.613 -4370685 -5618881 -6288483 -6377268 -5997460 -5320587 -4493388 
2025.988 -3600970 -2644900 -1586850 -387708 930061 2267749 3455036 4299494 
2029.845 4633558 4367583 3509524 2168090 518430 -1218030 -2815160 -4071799 
2033.703 -4845625 -5070689 -4777523 -4087406 -3197257 -2331489 -1705866 
2037.078 -1467368 -1675275 -2282647 -3161826 -4129515 -5007985 -5654199 
2040.453 -6002157 -6060395 -5919268 -5701692 -5539573 -5521847 -5669136 
2043.828 -5916706 -6130018 -6131127 -5755216 -4888232 -3505357 -1677189 
2047.204 435770 2624030 4665080 6365930 7589057 8268606 8404799 8053977 
2051.061 7308316 6296193 5162879 4070506 3169734 2577811 2346876 2448099 
2054.918 2776845 3190610 3553331 3785810 3877383 3886438 3895977 3980868 
2058.776 4169075 4441883 4746046 5033430 5280174 5507379 5760872 6085335 
2062.633 6488537 6933438 7342712 7632826 7746514 7681661 7487376 7249361 
2066.491 7049736 6941363 6931937 6989898 7066122 7118137 7121731 7076455 
2070.348 6988506 6865055 6704780 6510095 6295101 6099491 5981964 6006111 
2074.206 6210514 6588357 7076225 7571375 7954527 8133257 8065079 7765297 
2078.063 7296515 6742761 6183959 5679462 5263459 4954325 4764362 4707232 
2081.920 4791533 5014419 5348596 5740566 6116483 6401473 6537363 6500741 
2085.778 6306049 6003731 5661228 5349305 5121512 5007202 5005157 5090325 
2089.635 5217041 5331920 5386522 5351593 5223528 5032063 4830722 4684398 
2093.493 4645388 4736350 4938291 5195517 5431490 5579524 5603031 5510864 
2097.350 5347225 5176338 5052732 5005157 5026588 5083569 5131480 5136578 
2101.208 5087211 5001064 4914814 4878330 4933393 5109869 5414503 5833408 
2105.065 6331349 6860572 7366075 7797539 8113393 8294204 8339656 8270720 
2108.922 8114828 7905174 7666850 7420092 7179491 6961961 6788157 6681770 
2112.780 6660590 6727632 6862302 7024156 7160692 7223914 7186068 7048793 
2116.637 6837991 6593302 6347223 6114026 5880358 5616621 5288919 4881597 
2120.495 4403746 3894240 3407923 2999510 2701813 2517693 2416544 2344990 
2124.352 2238836 2043034 1721883 1268799 706235 82729 -541695 -1105287 
2128.209 -1564686 -1904632 -2147698 -2347808 -2578087 -2905814 -3369713 
2131.585 -3962570 -4631371 -5289946 -5849408 -6243517 -6453978 -6509511 
2134.960 -6476843 -6423010 -6401197 -6427667 -6495490 -6583869 -6685993 
2138.335 -6811643 -6989518 -7243964 -7585934 -7990577 -8406825 -8767769 
2141.710 -9018831 -9128892 -9104514 -8977453 -8796354 -8605285 -8442111 
2145.086 -8330328 -8295282 -8356623 -8534273 -8832542 -9235191 -9699762 
2148.461 -10172266 -10604830 -10992629 -11375304 -11841856 -12483700 
2151.354 -13367006 -14481208 -15741361 -16999274 -18114024 -19006674 
2154.247 -19714536 -20388788 -21267342 -22569614 -24404106 -26679102 
2157.140 -29076842 -31096274 -32189306 -31928406 -30177750 -27135724 
2160.033 -23280038 -19185968 -15360205 -12133983 -9636994 -7842494 -6639173 
2163.408 -5877717 -5423717 -5162940 -5029332 -4984637 -5038138 -5229569 
2166.784 -5619741 -6261756 -7176936 -8319950 -9580595 -10787685 -11750571 
2170.159 -12306411 -12378211 -11986496 -11252385 -10354025 -9475498 -8749137 
2173.534 -8230583 -7901176 -7706003 -7595130 -7569357 -7678378 -8006828 
2176.909 -8623022 -9528094 -10627659 -11743828 -12642875 -13104893 -12972591 
2180.285 -12212302 -10911803 -9279649 -7584998 -6102884 -5046319 -4527311 
2183.660 -4532272 -4947372 -5578011 -6200886 -6603028 -6630451 -6207941 
2187.035 -5361618 -4205238 -2922059 -1716919 -770848 -197436 -25539 -189324 
2190.893 -560223 -978650 -1303455 -1437782 -1356629 -1093695 -731439 -367432 
2194.750 -94163 24947 -42993 -296107 -711822 -1241543 -1826654 -2395028 
2198.607 -2868540 -3170876 -3249288 -3079051 -2680080 -2109205 -1455734 
2201.983 -808236 -240998 210011 545499 796985 1006241 1209562 1420260 
2205.840 1635856 1839362 2019773 2170463 2300419 2416659 2523278 2610506 
2209.698 2662905 2668112 2633734 2589351 2586830 2676982 2897540 3247282 
2213.555 3686970 4152245 4578138 4921192 5179497 5384452 5590868 5840797 
2217.412 6154925 6510352 6858437 7133325 7281191 7267136 7089880 6771485 
2221.270 6353114 5883568 5415675 4998661 4674609 4470572 4391737 4413865 
2225.127 4495996 4582615 4635853 4639748 4619919 4623366 4707000 4901984 
2228.985 5202075 5553498 5878438 6095867 6155130 6053568 5834646 5566729 
2232.842 5327112 5172401 5131554 5207382 5389340 5662733 6017040 6439495 
2236.699 6912170 7402979 7872944 8280062 8594655 8804901 8917920 8946955 
2240.557 8904081 8787383 8586658 8289536 7900543 7450805 7002504 6631015 
2244.414 6407855 6377937 6547583 6881802 7318481 7785706 8221891 8579714 
2248.272 8834383 8975227 9006785 8942366 8807507 8636044 8470031 8347236 
2252.129 8294462 8314154 8386630 8474733 8537868 8546024 8492908 8392438 
2255.987 8274899 8173607 8116088 8116011 8176733 8291438 8452177 8644876 
2259.844 8851824 9048395 9206373 9296296 9303346 9228910 9099888 8956299 
2263.701 8845516 8804481 8852765 8985972 9188047 9436488 9714294 10013619 
2267.559 10332291 10664948 10999149 11309420 11566661 11747430 11844402 
2270.934 11872658 11868704 11878155 11946593 12100517 12344901 12658582 
2274.309 13003337 13330940 13596036 13764741 13821267 13768584 13628977 
2277.685 13436395 13231223 13049339 12919355 12855057 12860914 12930999 
2281.060 13058090 13234429 13454560 13711021 13992124 14278566 14546934 
2284.435 14772922 14939338 15040042 15081740 15077614 15042792 14983797 
2287.810 14901542 14788400 14639283 14454722 14246109 14032063 13832750 
2291.186 13661943 13523805 13411184 13314383 13224790 13144021 13078855 
2294.561 13038701 13024955 13026150 13017479 12969027 12858576 12680937 
2297.936 12454763 12218063 12015854 11886916 11850082 11899613 12009732 
2301.311 12146069 12277616 12386762 12471779 12544476 12620608 12714869 
2304.687 12833696 12975251 13131747 13292357 13446474 13587039 13707529 
2308.062 13804047 13873779 13916703 13934661 13933457 13922160 13911014 
2311.437 13910110 13928004 13969129 14033585 14118593 14219578 14331584 
2314.812 14452827 14585651 14736768 14914446 15125581 15369818 15638314 
2318.188 15911827 16169520 16396303 16592441 16776817 16984134 17250088 
2321.563 17593394 17998436 18407642 18730304 18863600 18722076 18262548 
2324.938 17499046 16498489 15367211 14225168 13180248 12308305 11643570 
2328.313 11179280 10880109 10699525 10592451 10528722 10490014 10469395 
2331.688 10464537 10472788 10490571 10515080 10546001 10586004 10639856 
2335.064 10709526 10793229 10884481 10972650 11047317 11101977 11134886 
2338.439 11147835 11144495 11127514 11095790 11045085 10971388 10871245 
2341.814 10745425 10598084 10437136 10271910 10113154 9970671 9854896 
2345.189 9773607 9731518 9727476 9754436 9800879 9853863 9902704 9944969 
2349.047 9984499 10031828 10094435 10173663 10258912 10329641 10361120 
2352.422 10333877 10242366 10099245 9932067 9775871 9660827 9604591 9606477 
2356.280 9650213 9710125 9761943 9787047 9779581 9741345 9679814 9601138 
2360.137 9508306 9400288 9273136 9124630 8953980 8763080 8556819 8341042 
2363.994 8123092 7912598 7722510 7567589 7464111 7425040 7456330 7553059 
2367.852 7698521 7868021 8033108 8168772 8258762 8297728 8291418 8253110 
2371.709 8199182 8145791 8104343 8082374 8082193 8103179 8143760 8201967 
2375.567 8277973 8372743 8488757 8626908 8784675 8954449 9123129 9275119 
2379.424 9394974 9472949 9507820 9507360 9486830 9460478 9439532 9426065 
2383.281 9413391 9390349 9348645 9287473 9217907 9160119 9137165 9166694 
2387.139 9255445 9395005 9565307 9740734 9897402 10019461 10101279 10144187 
2390.996 10154554 10135237 10087426 10006780 9889689 9735342 9551259 9350004 
2394.854 9151666 8976663 8844127 8765997 8748142 8789631 8885699 9029182 
2398.711 9211306 9422732 9653463 9889313 10112942 10303362 10438678 10500019 
2402.569 10476960 10371304 10201440 9999449 9807148 9667238 9613113 9659530 
2406.426 9800206 10005605 10232793 10434576 10570783 10618370 10574774 
2409.801 10456158 10294042 10124787 9984042 9897869 9879193 9926842 10025042 
2413.659 10149048 10270209 10362505 10409345 10407706 10367905 10309977 
2417.034 10257122 10225441 10219553 10229681 10236900 10220647 10168686 
2420.409 10083344 9982510 9892821 9839957 9836082 9875394 9932554 9972713 
2424.267 9961236 9879606 9731527 9543994 9359016 9222334 9167707 9209041 
2428.124 9335611 9517376 9713297 9882756 9995819 10039184 10014016 9935490 
2431.981 9822861 9696291 9570743 9455407 9355417 9273784 9211900 9171969 
2435.839 9154085 9155571 9167318 9177523 9171028 9136091 9067973 8972365 
2439.696 8864582 8766794 8700036 8680472 8711957 8787672 8891986 9006798 
2443.554 9116522 9214621 9301079 9382841 9468154 9561438 9660494 9756566 
2447.411 9836892 9889828 9907741 9891185 9848983 9796119 9748968 9721877 
2451.269 9721825 9748903 9795017 9848530 9896734 9930190 9944615 9940905 
2455.126 9921511 9889215 9842454 9777193 9687674 9570934 9429758 9276387 
2458.983 9128480 9006585 8925669 8889769 8889128 8904273 8910951 8889581 
2462.841 8831423 8743540 8644109 8557403 8505655 8501555 8545793 8628761 
2466.698 8733601 8843441 8943930 9025914 9083026 9112355 9110588 9076627 
2470.556 9011783 8924132 8827124 8740409 8683147 8671292 8708097 8785322 
2474.413 8880274 8964439 9008694 8992830 8911104 8775410 8608402 8440941 
2478.271 8298764 8198336 8139509 8111045 8095400 8077598 8052994 8030868 
2482.128 8029943 8072192 8172485 8331366 8533218 8751868 8957528 9129836 
2485.985 9261445 9361126 9444982 9530534 9623947 9718980 9796666 9833855 
2489.843 9813032 9730591 9599000 9445307 9303318 9205262 9170644 9205408 
2493.700 9297685 9423016 9547405 9636908 9662964 9609426 9477766 9287990 
2497.558 9075141 8883117 8750215 8701992 8740652 8848219 8989586 9128266 
2501.415 9235838 9303415 9339578 9365885 9403076 9463044 9540617 9617803 
2505.272 9668814 9673605 9623691 9526928 9402147 9274568 9165558 9090292 
2509.130 9055072 9061927 9107947 9190893 9304588 9438229 9573448 9688074 
2512.987 9759910 9776151 9738444 9665673 9589853 9546881 9565023 9656433 
2516.845 9812416 10007367 10205711 10374513 10490242 10544752 10543566 
2520.220 10504443 10447599 10394783 10362863 10363325 10401336 10475145 
2523.595 10577351 10695059 10810036 10903692 10957326 10957474 10899284 
2526.970 10787467 10635459 10463790 10294622 10148079 10037865 9969826 
2530.346 9940594 9940625 9958430 9984029 10011330 10041943 10081378 10137266 
2534.203 10212665 10304799 10401723 10487157 10542681 10557921 10531073 
2537.578 10473743 10404170 10343404 10306139 10297054 10307249 10323139 
2540.954 10327564 10312014 10278351 10239406 10212948 10214629 10250762 
2544.329 10315413 10391158 10457142 10496589 10503774 10486085 10461319 
2547.704 10449922 10466984 10514486 10581959 10648184 10691572 10696067 
2551.079 10659858 10594015 10519874 10458427 10425224 10423180 10444538 
2554.455 10473935 10497359 10507204 10506537 10504755 10515886 10548409 
2557.830 10603869 10674587 10749102 10816712 10873389 10923322 10976704 
2561.205 11042961 11126390 11219805 11308629 11373729 11401611 11389164 
2564.580 11347356 11296259 11260345 11255762 11285191 11335340 11383274 
2567.956 11402600 11376546 11303617 11200313 11094484 11018726 10997309 
2571.331 11040068 11137322 11266124 11396195 11500401 11561230 11577012 
2574.706 11557803 11523503 11494536 11486512 11507119 11554219 11619112 
2578.081 11692666 11765990 11835460 11902110 11970858 12045082 12127203 
2581.457 12212643 12292503 12353536 12384137 12374506 12323063 12237585 
2584.832 12134419 12034861 11963326 11939143 11973853 12066886 12208063 
2588.207 12376273 12549510 12704017 12823793 12899875 12932059 12925260 
2591.582 12889970 12836079 12774609 12714861 12665777 12634584 12627544 
2594.958 12646670 12689199 12746616 12805973 12851253 12871047 12860378 
2598.333 12823929 12777455 12742285 12740205 12787268 12886116 13027728 
2601.708 13190341 13348060 13474619 13553927 13581056 13562615 13514034 
2605.083 13452863 13392803 13342422 13300764 13263371 13223084 13176136 
2608.458 13124099 13074324 13037382 13025272 13046138 13103588 13193363 
2611.834 13305938 13425659 13535539 13618388 13661833 13659794 13615578 
2615.209 13540838 13456248 13383827 13344098 13348398 13398334 13482080 
2618.584 13580967 13674887 13748820 13797569 13825945 13844837 13866288 
2621.959 13895744 13931638 13963844 13982952 13982795 13966790 13949462 
2625.335 13950703 13989196 14075807 14208097 14371921 14544202 14701926 
2628.710 14827087 14911966 14957163 14970765 14962293 14940571 14911152 
2632.085 14878015 14844690 14816033 14798153 14797147 14816921 14858196 
2635.460 14916643 14986710 15059721 15128778 15188394 15233152 15259500 
2638.836 15265476 15249302 15213711 15163922 15109688 15062170 15032817 
2642.211 15028732 15052587 15097924 15155172 15209600 15248958 15262660 
2645.586 15246877 15203194 15138614 15062110 14985223 14916937 14864629 
2648.961 14829550 14809575 14797595 14785522 14765170 14732264 14686089 
2652.337 14631619 14575528 14526187 14487957 14462449 14444681 14427614 
2655.712 14403241 14363885 14306067 14229426 14136894 14032658 13920991 
2659.087 13806532 13692309 13581089 13475277 13376126 13285153 13201649 
2662.462 13123827 13048573 12971865 12890495 12801603 12704024 12599635 
2665.838 12492091 12386303 12287902 12201168 12128076 12067468 12015059 
2669.213 11964243 11907957 11840569 11760023 11668368 11570697 11473889 
2672.588 11385194 11308994 11247528 11200983 11168555 11149450 11144034 
2675.963 11152755 11175802 11211757 11257664 11308161 11358316 11403650 
2679.339 11442100 11472584 11496620 11516448 11535657 11558012 11587555 
2682.714 11627163 11678369 11738756 11801774 11856457 11890135 11891999 
2686.089 11857541 11790254 11702801 11612625 11538884 11495075 11485890 
2689.464 11506667 11545632 11586053 11614062 11618395 11593183 11537330 
2692.840 11453442 11345650 11222150 11093481 10973972 10878320 10819867 
2696.215 10805845 10834198 10893499 10965816 11030942 11072445 11082098 
2699.590 11061685 11020675 10972337 10929400 10902353 10894629 10907509 
2702.965 10938199 10983909 11039946 11101793 11162670 11217055 11257610 
2706.341 11281618 11289241 11284460 11273697 11262658 11252614 11240479 
2709.716 11217100 11172501 11099238 10996032 10870400 10738661 10620766 
2713.091 10536760 10499537 10512380 10567877 10649358 10737135 10812327 
2716.466 10864023 10890752 10899956 10905615 10920732 10954582 11006630 
2719.842 11068889 11126622 11165811 11177531 11161850 11125951 11084031 
2723.217 11048926 11029297 11025963 11032837 11040895 11042573 11035320 
2726.592 11023412 11016699 11025942 11058910 11117532 11197442 11288799 
2729.967 11380102 11460391 11522440 11562671 11581254 11581106 11566051 
2733.343 11540934 11509676 11475481 11439632 11402119 11361394 11317723 
2736.718 11271933 11228878 11195511 11180817 11191213 11228544 11288341 
2740.093 11359799 11428171 11480614 11507945 11509327 11490708 11463180 
2743.468 11439041 11426915 11430302 11448010 11473990 11501542 11524509 
2746.844 11539859 11546019 11543908 11536005 11524235 11511541 11500222 
2750.219 11492209 11488613 11487773 11487210 11481488 11466556 11439096 
2753.594 11399926 11353006 11306257 11267507 11243491 11236240 11242907 
2756.969 11255479 11264087 11260155 11239981 11206239 11167318 11135764 
2760.344 11123402 11138917 11183247 11250779 11329884 11407452 11472846 
2763.720 11520795 11552303 11572536 11588244 11603404 11617550 11625684 
2767.095 11621322 11600016 11562405 11515796 11471769 11443473 11439165 
2770.470 11461265 11503394 11554161 11600029 11629498 11637088 11624173 
2773.845 11597152 11565199 11537784 11522059 11522296 11538969 11570791 
2777.221 11614049 11663363 11713809 11759721 11797747 11826947 11848628 
2780.596 11867056 11886514 11910261 11939040 11970999 12002593 12031217 
2783.971 12054638 12074707 12094227 12116549 12143538 12175015 12207713 
2787.346 12239116 12266614 12291506 12317342 12350278 12396300 12459807 
2790.722 12541833 12639876 12747862 12857486 12959301 13044320 13104768 
2794.097 13135571 13136058 13109306 13062039 13003708 12943769 12890086 
2797.472 12847158 12816206 12796957 12788855 12792651 12809667 12841126 
2800.847 12886853 12941603 12998434 13048533 13085601 13107473 13119588 
2804.223 13130389 13151153 13188268 13242407 13307282 13371616 13423937 
2807.598 13456341 13467212 13463222 13454427 13453349 13469684 13509092 
2810.973 13571586 13653222 13746482 13843456 13934812 14014234 14076331 
2814.348 14122319 14156912 14190760 14236891 14307393 14408707 14539155 
2817.724 14688934 14842372 14982175 15096034 15180240 15240733 15289609 
2821.099 15342102 15408623 15492687 15589853 15688291 15775779 15841026 
2824.474 15879659 15894316 15892286 15884470 15881110 15888564 15908260 
2827.849 15936693 15965518 15986186 15988814 15968839 15926246 15866823 
2831.225 15802158 15745739 15711924 15710510 15745606 15814757 15909996 
2834.600 16020214 16133713 16242215 16339619 16424490 16496442 16557842 
2837.975 16610309 16657075 16701853 16749986 16807292 16879786 16970538 
2841.350 17079078 17200650 17327236 17450344 17563474 17664602 17758128 
2844.726 17853698 17963268 18098624 18267052 18470698 18704988 18961340 
2848.101 19228758 19496224 19756262 20004060 20237782 20457704 20665442 
2851.476 20862616 21051626 21234762 21414526 21592156 21767850 21938818 
2854.851 22100616 22247948 22377038 22488354 22587864 22686832 22798956 
2858.227 22937362 23109986 23317924 23553868 23805778 24059752 24303900 
2861.602 24531262 24741416 24938512 25128258 25318380 25514408 25721374 
2864.977 25943564 26185070 26449872 26741018 27060090 27407216 27780598 
2868.352 28179092 28601870 29050126 29525560 30028806 30556882 31104668 
2871.728 31662136 32220136 32770556 33311520 33844476 34373144 34899752 
2875.103 35420680 35925024 36395204 36811724 37157612 37423256 37609440 
2878.478 37725032 37784448 37802468 37791888 37759656 37707736 37635052 
2881.853 37539316 37418268 37270716 37096072 36895328 36670524 36425028 
2885.229 36164548 35897336 35632460 35380340 35150516 34952632 34795044 
2888.604 34685836 34632484 34641016 34712856 34844572 35025304 35238324 
2891.979 35463772 35683324 35882760 36056448 36205140 36333860 36448812 
2895.354 36552944 36645556 36721816 36776936 36809356 36821012 36819328 
2898.729 36813192 36811400 36819112 36838388 36866872 36901116 36937640 
2902.105 36974476 37011116 37048264 37085528 37122796 37158404 37190740 
2905.480 37217532 37235808 37243272 37237348 37217436 37185996 37150288 
2908.855 37123888 37122996 37165884 37266480 37430696 37654496 37924828 
2912.230 38223060 38530504 38832748 39121412 39394796 39655080 39905416 
2915.606 40148116 40384848 40619400 40857968 41110228 41387888 41699980 
2918.981 42050228 42433492 42837904 43247676 43648600 44033536 44403676 
2922.356 44768716 45141100 45532496 45948932 46390560 46853392 47331120 
2925.731 47819948 48319292 48831988 49362084 49914056 50490668 51093576 
2929.107 51724552 52385172 53078820 53807716 54574040 55378096 56221088 
2932.482 57105844 58039704 59034896 60107400 61272648 62542156 63918652 
2935.857 65398304 66970780 68625264 70353968 72154064 74025432 75966576 
2939.232 77969248 80012992 82067192 84094112 86055344 87919768 89664064 
2942.608 91274400 92741320 94054672 95197648 96148432 96883368 97381984 
2945.983 97633872 97643120 97427584 97014608 96435648 95722232 94900608 
2949.358 93993664 93021392 92003872 90963016 89921216 88899976 87916936 
2952.733 86984176 86105800 85280152 84501200 83760608 83049480 82360024 
2956.109 81685536 81020072 80360168 79703424 79050544 78404264 77769360 
2959.484 77151024 76553592 75978536 75424352 74884592 74351960 73817496 
2962.859 73274904 72719776 72151016 71570384 70980480 70381960 69776160 
2966.234 69161856 68537480 67903776 67264920 66627936 66003284 65401084 
2969.610 64828984 64289032 63778700 63289800 62813052 62340540 61870752 
2972.985 61406972 60959420 60539784 60160192 59827988 59545924 59311104 
2976.360 59119508 58964732 58844196 58757088 58707116 58698552 58737284 
2979.735 58829032 58978884 59191952 59474112 59831196 60270260 60796720 
2983.111 61414520 62125320 62928156 63820228 64799272 65861776 67008608 
2986.486 68239088 69553160 70947800 72414080 73935920 75488968 77043288 
2989.861 78564600 80018904 81376008 82612304 83711336 84663808 85465368 
2993.236 86113064 86604056 86934872 87101328 87098264 86923704 86578632 
2996.612 86068448 85402136 84591392 83649000 82587512 81416552 80146632 
2999.987 78786520 77347128 75841048 74286208 72700800 71105480 69516968 
3003.362 67947528 66400936 64875184 63363068 61856620 60351144 58848184 
3006.737 57354504 55880792 54438096 53033616 51667316 50336220 49031852 
3010.113 47749164 46485536 45243892 44028740 42845180 41695800 40577968 
3013.488 39486668 38418044 37372160 36356460 35382188 34462092 33603660 
3016.863 32805998 32057534 31340190 30634174 29925240 29209110 28494158 
3020.238 27796140 27134034 26523426 25970714 25473078 25017432 24586290 
3023.614 24162190 23731060 23286162 22827606 22364178 21908712 21477418 
3026.989 21083736 20738752 20443782 20193612 19974588 19770816 19565786 
3030.364 19351962 19128424 18904240 18693170 18509880 18362016 18249170 
3033.739 18160860 18081600 17992938 17881934 17742968 17578688 17399802 
3037.115 17219760 17051716 16905050 16784354 16688002 16610490 16544072 
3040.490 16481008 16416188 16345743 16271397 16196318 16126323 16067635 
3043.865 16026391 16005855 16008390 16032476 16075155 16131645 16196325 
3047.240 16262356 16323201 16373634 16408540 16427297 16430916 16421443 
3050.615 16401831 16373308 16334854 16282972 16216232 16135033 16047057 
3053.991 15965510 15908111 15891982 15927684 16012995 16134830 16267681 
3057.366 16381925 16450871 16457466 16398191 16284719 16137561 15983297 
3060.741 15846238 15745586 15690481 15681965 15711747 15765261 15823005 
3064.116 15865048 15873298 15838286 15758757 15646217 15521210 15410569 
3067.492 15338659 15322047 15363331 15450089 15558075 15659828 15730120 
3070.867 15753075 15727442 15663693 15580980 15499481 15435676 15399260 
3074.242 15391062 15406048 15437323 15477061 15519494 15561013 15599450 
3077.617 15632017 15656032 15668908 15667334 15652448 15626609 15595390 
3080.993 15565508 15543568 15532466 15532933 15539805 15545545 15541050 
3084.368 15517944 15468879 15391983 15289010 15167496 15037891 14912911 
3087.743 14805074 14723178 14670744 14644474 14633515 14624309 14601541 
3091.118 14555985 14484739 14394941 14301595 14223659 14176884 14171218 
3094.494 14203372 14262273 14328551 14383037 14412238 14411994 14388512 
3097.869 14355169 14326071 14311695 14313821 14326323 14337895 14338567 
3101.244 14323246 14297741 14274201 14268628 14292874 14349034 14425690 
3104.619 14500920 14546639 14538810 14461698 14317470 14120887 13897954 
3107.995 13677174 13482990 13331007 13225500 13163872 13137817 13138188 
3111.370 13159377 13194940 13240302 13288908 13332845 13361475 13364588 
3114.745 13334974 13270015 13172207 13049248 12912711 12776041 12652374 
3118.120 12554439 12491617 12469352 12485467 12532050 12593258 12650104 
3121.496 12684002 12682620 12643645 12577611 12503098 12444546 12421815 
3124.871 12447135 12520432 12629819 12755871 12879255 12985635 13069457 
3128.246 13132271 13182652 13227922 13271736 13311902 13341292 13350469 
3131.621 13333247 13290133 13229611 13165614 13115330 13090931 13096508 
3134.997 13125263 13160745 13181442 13168466 13108574 13001757 12859444 
3138.372 12700936 12547228 12416370 12316554 12248528 12204628 12176787 
3141.747 12157755 12147225 12149511 12171863 12219654 12294791 12390874 
3145.122 12497722 12601768 12689548 12751682 12783419 12784748 12760703 
3148.498 12717695 12665097 12611218 12563646 12526065 12498483 12474898 
3151.873 12446560 12401882 12333892 12241324 12131553 12019118 11923319 
3155.248 11859551 11837423 11855055 11901701 11959653 12011611 12043211 
3158.623 12048112 12027882 11989905 11943153 11897231 11859010 11834403 
3161.999 11827226 11840339 11874910 11930642 12001932 12081709 12158554 
3165.374 12221880 12263112 12278633 12269915 12244786 12211387 12180204 
3168.749 12157696 12147575 12148683 12157948 12170500 12183058 12193073 
3172.124 12201290 12209507 12221862 12241118 12268016 12300869 12335851 
3175.500 12366068 12384190 12383521 12360020 12311546 12240858 12152944 
3178.875 12057357 11965571 11892043 11850378 11852600 11903299 11998145 
3182.250 12121849 12250813 12356951 12416719 12416683 12360329 12266373 
3185.625 12165371 12089794 12064145 12096649 12178275 12284976 12386918 
3189.000 12457021 12480658 12458014 12402728 12336123 12279633 12247453 
3192.376 12243968 12264280 12296874 12327663 12345327 12342491 12318078 
3195.751 12275179 12221048 12165838 12120653 12096832 12102932 12142494 
3199.126 12212544 12302722 12397426 12477935 12527971 12535744 12500380 
3202.501 12427321 12330689 12226431 12132322 12061431 12023295 12021784 
3205.877 12056375 12120341 12202870 12288857 12360832 12402584 12402838 
3209.252 12360505 12286938 12203911 12139319 12117532 12153593 12244416 
3212.627 12371033 12502211 12604645 12652958 12639165 12571300 12473647 
3216.002 12375431 12303103 12272581 12287647 12340473 12418166 12506647 
3219.378 12595911 12678210 12746972 12795941 12817030 12802574 12748572 
3222.753 12658356 12544733 12427314 12330563 12275281 12275932 12335772 
3226.128 12446314 12589797 12743372 12883410 12988852 13045205 13046075 
3229.503 12992943 12895301 12767608 12627036 12489028 12365467 12260895 
3232.879 12174666 12102569 12039427 11980481 11923681 11868382 11813823 
3236.254 11759250 11705311 11654385 11613831 11595656 11614261 11680159 
3239.629 11796624 11953625 12129533 12295982 12425983 12503364 12527335 
3243.004 12512937 12484441 12468079 12482404 12532094 12609356 12696736 
3246.380 12773403 12822303 12832786 12802657 12736138 12640933 12528976 
3249.755 12413628 12309880 12232722 12195531 12207119 12269468 12376084 
3253.130 12514272 12666328 12812460 12935036 13019235 13054474 13036049 
3256.505 12965894 12853904 12716628 12577361 12458870 12380109 12348060 
3259.881 12359150 12396500 12438769 12464590 12460436 12423352 12357685 
3263.256 12272154 12176023 12074851 11972568 11874732 11790728 11735187 
3266.631 11723277 11765175 11861665 11999793 12156656 12307133 12431553 
3270.006 12522134 12582902 12624667 12656929 12679905 12683194 12649942 
3273.382 12565476 12426058 12244704 12048654 11870957 11738975 11667154 
3276.757 11650920 11672669 11707561 11736444 11747807 11743618 11731104 
3280.132 11720446 11717458 11723453 11735480 11751020 11770949 11799329 
3283.507 11841648 11900657 11973294 12051880 12123579 12178391 12210706 
3286.883 12224032 12227802 12235307 12256773 12296925 12351823 12411903 
3290.258 12464855 12500228 12512179 12502572 12478984 12453520 12438285 
3293.633 12443188 12473305 12527984 12600082 12680138 12756472 12819941 
3297.008 12864470 12889171 12897672 12894925 12886775 12876966 12866270 
3300.384 12854029 12839134 12822578 12806902 12796517 12795959 12805334 
3303.759 12820456 12832821 12829280 12800106 12737107 12642378 12522873 
3307.134 12393394 12267870 12160334 12077096 12020040 11985081 11966701 
3310.509 11959264 11959568 11966400 11981087 12003414 12033608 12068901 
3313.885 12106754 12143175 12176730 12205863 12231125 12252963 12271700 
3317.260 12288116 12303207 12317523 12332955 12348277 12360610 12363072 
3320.635 12346223 12300739 12222392 12115498 11994042 11880439 11800785 
3324.010 11775960 11815979 11915659 12057700 12215133 12363179 12482708 
3327.385 12566363 12615452 12635968 12633794 12610697 12563894 12491365 
3330.761 12394444 12282253 12170815 12078501 12021908 12008391 12034630 
3334.136 12088834 12154421 12216797 12266152 12299919 12319979 12331683 
3337.511 12339599 12349078 12364026 12389353 12428748 12483670 12551223 
3340.886 12621257 12677575 12702747 12681792 12610556 12494274 12350484 
3344.262 12199961 12064943 11959510 11890042 11854535 11846516 11857728 
3347.637 11879787 11903530 11919451 11915796 11881486 11809677 11700585 
3351.012 11564055 11418990 11288673 11195153 11150530 11157843 11208382 
3354.387 11289398 11385679 11485466 11580694 11666649 11739179 11794242 
3357.763 11825881 11832515 11815365 11781719 11742565 11710133 11692621 
3361.138 11691604 11702935 11718539 11730102 11733581 11728972 11720766 
3364.513 11712558 11707044 11702201 11695447 11682731 11665402 11648179 
3367.888 11640623 11651739 11688623 11749937 11829616 11915624 11994458 
3371.264 12055409 12093291 12109891 12112409 12112226 12120719 12144997 
3374.639 12187543 12242844 12300646 12344701 12361243 12339653 12279236 
3378.014 12187771 12083078 11987166 11921713 11901060 11930083 12000785 
3381.389 12096699 12195246 12273825 12316376 12315984 12276134 12209594 
3384.765 12134667 12069563 12028191 12015426 12026640 12049623 12070915 
3388.140 12080897 12078200 12073467 12082882 12122312 12200605 12314496 
3391.515 12445766 12569377 12660380 12705722 12704917 12673379 12631395 
3394.890 12597906 12580410 12575045 12568547 12548312 12508998 12458324 
3398.266 12412970 12392246 12407180 12456079 12523173 12585060 12621393 
3401.641 12622957 12596438 12561273 12539854 12550387 12598006 12674761 
3405.016 12762695 12844169 12907000 12950158 12980799 13010426 13048603 
3408.391 13100007 13161571 13226570 13286004 13332007 13359204 13363261 
3411.767 13339484 13284446 13195514 13074957 12930760 12778319 12635778 
3415.142 12524022 12458229 12447890 12494165 12592405 12733850 12907900 
3418.517 13103732 13309470 13511406 13694789 13842097 13940148 13981019 
3421.892 13965365 13903009 13812934 13715858 13631127 13571447 13541069 
3425.268 13535071 13543734 13555608 13564961 13571111 13582875 13612525 
3428.643 13673824 13775734 13919543 14094380 14280990 14455049 14593011 
3432.018 14678312 14703806 14674281 14602249 14504689 14398263 14293080 
3435.393 14194422 14100458 14006470 13906600 13799008 13683690 13566744 
3438.769 13455517 13359902 13287842 13246235 13237855 13261797 13314273 
3442.144 13389208 13479357 13578745 13681850 13786028 13888401 13986426 
3445.519 14076766 14154227 14212923 14249616 14261871 14252909 14228606 
3448.894 14196909 14166014 14141571 14124854 14115286 14108600 14100757 
3452.270 14088412 14072480 14053774 14036331 14022464 14013909 14009739 
3455.645 14008345 14006137 14001155 13991894 13980201 13968621 13961547 
3459.020 13960486 13964862 13970510 13968871 13950099 13907247 13837991 
3462.395 13749616 13657399 13582186 13545631 13562690 13639406 13768751 
3465.771 13933839 14112435 14283101 14428432 14539826 14616336 14658635 
3469.146 14672744 14662014 14631662 14588763 14544574 14513382 14511794 
3472.521 14552957 14642350 14773606 14929554 15084282 15211390 15290270 
3475.896 15312749 15285319 15226698 15162593 15121284 15123611 15183101 
3479.271 15302465 15477777 15699992 15956914 16235400 16521130 16796488 
3482.647 17042216 17239376 17373332 17438562 17441676 17402388 17350128 
3486.022 17316312 17328056 17399166 17529678 17704080 17901004 18096256 
3489.397 18272508 18418046 18529338 18604138 18641606 18638204 18592284 
3492.772 18506408 18393566 18276486 18185624 18151924 18196974 18325492 
3496.148 18524876 18766098 19016690 19245796 19436612 19587816 19712064 
3499.523 19828954 19956930 20107162 20280838 20469750 20661088 20841446 
3502.898 21001278 21136686 21248956 21341716 21418846 21482686 21531700 
3506.273 21560938 21564256 21533394 21463162 21350944 21200750 21019288 
3509.649 20818702 20610780 20407310 20216776 20043894 19889966 19756880 
3513.024 19643808 19550522 19475732 19416488 19367728 19322968 19276070 
3516.399 19225268 19171266 19119730 19078684 19052618 19042834 19043670 
3519.774 19045338 19036728 19009334 18960912 18894042 18816884 18738288 
3523.150 18664164 18597826 18536076 18473844 18404146 18320482 18219542 
3526.525 18098834 17958714 17800474 17628846 17447262 17260446 17073008 
3529.900 16888738 16710939 16544942 16397953 16281212 16207501 16188422 
3533.275 16229082 16323946 16455412 16595807 16712803 16779744 16779784 
3536.651 16713008 16591607 16438194 16274329 16119678 15986089 15882218 
3540.026 15813753 15787581 15810357 15884824 16005088 16155040 16308013 
3543.401 16436601 16517878 16544932 16526408 16486507 16452059 16445862 
3546.776 16475419 16533490 16600965 16656341 16684752 16683811 16662061 
3550.152 16634835 16615218 16609861 16614255 16617822 16606752 16572120 
3553.527 16512485 16432725 16343785 16256964 16179770 16116843 16066400 
3556.902 16024640 15985725 15942637 15888574 15819963 15734902 15638024 
3560.277 15540889 15461843 15422344 15442670 15534881 15697950 15914636 
3563.653 16154550 16378816 16550170 16639084 16633099 16536465 16370190 
3567.028 16165193 15954675 15766224 15618704 15516188 15453662 15418356 
3570.403 15396904 15378670 15359119 15340513 15328479 15328157 15342062 
3573.778 15365417 15388661 15397673 15378219 15320349 15222503 15091729 
3577.154 14945014 14804142 14693996 14634456 14636908 14699577 14809208 
3580.529 14940312 15063317 15149698 15180498 15148384 15061721 14937760 
3583.904 14799272 14665311 14550149 14457625 14386783 14334155 14298663 
3587.279 14282951 14291711 14326144 14381591 14443053 14490008 14498798 
3590.655 14454997 14355949 14214727 14057028 13912395 13804964 13744838 
3594.030 13724338 13721854 13707955 13657758 13558756 13414785 13246270 
3597.405 13084220 12958198 12892016 12892783 12954509 13057990 13178823 
3600.780 13295488 13395223 13475853 13545313 13615274 13696094 13789951 
3604.156 13891426 13986184 14061091 14106004 14121152 14117132 14109371 
3607.531 14114152 14138353 14177521 14215371 14229579 14201066 14121849 
3610.906 13997230 13847476 13699629 13578436 13503701 13479182 13501630 
3614.281 13558750 13641257 13742276 13861818 14000864 14160997 14336909 
3617.656 14517847 14686994 14827039 14925125 14974815 14978020 14945259 
3621.032 14888024 14820844 14754136 14697584 14655801 14633397 14630861 
3624.407 14650624 14691001 14751757 14829509 14922081 15025966 15137649 
3627.782 15251918 15362948 15463452 15548200 15612085 15655460 15680745 
3631.157 15693156 15698398 15701212 15703661 15708299 15717922 15739098 
3634.533 15781689 15857987 15976043 16138680 16336191 16549245 16750079 
3637.908 16912370 17017452 17061020 17051212 17008856 16956006 16911554 
3641.283 16882822 16868960 16860340 16847442 16824298 16791998 16757490 
3644.658 16730662 16721157 16734477 16771853 16831826 16909892 17002396 
3648.034 17101772 17200076 17284970 17344712 17371208 17363598 17332752 
3651.409 17301038 17294028 17336560 17438938 17596668 17786772 17978420 
3654.784 18141722 18257430 18324898 18361506 18393344 18446150 18532074 
3658.159 18643654 18755394 18833066 18841926 18762070 18594096 18359952 
3661.535 18095966 17843852 17636622 17490836 17402942 17352462 17309700 
3664.910 17246552 17146318 17009846 16854324 16709946 16608393 16573617 
3668.285 16612638 16712964 16844158 16965808 17039816 17040086 16958358 
3671.660 16809000 16620148 16428446 16265232 16151667 16092308 16079046 
3675.036 16089397 16099872 16088327 16042331 15958546 15843980 15709084 
3678.411 15565674 15421255 15280627 15144899 15014313 14892565 14785571 
3681.786 14701572 14647230 14622921 14621386 14626135 14616962 14574152 
3685.161 14486859 14356419 14195646 14027206 13874512 13755559 13677496 
3688.537 13635284 13615863 13601246 13576270 13530076 13459332 13366126 
3691.912 13256373 13139077 13025209 12927359 12858479 12827707 12838884 
3695.287 12885976 12954681 13026497 13082527 13112268 13118424 13113216 
3698.662 13116533 13144313 13203495 13285558 13369129 13427627 13437538 
3702.038 13387219 13280361 13132663 12967253 12805402 12662081 12544098 
3705.413 12453061 12385763 12340969 12318318 12316579 12332788 12359525 
3708.788 12384905 12398404 12392337 12367315 12332128 12301887 12294317 
3712.163 12321815 12390969 12502545 12649124 12822671 13014146 13215868 
3715.539 13420274 13617185 13795787 13942784 14047956 14105943 14119953 
3718.914 14103014 14072276 14044758 14031162 14031364 14032559 14016717 
3722.289 13965911 13870060 13733384 13575034 13421265 13300315 13228369 
3725.664 13206686 13219099 13239108 13238456 13198704 13115985 13002985 
3729.040 12882618 12779416 12711814 12687547 12703139 12748641 12812477 
3732.415 12885304 12961394 13036634 13105536 13161237 13195621 13204686 
3735.790 13191291 13167410 13150763 13159823 13206591 13292206 13405073 
3739.165 13527596 13642536 13738018 13810783 13865067 13907738 13941167 
3742.541 13962348 13962646 13932546 13867907 13772099 13657005 13538511 
3745.916 13432256 13349383 13293403 13265448 13261897 13278502 13307133 
3749.291 13335771 13346630 13318406 13232418 13080262 12868820 12621770 
3752.666 12375320 12166928 12028166 11973328 12001181 12096474 12238679 
3756.042 12407139 12583313 12750390 12891803 12989589 13026778 12996312 
3759.417 12906078 12781801 12663782 12595713 12610138 12717388 12899425 
3762.792 13117345 13323658 13476740 13555928 13562443 13517388 13448800 
3766.167 13381581 13328941 13291513 13259614 13223050 13173008 13105965 
3769.542 13020398 12916812 12795074 12656820 12509226 12366139 12249977 
3772.918 12185803 12194538 12285160 12450147 12668256 12907121 13134355 
3776.293 13325349 13469103 13567857 13634332 13685046 13733630 13787655 
3779.668 13844852 13896258 13928221 13927471 13885401 13801368 13683199 
3783.043 13545418 13406478 13281035 13176424 13089241 13008736 12921263 
3786.419 12817713 12701500 12586532 12496072 12451376 12464850 12530193 
3789.794 12627567 12727122 12801518 12836188 12833388 12811469 12795622 
3793.169 12806999 12854738 12930993 13017915 13090669 13131119 13129619 
3796.544 13088305 13016803 12926646 12826957 12721164 12610274 12493660 
3799.920 12375372 12261756 12164231 12092822 12057685 12061627 12103896 
3803.295 12179818 12281026 12398900 12522785 12640863 12740430 12808762 
3806.670 12835042 12813915 12746631 12642466 12517172 12390711 12284194 
3810.045 12216059 12198401 12235815 12323617 12448605 12594503 12742107 
3813.421 12876648 12989198 13078093 13148029 13206263 13258527 13305703 
3816.796 13343462 13363888 13359072 13324033 13260033 13174593 13079184 
3820.171 12984394 12900176 12831632 12781065 12748095 12731835 12732931 
3823.546 12751514 12788232 12841945 12909974 12987860 13072155 13159926 
3826.922 13249642 13340149 13430175 13515110 13587281 13635810 13649296 
3830.297 13619285 13540383 13415015 13252132 13065930 12874331 12695372 
3833.672 12544030 12432212 12365553 12344833 12365462 12420282 12500989 
3837.047 12597857 12701930 12804753 12899020 12979986 13044948 13094542 
3840.423 13132479 13164269 13195299 13226720 13256351 13277909 13282141 
3843.798 13263912 13223723 13170685 13121232 13093083 13101275 13149803 
3847.173 13232645 13333376 13433748 13517056 13578147 13619321 13649836 
3850.548 13678170 13706124 13725596 13720622 13673183 13570648 13414040 
3853.924 13219571 13014907 12833256 12703704 12643248 12654357 12724821 
3857.299 12834069 12955975 13067740 13153512 13206833 13231941 13240427 
3860.674 13248011 13268105 13306901 13362088 13420905 13465155 13478193 
3864.049 13448255 13376108 13271808 13155740 13048560 12967565 12919991 
3867.425 12904558 12909782 12921982 12925402 12908022 12863119 12789649 
3870.800 12693680 12585934 12483078 12404630 12369076 12388456 12465635 
3874.175 12590943 12744488 12900801 13037110 13139683 13206687 13248206 
3877.550 13278599 13310941 13351065 13397028 13439503 13469294 13480169 
3880.926 13472642 13452278 13426464 13398831 13369503 13333946 13285019 
3884.301 13218701 13137063 13045680 12953759 12870123 12801911 12753669 
3887.676 12729554 12734769 12776978 12865552 13004667 13192668 13416984 
3891.051 13655161 13880301 14065739 14191805 14249752 14241891 14177564 
3894.427 14070418 13933195 13775911 13605721 13427700 13246399 13068457 
3897.802 12902331 12758822 12650428 12590170 12587301 12646919 12766843 
3901.177 12934081 13127950 13321761 13488921 13608297 13670343 13677899 
3904.552 13642682 13582417 13511573 13437713 13360317 13274165 13173904 
3907.927 13059404 12937704 12823160 12730911 12674274 12658085 12679228 
3911.303 12728575 12793737 12864794 12935087 13001611 13064887 13124130 
3914.678 13177636 13225012 13266259 13305029 13348256 13402482 13471375 
3918.053 13551411 13630420 13689820 13709046 13671848 13574675 13427333 
3921.428 13254697 13090679 12971418 12925212 12969106 13102748 13310601 
3924.804 13565058 13833775 14084501 14291116 14436666 14511792 14515412 
3928.179 14451959 14329687 14161454 13963133 13755468 13562085 13407923 
3931.554 13313209 13290420 13338664 13443790 13580078 13716281 13823877 
3934.929 13882742 13887205 13844077 13769781 13685212 13608911 13554163 
3938.305 13527151 13528939 13557168 13608691 13678391 13759689 13840881 
3941.680 13908007 13943286 13931165 13863062 13741473 13580743 13406157 
3945.055 13245642 13124619 13058639 13048905 13085154 13147773 13214756 
3948.430 13269234 13303027 13318365 13325795 13338764 13369809 13425010 
3951.806 13502128 13591809 13679666 13752893 13801449 13824658 13830306 
3955.181 13831597 13845173 13884785 13955857 14054444 14166545 14269819 
3958.556 14340990 14361518 14321862 14226370 14090905 13940999 13803637 
3961.931 13703299 13654948 13659520 13706980 13775895 13840329 13874590 
3965.307 13859722 13786703 13657909 13484849 13288851 13094017 12924459 
3968.682 12802962 12745827 12763011 12857720 13022840 13245688 13505484 
3972.057 13775332 14027239 14234648 14377882 14446673 14443648 14380991 
3975.432 14278346 14159349 14042719 13944532 13873825 13834720 13830817 
3978.808 13863322 13932916 14039485 14175466 14328648 14478952 14605091 
3982.183 14687095 14714955 14690120 14626275 14546711 14475652 14433200 
3985.558 14426959 14452141 14492647 14525837 14531056 14493908 14411846 
3988.933 14294988 14163451 14041887 13954952 13919852 13941527 14013209 
3992.309 14116513 14226249 14319878 14381110 14407134 14407270 14400067 
3995.684 14402740 14428640 14477249 14535750 14584383 14604578 14586832 
3999.059 14536350 14472228 14422924 14414639 
##END=
