##TITLE=3D-Fillies_PLA-Rainbow_Salmon-Pink_Filament_r6_ATR-Corrected
##JCAMP-DX=5.01  $$ Nicolet v. 1
##DATATYPE=INFRARED SPECTRUM
##ORIGIN=Curtin University
##OWNER=Nicolet
##LONGDATE=2024/07/18
##TIME=16:56:39
##SPECTROMETER/DATA SYSTEM=Nicolet iS50
##DATA PROCESSING=
Ratio against background
%Transmittance->Absorbance
ATR Correction
Truncated
ElementMultiply or ElementDivide
##COMMENTS=
Number of sample scans: 32
Collection length: 47.29 sec
Sample gain: 1.0
Background collected on: Thu Jul 18 16:50:31 2024 (GMT+08:00);
Number of background scans: 32
Background gain: 1.0
Sample spacing:  1.000
Number of scan points: 16672
Resolution points: 8192
Number of FFT points: 65536
Apodization: N-B strong;
Phase correction: Mertz;
Laser frequency: 15798.3 cm-1
Number of rejected sample scans: 0
Number of rejected background scans: 0
Bench serial number: AUP1200105;
##RESOLUTION=4.000
##XUNITS=1/CM
##YUNITS=ABSORBANCE
##FIRSTX=400.163452
##LASTX=4000.187744
##FIRSTY=0.062623
##MAXX=4000.187744
##MINX=400.163452
##MAXY=0.897530
##MINY=-0.016475
##XFACTOR=1.000000
##YFACTOR=1.000000E-009
##NPOINTS=7468
##DELTAX=0.482125
##ZPD=8192
##XYDATA=(X++(Y..Y))
400.163 62622772 61741780 61296012 61122188 61004348 60759244 60280244 
403.538 59557480 58660060 57695384 56762456 55918012 55165692 54465404 
406.913 53755436 52976996 52093072 51096468 50009140 48873804 47742356 
410.288 46663704 45672748 44782468 43982516 43243180 42527964 41807468 
413.663 41071164 40332520 39623752 38982608 38436028 37989676 37625876 
417.038 37312712 37018368 36725168 36436460 36172720 35958160 35806228 
420.412 35710164 35643444 35569980 35459500 35300204 35102696 34895464 
423.787 34711676 34575556 34494188 34457140 34444468 34435320 34416032 
427.162 34380684 34326548 34248120 34132796 33961548 33715960 33385988 
430.537 32976344 32507636 32010746 31519294 31061176 30658076 30322618 
433.912 30063720 29888892 29804128 29809994 29896768 30040790 30206400 
437.286 30352724 30444372 30461678 30405120 30293730 30157198 30023996 
440.661 29912322 29825598 29753298 29677800 29582658 29459350 29310908 
444.036 29151124 29000368 28880348 28808728 28795942 28842934 28940836 
447.411 29071598 29209992 29326584 29392304 29383842 29289256 29112012 
450.786 28871892 28602896 28346494 28142930 28021900 27994678 28050214 
454.161 28156938 28269020 28337690 28323216 28205564 27989670 27703834 
457.535 27390824 27094992 26848000 26660602 26520868 26400472 26267276 
460.910 26098362 25888206 25651134 25414140 25206942 25046974 24942024 
464.285 24881268 24844954 24813884 24777648 24738112 24706812 24696956 
467.660 24715688 24757918 24806674 24838940 24833906 24781890 24688190 
471.035 24573122 24465518 24394294 24379932 24428054 24527218 24651282 
474.409 24764728 24830342 24817446 24709924 24510906 24244890 23952892 
477.784 23684404 23484738 23382502 23381284 23457402 23567066 23658842 
481.159 23689200 23634894 23498734 23306718 23097078 22907326 22762150 
484.534 22667742 22613546 22579886 22547512 22505528 22454510 22404148 
487.909 22368376 22358758 22381192 22434132 22510902 22601918 22696740 
491.284 22785484 22859504 22912310 22941992 22954164 22964114 22993978 
494.658 23074360 23230788 23477434 23810604 24207428 24630342 25036298 
498.033 25387178 25657550 25836962 25926562 25932378 25858174 25702644 
501.408 25461710 25135160 24734484 24287652 23837858 23435580 23126326 
504.783 22938178 22873510 22907930 22997118 23089066 23138100 23116082 
508.158 23017294 22856626 22662266 22464690 22287948 22143080 22027740 
511.532 21929770 21833992 21728478 21609554 21481878 21355858 21242144 
514.907 21146184 21064918 20986956 20896230 20777908 20624160 20437546 
518.282 20230702 20022918 19834028 19679442 19566670 19495892 19462580 
521.657 19461308 19488004 19540064 19613562 19700342 19785540 19848984 
525.032 19867816 19826622 19718870 19551320 19342418 19117592 18902900 
528.406 18719210 18579444 18488156 18444004 18441386 18471828 18523224 
531.781 18579140 18619632 18624138 18577084 18473428 18322598 18147000 
535.156 17975888 17835742 17741580 17691462 17668522 17648410 17610198 
538.531 17545046 17459998 17374368 17310792 17284802 17297012 17331490 
541.906 17361344 17357754 17299792 17180562 17008080 16801028 16581669 
545.281 16369427 16177677 16012890 15877157 15770305 15691599 15638990 
548.655 15608642 15594484 15589311 15587442 15587044 15590988 15605839 
552.030 15637951 15690127 15758945 15835788 15909955 15973914 16026221 
555.405 16072581 16121384 16181363 16254047 16332891 16405219 16457092 
558.780 16479369 16470900 16438477 16393060 16344275 16296318 16247390 
562.155 16192878 16130555 16065402 16010365 15983360 16000755 16070005 
565.529 16185792 16330307 16478656 16606946 16699385 16751898 16771320 
568.904 16771117 16764978 16762706 16769184 16785586 16812992 16854492 
572.279 16915316 17000434 17110842 17241446 17380116 17511886 17622958 
575.654 17706024 17762332 17800826 17834270 17873378 17922406 17977454 
579.029 18027948 18060990 18066272 18040710 17989948 17927514 17871938 
582.404 17842408 17855356 17921322 18043460 18217452 18431256 18667110 
585.778 18903184 19116758 19287902 19402812 19456582 19454310 19409938 
589.153 19343058 19274342 19221620 19195962 19200312 19230068 19275000 
592.528 19322018 19358564 19374772 19364774 19327010 19264430 19183578 
595.903 19093764 19006014 18931818 18881430 18862750 18879606 18931200 
599.278 19011974 19112604 19221302 19326360 19417824 19489388 19539320 
602.652 19570264 19588464 19602046 19619278 19646854 19688708 19745986 
606.027 19817304 19900010 19991056 20088094 20189696 20295170 20403970 
609.402 20515526 20628724 20742708 20857362 20974054 21095812 21227246 
612.777 21373080 21537526 21722986 21929916 22156558 22400028 22655766 
616.152 22917894 23178552 23427472 23652662 23842136 23986962 24084770 
619.527 24142152 24174728 24204730 24255840 24347452 24489868 24682016 
622.901 24913166 25167720 25430070 25689942 25943816 26194078 26445658 
626.276 26702702 26966232 27234280 27503760 27773042 28043120 28316934 
629.651 28596344 28879446 29157366 29415852 29637900 29809262 29923520 
633.026 29984760 30006590 30008086 30008146 30019970 30049022 30092994 
636.401 30145816 30201842 30259430 30322236 30397642 30493610 30615258 
639.775 30762738 30930802 31111102 31294606 31474464 31647176 31812492 
643.150 31971928 32127280 32279514 32428772 32575704 32722320 32873272 
646.525 33035442 33216142 33420746 33650908 33902852 34168616 34438088 
649.900 34702736 34958424 35207192 35456752 35717632 35999252 36306140 
653.275 36634772 36973400 37304352 37607320 37864172 38062408 38197524 
656.650 38273312 38300620 38294720 38272732 38250336 38239276 38245844 
660.024 38270152 38306492 38345856 38379360 38401548 38412964 38421568 
663.399 38440364 38484448 38565844 38690112 38854668 39050492 39265092 
666.774 39487308 39710168 39932164 40155676 40383876 40618032 40855752 
670.149 41091672 41319924 41536448 41740988 41937068 42130528 42326884 
673.524 42530292 42742324 42962832 43190996 43425548 43664252 43902564 
676.898 44132836 44344592 44527292 44673844 44784244 44867176 44937600 
680.273 45012060 45103256 45214088 45337428 45458420 45561808 45638540 
683.648 45691220 45733912 45788532 45876896 46013200 46199160 46424024 
687.023 46668140 46910112 47133176 47330200 47504020 47665624 47829832 
690.398 48010648 48217764 48454988 48720112 49006316 49303936 49602852 
693.773 49895172 50176980 50450032 50721988 51004660 51311740 51654972 
697.147 52040824 52468156 52929168 53410496 53897196 54375960 54838108 
700.522 55280152 55703824 56114124 56517892 56921620 57330500 57747032 
703.897 58170272 58595264 59013388 59412980 59782028 60110700 60393752 
707.272 60632384 60833576 61007848 61165640 61314080 61455088 61585320 
710.647 61698616 61789320 61855808 61901996 61937040 61973756 62025188 
714.021 62102804 62214912 62367708 62566772 62820688 63143724 63558764 
717.396 64099588 64812704 65759668 67017420 68679952 70856136 73666104 
720.771 77233040 81671944 87073672 93487664 100905280 109245064 118344736 
724.146 127961368 137781568 147443264 156565584 164786704 171800288 
727.039 177386608 181429200 183915152 184919792 184580896 183069856 
729.931 180565936 177236784 173227184 168655136 163614256 158179408 
732.824 152416080 146387568 140161856 133813440 127422440 121069424 
735.717 114830456 108771928 102949344 97408224 92186760 87319504 82838864 
739.091 78774840 75152200 71986520 69280968 67024068 65190540 63743404 
742.466 62638632 61829412 61270668 60921680 60747936 60721676 60821412 
745.841 61030544 61335920 61725776 62188316 62710576 63279652 63883396 
749.216 64512788 65163516 65834948 66528520 67243024 67970968 68696040 
752.591 69393464 70033992 70589312 71038856 71372208 71589480 71696760 
755.966 71700912 71603648 71400096 71079456 70630688 70047088 69331624 
759.340 68496368 67560584 66545172 65467440 64338452 63162768 61942124 
762.715 60679500 59383112 58067856 56753632 55462068 54211872 53015472 
766.090 51877284 50795048 49761648 48768548 47808312 46876076 45969664 
769.465 45089532 44237344 43415840 42626784 41871736 41149972 40459824 
772.840 39797332 39157216 38533912 37922480 37319540 36724028 36136300 
776.214 35558008 34991084 34437264 33898496 33376924 32875638 32398042 
779.589 31946596 31521000 31116394 30722872 30326312 29911260 29464794 
782.964 28980278 28459640 27913760 27360462 26820580 26314196 25856988 
786.339 25458158 25120568 24841676 24616248 24437754 24300912 24202174 
789.714 24140390 24116142 24130322 24182724 24269706 24382322 24505632 
793.089 24618890 24698060 24719644 24665256 24525660 24303244 24012084 
796.463 23675294 23320724 22976458 22665974 22406506 22208040 22074588 
799.838 22005530 21997296 22043646 22135932 22262938 22410982 22564262 
803.213 22708960 22832798 22927630 22990122 23020394 23020952 22994968 
806.588 22944824 22872462 22779690 22669776 22547530 22419402 22292048 
809.963 22170758 22057388 21950810 21847076 21741468 21629920 21510796 
813.337 21384240 21251634 21114342 20973070 20828816 20684302 20546118 
816.712 20425430 20337048 20296778 20316926 20401946 20546784 20736902 
820.087 20951526 21168814 21370142 21543944 21686140 21799222 21889972 
823.462 21966562 22037286 22109916 22191266 22287200 22401484 22534450 
826.837 22681904 22835200 22983334 23116106 23227764 23320176 23402614 
830.212 23489488 23595710 23731914 23901186 24097880 24310632 24526356 
833.586 24735474 24935656 25132238 25336208 25560618 25816484 26109426 
836.961 26439642 26802756 27192994 27606302 28042040 28503726 28997534 
840.336 29530440 30107416 30730344 31396844 32101228 32834780 33587152 
843.711 34346472 35100068 35834624 36536856 37194604 37798712 38344068 
847.086 38830252 39260800 39642424 39982420 40288640 40569472 40836444 
850.460 41105892 41401928 41755600 42202788 42779008 43514220 44428344 
853.835 45529276 46814636 48275204 49899296 51676348 53597220 55653108 
857.210 57831272 60112708 62470400 64870976 67277816 69655400 71972400 
860.585 74204392 76333208 78346152 80234976 81995360 83627184 85134976 
863.960 86527504 87816568 89014672 90132744 91178704 92158008 93074808 
867.335 93933784 94741512 95504752 96228328 96910576 97539832 98092144 
870.709 98532144 98815688 98894600 98721928 98256368 97466592 96334208 
874.084 94856576 93047824 90939712 88579176 86024872 83340472 80588392 
877.459 77822792 75086248 72407816 69805448 67289792 64867868 62546656 
880.834 60334232 58239348 56270756 54436004 52741984 51195112 49802484 
884.209 48572420 47514032 46635228 45940520 45428504 45089924 44907296 
887.583 44855276 44903184 45017508 45165888 45321132 45463380 45581796 
890.958 45674540 45745728 45802432 45850888 45894072 45930944 45957672 
894.333 45969952 45965432 45945324 45913184 45873364 45828448 45777020 
897.708 45714320 45633340 45528788 45399444 45250436 45092324 44939028 
901.083 44804064 44697756 44624352 44581876 44563320 44558072 44554664 
904.458 44542912 44515348 44468916 44405412 44331656 44258364 44198508 
907.832 44164528 44165752 44206688 44285940 44397816 44534548 44689276 
911.207 44858552 45043528 45249424 45483640 45752588 46059068 46399784 
914.582 46764812 47138164 47500612 47833060 48120420 48355328 48539776 
917.957 48684484 48806264 48923360 49050324 49193964 49352808 49517912 
921.332 49677848 49823124 49950220 50063072 50171252 50286924 50421000 
924.706 50580280 50767416 50982124 51223612 51492720 51791300 52120560 
928.081 52478756 52859156 53250596 53640032 54016640 54375216 54718148 
931.456 55053348 55391092 55737648 56091812 56443800 56776720 57071924 
934.831 57314312 57496476 57620536 57696344 57737968 57759368 57771500 
938.206 57780464 57788688 57796608 57804108 57812056 57823092 57840016 
941.581 57866056 57904100 57957088 58028604 58123948 58249704 58413708 
944.955 58623640 58885436 59202296 59573980 59997188 60466540 60976328 
948.330 61521824 62100100 62710024 63351108 64022384 64720048 65436944 
951.705 66161336 66877744 67567848 68212232 68791000 69284360 69672416 
955.080 69934720 70050168 69998104 69761128 69328376 68698592 67883064 
958.455 66905112 65798224 64600960 63352660 62088948 60839144 59626476 
961.829 58469076 57382352 56379904 55473412 54672176 53980736 53397920 
965.204 52917260 52528268 52219276 51980360 51804388 51687376 51626516 
968.579 51618008 51654776 51726304 51819848 51922964 52025988 52124768 
971.954 52219616 52314600 52414856 52523580 52642376 52770504 52906912 
975.329 53051948 53207664 53377604 53564444 53768296 53985532 54209672 
978.703 54433672 54653440 54869980 55090224 55325392 55586876 55882016 
982.078 56211236 56566788 56934740 57299276 57646904 57970132 58268444 
985.453 58548152 58818840 59091144 59373956 59673348 59993232 60334724 
988.828 60698584 61085128 61494376 61925704 62378372 62851244 63343792 
992.203 63856436 64390904 64948560 65531060 66138120 66768108 67419104 
995.578 68090056 68783384 69505888 70268816 71085784 71969264 72927136 
998.952 73959288 75056328 76200696 77369712 78540464 79695400 80825600 
1002.327 81934344 83036848 84158472 85330592 86587016 87958712 89471640 
1005.702 91144504 92989408 95013600 97222304 99622192 102223952 105044920 
1009.077 108110192 111453696 115118144 119154528 123620480 128576192 
1011.970 134078520 140170240 146867408 154143568 161914864 170029312 
1014.862 178264912 186338176 193927952 200712272 206411376 210831152 
1017.755 213894816 215654992 216283776 216040560 215231200 214163856 
1020.648 213112672 212294368 211859536 211895280 212436272 213478864 
1023.540 214994640 216940496 219267216 221922944 224858240 228029184 
1026.433 231400752 234949776 238666896 242553696 246620128 250879280 
1029.326 255342816 260018704 264912096 270027264 275370208 280949600 
1032.219 286773376 292844480 299154432 305678880 312377888 319198368 
1035.113 326081440 332967680 339801248 346529248 353097184 359444416 
1038.006 365502528 371197344 376457184 381221696 385450816 389125920 
1040.899 392248320 394830368 396885536 398421696 399438912 399930496 
1043.792 399888928 399311168 398202624 396579520 394469120 391908512 
1046.685 388944128 385631392 382033696 378221280 374268704 370250816 
1049.578 366239904 362299584 358481792 354823680 351345376 348049920 
1052.471 344926848 341955712 339113120 336379296 333743200 331205280 
1055.364 328776992 326478944 324338112 322386720 320662208 319210464 
1058.257 318088672 317365024 317117920 317428992 318376416 320027712 
1061.150 322435104 325634720 329649568 334494368 340179936 346714528 
1064.043 354103424 362344512 371424416 381316064 391979584 403365568 
1066.936 415422752 428100928 441356096 455147904 469437792 484184800 
1069.829 499343232 514861632 530684128 546750720 562998080 579357376 
1072.722 595754176 612108672 628341760 644380992 660168768 675664896 
1075.615 690844480 705688576 720173568 734261632 747898176 761017088 
1078.509 773550784 785435840 796618368 807047360 816667072 825404160 
1081.402 833166144 839843968 845325952 849511616 852328704 853740352 
1084.295 853747968 852389696 849734848 845875584 840922304 834993280 
1087.188 828211520 820693696 812549760 803880064 794778944 785335616 
1090.081 775638720 765772736 755815680 745832192 735869248 725953984 
1092.974 716096384 706293568 696538304 686822272 677139968 667487360 
1095.867 657859520 648247872 638639424 629016832 619362816 609663552 
1098.760 599911872 590106816 580252736 570354944 560416320 550434880 
1101.653 540405184 530320640 520181184 509995712 499788416 489597888 
1104.546 479476640 469485760 459693440 450169632 440986944 432219232 
1107.439 423942656 416232512 409160384 402789280 397168512 392329152 
1110.332 388283744 385025984 382533248 380769504 379686816 379226144 
1113.225 379318848 379887488 380849824 382123072 383630208 385305184 
1116.118 387096736 388968448 390897536 392870816 394881888 396927904 
1119.011 399009792 401130432 403294848 405507872 407771744 410080864 
1121.905 412420608 414764608 417077408 419315488 421429312 423365376 
1124.798 425065760 426468256 427507264 428118016 428243456 427842112 
1127.691 426895168 425409024 423413024 420951936 418076256 414831328 
1130.584 411251328 407355008 403148032 398623904 393768960 388564960 
1133.477 382992544 377034112 370678048 363920160 356767136 349236640 
1136.370 341356224 333161568 324695296 316005184 307144992 298173760 
1139.263 289155328 280155872 271241024 262471440 253901392 245578432 
1142.156 237545280 229843152 222513248 215595744 209128176 203139984 
1145.049 197650384 192665424 188179696 184180448 180651856 177579232 
1147.942 174950384 172755200 170983696 169622800 168654912 168058064 
1150.835 167807120 167875136 168235392 168860848 169723856 170795824 
1153.728 172046992 173447616 174970848 176594608 178303584 180088224 
1156.621 181943856 183867760 185856976 187908272 190018624 192187280 
1159.514 194417728 196718576 199102448 201584464 204179792 206902192 
1162.407 209763600 212775360 215950512 219305344 222861200 226645312 
1165.301 230690256 235034656 239722000 244800784 250323744 256346816 
1168.194 262927920 270125664 277998432 286604960 296004288 306256576 
1171.087 317423456 329565408 342737952 356985056 372330688 388770400 
1173.980 406261856 424716960 443995808 463902240 484183328 504532160 
1176.873 524596736 543993344 562325440 579204160 594269696 607207936 
1179.766 617764992 625758720 631086272 633730560 633764672 631346496 
1182.659 626709248 620140928 611960448 602494016 592053120 580922304 
1185.552 569350720 557550144 545696000 533929888 522362880 511078944 
1188.445 500139360 489587744 479455200 469763136 460527584 451760064 
1191.338 443468352 435656800 428326144 421474432 415096992 409186880 
1194.231 403734816 398728000 394150624 389984192 386207584 382798720 
1197.124 379736544 377000992 374573728 372438176 370577728 368976672 
1200.017 367619456 366490400 365575008 364857152 364319232 363939232 
1202.910 363689824 363537952 363446496 363378400 363299584 363180416 
1205.803 362998368 362735712 362377856 361910688 361318464 360584320 
1208.697 359689888 358618176 357354368 355885760 354205152 352308864 
1211.590 350199904 347888320 345390752 342729440 339929408 337013856 
1214.483 334001376 330904288 327729664 324482624 321170048 317803808 
1217.376 314402016 310987552 307584480 304214944 300896352 297640256 
1220.269 294453600 291340128 288302112 285341664 282461632 279665440 
1223.162 276956544 274337600 271810208 269373728 267023888 264752992 
1226.055 262551360 260408912 258318304 256278432 254295088 252379920 
1228.948 250548160 248813776 247186576 245671040 244267760 242977312 
1231.841 241804080 240757648 239852480 239103728 238523312 238116576 
1234.734 237881376 237811952 237903168 238154320 238571152 239164048 
1237.627 239942528 240909616 242057504 243366224 244807184 246348448 
1240.520 247960368 249618640 251305488 253005952 254704144 256380176 
1243.413 258008416 259559808 261004768 262316912 263476640 264472336 
1246.306 265300336 265965552 266480208 266863488 267140800 267342144 
1249.199 267500496 267648256 267814304 268022560 268289776 268625376 
1252.093 269031904 269506560 270042304 270629824 271259680 271924800 
1254.986 272622336 273354720 274129344 274957088 275850144 276818240 
1257.879 277867584 278999392 280209792 281491328 282832864 284221312 
1260.772 285640704 287072960 288497504 289893184 291238496 292512448 
1263.665 293695424 294768128 295709792 296498080 297107168 297509536 
1266.558 297676224 297578240 297188608 296482880 295441344 294049888 
1269.451 292302880 290203456 287766496 285015104 281978496 278686208 
1272.344 275164896 271434496 267509840 263403504 259130064 254707936 
1275.237 250161712 245518944 240807616 236052544 231273808 226488352 
1278.130 221712224 216961808 212255872 207613728 203053088 198587584 
1281.023 194225840 189972880 185832528 181810320 177915232 174158576 
1283.916 170552672 167107424 163828688 160717424 157771040 154985152 
1286.809 152355744 149879520 147554288 145377584 143346448 141457232 
1289.702 139707280 138094608 136618944 135279936 134075208 132998392 
1292.595 132037920 131177960 130400656 129689496 129031168 128417152 
1295.489 127842232 127303424 126797200 126320664 125871120 125448216 
1298.382 125054840 124696992 124381688 124114024 123894248 123716792 
1301.275 123570968 123443256 123320712 123192256 123050144 122888112 
1304.168 122701096 122483784 122231848 121942512 121616600 121257920 
1307.061 120871832 120462912 120031248 119571592 119074504 118528424 
1309.954 117923952 117256032 116525296 115735856 114892608 113998888 
1312.847 113055800 112063520 111025328 109950776 108858040 107772600 
1315.740 106724008 105739672 104840352 104035264 103322104 102688616 
1318.633 102116088 101584464 101075976 100577576 100082048 99587616 99096344 
1322.008 98613192 98143600 97692568 97264624 96862904 96490784 96151568 
1325.384 95849048 95587424 95370408 95200240 95077408 95001704 94972720 
1328.759 94992984 95068680 95210744 95433512 95751472 96177096 96717296 
1332.134 97372672 98137080 99000880 99951720 100976656 102062112 103193016 
1335.509 104352048 105519768 106675232 107799032 108874656 109891656 
1338.402 110845264 111735984 112568200 113348520 114084976 114786976 
1341.295 115465168 116132464 116802904 117491568 118213776 118983552 
1344.188 119813928 120716560 121700872 122774736 123943336 125209272 
1347.082 126572264 128029320 129575504 131204736 132909160 134679936 
1349.975 136504192 138365712 140244464 142117728 143962512 145759184 
1352.868 147492352 149150960 150727104 152213168 153599232 154873344 
1355.761 156022272 157034512 157903280 158628304 159216560 159680128 
1358.654 160035136 160298736 160488288 160620864 160712368 160778016 
1361.547 160829808 160876624 160921088 160960144 160984464 160980160 
1364.440 160930288 160815520 160614432 160303824 159858432 159252592 
1367.333 158461280 157463536 156246032 154805152 153150480 151305840 
1370.226 149310512 147221200 145111360 143070816 141201264 139611472 
1373.119 138407472 137682560 137508592 137927648 138948752 140548384 
1376.012 142673824 145248560 148176896 151348480 154642848 157933360 
1378.905 161094096 164007808 166571952 168705888 170351632 171473376 
1381.798 172053008 172085520 171574816 170531376 168972288 166921504 
1384.691 164412688 161489200 158203696 154616368 150790112 146786880 
1387.584 142662064 138461840 134222176 129969240 125722288 121496256 
1390.478 117303616 113156712 109067744 105050456 101119752 97293816 93594224 
1393.853 90045336 86672952 83500600 80546880 77822744 75330832 73067192 
1397.228 71023336 69189752 67557760 66120504 64872584 63809068 62924572 
1400.603 62213592 61670972 61294328 61085348 61050668 61201212 61549288 
1403.979 62103696 62864684 63818388 64932928 66157476 67423672 68651120 
1407.354 69754008 70649072 71263968 71543616 71455272 70990448 70164880 
1410.729 69015544 67596384 65971904 64211524 62383732 60552228 58772220 
1414.104 57088628 55534820 54132508 52890984 51809040 50875468 50072372 
1417.479 49377780 48770076 48230840 47748364 47317348 46939640 46620852 
1420.855 46367904 46185608 46075280 46033124 46051472 46118704 46221140 
1424.230 46343688 46472696 46596304 46707160 46803064 46888020 46972208 
1427.605 47070436 47200752 47382908 47636340 47979616 48429556 49000972 
1430.980 49705764 50551788 51542824 52677864 53953128 55364492 56911252 
1434.356 58598644 60438244 62447016 64644680 67049636 69678040 72542688 
1437.731 75655896 79031352 82684880 86633840 90892920 95470488 100364432 
1441.106 105560176 111032176 116745048 122656672 128717544 134871936 
1443.999 141056016 147197680 153219216 159040224 164583344 169778640 
1446.892 174568176 178909712 182778896 186170096 189094944 191577648 
1449.785 193647792 195333216 196653104 197616064 198220784 198460384 
1452.678 198327264 197815056 196919488 195635824 193957504 191876944 
1455.572 189389056 186497072 183215984 179574000 175607232 171352832 
1458.465 166844048 162106256 157161200 152031872 146748144 141348240 
1461.358 135877744 130383832 124910264 119494568 114168184 108958256 
1464.251 103890608 98990608 94281832 89783216 85507912 81462376 77648472 
1467.626 74066072 70715624 67597728 64711744 62053596 59614112 57378744 
1471.001 55329920 53449512 51721840 50133804 48674796 47333588 46097116 
1474.376 44948984 43871176 42846728 41862376 40910052 39987504 39095780 
1477.752 38236428 37408956 36609472 35830636 35064948 34306208 33552792 
1481.127 32807648 32077808 31371738 30696818 30056566 29450200 28872916 
1484.502 28318560 27780866 27256990 26747680 26256754 25789696 25351372 
1487.877 24944166 24567902 24219524 23895896 23595362 23319298 23071476 
1491.253 22857372 22681076 22543980 22443632 22373648 22326168 22294022 
1494.628 22272514 22260272 22259348 22273756 22308438 22368706 22461318 
1498.003 22594848 22781188 23035604 23373802 23808966 24345984 24977654 
1501.378 25681470 26420724 27147464 27808842 28353296 28737684 28932132 
1504.754 28923322 28715922 28330930 27803230 27175290 26492076 25794240 
1508.129 25114160 24474104 23886080 23354290 22877672 22453516 22078504 
1511.504 21750936 21469704 21233862 21041580 20888938 20770398 20678420 
1514.879 20605138 20543160 20486794 20432464 20378624 20325472 20273276 
1518.255 20222606 20173612 20125578 20078338 20032062 19987260 19945026 
1521.630 19905462 19868844 19834016 19799842 19765696 19732670 19702954 
1525.005 19680608 19668608 19668312 19677236 19689966 19698790 19696406 
1528.380 19677942 19643556 19597248 19546368 19498014 19457100 19423944 
1531.756 19394734 19363050 19323030 19270594 19206670 19135696 19064270 
1535.131 18999236 18945370 18904456 18875772 18856232 18842286 18830322 
1538.506 18817558 18802214 18783500 18761938 18739626 18719974 18706714 
1541.881 18703422 18711530 18729312 18751890 18770898 18777336 18762412 
1545.257 18720460 18649574 18552316 18434256 18302916 18166518 18033116 
1548.632 17909142 17799552 17707144 17632356 17572394 17522842 17478010 
1552.007 17432570 17383510 17331258 17278762 17231724 17195598 17174348 
1555.382 17168258 17174744 17188528 17204540 17218072 17228064 17235776 
1558.758 17244184 17257306 17278230 17307912 17345408 17388392 17433630 
1562.133 17478366 17520522 17559198 17594390 17626404 17655886 17683146 
1565.508 17707922 17729934 17749670 17768300 17789012 17816772 17857886 
1568.883 17918610 18004086 18116706 18255704 18417260 18596230 18787560 
1572.259 18988046 19196426 19414002 19642346 19882010 20131412 20385240 
1575.634 20634630 20868262 21074206 21241632 21362056 21431000 21447478 
1579.009 21415162 21340174 21231188 21097090 20946142 20784008 20614736 
1582.384 20440650 20264552 20090828 19927142 19781924 19663876 19578312 
1585.760 19524916 19497220 19484326 19473152 19452878 19417270 19365618 
1589.135 19301862 19232542 19164488 19102734 19050592 19010724 18985036 
1592.510 18976088 18985308 19013248 19057002 19111476 19169678 19225090 
1595.885 19274340 19318124 19361772 19413280 19481370 19573250 19693370 
1599.260 19843402 20022136 20227490 20456618 20706336 20974004 21257586 
1602.636 21555246 21867178 22194622 22539922 22904708 23287814 23684728 
1606.011 24086166 24479358 24851142 25189326 25486088 25737798 25944152 
1609.386 26106514 26225694 26300798 26330678 26313946 26252894 26152496 
1612.761 26021050 25867970 25701960 25529240 25352792 25173460 24992008 
1616.137 24809554 24629314 24455552 24293716 24147802 24021638 23917010 
1619.512 23834872 23775394 23737818 23720106 23718938 23729216 23745388 
1622.887 23762400 23777136 23788538 23798384 23809290 23823766 23842922 
1626.262 23865878 23890348 23913656 23934242 23952494 23970918 23994206 
1629.638 24027452 24075576 24140772 24222506 24316770 24416188 24511526 
1633.013 24593826 24656388 24696516 24716028 24720684 24717594 24712756 
1636.388 24709098 24705030 24696582 24679134 24650882 24614182 24575598 
1639.763 24544076 24527560 24530718 24552784 24588544 24630234 24670306 
1643.139 24703306 24727470 24744366 24757770 24772422 24793794 24826860 
1646.514 24875876 24943504 25030114 25132270 25243552 25355190 25459030 
1649.889 25549968 25627650 25697724 25769372 25853262 25958204 26087238 
1653.264 26239032 26407370 26584424 26763778 26941002 27114652 27285080 
1656.640 27454156 27624504 27799606 27984148 28182620 28398626 28632436 
1660.015 28880416 29135608 29389302 29634390 29868562 30096558 30328028 
1663.390 30574872 30848166 31153146 31489354 31850926 32230478 32621290 
1666.765 33020214 33428128 33848192 34283560 34736364 35205484 35687596 
1670.141 36177564 36669460 37157524 37636608 38102372 38553320 38990220 
1673.516 39418136 39845360 40282372 40739256 41223992 41740764 42289964 
1676.891 42868980 43475192 44105140 44754540 45417296 46084320 46743348 
1680.266 47381984 47990372 48565868 49113400 49644984 50176400 50722880 
1683.642 51294040 51894052 52521784 53174216 53849216 54548416 55275220 
1687.017 56033468 56824440 57648004 58502496 59388520 60310832 61279576 
1690.392 62307344 63405848 64581708 65836072 67165904 68569128 70049248 
1693.767 71618712 73297576 75110072 77077832 79215816 81531008 84027216 
1697.143 86712032 89603344 92734256 96150136 99902584 104042096 108611296 
1700.518 113643504 119166312 125209928 131815064 139037136 146943824 
1703.411 155609648 165105760 175492688 186816224 199106752 212380048 
1706.304 226638416 241867504 258032208 275070112 292891584 311384192 
1709.197 330422432 349876864 369619040 389516672 409420992 429152864 
1712.090 448495872 467198560 484992160 501614080 516837664 530495584 
1714.983 542498624 552844416 561617472 568978048 575137408 580322688 
1717.876 584740864 588548864 591842560 594666688 597036672 598965440 
1720.769 600479232 601617536 602421248 602918144 603114880 603001984 
1723.662 602571456 601836992 600847296 599681856 598434112 597185920 
1726.555 595987648 594851072 593758208 592677952 591585920 590476544 
1729.448 589362624 588267264 587215808 586230720 585333952 584555584 
1732.342 583938112 583538624 583421056 583643200 584249344 585267840 
1735.235 586720832 588637632 591070400 594095872 597811328 602317504 
1738.128 607701888 614024768 621314432 629573504 638790784 648951744 
1741.021 660042304 672043712 684922880 698620224 713044800 728074432 
1743.914 743559168 759327040 775184640 790914624 806279808 821028288 
1746.807 834914624 847719488 859269632 869442816 878157632 885350720 
1749.700 890958272 894906240 897117504 897529536 896112128 892871936 
1752.593 887844736 881078848 872620224 862509440 850793280 837542336 
1755.486 822865216 806911104 789859520 771897984 753205376 733937472 
1758.379 714230464 694207360 673988416 653697216 633460928 613403776 
1761.272 593641408 574276736 555397248 537075136 519368224 502316896 
1764.165 485943488 470249760 455220576 440828544 427042912 413837440 
1767.058 401194912 389106624 377567520 366566752 356083776 346084480 
1769.951 336524736 327356032 318532928 310017056 301779136 293794400 
1772.844 286040320 278489408 271109440 263861632 256705456 249600800 
1775.738 242513056 235413344 228281600 221106304 213884992 206623616 
1778.631 199338128 192051312 184792160 177592224 170483200 163492944 
1781.524 156645824 149961152 143455856 137145824 131047416 125177176 
1784.417 119550408 114178352 109067368 104217240 99624040 95281576 91183600 
1787.792 87324624 83699256 80299320 77112936 74124616 71315952 68670640 
1791.167 66177844 63833208 61639500 59603844 57733388 56031336 54494556 
1794.542 53113472 51873084 50753448 49733664 48791672 47907188 47062592 
1797.918 46245152 45446784 44666100 43904664 43166136 42452988 41766744 
1801.293 41106420 40471956 39865636 39293204 38762700 38281664 37851928 
1804.668 37469120 37120292 36787980 36455264 36110292 35749564 35377900 
1808.043 35004788 34639740 34287116 33946060 33610164 33271984 32925508 
1811.419 32569188 32205340 31838212 31471756 31108716 30749402 30395496 
1814.794 30050560 29722400 29420682 29155632 28932246 28749576 28598384 
1818.169 28465128 28334694 28196344 28044698 27881506 27711016 27537592 
1821.544 27362616 27183902 26995136 26789128 26559768 26303926 26020914 
1824.920 25714376 25389498 25054656 24719402 24395668 24094112 23823966 
1828.295 23589088 23386418 23205410 23030338 22843666 22632476 22390780 
1831.670 22122382 21838960 21555240 21283824 21031260 20795922 20570948 
1835.045 20347480 20121334 19894512 19676614 19480244 19314940 19181708 
1838.421 19071758 18965382 18841370 18682794 18485794 18259722 18028102 
1841.796 17817022 17648446 17529486 17450676 17386880 17306504 17183448 
1845.171 17006136 16781248 16533766 16296968 16102826 15970137 15901351 
1848.546 15880635 15882654 15879856 15854113 15801406 15732974 15669139 
1851.922 15632113 15634369 15673932 15731109 15774913 15769305 15687050 
1855.297 15516143 15266667 14967700 14661611 14391875 14193437 14083152 
1858.672 14058104 14096100 14165155 14228665 14258330 14234096 14150910 
1862.047 14013323 13835385 13634042 13427874 13233076 13064404 12932469 
1865.423 12845509 12807691 12822182 12887395 13001179 13156483 13343422 
1868.798 13545667 13742711 13908959 14019400 14052526 13998939 13862997 
1872.173 13666323 13440832 13225127 13050306 12935805 12879819 12864194 
1875.548 12858222 12831409 12761632 12644453 12492928 12334091 12197628 
1878.924 12108631 12075209 12091014 12133130 12175329 12194014 12179104 
1882.299 12136267 12087397 12059527 12079717 12161374 12302541 12482169 
1885.674 12667955 12822830 12918818 12940794 12895368 12805124 12705628 
1889.049 12633103 12617382 12670142 12784445 12933000 13078026 13177537 
1892.425 13200968 13133910 12986835 12789360 12584249 12413501 12308418 
1895.800 12276610 12305303 12361829 12409320 12414261 12359699 12245411 
1899.175 12087019 11904055 11716125 11532353 11355491 11182346 11014448 
1902.550 10857742 10727812 10641789 10614770 10650950 10745014 10879113 
1905.926 11033329 11187713 11331121 11455273 11558608 11637960 11689454 
1909.301 11707292 11687979 11632069 11548915 11450640 11353672 11269190 
1912.676 11203043 11152156 11110500 11065418 11007907 10927033 10816676 
1916.051 10670844 10489661 10278718 10055888 9845739 9677786 9573772 9542147 
1919.909 9567451 9618835 9655115 9647685 9590006 9510467 9460337 9501895 
1923.766 9680424 10007081 10447538 10931033 11369318 11687146 11837483 
1927.141 11819009 11663930 11430696 11176167 10946976 10770313 10658750 
1930.517 10613088 10635047 10723257 10875391 11074726 11296532 11501881 
1933.892 11655467 11728626 11720757 11655667 11583653 11563579 11649869 
1937.267 11868738 12215762 12640737 13067763 13404012 13567339 13503560 
1940.642 13209422 12728615 12150987 11582539 11122055 10828126 10709111 
1944.018 10717638 10774781 10789593 10699108 10476977 10148138 9768690 
1947.393 9414474 9150911 9030372 9078096 9306706 9708705 10270800 10957407 
1951.250 11714914 12462636 13110017 13567996 13778969 13725067 13440951 
1954.625 12990007 12451056 11885573 11331160 10799815 10302079 9857603 
1958.001 9518956 9352608 9432742 9790936 10407954 11201290 12055518 12852496 
1961.858 13516797 14026000 14406238 14690531 14891755 14962237 14809644 
1965.233 14312419 13388613 12028595 10344795 8548083 6918496 5724841 5164811 
1969.091 5292828 6026175 7147180 8372913 9419008 10084184 10289501 10103861 
1972.948 9698517 9302752 9107298 9219084 9602186 10117356 10551097 10729758 
1976.806 10564602 10128426 9606908 9254850 9282819 9803614 10791653 12129838 
1980.663 13641883 15167939 16575342 17793354 18773890 19498094 19944078 
1984.038 20102396 19965214 19559846 18937380 18181656 17379762 16606819 
1987.414 15902340 15280422 14724457 14225857 13785702 13432472 13200940 
1990.789 13119954 13189917 13387785 13658547 13953941 14230779 14473780 
1994.164 14669319 14802265 14824201 14664628 14230189 13461445 12353003 
1997.539 10998884 9581301 8354068 7574303 7453443 8080768 9410600 11246114 
2001.397 13287148 15176007 16582735 17260312 17111262 16194677 14730291 
2004.772 13036643 11481526 10374743 9902191 10061001 10678125 11445388 
2008.147 12039759 12206969 11842076 10992161 9849494 8658127 7667498 7051267 
2012.005 6904788 7223787 7947186 8962434 10144177 11346805 12429222 13246753 
2015.862 13692420 13702754 13306939 12612579 11804052 11084192 10631830 
2019.237 10531578 10770017 11228805 11751356 12171246 12382543 12342485 
2022.613 12080754 11636446 11056556 10343021 9482035 8445477 7258132 5985992 
2026.470 4768348 3751897 3080935 2818680 2959463 3408945 4049939 4767838 
2030.327 5513533 6283931 7124906 8061164 9070762 10048269 10845006 11308961 
2034.185 11366872 11048065 10505242 9949063 9596380 9578871 9922892 10538660 
2038.042 11282002 11985512 12537436 12883014 13041887 13061227 13009003 
2041.417 12938364 12901605 12940080 13109632 13452761 13993459 14689871 
2044.793 15435544 16057493 16377365 16256170 15672797 14731278 13652654 
2048.168 12694190 12070086 11862087 12007415 12315905 12566142 12572885 
2051.543 12260089 11658035 10890804 10119407 9498486 9119337 9002930 9091428 
2055.401 9286285 9470396 9553805 9478007 9234526 8846316 8374037 7892153 
2059.258 7488943 7239339 7200227 7385289 7770774 8288484 8856137 9389260 
2063.115 9832684 10163945 10400140 10573165 10719858 10854170 10970821 
2066.491 11042073 11046381 10973510 10843467 10696943 10588176 10554084 
2069.866 10605949 10712679 10814886 10832615 10700714 10381285 9888294 
2073.241 9282346 8666815 8157586 7863275 7850746 8137737 8681474 9398958 
2077.099 10180742 10929355 11568177 12066471 12428516 12686749 12877786 
2080.474 13034189 13163478 13258339 13292278 13241866 13082551 12805630 
2083.849 12409670 11906982 11312644 10655224 9967584 9294748 8683736 8185827 
2087.707 7837818 7664478 7662201 7809176 8061435 8371536 8688598 8977087 
2091.564 9214133 9399941 9546424 9683256 9839099 10040076 10292278 10580055 
2095.421 10861519 11083658 11191186 11153108 10967937 10675253 10334576 
2098.797 10015314 9766737 9611831 9534998 9504059 9478525 9436375 9371897 
2102.654 9302961 9249344 9225766 9226118 9236757 9237463 9228091 9228232 
2106.511 9283292 9441918 9740789 10177947 10714249 11272184 11765718 
2109.887 12116147 12281748 12257762 12078874 11795679 11463685 11120747 
2113.262 10788268 10465108 10140214 9797445 9430217 9040459 8650125 8290274 
2117.119 8003991 7824789 7772712 7833308 7957740 8061985 8052906 7845329 
2120.977 7400926 6735316 5928077 5095580 4362675 3815726 3483982 3323773 
2124.834 3241513 3122550 2875448 2458756 1902175 1286531 727175 328928 
2128.692 163146 242563 524836 920279 1323988 1631076 1771893 1715109 1480512 
2133.031 1124370 733892 396735 188134 147850 281494 554208 913138 1290023 
2137.371 1620550 1841544 1900314 1747304 1354367 711996 -139898 -1119772 
2141.228 -2097923 -2929214 -3476206 -3661638 -3477842 -3007534 -2382319 
2144.604 -1766046 -1292393 -1051360 -1066937 -1330904 -1807862 -2477899 
2147.979 -3325485 -4349262 -5520956 -6791328 -8061112 -9227457 -10188966 
2151.354 -10899496 -11367760 -11681497 -11950700 -12301127 -12809479 
2154.247 -13507472 -14346159 -15227824 -15997568 -16474929 -16444281 
2157.140 -15698968 -14057725 -11470235 -8048202 -4137875 -237518 3101245 
2160.515 5458790 6641318 6745365 6072174 5053055 4097494 3502143 3364766 
2164.373 3597425 3970260 4224492 4148741 3663387 2810194 1739250 623481 
2168.230 -379014 -1176670 -1732708 -2067265 -2210844 -2207461 -2090391 
2171.605 -1907197 -1702118 -1532191 -1423049 -1376841 -1332767 -1208951 
2174.981 -904162 -380783 318925 1059745 1660498 1952515 1869003 1476385 
2178.838 983736 661925 774389 1458013 2680646 4221488 5756210 6943487 
2182.696 7554676 7525721 6980523 6163019 5360782 4801512 4611613 4790454 
2186.553 5251066 5851858 6467232 7004471 7438033 7784817 8092517 8401694 
2190.410 8734469 9068459 9352631 9510104 9473461 9195420 8681908 7978959 
2194.268 7175274 6358302 5607443 4956880 4410276 3943256 3546988 3231511 
2198.125 3050498 3068413 3344183 3886103 4641621 5495149 6307162 6945778 
2201.983 7339736 7483496 7437540 7289899 7127867 6998018 6910731 6838647 
2205.840 6758810 6656417 6552150 6482528 6496316 6624073 6879406 7249595 
2209.698 7708571 8215010 8725263 9179571 9515132 9659857 9561260 9196904 
2213.555 8608209 7892027 7198248 6686073 6493519 6687432 7263116 8136168 
2217.412 9179186 10248221 11220888 12011673 12582091 12925711 13067130 
2220.788 13040954 12895943 12677797 12433873 12199153 12002051 11848832 
2224.163 11741223 11671474 11636844 11630559 11646664 11664120 11649619 
2227.538 11555037 11341962 10990747 10529832 10023033 9564109 9240313 
2230.913 9107027 9160492 9352098 9604254 9851352 10062356 10256513 10481101 
2234.771 10789683 11198133 11677848 12153352 12538076 12760129 12795031 
2238.146 12667282 12439721 12176136 11922571 11685041 11445736 11171311 
2241.521 10845930 10477416 10106859 9784322 9561583 9467692 9511701 9679522 
2245.379 9945442 10275085 10630338 10963057 11219881 11345921 11303213 
2248.754 11080222 10708369 10250022 9789514 9399419 9125247 8968403 8902399 
2252.611 8888340 8904027 8957547 9088202 9342073 9749741 10296850 10922115 
2256.469 11524066 11997716 12259333 12275890 12064565 11687011 11221754 
2259.844 10745169 10312959 9959068 9696483 9531762 9465302 9500324 9635992 
2263.701 9868171 10181831 10554801 10959486 11369900 11759837 12111848 
2267.077 12411115 12652909 12837156 12973228 13077985 13173196 13275318 
2270.452 13395026 13526778 13653867 13751409 13800213 13791152 13736106 
2273.827 13658658 13593482 13568550 13603679 13699906 13850177 14038632 
2277.202 14253304 14483655 14723577 14963198 15188559 15379005 15513777 
2280.578 15579537 15579225 15530606 15466305 15420952 15421288 15476493 
2283.953 15577765 15702004 15825307 15928747 16008303 16069189 16122553 
2287.328 16174249 16221112 16249729 16242979 16188348 16085662 15950248 
2290.703 15808469 15688322 15608244 15569487 15555015 15533669 15474108 
2294.079 15354082 15169413 14936068 14684387 14449337 14259317 14128920 
2297.454 14056458 14027209 14020267 14016564 14003512 13978860 13949097 
2300.829 13925045 13919380 13941474 13997305 14085965 14202536 14336588 
2304.204 14476211 14607931 14720805 14807381 14867475 14906264 14933819 
2307.580 14961152 14996416 15040854 15088339 15127222 15144832 15132139 
2310.955 15090139 15028837 14968452 14931679 14939147 15002167 15121168 
2314.330 15285230 15476878 15677677 15874233 16060065 16237197 16412009 
2317.705 16593711 16789110 17005096 17247402 17523722 17843264 18214316 
2321.081 18635942 19091544 19542126 19927472 20174450 20213662 19994938 
2324.456 19504076 18766098 17844450 16827428 15811957 14885025 14109855 
2327.831 13515820 13100362 12834382 12677684 12589956 12541595 12516434 
2331.206 12509092 12519736 12546810 12584696 12623615 12652214 12662425 
2334.582 12650080 12618224 12573274 12523758 12478614 12445210 12428492 
2337.957 12431839 12455266 12495727 12546090 12595613 12631970 12643836 
2341.332 12624764 12574417 12498752 12410804 12323139 12247943 12193395 
2344.707 12161072 12149107 12151917 12162913 12175562 12182863 12180566 
2348.083 12164013 12132730 12086784 12030974 11970104 11908973 11849396 
2351.458 11788775 11720798 11638216 11535105 11412249 11277374 11144272 
2354.833 11029904 10948550 10907322 10905058 10931281 10970778 11008001 
2358.208 11031180 11033516 11014991 10978679 10930181 10872731 10809175 
2361.583 10740850 10668470 10594324 10521180 10451257 10386846 10326606 
2364.959 10268008 10207408 10141642 10071022 10000377 9938105 9895056 
2368.334 9881861 9905426 9967126 10063346 10184194 10318437 10454020 
2371.709 10581019 10691409 10779848 10841551 10873401 10871712 10835676 
2375.084 10767025 10673219 10566577 10464356 10385174 10345588 10355405 
2378.460 10415773 10516774 10640926 10764740 10867657 10934672 10961846 
2381.835 10958082 10942671 10938821 10968488 11043185 11162634 11311140 
2385.210 11464359 11596560 11688928 11735517 11746207 11741137 11743509 
2388.585 11770532 11827429 11903972 11980228 12032563 12044046 12007999 
2391.961 11931615 11830188 11723679 11626922 11547936 11486092 11436418 
2395.336 11390738 11344158 11294190 11242839 11195081 11157024 11136859 
2398.711 11143435 11183680 11260909 11370894 11500639 11626105 11721216 
2402.086 11760915 11731799 11637616 11499844 11353981 11240371 11193494 
2405.462 11236180 11372920 11594462 11878402 12195698 12514667 12803244 
2408.837 13031165 13173289 13213358 13149206 12994692 12778026 12535686 
2412.212 12301875 12099561 11934243 11794926 11662204 11517473 11355071 
2415.587 11183327 11024565 10904355 10844143 10853186 10926505 11051842 
2418.963 11212804 11395327 11588817 11781362 11956737 12091146 12156300 
2422.338 12127542 11993381 11764590 11474622 11172282 10910249 10728948 
2425.713 10647131 10657448 10734371 10843177 10954070 11049162 11127386 
2429.088 11198326 11277350 11375618 11495752 11629707 11761369 11871096 
2432.464 11940366 11955533 11910444 11806708 11654660 11469790 11272727 
2435.839 11084266 10924066 10807218 10743604 10737489 10788333 10892017 
2439.214 11040663 11221411 11416071 11600294 11746511 11826952 11823394 
2442.589 11730969 11563717 11355100 11150942 11000426 10944647 11006157 
2445.965 11183491 11451866 11768367 12082380 12346882 12526264 12602787 
2449.340 12577676 12466980 12297691 12100273 11902490 11727164 11588762 
2452.715 11495173 11447889 11443566 11475814 11536604 11614768 11698150 
2456.090 11771617 11820918 11832375 11796908 11712517 11585611 11431326 
2459.466 11272805 11134423 11038504 10998242 11012755 11066914 11133629 
2462.841 11180911 11180709 11116661 10990309 10819872 10636359 10473515 
2466.216 10360049 10310334 10324567 10388168 10481606 10583599 10677788 
2469.591 10755164 10813640 10853208 10877491 10890119 10895803 10901071 
2472.967 10912217 10934133 10966488 11003329 11034137 11047887 11039598 
2476.342 11015718 10993407 10994552 11038574 11129824 11254307 11379515 
2479.717 11466260 11480115 11406591 11255367 11058417 10857688 10689399 
2483.092 10574826 10513560 10489671 10481153 10472211 10459276 10448331 
2486.468 10451521 10475847 10520401 10575381 10630799 10682409 10739123 
2489.843 10818773 10941966 11119084 11341168 11578823 11788985 11929038 
2493.218 11972189 11916026 11785494 11622340 11473767 11377718 11354593 
2496.593 11404852 11517338 11671532 11848317 12029044 12197649 12337359 
2499.969 12428626 12454323 12402243 12271186 12073457 11834114 11584422 
2503.344 11355140 11170910 11043805 10976097 10960772 10988039 11046017 
2506.719 11123489 11209132 11293894 11368445 11426903 11467327 11493310 
2510.094 11509555 11522356 11533651 11540744 11538583 11521702 11490087 
2513.469 11449372 11410158 11385659 11382117 11398111 11423205 11443090 
2516.845 11445533 11429268 11403725 11387781 11399492 11450171 11535631 
2520.220 11639696 11735283 11798659 11814427 11781294 11708951 11612501 
2523.595 11506225 11399411 11297213 11205974 11137106 11110065 11144234 
2526.970 11252003 11427263 11640702 11842919 11976804 11995608 11880876 
2530.346 11648838 11347628 11043845 10802207 10666167 10648878 10733792 
2533.721 10887500 11071817 11260137 11440666 11615606 11790467 11966269 
2537.096 12131627 12266209 12343795 12346057 12267758 12122056 11936678 
2540.471 11747856 11590557 11491330 11463215 11505735 11607016 11747862 
2543.847 11904622 12052856 12169709 12238096 12246470 12194282 12090551 
2547.222 11952750 11804080 11667997 11563624 11504108 11493823 11533732 
2550.597 11621391 11755646 11933888 12153344 12404480 12671424 12928690 
2553.972 13147745 13301486 13371506 13354663 13264709 13129387 12981946 
2557.348 12854014 12765734 12722442 12716264 12729809 12745762 12751166 
2560.723 12743356 12728244 12716990 12722733 12753640 12811447 12892048 
2564.098 12986950 13086367 13180842 13263660 13328786 13372512 13392326 
2567.473 13388040 13361534 13318661 13268101 13220282 13184939 13168970 
2570.849 13174803 13200032 13238118 13282343 13327185 13368943 13409506 
2574.224 13454574 13512092 13590015 13693975 13825720 13979401 14145175 
2577.599 14309563 14459069 14583805 14680894 14752918 14807903 14851997 
2580.974 14888306 14913275 14917710 14890147 14824421 14722075 14596106 
2584.350 14466639 14356219 14282034 14251289 14258632 14291152 14332710 
2587.725 14370465 14398591 14417690 14432631 14447397 14461125 14468166 
2591.100 14460161 14431630 14381774 14318330 14255390 14210874 14200114 
2594.475 14234005 14314838 14436909 14586566 14745450 14891595 15004497 
2597.851 15066774 15069218 15013029 14911353 14786694 14666108 14574640 
2601.226 14529325 14534727 14583969 14661796 14751452 14840010 14921266 
2604.601 14996168 15068570 15140473 15210129 15269754 15308296 15316823 
2607.976 15291627 15238303 15170773 15108124 15070083 15071464 15117989 
2611.352 15204697 15316874 15433401 15532521 15597094 15618235 15596703 
2614.727 15543369 15473156 15401775 15339952 15291460 15253059 15218076 
2618.102 15179998 15137164 15093257 15055842 15033809 15034638 15058788 
2621.477 15103364 15162130 15228936 15299200 15372575 15450569 15535465 
2624.853 15628600 15730064 15838187 15950775 16064469 16174773 16274439 
2628.228 16353212 16400745 16407993 16373795 16305635 16220039 16139193 
2631.603 16083078 16064711 16084991 16133856 16194778 16253771 16303672 
2634.978 16346684 16391834 16449589 16524110 16609831 16692756 16755134 
2638.354 16782858 16770219 16722528 16654057 16581301 16518468 16474253 
2641.729 16451331 16448032 16462132 16491788 16535407 16589526 16647492 
2645.104 16697565 16728267 16730428 16702246 16650390 16589077 16533621 
2648.479 16497109 16483819 16488334 16498458 16499499 16480407 16437599 
2651.854 16375711 16304797 16236445 16179930 16137840 16107598 16081357 
2655.230 16050199 16005652 15942970 15861530 15764181 15656626 15544938 
2658.605 15434735 15329681 15230313 15135203 15040692 14942310 14836578 
2661.980 14721170 14596440 14463907 14326156 14186676 14048859 13915118 
2665.355 13789029 13673366 13571525 13486733 13421848 13377598 13353724 
2668.731 13347998 13357298 13376531 13401142 13427374 13451554 13472251 
2672.106 13488922 13503629 13518521 13535834 13555218 13575054 13590055 
2675.481 13594389 13583562 13556043 13514787 13467235 13422628 13388150 
2678.856 13367575 13359026 13356491 13352786 13342340 13323982 13300854 
2682.232 13279336 13265811 13264148 13274355 13293022 13315561 13336493 
2685.607 13352836 13362524 13364295 13356966 13337836 13305007 13256671 
2688.982 13193362 13118408 13036130 12951305 12868529 12790146 12718952 
2692.357 12657114 12607794 12574693 12560256 12564125 12582078 12605904 
2695.733 12625944 12633711 12624320 12598302 12560171 12517509 12478626 
2699.108 12450038 12436531 12440923 12463761 12504969 12560669 12624805 
2702.483 12687699 12738667 12769371 12775453 12759706 12731269 12701825 
2705.858 12681522 12674538 12677249 12681049 12674965 12652640 12613709 
2709.234 12565600 12519289 12485035 12468467 12468870 12480257 12495826 
2712.609 12511309 12527797 12550470 12586599 12641286 12714547 12800386 
2715.984 12887900 12964165 13017978 13041502 13032251 12992219 12928949 
2719.359 12852905 12776387 12711688 12667105 12646842 12648351 12664268 
2722.735 12685386 12705140 12721713 12739291 12767008 12811706 12875501 
2726.110 12951013 13023812 13075447 13091648 13067183 13007890 12928283 
2729.485 12846733 12778784 12733031 12710039 12706154 12717269 12742759 
2732.860 12785459 12849784 12935833 13038035 13143677 13236620 13302477 
2736.236 13334340 13333203 13309693 13276447 13244751 13220108 13200226 
2739.611 13179515 13152367 13115940 13072704 13028442 12989404 12959445 
2742.986 12938846 12924397 12913434 12904399 12900597 12906999 12929318 
2746.361 12970312 13026507 13089529 13147607 13188398 13203787 13191551 
2749.737 13156743 13108470 13058987 13018793 12994441 12986945 12993829 
2753.112 13008002 13023284 13034327 13039564 13040829 13042283 13046963 
2756.487 13057739 13073508 13091864 13107736 13118342 13122668 13122928 
2759.862 13122908 13127143 13137112 13151244 13165015 13171475 13165077 
2763.238 13143401 13106163 13058732 13007765 12961318 12927180 12911647 
2766.613 12918345 12949509 13002930 13074358 13155921 13238912 13314324 
2769.988 13375663 13419667 13447625 13462316 13467629 13465140 13455034 
2773.363 13435537 13405814 13367433 13325041 13286637 13258911 13245495 
2776.739 13246031 13253818 13261424 13261397 13250854 13232395 13211878 
2780.114 13196478 13191687 13198446 13215270 13238247 13265429 13297185 
2783.489 13335946 13384423 13443364 13509418 13576712 13637496 13687193 
2786.864 13723274 13750026 13773425 13800569 13835947 13879748 13929831 
2790.240 13981335 14030425 14075325 14115747 14152909 14186808 14217345 
2793.615 14242559 14262531 14277544 14290974 14307871 14332084 14365590 
2796.990 14407170 14451111 14490468 14519706 14536474 14543016 14546554 
2800.365 14556663 14582742 14631657 14705297 14799835 14906063 15011773 
2803.740 15103514 15169515 15203174 15203810 15177811 15136457 15093867 
2807.116 15062559 15050174 15058314 15082193 15112956 15142692 15165936 
2810.491 15184471 15204147 15235801 15290300 15374918 15492039 15639046 
2813.866 15806990 15985779 16163241 16329063 16474446 16592935 16679877 
2817.241 16734304 16757609 16756972 16741663 16725400 16720401 16738035 
2820.617 16783530 16856334 16949162 17051606 17152762 17245330 17326930 
2823.992 17400586 17473798 17554160 17646990 17752874 17868588 17988250 
2827.367 18105296 18215262 18316620 18408504 18489860 18557258 18604496 
2830.742 18624996 18614360 18574952 18515816 18451038 18397296 18366406 
2834.118 18361904 18377996 18401620 18418100 18418752 18403184 18381794 
2837.493 18371270 18388710 18446054 18544668 18677134 18830768 18991926 
2840.868 19151728 19307776 19463036 19623242 19793666 19976142 20169042 
2844.243 20368938 20572954 20778986 20988770 21204408 21429082 21663470 
2847.619 21907964 22160084 22415986 22670490 22917726 23150268 23360608 
2850.994 23543420 23696850 23826364 23942056 24059056 24192482 24352390 
2854.369 24541608 24752614 24971454 25181708 25369852 25528814 25659914 
2857.744 25770574 25870934 25970366 26075158 26187252 26306652 26432776 
2861.120 26565442 26707762 26861570 27030276 27214868 27416804 27636602 
2864.495 27877660 28143990 28442814 28780862 29162770 29590730 30063254 
2867.870 30574488 31116780 31680450 32255192 32831554 33400562 33955348 
2871.245 34494040 35017960 35534244 36053068 36584424 37134720 37702812 
2874.621 38279580 38846992 39383664 39868992 40287044 40630324 40899736 
2877.996 41102568 41249116 41349592 41411244 41438992 41432904 41393468 
2881.371 41319096 41208376 41060236 40873868 40649860 40391792 40105156 
2884.746 39802020 39495608 39202776 38938236 38713900 38534900 38401448 
2888.122 38307912 38247904 38214324 38203624 38215828 38254288 38323380 
2891.497 38427556 38568324 38742768 38944172 39161600 39383088 39595476 
2894.872 39787880 39953528 40089140 40196972 40281352 40348820 40404804 
2898.247 40453072 40492636 40520196 40530808 40519984 40486224 40432712 
2901.623 40366564 40298916 40242264 40208628 40205576 40237276 40302188 
2904.998 40394936 40506108 40625384 40742808 40850436 40944972 41028292 
2908.373 41106572 41191144 41293976 41425740 41593424 41797576 42033424 
2911.748 42292628 42566852 42849088 43137284 43433516 43741208 44063972 
2915.124 44401216 44747672 45094220 45429960 45745456 46036356 46304660 
2918.499 46558556 46809872 47072364 47356572 47668356 48007360 48367068 
2921.874 48736856 49105648 49463888 49808848 50144636 50482328 50839272 
2925.249 51232352 51673840 52168640 52711200 53288124 53881796 54477852 
2928.625 55067880 55654720 56250840 56874524 57545448 58279544 59086220 
2932.000 59969932 60930760 61970044 63090040 64296536 65595248 66990776 
2935.375 68484328 70072872 71752096 73517336 75367936 77304344 79328168 
2938.750 81437408 83620352 85853736 88103304 90326680 92477488 94514216 
2942.125 96402472 98118480 99645856 100974448 102095088 102997824 103673096 
2945.501 104112824 104314648 104286176 104044056 103614792 103029928 
2948.394 102321960 101518344 100642600 99709680 98732096 97719280 96682496 
2951.769 95635496 94594056 93572744 92586712 91645712 90755544 89918208 
2955.144 89132080 88393688 87699008 87042976 86421344 85828408 85260280 
2958.520 84712744 84181088 83662344 83152432 82646136 82137776 81618496 
2961.895 81081688 80520904 79933360 79319152 78682400 78027712 77359472 
2965.270 76679920 75991544 75295832 74595576 73896728 73206064 72532512 
2968.645 71881984 71257872 70660896 70089160 69540648 69014624 68510784 
2972.021 68027728 67562760 67108392 66655696 66196396 65729016 65260724 
2975.396 64809664 64399852 64055340 63792548 63615636 63515776 63475996 
2978.771 63478396 63512624 63580348 63695080 63875728 64142824 64508348 
2982.146 64976320 65540560 66193080 66926188 67740040 68639504 69635672 
2985.521 70738928 71955560 73284264 74716824 76237480 77825544 79456248 
2988.897 81102784 82734784 84322208 85832648 87236040 88505336 89618432 
2992.272 90556888 91309384 91868592 92232392 92402424 92385240 92190448 
2995.647 91829680 91315240 90657656 89865824 88948320 87914904 86777944 
2999.022 85552376 84257200 82909624 81525136 80112424 78676192 77215048 
3002.398 75728312 74217216 72685752 71139728 69586040 68027120 66460572 
3005.773 64880884 63280752 61656824 60012100 58356936 56710768 55094016 
3009.148 53529136 52034040 50620520 49292608 48046356 46870912 45749396 
3012.523 44660392 43583212 42500800 41405752 40301296 39203392 38135276 
3015.899 37122080 36182080 35323276 34538968 33811516 33116866 32433630 
3019.274 31746138 31050180 30350272 29657592 28984596 28342736 27739028 
3022.649 27176612 26655450 26173470 25725958 25306028 24904998 24513670 
3026.024 24120596 23719652 23307580 22890198 22478228 22087478 21733754 
3029.400 21430514 21182640 20985230 20824918 20683656 20541754 20385124 
3032.775 20209082 20019430 19829952 19658502 19519774 19420004 19355212 
3036.150 19311330 19269988 19213212 19131608 19024558 18900526 18773816 
3039.525 18658614 18565652 18500866 18464972 18456252 18473690 18514746 
3042.901 18576368 18650792 18725452 18784480 18811400 18795344 18735780 
3046.276 18644366 18541974 18453992 18400906 18394394 18432742 18502554 
3049.651 18583352 18654138 18699932 18712012 18690056 18641834 18577290 
3053.026 18509650 18451636 18415050 18409540 18439442 18501682 18585404 
3056.402 18673268 18744004 18779532 18768518 18712280 18622938 18522058 
3059.777 18431330 18368646 18340798 18342556 18357994 18365512 18344638 
3063.152 18279820 18168066 18015634 17839298 17662106 17506390 17391608 
3066.527 17329800 17322336 17360582 17428086 17504164 17569142 17608380 
3069.903 17615786 17594226 17554410 17510872 17477840 17464596 17474042 
3073.278 17501750 17539784 17576696 17603918 17614936 17607168 17580186 
3076.653 17536154 17475582 17401048 17314612 17221748 17130722 17052386 
3080.028 16998416 16979576 17000532 17058720 17144748 17244670 17342766 
3083.404 17426724 17491248 17536532 17567234 17589350 17605774 17613806 
3086.779 17605468 17570704 17501308 17393958 17252992 17090956 16923394 
3090.154 16768552 16639391 16546283 16490584 16470756 16480481 16511993 
3093.529 16556801 16606187 16652165 16687255 16705118 16703255 16680513 
3096.905 16640518 16588250 16531397 16476296 16430216 16396914 16379401 
3100.280 16376643 16385639 16399732 16410498 16407847 16385112 16337082 
3103.655 16264683 16175607 16081622 15997397 15935117 15903750 15904864 
3107.030 15933894 15981790 16036373 16087011 16124738 16144652 16146529 
3110.406 16132971 16109709 16083725 16061490 16048117 16044028 16045785 
3113.781 16044511 16029453 15988806 15915250 15806586 15670318 15519713 
3117.156 15371062 15241601 15142515 15078404 15047297 15042412 15055711 
3120.531 15080829 15113900 15153258 15197439 15243934 15287099 15318554 
3123.906 15330860 15319829 15286696 15238477 15186681 15143774 15120132 
3127.282 15120367 15143237 15182778 15231240 15281084 15326748 15365086 
3130.657 15392944 15406541 15400520 15367731 15304704 15211427 15095977 
3134.032 14972314 14858807 14771941 14723493 14715147 14739052 14781977 
3137.407 14829958 14872493 14908312 14942041 14983349 15039816 15113769 
3140.783 15197320 15275220 15327460 15335812 15287835 15183080 15030072 
3144.158 14847861 14658457 14484819 14344218 14247405 14195548 14182974 
3147.533 14197371 14225154 14252103 14270733 14277767 14277318 14276867 
3150.908 14285274 14306981 14339665 14372362 14389338 14372533 14309373 
3154.284 14197827 14048454 13884054 13734302 13628353 13589450 13626179 
3157.659 13734140 13895516 14084981 14275583 14444794 14577148 14667214 
3161.034 14715396 14728650 14714376 14681356 14636777 14586891 14537307 
3164.409 14493325 14459506 14439875 14435611 14446395 14468421 14495548 
3167.785 14521088 14538150 14541212 14528461 14500320 14461976 14421182 
3171.160 14387703 14371200 14379972 14416465 14479103 14560575 14651213 
3174.535 14741036 14823126 14897268 14968034 15044142 15134113 15240080 
3177.910 15357265 15470878 15559711 15600955 15575406 15472380 15294843 
3181.286 15056110 14781649 14502263 14250225 14053456 13933154 13896048 
3184.661 13937267 14037449 14169129 14301495 14408097 14474938 14502740 
3188.036 14505896 14507021 14526938 14576869 14652343 14734469 14796641 
3191.411 14814586 14775994 14685118 14563217 14441078 14348097 14304070 
3194.787 14313500 14365399 14438926 14511300 14564329 14589218 14586387 
3198.162 14563209 14529316 14493483 14461602 14435177 14413032 14393448 
3201.537 14374073 14354586 14336807 14325350 14326648 14349073 14398004 
3204.912 14476455 14581333 14704174 14833399 14955907 15061704 15146267 
3208.288 15209150 15254858 15287251 15309546 15321847 15322318 15308915 
3211.663 15281308 15241207 15193242 15140853 15089740 15043351 15006419 
3215.038 14983690 14983138 15009508 15066161 15149116 15246435 15341205 
3218.413 15414765 15452444 15449473 15410583 15349568 15282928 15224255 
3221.789 15181103 15153264 15136534 15125089 15114287 15103158 15091485 
3225.164 15077757 15059701 15033212 14996452 14953197 14912308 14888268 
3228.539 14893085 14934452 15008384 15101813 15194840 15269178 15311939 
3231.914 15321150 15302867 15268006 15226965 15186455 15148098 15110812 
3235.290 15074060 15039463 15009952 14988991 14976373 14967762 14955352 
3238.665 14930901 14888437 14828931 14756502 14678411 14601605 14531397 
3242.040 14470504 14422946 14393935 14391408 14422866 14489626 14584655 
3245.415 14689168 14777960 14827440 14821921 14763347 14671918 14579270 
3248.791 14521623 14526169 14605020 14751145 14941298 15143733 15325774 
3252.166 15459417 15527192 15522734 15449727 15320570 15155421 14979011 
3255.541 14816960 14690635 14612135 14582245 14588440 14611211 14629627 
3258.916 14628517 14602858 14559298 14510373 14470061 14445674 14436782 
3262.292 14434660 14428493 14409545 14375517 14332191 14290824 14261352 
3265.667 14251545 14261302 14283193 14307829 14324046 14326268 14313944 
3269.042 14291984 14269913 14256804 14262189 14290566 14342925 14416438 
3272.417 14504106 14597499 14688627 14769917 14837868 14891472 14933581 
3275.792 14966600 14995239 15020374 15043655 15063538 15080684 15096405 
3279.168 15113447 15135218 15164134 15197783 15230122 15249172 15242072 
3282.543 15197593 15108800 14977439 14815487 14642186 14480394 14352003 
3285.918 14273723 14252501 14285612 14361746 14464205 14575399 14681235 
3289.293 14771696 14843685 14897409 14935510 14960507 14974162 14978118 
3292.669 14974467 14966520 14960217 14962520 14979821 15015439 15069167 
3296.044 15135160 15205260 15268095 15314276 15335292 15327372 15290393 
3299.419 15230536 15157955 15088011 15036501 15019908 15046975 15118940 
3302.794 15225436 15347674 15459117 15537179 15564570 15536511 15460613 
3306.170 15353917 15237680 15130272 15044329 14984277 14948578 14933587 
3309.545 14935762 14954115 14987881 15035844 15092251 15146899 15185148 
3312.920 15192574 15158173 15079605 14965399 14833525 14709283 14618971 
3316.295 14583030 14612123 14701295 14834144 14983816 15120436 15218762 
3319.671 15265878 15262094 15223059 15170448 15128611 15114456 15132670 
3323.046 15174250 15219850 15245655 15231169 15163911 15045198 14886714 
3326.421 14711500 14545831 14416545 14344579 14341645 14406214 14524059 
3329.796 14669477 14811382 14918999 14971006 14960235 14897701 14808159 
3333.172 14722723 14670068 14668954 14722972 14821550 14945731 15075990 
3336.547 15196241 15297542 15375858 15428824 15452182 15440102 15386755 
3339.922 15291906 15163146 15018706 14883295 14782084 14731864 14738240 
3343.297 14789938 14867842 14946667 15006150 15034181 15029740 15000094 
3346.673 14957892 14914782 14881071 14861922 14859467 14874275 14905903 
3350.048 14952006 15008442 15069046 15125630 15169104 15191374 15189182 
3353.423 15163075 15118434 15063674 15006768 14953439 14905714 14860897 
3356.798 14814381 14760776 14695807 14619472 14534798 14448982 14368880 
3360.174 14300900 14248308 14211443 14188402 14177277 14175936 14185844 
3363.549 14209707 14249336 14304960 14373887 14448240 14519014 14576970 
3366.924 14616577 14636363 14639698 14632100 14619087 14603253 14586285 
3370.299 14566378 14545227 14527001 14521070 14538380 14589551 14678895 
3373.675 14802932 14946664 15089660 15207285 15279410 15295155 15256419 
3377.050 15175277 15074443 14976076 14901770 14861825 14855351 14871385 
3380.425 14892627 14899164 14878766 14826447 14750454 14667653 14601134 
3383.800 14570942 14590687 14660724 14768623 14890044 14996205 15057514 
3387.176 15053763 14976078 14832608 14643412 14441487 14262324 14139490 
3390.551 14095343 14137274 14256030 14427030 14615467 14785701 14907729 
3393.926 14965395 14956273 14892154 14791775 14678075 14568445 14474816 
3397.301 14400940 14347171 14312030 14295639 14302445 14339730 14414341 
3400.677 14533009 14695309 14895014 15117915 15345356 15554891 15726447 
3404.052 15844835 15906252 15915347 15887264 15843544 15804950 15788021 
3407.427 15803035 15849778 15923817 16015921 16118100 16223855 16327139 
3410.802 16421882 16501006 16556490 16582035 16577061 16548414 16509237 
3414.177 16476795 16462991 16471380 16492013 16507046 16494038 16437981 
3417.553 16338181 16209962 16080348 15981160 15935659 15954746 16030077 
3420.928 16141525 16262298 16369814 16449854 16500331 16527083 16541457 
3424.303 16552733 16566884 16584478 16603567 16619451 16629251 16630791 
3427.678 16626008 16619731 16621266 16642099 16695919 16791704 16932008 
3431.054 17108128 17300302 17480588 17619978 17695654 17698488 17635462 
3434.429 17526946 17401368 17286584 17202644 17160140 17158516 17189378 
3437.804 17242488 17306676 17372496 17431880 17476874 17501232 17500456 
3441.179 17471996 17419410 17349626 17271630 17194310 17123204 17061078 
3444.555 17007834 16963342 16929926 16910704 16909256 16927910 16962622 
3447.930 17006356 17046756 17074448 17083194 17073556 17050968 17023866 
3451.305 16997908 16975068 16951988 16923350 16886372 16843252 16801854 
3454.680 16774455 16769735 16790252 16827680 16867436 16890524 16883612 
3458.056 16842864 16777076 16704321 16646381 16620535 16632708 16678734 
3461.431 16743330 16808762 16860982 16891642 16902002 16897854 16885928 
3464.806 16869240 16845814 16807400 16748305 16665274 16562941 16454197 
3468.181 16357861 16293101 16278056 16321572 16425071 16581506 16778580 
3471.557 17001560 17234986 17465836 17683048 17876356 18039576 18167672 
3474.932 18259220 18315018 18341336 18347962 18348294 18357250 18389772 
3478.307 18456832 18563700 18708070 18879456 19060486 19233642 19381864 
3481.682 19496490 19578426 19638416 19693274 19759962 19849714 19964526 
3485.058 20095172 20225984 20337758 20417846 20460364 20470572 20460750 
3488.433 20448350 20447546 20467948 20513436 20581330 20667880 20768302 
3491.808 20880716 21006308 21146968 21305284 21481148 21671058 21868204 
3495.183 22062612 22243228 22400752 22528474 22627306 22702178 22766362 
3498.559 22833746 22917510 23025192 23156582 23300262 23439988 23556084 
3501.934 23633096 23662988 23648208 23599356 23533160 23466124 23410864 
3505.309 23373632 23353492 23341724 23327828 23299292 23245384 23157350 
3508.684 23035076 22882678 22711958 22539798 22385546 22265150 22189348 
3512.060 22157800 22161790 22184906 22210156 22222420 22215898 22191652 
3515.435 22157824 22125052 22102082 22090808 22087806 22083266 22067132 
3518.810 22030534 21971452 21893424 21807692 21726668 21661724 21618418 
3522.185 21594158 21576398 21546912 21484510 21374962 21211992 21004710 
3525.561 20773482 20545664 20348122 20199336 20102626 20048526 20017986 
3528.936 19991580 19954148 19904864 19851772 19810046 19792364 19803954 
3532.311 19836060 19871256 19885354 19859364 19782362 19658966 19504932 
3535.686 19344356 19202372 19099750 19047420 19046098 19087862 19159670 
3539.062 19243844 19325676 19390426 19429058 19436104 19409872 19353574 
3542.437 19273252 19177576 19075944 18977138 18888536 18814062 18752888 
3545.812 18701214 18652972 18599730 18538142 18466308 18390178 18320454 
3549.187 18269398 18248316 18265074 18318032 18401004 18500318 18603480 
3552.563 18697618 18774272 18826874 18850882 18840686 18791494 18698896 
3555.938 18565850 18401776 18226350 18065798 17946844 17889640 17902558 
3559.313 17977642 18094628 18223714 18336842 18411798 18439970 18424310 
3562.688 18378784 18320586 18266910 18225654 18196930 18170946 18132048 
3566.063 18064688 17959062 17815990 17650060 17485662 17352434 17275146 
3569.439 17267554 17324782 17428926 17550092 17661250 17742512 17788484 
3572.814 17806694 17812210 17816650 17824922 17828762 17814158 17766348 
3576.189 17678140 17555280 17416570 17285392 17185232 17127964 17114806 
3579.564 17134140 17168950 17203286 17226358 17235278 17233394 17226836 
3582.940 17224350 17230512 17250600 17285102 17332344 17385968 17436120 
3586.315 17469828 17475300 17444474 17378786 17289036 17193740 17112488 
3589.690 17060076 17040120 17043612 17053240 17048310 17011854 16937972 
3593.065 16830134 16701816 16569022 16447157 16346693 16272083 16221296 
3596.441 16188677 16164718 16138345 16098835 16038597 15955580 15856883 
3599.816 15758047 15680633 15643811 15658803 15720563 15808986 15892010 
3603.191 15936829 15920388 15838560 15706891 15558312 15429732 15354335 
3606.566 15349269 15414197 15532622 15680548 15831422 15966406 16073287 
3609.942 16150113 16199283 16226226 16236253 16233221 16221238 16202724 
3613.317 16181059 16159749 16141094 16127156 16118536 16114512 16111216 
3616.692 16105372 16090570 16063532 16023042 15972978 15923746 15889889 
3620.067 15886553 15926959 16014524 16145026 16303586 16471174 16628513 
3623.443 16763100 16869572 16951930 17016826 17073972 17128342 17181756 
3626.818 17233240 17282674 17331392 17387176 17458532 17555566 17683520 
3630.193 17842904 18025584 18218798 18407336 18578050 18721786 18836582 
3633.568 18926438 18999990 19067350 19136192 19206522 19272966 19321256 
3636.944 19338212 19314790 19251954 19167996 19092434 19060306 19103598 
3640.319 19237608 19455194 19725878 20005846 20247432 20416126 20497698 
3643.694 20502368 20456646 20395012 20342906 20312686 20299218 20287340 
3647.069 20258694 20204940 20130736 20052966 19994764 19975980 20005682 
3650.445 20079980 20180758 20289168 20386216 20463678 20522408 20568768 
3653.820 20609132 20646198 20672718 20676674 20645042 20572292 20464796 
3657.195 20344146 20240042 20184650 20198602 20286234 20427930 20588958 
3660.570 20726826 20805992 20808490 20742268 20634728 20528396 20460892 
3663.946 20454734 20507480 20593204 20669728 20694964 20639234 20495496 
3667.321 20280974 20031476 19789086 19590480 19456082 19388360 19371708 
3670.696 19382746 19394526 19388824 19352946 19285164 19187432 19065044 
3674.071 18921946 18762556 18589592 18408102 18223254 18043560 17875906 
3677.447 17727696 17602742 17503640 17428920 17375744 17339076 17314354 
3680.822 17296402 17282026 17268134 17253374 17236396 17215214 17186136 
3684.197 17143966 17082416 16995928 16879306 16732059 16556522 16359484 
3687.572 16151439 15944228 15750937 15584151 15451649 15358871 15302981 
3690.948 15277822 15270308 15266004 15252438 15222438 15176372 15123870 
3694.323 15079386 15058124 15069109 15112854 15178368 15247487 15298449 
3697.698 15314543 15284996 15210289 15095727 14951453 14786241 14609744 
3701.073 14427655 14251228 14093710 13972417 13903078 13896101 13949156 
3704.448 14047788 14164657 14271282 14343131 14369899 14358139 14328777 
3707.824 14308576 14322092 14380487 14481804 14608828 14738869 14850842 
3711.199 14933310 14985147 15018500 15047641 15088837 15149416 15229888 
3714.574 15322065 15414019 15492332 15548665 15579897 15588511 15580707 
3717.949 15564694 15548054 15532280 15515882 15493502 15456435 15397702 
3721.325 15312442 15202646 15072909 14933191 14792080 14657291 14532566 
3724.700 14420765 14320400 14234833 14167679 14125545 14114542 14137795 
3728.075 14192333 14270063 14359036 14446540 14524593 14591821 14654326 
3731.450 14724335 14813208 14930313 15077166 15248913 15433090 15614961 
3734.826 15777780 15908036 15994962 16032906 16020596 15961513 15861653 
3738.201 15730632 15578327 15414115 15245375 15079861 14923577 14783902 
3741.576 14670097 14594174 14567528 14599062 14689548 14831512 15004449 
3744.951 15182333 15336105 15443697 15493426 15486649 15435748 15360517 
3748.327 15283389 15223796 15193781 15198745 15233810 15290584 15356156 
3751.702 15420369 15473555 15513074 15540424 15562008 15586108 15622020 
3755.077 15673770 15742993 15823420 15906891 15980581 16034175 16059620 
3758.452 16054763 16020855 15964296 15891118 15810631 15729370 15653880 
3761.828 15590707 15545512 15522080 15522056 15542929 15578790 15618059 
3765.203 15648397 15655691 15630988 15569238 15473454 15351318 15216431 
3768.578 15082023 14960827 14860652 14783905 14727684 14686829 14653533 
3771.953 14623631 14594099 14565697 14541069 14523627 14515137 14517118 
3775.329 14529068 14551748 14586047 14634622 14699500 14782078 14879203 
3778.704 14985333 15090609 15184670 15257902 15305488 15324258 15315210 
3782.079 15279724 15219062 15132322 15019762 14882635 14726632 14562131 
3785.454 14403295 14263035 14152991 14076587 14033578 14016632 14017783 
3788.830 14031216 14055919 14095319 14157150 14248006 14372598 14528785 
3792.205 14708734 14898256 15079856 15234249 15344792 15398263 15390192 
3795.580 15323604 15211943 15075122 14937138 14820201 14740570 14703969 
3798.955 14707866 14740978 14790484 14844449 14898051 14950649 15006184 
3802.331 15066314 15129764 15187766 15227593 15234739 15200285 15122815 
3805.706 15013395 14888938 14772981 14685005 14636717 14629153 14652774 
3809.081 14691425 14728305 14750291 14754452 14743451 14727733 14718512 
3812.456 14725598 14749636 14785157 14819536 14839390 14833359 14799903 
3815.832 14745267 14686663 14643356 14632573 14663898 14734545 14830739 
3819.207 14932202 15015814 15065348 15072744 15044240 14992989 14940062 
3822.582 14903480 14896031 14920534 14971762 15036815 15102650 15157508 
3825.957 15195107 15216853 15229520 15242571 15265996 15304530 15359716 
3829.333 15424910 15491143 15545101 15574344 15568488 15522780 15438484 
3832.708 15323032 15188587 15051170 14925013 14820622 14741722 14684730 
3836.083 14639391 14595454 14544579 14487409 14434973 14403817 14411401 
3839.458 14470053 14577490 14718594 14866418 14992720 15076032 15108882 
3842.833 15101271 15074512 15054173 15056702 15086483 15132085 15173070 
3846.209 15189631 15170444 15118966 15051143 14989091 14950570 14942793 
3849.584 14959464 14982833 14990630 14965472 14897176 14788307 14649548 
3852.959 14497628 14348130 14215995 14112039 14044513 14018702 14037976 
3856.334 14098614 14192128 14304232 14415984 14509976 14573948 14603241 
3859.710 14603905 14586765 14566524 14555439 14561773 14590180 14641058 
3863.085 14712995 14801741 14899295 14994552 15070588 15109684 15097742 
3866.460 15027628 14905149 14749559 14587348 14450192 14364081 14344924 
3869.835 14393654 14498527 14636163 14781220 14907040 14994715 15032700 
3873.211 15018646 14959785 14872681 14777272 14695051 14643773 14631475 
3876.586 14657523 14714417 14788822 14870638 14954681 15042120 15137494 
3879.961 15242369 15352075 15451563 15520838 15540290 15498471 15398352 
3883.336 15257576 15104829 14970108 14876914 14835647 14842554 14883753 
3886.712 14941202 15001009 15054721 15100001 15138401 15169661 15193128 
3890.087 15204504 15201966 15187070 15167097 15151802 15151987 15173254 
3893.462 15213661 15262410 15305964 15329346 15323428 15286250 15225226 
3896.837 15153507 15086983 15039728 15021523 15034326 15072031 15122649 
3900.213 15169108 15192369 15178206 15117867 15014994 14884448 14751531 
3903.588 14645856 14595477 14616853 14714447 14873421 15067831 15264791 
3906.963 15434522 15556491 15624662 15648285 15648514 15648484 15670156 
3910.338 15723346 15805321 15899355 15980724 16022341 16004032 15918318 
3913.714 15773037 15590171 15399298 15229597 15103984 15030445 15005065 
3917.089 15010317 15025258 15028942 15009572 14962821 14896017 14821468 
3920.464 14754897 14709801 14696145 14718662 14777754 14869248 14986209 
3923.839 15121566 15265759 15409998 15546539 15666978 15764348 15831282 
3927.215 15860936 15847912 15789563 15686011 15545265 15379793 15207337 
3930.590 15045760 14912273 14817789 14767699 14758733 14784466 14836362 
3933.965 14906157 14987408 15075784 15169057 15264986 15362392 15459694 
3937.340 15554523 15644643 15725568 15792688 15838882 15858339 15848029 
3940.716 15810963 15755439 15697528 15652655 15634665 15650155 15696108 
3944.091 15760146 15826833 15881142 15914615 15925402 15917450 15897352 
3947.466 15870387 15837209 15796496 15744818 15683353 15616859 15554708 
3950.841 15507470 15485717 15491438 15522663 15571867 15630599 15693052 
3954.217 15757106 15823951 15894525 15965642 16030168 16073933 16082773 
3957.592 16044896 15956048 15822181 15658373 15485540 15327777 15205462 
3960.967 15133969 15120716 15165461 15260550 15394479 15549124 15707660 
3964.342 15852463 15969075 16049650 16092584 16105549 16101006 16093545 
3967.718 16098153 16122270 16168296 16226012 16282286 16320115 16326876 
3971.093 16296454 16234141 16156673 16085036 16043939 16049208 16107503 
3974.468 16210478 16337143 16461322 16555618 16601920 16593289 16536497 
3977.843 16448421 16350882 16263038 16198734 16158905 16137170 16119557 
3981.219 16091684 16043168 15971873 15885914 15800338 15734587 15706252 
3984.594 15723208 15783871 15873065 15969217 16048467 16094672 16102351 
3987.969 16080959 16049696 16031493 16047439 16106749 16205845 16330462 
3991.344 16459389 16570464 16647784 16681984 16673446 16629100 16562302 
3994.719 16490409 16431868 16407255 16432090 16515484 16654920 16833722 
3998.095 17023954 17191236 17301164 17331090 17271740 17133136 
##END=
