##TITLE=3D-Fillies_PLA-Flex_Black_Filament_r6_ATR-Corrected
##JCAMP-DX=5.01  $$ Nicolet v. 1
##DATATYPE=INFRARED SPECTRUM
##ORIGIN=Curtin University
##OWNER=Nicolet
##LONGDATE=2024/07/18
##TIME=11:35:49
##SPECTROMETER/DATA SYSTEM=Nicolet iS50
##DATA PROCESSING=
Ratio against background
%Transmittance->Absorbance
ATR Correction
Truncated
ElementMultiply or ElementDivide
##COMMENTS=
Number of sample scans: 32
Collection length: 47.29 sec
Sample gain: 1.0
Background collected on: Thu Jul 18 11:34:35 2024 (GMT+08:00);
Number of background scans: 32
Background gain: 1.0
Sample spacing:  1.000
Number of scan points: 16672
Resolution points: 8192
Number of FFT points: 65536
Apodization: N-B strong;
Phase correction: Mertz;
Laser frequency: 15798.3 cm-1
Number of rejected sample scans: 0
Number of rejected background scans: 0
Bench serial number: AUP1200105;
##RESOLUTION=4.000
##XUNITS=1/CM
##YUNITS=ABSORBANCE
##FIRSTX=400.163452
##LASTX=4000.187744
##FIRSTY=0.033205
##MAXX=4000.187744
##MINX=400.163452
##MAXY=1.313007
##MINY=-0.016688
##XFACTOR=1.000000
##YFACTOR=1.000000E-008
##NPOINTS=7468
##DELTAX=0.482125
##ZPD=8192
##XYDATA=(X++(Y..Y))
400.163 3320476 3294256 3248582 3187591 3118990 3052113 2994791 2951344 
404.020 2921912 2903526 2891755 2882815 2874550 2866782 2860546 2857347 
407.877 2858329 2864113 2874557 2889025 2906106 2923588 2938203 2946054 
411.734 2943306 2927398 2898045 2857724 2811080 2763733 2720320 2683173 
415.591 2651643 2622486 2590993 2552781 2505288 2449110 2388232 2329604 
419.448 2281489 2251762 2245932 2265788 2308657 2367785 2433410 2494897 
423.305 2543171 2572928 2583728 2579851 2568437 2557310 2552482 2556988 
427.162 2570622 2590898 2614316 2637499 2657741 2673146 2682423 2685091 
431.019 2681862 2675234 2669688 2670857 2684561 2714379 2760062 2816893 
434.876 2876420 2928671 2964842 2979698 2972665 2947503 2910580 2868923 
438.733 2828541 2793709 2767149 2750520 2744997 2751265 2769073 2796926 
442.590 2831843 2869879 2906895 2939516 2965472 2983563 2992998 2992871 
446.447 2982024 2959614 2926059 2883973 2838258 2795355 2761517 2741106 
450.304 2735342 2742394 2758366 2779171 2802029 2826181 2852413 2881702 
454.161 2913731 2946131 2974746 2995072 3003971 3001202 2989677 2974616 
458.017 2961615 2954775 2955330 2961598 2969877 2976194 2977755 2973997 
461.874 2966529 2958406 2952862 2952135 2957200 2967498 2981522 2997714 
465.731 3015054 3033489 3053727 3076756 3103170 3132565 3163211 3192267 
469.588 3216268 3232105 3237788 3233185 3220100 3201940 3182870 3166877 
473.445 3156870 3154300 3159085 3170001 3185103 3202335 3219649 3235311 
477.302 3247817 3256125 3259763 3259129 3255542 3251226 3248806 3250777 
481.159 3258760 3273211 3293271 3317222 3343100 3369437 3395597 3421971 
485.016 3449643 3479924 3513937 3552371 3595431 3643204 3695769 3753489 
488.873 3816862 3886341 3961984 4043204 4128691 4216636 4305019 4392178 
492.730 4477066 4559523 4640009 4719330 4798209 4876642 4953611 5027006 
496.587 5093788 5150465 5193611 5220448 5229184 5219272 5191287 5146697 
500.444 5087498 5015901 4934051 4843889 4747154 4645483 4540461 4433804 
504.301 4327309 4222911 4122503 4027843 3940264 3860497 3788441 3723124 
508.158 3662817 3605407 3548870 3491851 3434110 3376676 3321634 3271633 
512.015 3229111 3195647 3171465 3155360 3144987 3137464 3129988 3120428 
515.871 3107584 3091235 3071888 3050482 3028045 3005590 2984003 2964061 
519.728 2946437 2931611 2919718 2910480 2903110 2896489 2889381 2880785 
523.585 2870200 2857806 2844382 2831140 2819504 2810761 2805836 2805212 
527.442 2808793 2815901 2825248 2835014 2843098 2847474 2846686 2840333 
531.299 2829283 2815610 2802083 2791400 2785406 2784576 2787843 2793073 
535.156 2797704 2799542 2797320 2790873 2780903 2768615 2755241 2741796 
539.013 2729044 2717594 2707991 2700725 2696060 2693902 2693637 2694313 
542.870 2694861 2694525 2693086 2690898 2688662 2687013 2686161 2685741 
546.727 2684939 2682811 2678595 2671996 2662998 2651747 2638139 2621819 
550.584 2602256 2579120 2552775 2524488 2496432 2471234 2451322 2438255 
554.441 2432301 2432390 2436385 2441705 2445901 2447096 2444233 2437122 
558.298 2426316 2412964 2398643 2385183 2374467 2368169 2367439 2372632 
562.155 2383149 2397513 2413553 2428885 2441365 2449634 2453322 2453164 
566.012 2450708 2447931 2446661 2448169 2452910 2460645 2470719 2482577 
569.869 2496151 2512030 2531264 2554944 2583656 2617091 2653921 2692172 
573.725 2729662 2764648 2796192 2824210 2849262 2872108 2893392 2913460 
577.582 2932424 2950415 2967661 2984630 3001764 3019351 3037295 3055228 
581.439 3072660 3089352 3105454 3121505 3138116 3155621 3173724 3191460 
585.296 3207421 3220223 3228910 3233287 3233784 3231221 3226359 3219649 
589.153 3211089 3200446 3187510 3172297 3155225 3137042 3118632 3100882 
593.010 3084492 3069901 3057204 3046055 3035666 3024892 3012453 2997401 
596.867 2979516 2959637 2939593 2921753 2908251 2900309 2897689 2898934 
600.724 2901826 2904323 2905210 2904401 2902608 2900750 2899197 2897533 
604.581 2894629 2889301 2880954 2869990 2857750 2845982 2836093 2828620 
608.438 2823136 2818614 2814054 2809014 2803734 2798915 2795108 2792257 
612.295 2789520 2785629 2779412 2770480 2759439 2747774 2737241 2729232 
616.152 2724252 2721846 2720837 2719912 2718026 2714706 2710015 2704396 
620.009 2698410 2692628 2687561 2683602 2680998 2679701 2679277 2678883 
623.866 2677495 2674271 2668941 2662091 2655145 2650180 2649428 2654958 
627.723 2668401 2690927 2723067 2764667 2814425 2869541 2925463 2976175 
631.579 3015130 3036642 3037415 3017546 2980693 2933198 2882471 2835253 
635.436 2796243 2767652 2749404 2740042 2737504 2739790 2745067 2751599 
639.293 2757612 2761485 2762074 2759207 2753880 2748128 2744280 2744219 
643.150 2748629 2756858 2767230 2777780 2786995 2794276 2799816 2804214 
647.007 2807869 2810710 2812195 2811700 2808979 2804441 2799025 2793845 
650.864 2789591 2786247 2783031 2778788 2772492 2763684 2752639 2740218 
654.721 2727497 2715442 2704733 2695796 2688986 2684731 2683499 2685639 
658.578 2691088 2699235 2708952 2718823 2727567 2734373 2739084 2742183 
662.435 2744548 2747181 2750925 2756334 2763558 2772382 2782239 2792335 
666.292 2801799 2809955 2816519 2821821 2826731 2832471 2840185 2850554 
670.149 2863560 2878587 2894756 2911389 2928377 2946323 2966246 2989205 
674.006 3015770 3045773 3078307 3112034 3145578 3177834 3208124 3236149 
677.863 3261811 3285073 3305903 3324368 3340579 3354783 3367174 3377819 
681.720 3386568 3393209 3397689 3400443 3402498 3405439 3410958 3420456 
685.577 3434614 3453315 3475899 3501562 3529865 3560936 3595380 3633944 
689.433 3677093 3724733 3776218 3830568 3886775 3944112 4002105 4060529 
693.290 4119215 4178074 4237197 4297134 4358970 4424348 4494986 4572263 
697.147 4656737 4748057 4845154 4946826 5052279 5161429 5274746 5392767 
701.004 5515403 5641509 5768751 5893994 6013967 6125850 6227775 6318874 
704.861 6399154 6469362 6530855 6585701 6636670 6687277 6741416 6802909 
708.718 6875010 6960129 7059810 7175028 7306599 7455487 7622840 7809878 
712.575 8017689 8247208 8499455 8775960 9079252 9413136 9782687 10194193 
716.432 10655042 11174136 11762475 12434028 13206343 14100468 15140200 
719.807 16350779 17757500 19384790 21255800 23392216 25812990 28530714 
723.182 31543056 34818320 38274356 41754456 45010884 47717212 49532828 
726.556 50216920 49733604 48268356 46140632 43682112 41152500 38712540 
729.931 36435208 34331904 32379568 30542454 28786474 27086372 25427308 
733.306 23803266 22214436 20665044 19161906 17713636 16329823 15020129 
736.681 13793232 12656057 11613397 10668084 9821292 9073012 8422072 7865952 
740.538 7400349 7018949 6713533 6474659 6292619 6158590 6065333 6007439 
744.395 5980981 5982743 6009533 6057638 6122789 6200393 6285821 6374787 
748.252 6463259 6547420 6623480 6687681 6736378 6766435 6775396 6761726 
752.109 6724805 6664853 6582864 6480673 6361026 6227579 6084810 5937580 
755.966 5790549 5647562 5511130 5382384 5261269 5147118 5039201 4937197 
759.823 4841278 4751986 4669829 4594939 4526864 4464574 4406684 4351822 
763.679 4298872 4247228 4196821 4148074 4101718 4058609 4019533 3985010 
767.536 3955161 3929649 3907668 3888107 3869690 3851237 3831847 3811032 
771.393 3788796 3765563 3742136 3719548 3698944 3681422 3667870 3658810 
775.250 3654248 3653621 3655929 3659930 3664421 3668647 3672411 3676169 
779.107 3680825 3687458 3696945 3709766 3725826 3744555 3765068 3786400 
782.964 3807713 3828419 3848302 3867566 3886813 3907042 3929559 3955816 
786.821 3987178 4024680 4068816 4119495 4176155 4238067 4304674 4375914 
790.678 4452383 4535082 4625110 4722913 4827617 4936511 5044781 5145841 
794.535 5232056 5295902 5331329 5335043 5307313 5252265 5177266 5091846 
798.392 5006125 4929221 4867961 4826125 4804331 4800586 4811094 4831369 
802.249 4857130 4884832 4911983 4936934 4958667 4976485 4989927 4998750 
806.106 5003128 5003768 5001909 4999241 4997511 4998198 5002171 5009553 
809.963 5019807 5031939 5044847 5057615 5069558 5080243 5089291 5096195 
813.820 5100214 5100452 5096051 5086481 5071709 5052299 5029178 5003383 
817.677 4975696 4946432 4915412 4882257 4846716 4809100 4770463 4732596 
821.533 4697698 4667831 4644430 4627874 4617432 4611367 4607389 4603167 
825.390 4596788 4587088 4573827 4557623 4539746 4521891 4505830 4493069 
829.247 4484529 4480321 4479685 4481131 4482783 4482922 4480481 4475496 
833.104 4469108 4463285 4460387 4462409 4470500 4484696 4504028 4526869 
836.961 4551436 4576127 4599807 4621765 4641656 4659385 4675121 4689400 
840.818 4703203 4717910 4735084 4756012 4781270 4810336 4841566 4872522 
844.675 4900551 4923427 4939923 4950008 4954681 4955640 4954775 4953839 
848.532 4954155 4956616 4961633 4969244 4979063 4990365 5002134 5013240 
852.389 5022738 5030010 5035040 5038322 5040722 5043203 5046635 5051647 
856.246 5058660 5067981 5079853 5094573 5112400 5133571 5158332 5187014 
860.103 5220230 5258938 5304387 5357970 5420898 5494109 5578213 5673828 
863.960 5782006 5904665 6044803 6206565 6395191 6617042 6879930 7193536 
867.817 7569553 8020980 8559909 9193791 9920481 10723203 11567065 12399077 
871.674 13153020 13759582 14160116 14319928 14236501 13939333 13481228 
875.048 12924954 12329815 11742134 11191093 10689478 10237618 9828606 
878.423 9453000 9102179 8769844 8452225 8147586 7855572 7576725 7312304 
882.280 7064029 6833837 6623501 6434210 6266448 6120061 5994553 5889453 
886.137 5804390 5739123 5693104 5665190 5653460 5655350 5668045 5689059 
889.994 5716664 5750046 5789143 5834222 5885459 5942720 6005439 6072891 
893.851 6144346 6219329 6297636 6379300 6464480 6553432 6646529 6744300 
897.708 6847379 6956410 7071744 7193222 7320016 7450746 7583752 7717509 
901.565 7850982 7983747 8115799 8247196 8377703 8506566 8632591 8754497 
905.422 8871480 8983602 9092065 9199107 9307725 9421254 9543052 9676307 
909.279 9823995 9988963 10173794 10380618 10610569 10863140 11135542 
912.654 11422243 11714840 12002540 12272986 12513566 12712899 12862296 
916.028 12956834 12995897 12983024 12925179 12831570 12712474 12578157 
919.403 12438230 12301365 12175304 12067027 11982773 11928018 11907256 
922.778 11923587 11978631 12072325 12203277 12369095 12566958 12794088 
926.153 13047884 13325872 13625367 13943043 14274605 14614646 14956909 
929.528 15294684 15621452 15931422 16219920 16483462 16719635 16926746 
932.902 17103458 17248580 17360922 17439402 17483256 17492306 17467212 
936.277 17409670 17322456 17209408 17075148 16924732 16763106 16594641 
939.652 16422707 16249548 16076465 15904270 15733795 15566309 15403670 
943.027 15248147 15101980 14966936 14844111 14733866 14636031 14550307 
946.402 14476395 14413984 14362529 14320938 14287452 14259742 14235315 
949.776 14212051 14188625 14164577 14140126 14115666 14091271 14066423 
953.151 14040115 14011221 13978912 13942994 13903904 13862388 13819057 
956.526 13774079 13727096 13677296 13623905 13566443 13504943 13439770 
959.901 13371491 13300587 13227403 13152273 13075674 12998398 12921473 
963.276 12845944 12772526 12701352 12631881 12563266 12494646 12425603 
966.651 12356348 12287646 12220488 12155680 12093559 12033883 11975961 
970.025 11918848 11861635 11803512 11743838 11682111 11618034 11551603 
973.400 11483327 11414320 11346245 11281118 11220927 11167321 11121330 
976.775 11083464 11053894 11032760 11020414 11017479 11024652 11042416 
980.150 11070675 11108500 11154126 11205037 11258300 11310925 11360214 
983.525 11404081 11441254 11471374 11494923 11512991 11526940 11538067 
986.899 11547311 11555248 11562198 11568434 11574528 11581387 11590084 
990.274 11601548 11616111 11633368 11652193 11671123 11688888 11704846 
993.649 11719146 11732618 11746295 11761033 11777099 11794202 11811571 
997.024 11828302 11843589 11856855 11867695 11875901 11881455 11884657 
1000.399 11886334 11887835 11891023 11897931 11910469 11930196 11958335 
1003.774 11996107 12045041 12107476 12186459 12285616 12408728 12559412 
1007.148 12740965 12956499 13209376 13503413 13843083 14233530 14680769 
1010.523 15192306 15778206 16452505 17233818 18144670 19208186 20442030 
1013.898 21850006 23412600 25078710 26761406 28341230 29679462 30641598 
1017.273 31126002 31088602 30553216 29603678 28361422 26958958 25517910 
1020.648 24135924 22882396 21800030 20909464 20214512 19707016 19370714 
1024.022 19184088 19122550 19159944 19269782 19426098 19604186 19781360 
1027.398 19937810 20057520 20129340 20147638 20112514 20029226 19906972 
1030.773 19757158 19591684 19421498 19255670 19101058 18962298 18842106 
1034.148 18741590 18660618 18598010 18551918 18520052 18500002 18489462 
1037.523 18486368 18488904 18495580 18505194 18516860 18530046 18544494 
1040.899 18560136 18576918 18594460 18612040 18628690 18643322 18655152 
1044.274 18663910 18669860 18673594 18675772 18676678 18676218 18674112 
1047.649 18670250 18665176 18660230 18657496 18659336 18667700 18683782 
1051.024 18707850 18739444 18777866 18822664 18873834 18931764 18996804 
1054.400 19068770 19146624 19228526 19312094 19395060 19475758 19553416 
1057.775 19628196 19700912 19772566 19844072 19916038 19988770 20062370 
1061.150 20136878 20212326 20288772 20366270 20444952 20525136 20607504 
1064.525 20693232 20784102 20882338 20990388 21110600 21245020 21395210 
1067.901 21562340 21747308 21950946 22174142 22417884 22683064 22970330 
1071.276 23279834 23611186 23963454 24335330 24725482 25132760 25556328 
1074.651 25995728 26450580 26920354 27404040 27900010 28406098 28919750 
1078.026 29438430 29959830 30481944 31002810 31520220 32031342 32532332 
1081.402 33018592 33484996 33926480 34338576 34717972 35062584 35371636 
1084.777 35645592 35886164 36096232 36280208 36444160 36596076 36745744 
1088.152 36904720 37085764 37302424 37568408 37896924 38300200 38788980 
1091.527 39372308 40057324 40849380 41752132 42767820 43897464 45140880 
1094.903 46496448 47960616 49527140 51186108 52923012 54717864 56544668 
1098.278 58371276 60159808 61867672 63449348 64858884 66052788 66993000 
1101.653 67649296 68001016 68037424 67757176 67167240 66281296 65118472 
1105.028 63702272 62060256 60224144 58230764 56123244 53951980 51774536 
1108.404 49654272 47657368 45848660 44286980 43020916 42085324 41499324 
1111.779 41265364 41369740 41783800 42466064 43364640 44420032 45568272 
1115.154 46744028 47884164 48931256 49836872 50564416 51090924 51407360 
1118.529 51517492 51435696 51183848 50788204 50276504 49675520 49009124 
1121.905 48297000 47553956 46789800 46009868 45215972 44407816 43584348 
1125.280 42745008 41890652 41023988 40149664 39274152 38405372 37552380 
1128.655 36724916 35933016 35186636 34495096 33866584 33307722 32823160 
1132.030 32415188 32083586 31825570 31635984 31507746 31432464 31401160 
1135.406 31405038 31436122 31487486 31553254 31628292 31707880 31787398 
1138.781 31862300 31928366 31982022 32020816 32043550 32050266 32041970 
1142.156 32020224 31986788 31943458 31891946 31833998 31771394 31706050 
1145.531 31639800 31574434 31511640 31453210 31401328 31358850 31329626 
1148.906 31318512 31331224 31373886 31452576 31572968 31739982 31957716 
1152.282 32229460 32557794 32944564 33390828 33896640 34460772 35080472 
1155.657 35751184 36466496 37218124 37996136 38789312 39585760 40373580 
1159.032 41141376 41878860 42576928 43227692 43824136 44359964 44829556 
1162.407 45228124 45552104 45799548 45970292 46065880 46089348 46044696 
1165.783 45936516 45769744 45549660 45282004 44972944 44629220 44257812 
1169.158 43865680 43459348 43044484 42625708 42206512 41789372 41376028 
1172.533 40967736 40565552 40170640 39784204 39407472 39041524 38687088 
1175.908 38344356 38012952 37691952 37380056 37075864 36777944 36485028 
1179.284 36195944 35909532 35624636 35339992 35054280 34766220 34474680 
1182.659 34178728 33877684 33571084 33258816 32941068 32618498 32292292 
1186.034 31964162 31636166 31310520 30989150 30673524 30364334 30061656 
1189.409 29765252 29474828 29190568 28913326 28644704 28386874 28142186 
1192.785 27912828 27700434 27505976 27329702 27171296 27030220 26905930 
1196.160 26798192 26707264 26634052 26580060 26547292 26538006 26554396 
1199.535 26598132 26670000 26769596 26895168 27043718 27211118 27392604 
1202.910 27582952 27776798 27968680 28152958 28323752 28474692 28599200 
1206.286 28690728 28743476 28753302 28718578 28640946 28525600 28380960 
1209.661 28217778 28047896 27882758 27732260 27603850 27502278 27429632 
1213.036 27385876 27369302 27377126 27405856 27451718 27510876 27579784 
1216.411 27655516 27735904 27819764 27906852 27997556 28092640 28192970 
1219.787 28299230 28411966 28531608 28658652 28793780 28937834 29091894 
1223.162 29257100 29434624 29625660 29831504 30053500 30293206 30552226 
1226.537 30832252 31134924 31461832 31814576 32194770 32604184 33044774 
1229.912 33518552 34027720 34574552 35161620 35791884 36468756 37196072 
1233.288 37977768 38817252 39716856 40677240 41697304 42774204 43903976 
1236.663 45082132 46304220 47566096 48863872 50193584 51550840 52930588 
1240.038 54327040 55733700 57143320 58547764 59937704 61302208 62628912 
1243.413 63904224 65114112 66245176 67285616 68226096 69060128 69784440 
1246.789 70398936 70906768 71313928 71628752 71861072 72020904 72117528 
1250.164 72158600 72149768 72095080 71997480 71859504 71683848 71473848 
1253.539 71233664 70968416 70684368 70388992 70090976 69799880 69525592 
1256.914 69277832 69065552 68897000 68779848 68721432 68729152 68810400 
1260.290 68972000 69219216 69554824 69978024 70483960 71063320 71702536 
1263.665 72383976 73086264 73784672 74451808 75058704 75576536 75978424 
1267.040 76241424 76347992 76286704 76052328 75645432 75071680 74341272 
1270.415 73468304 72469824 71364704 70172352 68911384 67598816 66249628 
1273.791 64877052 63492836 62107360 60729556 59366436 58022500 56699740 
1277.166 55397792 54114904 52849012 51598716 50363820 49145268 47944524 
1280.541 46762808 45600416 44456448 43328932 42215396 41113440 40021248 
1283.916 38937844 37863156 36797744 35742604 34698896 33667828 32650592 
1287.292 31648356 30662366 29694092 28745246 27817882 26914380 26037336 
1290.667 25189448 24373352 23591428 22845798 22138126 21469666 20841254 
1294.042 20253276 19705548 19197348 18727308 18293540 17893716 17525330 
1297.417 17185854 16872918 16584440 16318591 16073738 15848252 15640444 
1300.792 15448439 15270217 15103732 14947061 14798512 14656711 14520638 
1304.168 14389582 14263061 14140801 14022559 13908133 13797306 13689809 
1307.543 13585392 13483819 13385110 13289553 13197827 13110992 13030419 
1310.918 12957542 12893866 12840734 12799442 12771212 12757370 12759294 
1314.293 12778272 12815318 12870860 12944517 13035055 13140407 13257883 
1317.669 13384186 13515429 13646814 13772359 13884738 13975409 14035307 
1321.044 14055908 14030421 13954940 13828997 13655561 13440461 13191344 
1324.419 12916626 12624614 12322863 12017966 11715421 11419741 11134456 
1327.794 10862149 10604442 10362066 10135069 9923095 9725644 9542307 9372897 
1331.652 9217406 9075963 8948720 8835728 8736978 8652258 8581097 8522744 
1335.509 8476104 8439857 8412617 8393242 8380992 8375624 8377310 8386308 
1339.367 8402613 8425782 8454908 8488882 8526744 8568116 8613238 8663037 
1343.224 8718661 8781342 8851988 8931202 9019327 9116600 9223058 9338386 
1347.082 9461513 9590281 9721349 9850349 9972542 10083721 10181008 10263484 
1350.939 10332349 10390668 10442684 10493021 10545912 10604645 10671171 
1354.314 10746143 10829027 10918494 11012833 11110304 11209498 11309484 
1357.689 11409769 11510043 11610039 11709269 11806943 11902105 11993704 
1361.065 12080947 12163213 12240083 12311123 12375708 12432967 12481774 
1364.440 12521046 12549844 12567592 12574105 12569408 12553619 12526716 
1367.815 12488627 12439370 12379347 12309571 12231773 12148296 12061867 
1371.190 11975270 11891088 11811641 11739074 11675483 11623042 11584014 
1374.566 11560558 11554505 11567072 11598706 11649136 11717409 11802156 
1377.941 11901830 12014885 12140030 12276358 12423602 12582162 12753169 
1381.316 12938237 13139148 13357443 13593921 13848336 14119186 14403762 
1384.691 14698240 14997867 15297310 15590842 15872651 16137095 16379137 
1388.067 16594532 16780076 16933622 17054116 17141366 17195838 17218452 
1391.442 17210246 17172190 17105038 17009356 16885648 16734618 16557536 
1394.817 16356407 16134226 15894826 15642719 15382859 15120478 14860958 
1398.192 14609832 14372808 14155827 13965081 13806951 13688046 13615100 
1401.568 13594998 13634562 13740365 13918297 14172938 14506568 14918217 
1404.943 15402448 15948538 16539833 17153928 17763522 18338186 18846750 
1408.318 19260178 19554472 19713052 19728338 19602152 19344824 18973444 
1411.693 18509408 17975986 17396200 16791308 16179815 15576927 14994437 
1415.069 14440665 13920590 13436177 12986639 12569205 12179693 11813354 
1418.444 11465605 11132512 10811205 10499809 10197326 9903278 9617496 
1421.819 9340020 9071119 8811538 8562538 8325932 8103887 7898614 7711937 
1425.677 7545027 7398318 7271521 7163884 7074366 7001855 6945275 6903621 
1429.534 6875989 6861557 6859541 6869229 6889784 6920343 6959827 7007059 
1433.391 7060788 7119874 7183386 7250737 7321536 7395698 7473138 7553792 
1437.249 7637649 7724756 7815457 7910409 8010707 8117775 8233307 8359075 
1441.106 8496898 8648494 8815490 8999333 9201148 9421733 9661362 9919957 
1444.964 10197289 10493209 10808085 11142869 11498901 11877387 12278473 
1448.339 12700106 13137162 13580748 14018242 14434078 14811414 15134518 
1451.714 15391600 15577251 15694053 15752277 15768224 15761091 15749452 
1455.089 15748170 15766047 15804592 15858039 15914442 15957664 15970016 
1458.465 15934977 15839927 15678155 15450318 15164664 14836057 14483701 
1461.840 14127836 13786381 13472071 13190874 12941815 12718241 12510018 
1465.215 12306013 12096489 11874760 11637855 11386540 11124602 10857852 
1468.590 10592850 10335886 10091984 9864217 9653576 9459098 9278405 9108337 
1472.448 8945581 8787170 8630607 8473862 8315189 8153038 7985970 7812882 
1476.305 7633062 7446364 7253106 7053968 6849854 6641710 6430560 6217602 
1480.163 6004220 5792028 5582678 5377571 5177765 4983733 4795614 4613510 
1484.020 4437708 4269052 4108813 3958434 3819239 3692017 3576948 3473608 
1487.877 3381246 3299082 3226420 3162793 3107739 3060795 3021420 2989112 
1491.735 2963551 2944876 2933645 2930793 2937368 2954257 2982083 3021132 
1495.592 3071593 3133735 3208213 3296311 3400075 3522519 3667745 3840870 
1499.450 4047657 4293458 4581493 4910754 5273892 5655915 6034261 6380757 
1503.307 6665057 6859335 6943033 6906660 6753763 6500260 6171434 5797082 
1507.165 5406498 5024334 4668306 4348980 4070798 3833888 3635640 3471965 
1511.022 3338059 3228927 3139708 3066086 3004410 2951933 2906642 2867040 
1514.879 2831955 2800339 2771323 2744322 2719170 2696216 2676105 2659528 
1518.737 2646914 2638198 2632836 2629976 2628749 2628602 2629482 2631864 
1522.594 2636514 2644308 2655869 2671371 2690400 2711967 2734654 2756772 
1526.452 2776679 2793063 2805153 2812735 2816110 2815831 2812463 2806402 
1530.309 2797692 2786265 2771934 2754707 2734899 2713201 2690464 2667632 
1534.167 2645528 2624713 2605526 2588109 2572522 2558712 2546567 2535919 
1538.024 2526462 2517894 2509932 2502478 2495534 2489227 2483488 2478091 
1541.881 2472441 2465855 2457669 2447563 2435850 2423310 2411104 2400436 
1545.739 2392237 2386968 2384643 2384940 2387437 2391774 2397644 2404769 
1549.596 2412605 2420447 2427431 2432746 2435938 2437138 2437042 2436827 
1553.454 2437734 2440737 2446252 2454021 2463247 2472919 2482014 2489900 
1557.311 2496319 2501419 2505622 2509448 2513317 2517511 2522109 2527080 
1561.168 2532264 2537520 2542731 2547837 2552893 2558076 2563675 2570156 
1565.026 2578057 2587968 2600510 2616158 2635272 2658031 2684410 2714285 
1568.883 2747477 2783903 2823570 2866668 2913561 2964688 3020484 3081261 
1572.741 3147110 3217709 3292258 3369282 3446629 3521460 3590451 3650115 
1576.598 3697238 3729283 3744670 3742849 3724321 3690424 3643128 3584971 
1580.456 3518719 3447354 3373676 3300188 3228862 3161186 3098153 3040422 
1584.313 2988494 2942733 2903403 2870530 2843830 2822635 2805990 2792861 
1588.170 2782367 2774022 2767750 2763825 2762569 2764186 2768442 2774770 
1592.028 2782309 2790271 2798101 2805601 2812874 2820140 2827488 2834802 
1595.885 2841729 2847977 2853424 2858383 2863522 2869745 2877876 2888377 
1599.743 2901178 2915808 2931544 2947746 2964193 2981174 2999438 3020046 
1603.600 3043963 3071890 3104001 3139972 3179083 3220450 3263181 3306564 
1607.458 3350073 3393308 3435826 3477039 3516073 3551956 3583761 3610867 
1611.315 3633273 3651603 3666941 3680528 3693257 3705425 3716514 3725510 
1615.172 3731246 3732952 3730616 3725126 3718016 3711101 3705990 3703793 
1619.030 3705015 3709784 3717950 3729291 3743529 3760248 3778873 3798772 
1622.887 3819216 3839903 3860812 3882472 3905521 3930538 3957627 3986264 
1626.745 4015361 4043634 4069855 4093339 4113995 4132269 4148909 4164760 
1630.602 4180473 4196536 4213224 4230683 4248931 4267882 4287285 4306829 
1634.459 4326252 4345494 4364837 4384869 4406298 4429636 4454965 4481806 
1638.317 4509215 4536186 4561919 4586040 4608803 4630871 4653045 4676038 
1642.174 4700218 4725692 4752289 4779778 4807891 4836356 4864976 4893622 
1646.032 4922323 4951309 4981081 5012246 5045286 5080316 5117026 5154647 
1649.889 5192315 5229398 5265801 5302065 5339133 5378085 5419618 5463916 
1653.747 5510655 5559497 5610282 5663463 5719923 5780656 5846436 5917557 
1657.604 5993804 6074816 6160393 6250874 6347064 6450081 6560739 6679382 
1661.461 6805643 6938794 7078102 7223404 7375311 7535320 7705415 7887839 
1665.319 8084706 8297810 8528538 8777693 9045490 9331140 9632715 9947174 
1669.176 10270469 10598125 10925487 11248340 11562838 11865541 12153219 
1672.552 12422871 12671794 12898014 13100767 13280688 13439959 13581942 
1675.927 13710739 13830751 13946436 14062147 14182292 14311272 14453295 
1679.302 14612120 14790741 14991398 15215780 15465592 15742916 16050309 
1682.677 16390158 16763863 17170912 17608606 18072526 18558130 19062090 
1686.052 19583712 20124744 20688742 21279734 21901136 22555390 23244298 
1689.428 23969808 24734612 25542242 26396528 27300968 28258366 29271406 
1692.803 30343842 31481784 32694042 33991296 35383824 36878880 38479240 
1696.178 40183828 41991152 43903784 45932268 48096372 50422932 52940648 
1699.553 55674164 58639200 61841436 65279264 68949416 72851960 76991704 
1702.929 81373992 85996624 90839832 95858176 100976992 106094304 111086656 
1706.304 115816752 120140112 123912880 127001344 129297112 130733896 
1709.197 131300672 131043408 130053464 128448120 126351176 123880144 
1712.090 121141496 118230104 115229800 112211536 109230784 106325480 
1714.983 103517200 100815152 98222968 95744328 93386760 91161240 89079376 
1718.358 87149176 85372296 83743472 82252440 80886856 79635048 78487096 
1721.734 77434712 76469776 75583376 74765072 74003496 73287088 72605056 
1725.109 71947088 71302816 70660736 70007856 69330144 68614280 67849416 
1728.484 67028772 66149916 65213852 64222956 63179320 62083376 60933940 
1731.859 59729224 58468156 57151836 55784164 54371560 52921916 51443268 
1735.235 49942444 48424284 46891604 45345680 43787384 42218144 40640964 
1738.610 39060708 37484200 35919452 34374900 32858300 31376194 29933530 
1741.985 28533944 27180016 25873888 24617520 23413050 22262796 21169228 
1745.360 20134770 19161468 18250650 17402672 16616642 15890732 15222377 
1748.736 14608832 14047548 13536373 13073418 12656786 12284122 11952336 
1752.111 11657648 11395685 11161940 10952168 10762590 10590089 10432091 
1755.486 10286549 10151602 10025469 9906164 9791417 9678437 9564235 9445815 
1759.344 9320671 9187173 9044882 8894462 8737551 8576144 8412299 8247649 
1763.201 8083336 7920059 7758284 7598338 7440547 7285163 7132493 6982904 
1767.058 6836846 6694980 6558241 6427564 6303787 6187244 6077753 5974564 
1770.916 5876621 5782740 5691953 5603494 5516877 5431636 5347510 5264208 
1774.773 5181776 5100584 5021395 4945107 4872429 4803435 4737523 4673461 
1778.631 4609781 4545303 4479444 4412315 4344404 4276243 4208082 4139795 
1782.488 4071253 4002700 3935053 3869891 3809103 3754153 3705529 3662432 
1786.345 3623032 3585013 3546423 3506189 3464468 3422264 3381064 3342124 
1790.203 3306209 3273213 3242409 3212529 3182131 3149886 3114774 3076408 
1794.060 3035191 2992449 2950250 2911023 2876943 2849293 2828213 2812541 
1797.918 2800390 2789605 2778685 2766804 2753979 2740624 2727190 2713702 
1801.775 2699837 2685022 2668855 2650976 2631398 2610084 2587028 2562175 
1805.633 2535697 2508189 2480824 2455017 2431990 2412034 2394359 2377123 
1809.490 2358256 2336412 2311777 2286191 2262503 2243213 2229310 2219424 
1813.347 2210257 2197730 2178845 2152953 2122620 2092715 2069119 2056544 
1817.205 2056979 2069004 2088540 2110078 2128796 2141519 2147508 2147842 
1821.062 2144610 2139845 2135053 2130835 2127328 2124199 2121141 2117697 
1824.920 2113512 2108151 2101260 2092438 2081606 2068726 2054037 2037759 
1828.777 2020208 2001657 1982535 1963152 1944000 1925359 1907364 1889924 
1832.635 1872851 1855935 1839244 1822826 1806920 1791475 1776279 1760867 
1836.492 1744995 1728802 1713274 1699901 1690379 1685626 1685427 1687917 
1840.349 1690165 1688901 1681705 1667670 1647946 1625127 1602876 1584681 
1844.207 1573336 1570412 1576241 1589782 1608874 1630109 1649298 1661889 
1848.064 1664036 1653597 1631161 1600224 1566546 1536432 1515313 1505963 
1851.922 1508118 1518711 1533340 1547647 1558507 1564381 1565052 1560858 
1855.779 1552130 1539010 1521798 1501189 1478876 1457122 1438502 1424969 
1859.636 1417606 1416079 1419433 1426095 1434664 1443934 1452746 1459828 
1863.494 1463883 1463665 1458703 1449329 1437076 1423806 1411204 1399724 
1867.351 1388611 1375945 1359983 1339866 1316799 1293531 1273971 1261387 
1871.209 1257607 1262081 1272317 1284658 1295594 1302501 1304464 1301871 
1875.066 1296064 1288619 1281088 1274540 1269915 1267613 1268027 1270950 
1878.924 1275962 1282115 1288468 1293919 1297853 1299782 1299697 1297654 
1882.781 1293911 1288512 1281658 1273280 1263477 1251781 1237911 1221372 
1886.638 1202246 1181522 1161440 1145083 1135934 1136415 1147268 1166792 
1890.496 1191382 1216462 1238140 1254099 1264230 1269915 1273252 1275787 
1894.353 1278031 1279555 1279836 1278784 1277443 1277226 1279580 1284619 
1898.211 1291327 1297457 1301002 1300751 1297480 1292896 1289424 1288330 
1902.068 1289464 1291007 1290802 1287177 1280084 1270853 1261696 1254247 
1905.926 1249057 1245115 1241107 1235866 1229717 1223662 1219094 1215916 
1909.783 1212300 1204636 1189422 1164847 1132830 1098782 1070513 1055477 
1913.640 1058298 1078447 1111069 1147754 1180005 1200575 1205947 1195618 
1917.498 1171779 1138097 1098866 1058327 1020801 990037 968918 958519 957581 
1921.837 962710 969537 974298 975832 975935 979043 989768 1010841 1040683 
1926.177 1073725 1101168 1114701 1108579 1082436 1040810 992291 946283 
1930.034 911202 892163 891410 908146 940448 985125 1038775 1097108 1155191 
1934.374 1207133 1247303 1270655 1274352 1257820 1223663 1176556 1123231 
1938.231 1070681 1025933 993812 977108 974951 983943 998256 1012430 1021968 
1942.571 1026020 1026229 1026823 1031485 1042131 1056665 1070576 1077593 
1946.428 1073484 1057067 1032178 1005359 984654 976059 982652 1003341 
1950.286 1035216 1074123 1117567 1164162 1213967 1266604 1320857 1373250 
1954.143 1419478 1454238 1473452 1473953 1454621 1415482 1359340 1290696 
1958.001 1218190 1152717 1107479 1093585 1117419 1175898 1256378 1337905 
1961.858 1397676 1415463 1382095 1300032 1184935 1060019 951155 878827 
1965.716 853692 872907 922251 979038 1019586 1025234 989068 916998 828816 
1970.055 751328 712779 732441 815256 948168 1103564 1245323 1340316 1365725 
1974.395 1316940 1207471 1066362 929088 830922 797278 840424 956012 1127506 
1978.734 1328936 1531937 1710181 1843442 1918841 1932814 1889730 1802287 
1982.592 1687475 1564398 1448889 1351847 1276160 1219392 1174563 1135096 
1986.449 1095582 1054680 1013058 973948 939911 914322 899218 897557 911815 
1990.789 944752 996809 1066131 1146203 1227714 1298392 1347917 1368069 
1994.646 1357000 1317680 1258104 1188180 1118346 1056351 1008122 976204 
1998.504 961247 961619 974566 994377 1014571 1025897 1019535 987500 926282 
2002.843 837328 729511 615699 513042 436601 398387 401641 441666 504497 
2007.183 572215 625003 648155 632496 578977 495520 398034 305783 239832 
2011.522 217598 251425 343033 484314 655607 830275 978496 1075187 1103956 
2015.862 1062558 960918 819953 665140 521615 408786 339589 318087 343224 
2020.202 408377 505285 622172 746896 864969 962983 1029068 1057701 1048573 
2024.541 1010307 955232 898856 852839 824098 810723 804632 792727 762730 
2028.881 704699 615513 497328 358683 210214 65185 -64305 -166237 -231150 
2033.220 -250882 -221440 -142632 -21084 131578 296764 454207 582121 663769 
2037.560 689123 658627 582265 479682 374361 291110 248546 256967 315214 
2041.900 412905 532458 655419 764813 850865 910129 946676 968744 987743 
2046.239 1014476 1058919 1127171 1221544 1337889 1466743 1592934 1699958 
2050.097 1772044 1800029 1781592 1723191 1636909 1538555 1443099 1361834 
2053.954 1299364 1254518 1220633 1191072 1160728 1129620 1101779 1083772 
2057.812 1080873 1094905 1122358 1155956 1186643 1207232 1214331 1209811 
2061.669 1198512 1187070 1179972 1178842 1181688 1184798 1184603 1180589 
2065.526 1175005 1173802 1183122 1208341 1250651 1307230 1371155 1433825 
2069.384 1486577 1523843 1543051 1545805 1535197 1515426 1489437 1459172 
2073.241 1425135 1388736 1352391 1321136 1301219 1299149 1318776 1359858 
2077.099 1416908 1480464 1538890 1582066 1603578 1602764 1583889 1555043 
2080.956 1524791 1500467 1485807 1481628 1485576 1494439 1504248 1511617 
2084.813 1512971 1505229 1485019 1450181 1400038 1336923 1266008 1195299 
2088.671 1133588 1088801 1065820 1065701 1085061 1117655 1155327 1190217 
2092.528 1215621 1227800 1225447 1210879 1188713 1165909 1149906 1147450 
2096.386 1162437 1195262 1241990 1296116 1349663 1395817 1430391 1452665 
2100.243 1464503 1469522 1470871 1470614 1468764 1464528 1456431 1443954 
2104.101 1427190 1407319 1385503 1363222 1341334 1321189 1304169 1292626 
2107.958 1288636 1294259 1309998 1334888 1366288 1400999 1435441 1467146 
2111.815 1493777 1513938 1525764 1527536 1517417 1495041 1461504 1420511 
2115.673 1376964 1336613 1303522 1279810 1264309 1254253 1245843 1236491 
2119.530 1224894 1211656 1197461 1182841 1166529 1146170 1118922 1083123 
2123.388 1038690 988135 934975 883151 835048 791666 752021 715016 679188 
2127.727 644522 610925 578709 546802 513352 475514 431469 380527 325025 
2132.067 268702 217162 174696 144861 128884 127100 138959 164552 203107 
2136.406 252972 309366 364176 406593 426035 414478 370696 300467 216924 
2140.746 136309 74307 40484 36559 54587 80763 98313 94288 62130 5636 -63402 
2146.050 -127763 -171616 -184648 -167603 -130834 -93616 -76130 -94846 
2149.907 -156307 -257318 -385819 -527287 -668349 -802596 -929635 -1054307 
2153.765 -1180865 -1310912 -1438208 -1551631 -1634232 -1668773 -1638151 
2157.140 -1529594 -1334844 -1055827 -705099 -312208 82018 429452 688959 
2160.998 835109 866399 802344 680610 543756 432542 372970 374947 431693 
2165.337 525941 636804 748042 849167 937121 1011067 1070077 1109881 1124157 
2169.677 1104962 1047447 950079 817679 658783 486744 315903 162971 42382 
2174.016 -31925 -51959 -15729 68715 186120 315220 435806 532112 598788 
2178.356 639117 664699 687813 719092 761696 812106 860568 895763 907348 
2182.696 890823 846621 781957 707370 636358 581981 556532 567234 616624 
2187.035 699087 803495 913589 1013423 1089552 1136354 1154383 1151391 
2190.893 1136672 1119641 1105281 1095126 1086805 1077850 1065671 1050519 
2194.750 1032871 1014042 993709 971077 944002 912122 876294 840624 810161 
2199.090 790729 786442 799227 827977 869500 917974 966700 1007581 1032508 
2203.429 1034247 1009416 959097 891660 820563 763021 734130 743663 791383 
2207.769 867494 954250 1032290 1084440 1102175 1085498 1043335 988722 935847 
2212.108 895243 873391 871798 889411 923423 971181 1029419 1095126 1163523 
2216.448 1229862 1288415 1334907 1366355 1382085 1382914 1370818 1347403 
2220.305 1314796 1274908 1231427 1189221 1155055 1135542 1135863 1156940 
2224.163 1195502 1243190 1290033 1326160 1345770 1348231 1338183 1323425 
2228.020 1312330 1310144 1318580 1334584 1353069 1368366 1377021 1377859 
2231.878 1372479 1363001 1351442 1337936 1321875 1302336 1280317 1258338 
2235.735 1241434 1234483 1241144 1261331 1291605 1325345 1355380 1375745 
2239.593 1384094 1381080 1370716 1357306 1344857 1335144 1328171 1322482 
2243.450 1316784 1309841 1301855 1293180 1284660 1276718 1269927 1264777 
2247.307 1262627 1264777 1272707 1286568 1305422 1326439 1346730 1363472 
2251.165 1376312 1386496 1397684 1413346 1435994 1465333 1498689 1531304 
2255.022 1559177 1579573 1593022 1601934 1609954 1619483 1630888 1641333 
2258.880 1646638 1641919 1624098 1592585 1550110 1501603 1453487 1411960 
2262.737 1382497 1368754 1372986 1395502 1434978 1488201 1550640 1616221 
2266.594 1678917 1733155 1775228 1803268 1817753 1820276 1813279 1798804 
2270.452 1779032 1755740 1731532 1709449 1693504 1687268 1693518 1712587 
2274.309 1742764 1780008 1819714 1857595 1891153 1919815 1944588 1966790 
2278.167 1987374 2005682 2020255 2029216 2031735 2028818 2023801 2021150 
2282.024 2025768 2041009 2067989 2104656 2146942 2189231 2226060 2252792 
2285.882 2266679 2266375 2252660 2227455 2194085 2156552 2119258 2086114 
2289.739 2060224 2042818 2033611 2030692 2031421 2033260 2034571 2034712 
2293.596 2034039 2033047 2032023 2030494 2027428 2021736 2013123 2002170 
2297.454 1990841 1981441 1976163 1976019 1980544 1987822 1995283 2000205 
2301.311 2000881 1996709 1988366 1977248 1965202 1953876 1944710 1938670 
2305.169 1936482 1938461 1944779 1955168 1969101 1985795 2004261 2023175 
2309.026 2041303 2057061 2069005 2075705 2076404 2071114 2061264 2049135 
2312.884 2037980 2030732 2029708 2035702 2048211 2065589 2085937 2107576 
2316.741 2129494 2151143 2172335 2192621 2211758 2229868 2248123 2268786 
2320.598 2295030 2329515 2372822 2421997 2470292 2507946 2524883 2513092 
2324.456 2469305 2395793 2299940 2192436 2084924 1987617 1907570 1847874 
2328.313 1808118 1785126 1774617 1772235 1774582 1779059 1784003 1788193 
2332.171 1791024 1792047 1791324 1789192 1786272 1782996 1779695 1776440 
2336.028 1773230 1770162 1767722 1766330 1766450 1767988 1770317 1772227 
2339.885 1772679 1771088 1767956 1764650 1763151 1765156 1771498 1781620 
2343.743 1793928 1806266 1816791 1824355 1828955 1831215 1831987 1831754 
2347.600 1830634 1828340 1824897 1820589 1816525 1813966 1814021 1816962 
2351.458 1821958 1827337 1831172 1831841 1828794 1822437 1814028 1804933 
2355.315 1796273 1788387 1781270 1774483 1768108 1762509 1758537 1756909 
2359.173 1757928 1760801 1764057 1765531 1763194 1755697 1742944 1725969 
2363.030 1706919 1688248 1672374 1660979 1654804 1653556 1656068 1660581 
2366.887 1665263 1668464 1669298 1667621 1664283 1660648 1658409 1658834 
2370.745 1662429 1668699 1676306 1683206 1687472 1687743 1683801 1676395 
2374.602 1667412 1659010 1653404 1652076 1655675 1663807 1675408 1688849 
2378.460 1702497 1714798 1724733 1731481 1734719 1734308 1730495 1723672 
2382.317 1714631 1704335 1694053 1684986 1678350 1674940 1675222 1679047 
2386.175 1686072 1695415 1706193 1717258 1727435 1735365 1739925 1740348 
2390.032 1736544 1729300 1720507 1712621 1708197 1709307 1716559 1728974 
2393.889 1744114 1758656 1769510 1774395 1772814 1765895 1756098 1746322 
2397.747 1739112 1735931 1736983 1741156 1746607 1751122 1752890 1750564 
2401.604 1743730 1732670 1718613 1703183 1688365 1676036 1667727 1664102 
2405.462 1665181 1670026 1677401 1685768 1693734 1700300 1704833 1706935 
2409.319 1706482 1703585 1698748 1692845 1687192 1683307 1682587 1685742 
2413.177 1692531 1701598 1711124 1718956 1723789 1725354 1724713 1723804 
2417.034 1724897 1729793 1739203 1752545 1768306 1784214 1798124 1808125 
2420.891 1813145 1812673 1807100 1797213 1784482 1770621 1757580 1746953 
2424.749 1740023 1736922 1737259 1739648 1742707 1745359 1747317 1749054 
2428.606 1751635 1755976 1762561 1770624 1778673 1784776 1787211 1785083 
2432.464 1778798 1769600 1759342 1749598 1741408 1734922 1729885 1725822 
2436.321 1722775 1720966 1721298 1724184 1729665 1736923 1744660 1751226 
2440.178 1755690 1757920 1758875 1759971 1762589 1767299 1773689 1780139 
2444.036 1784756 1785866 1782989 1776947 1769765 1763949 1761659 1763895 
2447.893 1770303 1779082 1787799 1793944 1795882 1792966 1785936 1776221 
2451.751 1765668 1755813 1747625 1741094 1735735 1730597 1725027 1718537 
2455.608 1711516 1704601 1698782 1694781 1692798 1692369 1692535 1692089 
2459.466 1690053 1685971 1680099 1673156 1665971 1659189 1652977 1647002 
2463.323 1640985 1634766 1629009 1624826 1623700 1626714 1633968 1644112 
2467.180 1654952 1663653 1667923 1666804 1661022 1652829 1645182 1640599 
2471.038 1640529 1644499 1650866 1657103 1661179 1662152 1660636 1658304 
2474.895 1657287 1658975 1663514 1669304 1673763 1673939 1667836 1654986 
2478.753 1637220 1617874 1601351 1591454 1590838 1599841 1616935 1638673 
2482.610 1661082 1680355 1693904 1700545 1700926 1696681 1690360 1684472 
2486.468 1681350 1682371 1688323 1698748 1712378 1727028 1740136 1749108 
2490.325 1752138 1748301 1738171 1723458 1706627 1690085 1675520 1663493 
2494.182 1653611 1644851 1636549 1628589 1621969 1618193 1618884 1624530 
2498.040 1634632 1646940 1658641 1666748 1669365 1666036 1658179 1648132 
2501.897 1639007 1633398 1633174 1638986 1650487 1666550 1685699 1706055 
2505.755 1725816 1742912 1755654 1762500 1762713 1756304 1744521 1729221 
2509.612 1713191 1699151 1689711 1686918 1691932 1705004 1725525 1751930 
2513.469 1782167 1813543 1843609 1869922 1890799 1905250 1913081 1914644 
2517.327 1910843 1902661 1891378 1878266 1864862 1852677 1843164 1837427 
2521.184 1835867 1837976 1842526 1847757 1852013 1853965 1853129 1849740 
2525.042 1844512 1838244 1831650 1824995 1818490 1812376 1807204 1803784 
2528.899 1803268 1806474 1813977 1825463 1840220 1857048 1874747 1892277 
2532.757 1908816 1923528 1935667 1944230 1948429 1947817 1942868 1935045 
2536.614 1926698 1920349 1918310 1921558 1929806 1941456 1954422 1966761 
2540.471 1977579 1986912 1995717 2004928 2014959 2025089 2033876 2039352 
2544.329 2040477 2037257 2031201 2024910 2021084 2021509 2026473 2034500 
2548.186 2043201 2049901 2053042 2052398 2049481 2046546 2045968 2048981 
2552.044 2055570 2064040 2072126 2077336 2078245 2074542 2067387 2058841 
2555.901 2051241 2046607 2046207 2050167 2057796 2067527 2077789 2086924 
2559.759 2093946 2098291 2100329 2100733 2100488 2100434 2101097 2102393 
2563.616 2104043 2105625 2107190 2109240 2112928 2119564 2130276 2145172 
2567.473 2163302 2182421 2199650 2212026 2217521 2215418 2206678 2193618 
2571.331 2179486 2167331 2159744 2158045 2162309 2171574 2184226 2198397 
2575.188 2212549 2225368 2236425 2245449 2252629 2258165 2262170 2264459 
2579.046 2264925 2263352 2260059 2255867 2252266 2251151 2254478 2263472 
2582.903 2278181 2297205 2317863 2336549 2349796 2355019 2351381 2339789 
2586.760 2322935 2304353 2287824 2276270 2271425 2273520 2281596 2293826 
2590.618 2307990 2321967 2334023 2342822 2347713 2348466 2345516 2339775 
2594.475 2332539 2325406 2319957 2317315 2318167 2322401 2329403 2338061 
2598.333 2347283 2356019 2363728 2370086 2375163 2379061 2382108 2384469 
2602.190 2386434 2388276 2390322 2392800 2396019 2400033 2404947 2410612 
2606.048 2417144 2424527 2433023 2442645 2453392 2464885 2476702 2488277 
2609.905 2499353 2509859 2520290 2531080 2542547 2554302 2565354 2574100 
2613.762 2578871 2578532 2573070 2563654 2552444 2541949 2534368 2530782 
2617.620 2531151 2534323 2538791 2543189 2546923 2550242 2554165 2559884 
2621.477 2568430 2580169 2594687 2610991 2627648 2643114 2656077 2665592 
2625.335 2671237 2673143 2672085 2669171 2665715 2662799 2661121 2660594 
2629.192 2660725 2660535 2659301 2656702 2653112 2649359 2646480 2645197 
2633.050 2645628 2647193 2648928 2649842 2649397 2647639 2645201 2643075 
2636.907 2642091 2642637 2644757 2647952 2651665 2655542 2659464 2663593 
2640.764 2668253 2673694 2680005 2686947 2694141 2701025 2706890 2711070 
2644.622 2713036 2712382 2709331 2704439 2698989 2694534 2692493 2693854 
2648.479 2698765 2706408 2715250 2723520 2729752 2733217 2733993 2732817 
2652.337 2730686 2728446 2726521 2724873 2723243 2721325 2719089 2716584 
2656.194 2714058 2711514 2708771 2705287 2700585 2694132 2685810 2675673 
2660.052 2664045 2651152 2637172 2622070 2605829 2588591 2570908 2553582 
2663.909 2537714 2524278 2513969 2506925 2502848 2500980 2500376 2500016 
2667.766 2498959 2496412 2491813 2484926 2475977 2465679 2455342 2446429 
2671.624 2440462 2438352 2440339 2445636 2452835 2460182 2466246 2470185 
2675.481 2471944 2472226 2472209 2472981 2475320 2479446 2484996 2491183 
2679.339 2496955 2501296 2503516 2503240 2500813 2496896 2492760 2489594 
2683.196 2488561 2490153 2494253 2500008 2506192 2511479 2514894 2516055 
2687.053 2515342 2513446 2511395 2510070 2509993 2511353 2514016 2517618 
2690.911 2521795 2526074 2530072 2533314 2535464 2536337 2536089 2535111 
2694.768 2534141 2533847 2534729 2536880 2539881 2542883 2545146 2545911 
2698.626 2545023 2542654 2539452 2536103 2533347 2531604 2531032 2531611 
2702.483 2533234 2535608 2538577 2541694 2544610 2546804 2547771 2547144 
2706.341 2544840 2541132 2536590 2532119 2528618 2526978 2527657 2530666 
2710.198 2535511 2541147 2546271 2549524 2549867 2546950 2541157 2533525 
2714.055 2525697 2519245 2515429 2514818 2517168 2521633 2527009 2532159 
2717.913 2536242 2538919 2540354 2540942 2541365 2542267 2544219 2547609 
2721.770 2552603 2558981 2566173 2573229 2579081 2582628 2583306 2581004 
2725.628 2576467 2570887 2565700 2562129 2560846 2561871 2564772 2568708 
2729.485 2572979 2576983 2580526 2583515 2585969 2587832 2588955 2589263 
2733.343 2588878 2588159 2587810 2588563 2591094 2595757 2602497 2610861 
2737.200 2620175 2629788 2639072 2647572 2654960 2660895 2665067 2667106 
2741.057 2666887 2664616 2660979 2657107 2654489 2654538 2658202 2665745 
2744.915 2676509 2689008 2701410 2711825 2719042 2722593 2722996 2721508 
2748.772 2719666 2718838 2719977 2723147 2727914 2733438 2738851 2743502 
2752.630 2747211 2750129 2752701 2755349 2758382 2761928 2765887 2770062 
2756.487 2774210 2778071 2781474 2784318 2786553 2788200 2789539 2790859 
2760.344 2792583 2794943 2798137 2801970 2806029 2809752 2812631 2814275 
2764.202 2814588 2813719 2812015 2809804 2807386 2805014 2802931 2801401 
2768.059 2800848 2801645 2804180 2808500 2814532 2821816 2829817 2837943 
2771.917 2845818 2853235 2860204 2866837 2873124 2879055 2884451 2889153 
2775.774 2893121 2896300 2898895 2901170 2903380 2905666 2908179 2910872 
2779.632 2913679 2916459 2919031 2921171 2922706 2923591 2923871 2923886 
2783.489 2924147 2925221 2927645 2931603 2936886 2942907 2948922 2954097 
2787.346 2957920 2960325 2961575 2962296 2963168 2964769 2967451 2971242 
2791.204 2975973 2981331 2987013 2992689 2998138 3003257 3007979 3012285 
2795.061 3016355 3020313 3024519 3029334 3035177 3042353 3051204 3061751 
2798.919 3073862 3087053 3100631 3113681 3125309 3134856 3141968 3146825 
2802.776 3150035 3152569 3155428 3159574 3165726 3174197 3185238 3198823 
2806.634 3214857 3233076 3253053 3273946 3294784 3314340 3331554 3345732 
2810.491 3356719 3365068 3371821 3378261 3385604 3394673 3405818 3418903 
2814.348 3433508 3448955 3464639 3479994 3494741 3508833 3522469 3536073 
2818.206 3550335 3565778 3582766 3601301 3620875 3640544 3659338 3676357 
2822.063 3691227 3704252 3716222 3728400 3741971 3757768 3776053 3796518 
2825.921 3818374 3840590 3862343 3882985 3902427 3920942 3939135 3957705 
2829.778 3977223 3997942 4019757 4042095 4064338 4085769 4106064 4125302 
2833.635 4144219 4163960 4185839 4210877 4239712 4272327 4308094 4346065 
2837.493 4385160 4424301 4462763 4500158 4536337 4571698 4606933 4643285 
2841.350 4682241 4725536 4774781 4831035 4894763 4965429 5041900 5122639 
2845.208 5206130 5291310 5377726 5465405 5554812 5646385 5740340 5836434 
2849.065 5934001 6032042 6129398 6224994 6318101 6408431 6496299 6582560 
2852.923 6668591 6755946 6846128 6940156 7038558 7141179 7247288 7356009 
2856.780 7466341 7577457 7688799 7800004 7910797 8020977 8130531 8239568 
2860.637 8348622 8458424 8569925 8683825 8800419 8919271 9039384 9159192 
2864.495 9277085 9391657 9502139 9608176 9710137 9808534 9904084 9997403 
2868.352 10088941 10178772 10266682 10351910 10433221 10509033 10577551 
2871.728 10637110 10686401 10724669 10751783 10767951 10773569 10768989 
2875.103 10754319 10729686 10695219 10651338 10598739 10538483 10471745 
2878.478 10399725 10323664 10244869 10165067 10086270 10011025 9942097 
2881.853 9882172 9833416 9797200 9773912 9763081 9763658 9774320 9793764 
2885.711 9821010 9855574 9897330 9946702 10004263 10070556 10145922 10230006 
2889.568 10322018 10420348 10523283 10629151 10736660 10845045 10953853 
2892.943 11062490 11169855 11273920 11372067 11461380 11539613 11605566 
2896.319 11659707 11703657 11739746 11769959 11795358 11815845 11830301 
2899.694 11837442 11836380 11827251 11811303 11790481 11767000 11742678 
2903.069 11718690 11695789 11674412 11655304 11639567 11628979 11625472 
2906.444 11631054 11647368 11675460 11715847 11768423 11832464 11906915 
2909.820 11990253 12080808 12176799 12276734 12379556 12484837 12592772 
2913.195 12703885 12818746 12937574 13060106 13185629 13313024 13441148 
2916.570 13569066 13696213 13822392 13947514 14071608 14194472 14315829 
2919.945 14435206 14552160 14666444 14778033 14887241 14994435 15100352 
2923.321 15205607 15310705 15416050 15521893 15628612 15736517 15846154 
2926.696 15958001 16072515 16189677 16308945 16429195 16548865 16666269 
2930.071 16780092 16889738 16995466 17098288 17199558 17300678 17402644 
2933.446 17506078 17611196 17718334 17828072 17941352 18059432 18183478 
2936.822 18314186 18451618 18595084 18743402 18895434 19050292 19207596 
2940.197 19367406 19530038 19695670 19864232 20035214 20207978 20381778 
2943.572 20556104 20730496 20904474 21077422 21248438 21416118 21579036 
2946.947 21735526 21884454 22025008 22156940 22280460 22396036 22504204 
2950.323 22605590 22700494 22789272 22872080 22948934 23019780 23084426 
2953.698 23142534 23193636 23237198 23272588 23299288 23316852 23324992 
2957.073 23323696 23312942 23292912 23263494 23224288 23174374 23112264 
2960.448 23035844 22942700 22830320 22696534 22539622 22358754 22153812 
2963.823 21925530 21675260 21404730 21116016 20811198 20492282 20161038 
2967.199 19819214 19468514 19110740 18748034 18382792 18017622 17654996 
2970.574 17296938 16944666 16598484 16257775 15921587 15588976 15259695 
2973.949 14934447 14614862 14303200 14001718 13712056 13434786 13169372 
2977.324 12914358 12667972 12428631 12195453 11968473 11748255 11535686 
2980.700 11331205 11134631 10944765 10759963 10578277 10398287 10219609 
2984.075 10042884 9869794 9702394 9542514 9391081 9247948 9111608 8980037 
2987.932 8851092 8723180 8595777 8469272 8344799 8223624 8106545 7993626 
2991.790 7884064 7776427 7669212 7561159 7451631 7340701 7228993 7117314 
2995.647 7006357 6896426 6787576 6679360 6571533 6463866 6356612 6250339 
2999.505 6145800 6043788 5944883 5849226 5756603 5666406 5578019 5490940 
3003.362 5405138 5320826 5238771 5159735 5084511 5013622 4947240 4885140 
3007.219 4826888 4771805 4719209 4668280 4618264 4568510 4518449 4467825 
3011.077 4416811 4365977 4316343 4268961 4224828 4184655 4148666 4116727 
3014.934 4088505 4063691 4042059 4023401 4007441 3993507 3980446 3966858 
3018.792 3951245 3932589 3910589 3885937 3859952 3834346 3810581 3789544 
3022.649 3771214 3754891 3739616 3724369 3708520 3691854 3674453 3656585 
3026.507 3638425 3620251 3602290 3584997 3569133 3555606 3545335 3538948 
3030.364 3536459 3537279 3540369 3544400 3548184 3550947 3552399 3552613 
3034.221 3551907 3550509 3548532 3545841 3542260 3537656 3532181 3526229 
3038.079 3520566 3515944 3513163 3512747 3514949 3519563 3526194 3534247 
3041.936 3542985 3551592 3559612 3566609 3572479 3577563 3582524 3588296 
3045.794 3596050 3606762 3621110 3639064 3659839 3682067 3703994 3724030 
3049.651 3741070 3754792 3765648 3774636 3782744 3790532 3797979 3804251 
3053.509 3808205 3808660 3804898 3796833 3785077 3770497 3754216 3737254 
3057.366 3720456 3704664 3690943 3680449 3674287 3673355 3677791 3686888 
3061.223 3699023 3712092 3724058 3733359 3739353 3742249 3742754 3741641 
3065.081 3739462 3736248 3731570 3724948 3716066 3705009 3692183 3678403 
3068.938 3664567 3651346 3639470 3629243 3620968 3614479 3609389 3604894 
3072.796 3599874 3592981 3583177 3570055 3554095 3536645 3519727 3505525 
3076.653 3495799 3491512 3492760 3498615 3507812 3518561 3529212 3538178 
3080.510 3544086 3545962 3543445 3536849 3527284 3516594 3506845 3499821 
3084.368 3496518 3496740 3499416 3502703 3504981 3505214 3503316 3499977 
3088.225 3496334 3493129 3490617 3488231 3484888 3479663 3472102 3462511 
3092.083 3451982 3441766 3433197 3426940 3423037 3420941 3419960 3419304 
3095.940 3418437 3417128 3415376 3413329 3411270 3409622 3409005 3409851 
3099.798 3412531 3416748 3421643 3425758 3427450 3425273 3418709 3408211 
3103.655 3395516 3382554 3371478 3363416 3358368 3355197 3352045 3346983 
3107.512 3338806 3327187 3313020 3297785 3283190 3270683 3260917 3253726 
3111.370 3248232 3243086 3237103 3229397 3219809 3209056 3198607 3190184 
3115.227 3185458 3185391 3190027 3198292 3208325 3218002 3225631 3230309 
3119.085 3232460 3233140 3233967 3236162 3240358 3246155 3252451 3257764 
3122.942 3260684 3260254 3256167 3248527 3237894 3224979 3210832 3196733 
3126.800 3184267 3174957 3170323 3171045 3176977 3186828 3198507 3209576 
3130.657 3217940 3222132 3221800 3217419 3210220 3201468 3192405 3184042 
3134.514 3177059 3171827 3168721 3167698 3168569 3170790 3173586 3176117 
3138.372 3177722 3177934 3176729 3174033 3169760 3163633 3155300 3144524 
3142.229 3131765 3118088 3105440 3096029 3091676 3093195 3099852 3109602 
3146.087 3119666 3127226 3130618 3129572 3125409 3120466 3117197 3117461 
3149.944 3121985 3130045 3140191 3150437 3159072 3165103 3168163 3168658 
3153.802 3167250 3164611 3161394 3157951 3154474 3151105 3147969 3145207 
3157.659 3142925 3141157 3139870 3138828 3137872 3136830 3135712 3134809 
3161.516 3134579 3135518 3138055 3142232 3147591 3153272 3158087 3160789 
3165.374 3160552 3157084 3150920 3143080 3135077 3128349 3124111 3123073 
3169.231 3125492 3131114 3139638 3150477 3162974 3176283 3189415 3201120 
3173.089 3210118 3215266 3215981 3212196 3204704 3194940 3184668 3175609 
3176.946 3169155 3165801 3165236 3166352 3167598 3167248 3164311 3158560 
3180.803 3150974 3143537 3138653 3138633 3144728 3156772 3172952 3190263 
3184.661 3205248 3214838 3217367 3212754 3202575 3189336 3175749 3163909 
3188.518 3154865 3148446 3143885 3140176 3136650 3133285 3130568 3129278 
3192.376 3130032 3132863 3137460 3142967 3148562 3153607 3157862 3161361 
3196.233 3164254 3166432 3167538 3166813 3163442 3156894 3147254 3135356 
3200.091 3122826 3111639 3103898 3101122 3104106 3112602 3125574 3141220 
3203.948 3157513 3172412 3184307 3192186 3195709 3195364 3192148 3187398 
3207.805 3182517 3178569 3176121 3175282 3175596 3176475 3177398 3178039 
3211.663 3178494 3179036 3180036 3181723 3184052 3186883 3189955 3193157 
3215.520 3196525 3200155 3204168 3208378 3212425 3215863 3218386 3220014 
3219.378 3221347 3223194 3226363 3231203 3237476 3244286 3250617 3255693 
3223.235 3259580 3263085 3267531 3274133 3283418 3294598 3306066 3315492 
3227.093 3320936 3321356 3317055 3309391 3300312 3291735 3284930 3280260 
3230.950 3277637 3276450 3276172 3276277 3276370 3275850 3274157 3270718 
3234.807 3265402 3258670 3251651 3245826 3242534 3242271 3244576 3248002 
3238.665 3250803 3251484 3249628 3245828 3241564 3238508 3237705 3239153 
3242.522 3241999 3244702 3246086 3245490 3243212 3240284 3238070 3237703 
3246.380 3239824 3244466 3251290 3259613 3268632 3277347 3284676 3289494 
3250.237 3290831 3288354 3282679 3275381 3268886 3265709 3267836 3275922 
3254.094 3289396 3306229 3323876 3339642 3351403 3357766 3358053 3352096 
3257.952 3340181 3322935 3301531 3277846 3254424 3234105 3219695 3213086 
3261.809 3215086 3224972 3240954 3260405 3280573 3299055 3314180 3324957 
3265.667 3331218 3333472 3332778 3330467 3328132 3327115 3328438 3332499 
3269.524 3339135 3347536 3356750 3365600 3373155 3378560 3381189 3380532 
3273.382 3376421 3369021 3359221 3348428 3338567 3331326 3327804 3327982 
3277.239 3330585 3333464 3334433 3331921 3325638 3316517 3306404 3297124 
3281.096 3289776 3284307 3279827 3274933 3268971 3262305 3256538 3253989 
3284.954 3256704 3265557 3279671 3296531 3312663 3324765 3330738 3330323 
3288.811 3325112 3317847 3311462 3308098 3308505 3311958 3316785 3321000 
3292.669 3323194 3322933 3320895 3318321 3316606 3316610 3318426 3321180 
3296.526 3323612 3324276 3322280 3317398 3310099 3301388 3292542 3284588 
3300.384 3278590 3275141 3274758 3277587 3283629 3292271 3302584 3313102 
3304.241 3322314 3328939 3332541 3333531 3333244 3333293 3334945 3338370 
3308.098 3342615 3345514 3344700 3338274 3325796 3308412 3288858 3270289 
3311.956 3255578 3246095 3241605 3240348 3239955 3238326 3234619 3229506 
3315.813 3224976 3223468 3226993 3236173 3250213 3266800 3283236 3297090 
3319.671 3307315 3314143 3319184 3324395 3331387 3340521 3350887 3360613 
3323.528 3367695 3370776 3369934 3366465 3362454 3359659 3358985 3359674 
3327.385 3359936 3357477 3350853 3339871 3326132 3312199 3300757 3293445 
3331.243 3290331 3289882 3289928 3288541 3285153 3280702 3277301 3277187 
3335.100 3281628 3290264 3301200 3311437 3318239 3319918 3316437 3309221 
3338.958 3300339 3291806 3284890 3279726 3275705 3271965 3267930 3263373 
3342.815 3258464 3253406 3248154 3242288 3235504 3227629 3219447 3212373 
3346.673 3208370 3209127 3215621 3227210 3241890 3256642 3268199 3273994 
3350.530 3272863 3265148 3252786 3238253 3224193 3212539 3204233 3199264 
3354.387 3196952 3196253 3196416 3197012 3197881 3199124 3200766 3202523 
3358.245 3203926 3204375 3203470 3201176 3197971 3194595 3191912 3190468 
3362.102 3190345 3190928 3191420 3190818 3188564 3184715 3180009 3175531 
3365.960 3172567 3172007 3174422 3179631 3187088 3195814 3204988 3213685 
3369.817 3221232 3227149 3231196 3233497 3234302 3234148 3233742 3233667 
3373.675 3234541 3236466 3239477 3243290 3247515 3251696 3255477 3258459 
3377.532 3260309 3260694 3259614 3257126 3253825 3250579 3248421 3248266 
3381.389 3250825 3256134 3263920 3273427 3284004 3295031 3306223 3317406 
3385.247 3328399 3338822 3348158 3355832 3361499 3365319 3367946 3370389 
3389.104 3373856 3378956 3385780 3393699 3401459 3407751 3411616 3412596 
3392.962 3411148 3408043 3404638 3401991 3401024 3402163 3405536 3410856 
3396.819 3418032 3426904 3437841 3451294 3467957 3488294 3512203 3538787 
3400.677 3566296 3592512 3615276 3633300 3646641 3656831 3666573 3678840 
3404.534 3695967 3718724 3746374 3776653 3806912 3834925 3859499 3880548 
3408.391 3898788 3915065 3929746 3942460 3952649 3959940 3964760 3968513 
3412.249 3973231 3980703 3991964 4006461 4022402 4037234 4048688 4055388 
3416.106 4057217 4055172 4050858 4045705 4040736 4036325 4032692 4029989 
3419.964 4028567 4028669 4030355 4032950 4035195 4035508 4032790 4026844 
3423.821 4018787 4010692 4005126 4003999 4008049 4016648 4028178 4040493 
3427.678 4052089 4062148 4070880 4078598 4085677 4091788 4096136 4097729 
3431.536 4096178 4091915 4086529 4082192 4081024 4084321 4092052 4102874 
3435.393 4114611 4124972 4132269 4135881 4136216 4134430 4131848 4129582 
3439.251 4128063 4127037 4125975 4124233 4121424 4117453 4112826 4108079 
3443.108 4103987 4100951 4099414 4099460 4101183 4104597 4109713 4116308 
3446.966 4124069 4132242 4139831 4145672 4148660 4148065 4143745 4135980 
3450.823 4125429 4112723 4098441 4082769 4065837 4048044 4030212 4013729 
3454.680 4000336 3991512 3987919 3989028 3992760 3996375 3996885 3992113 
3458.538 3981432 3965889 3947908 3930347 3915679 3905349 3899232 3896078 
3462.395 3894031 3891406 3887368 3882056 3876755 3873230 3873321 3878208 
3466.253 3888081 3901847 3917409 3931869 3942477 3946977 3944411 3935260 
3470.110 3921539 3906070 3891967 3881674 3876452 3876188 3879501 3884420 
3473.968 3888892 3891511 3891791 3890003 3887140 3884464 3883148 3884100 
3477.825 3888055 3895193 3905490 3918523 3933372 3948865 3963688 3976564 
3481.682 3986719 3993763 3998143 4000615 4002165 4003656 4005644 4008107 
3485.540 4010938 4013521 4015357 4015971 4015091 4012585 4008630 4003558 
3489.397 3997986 3992520 3987812 3984219 3981789 3980165 3978802 3977202 
3493.255 3975053 3972406 3969781 3967892 3967477 3969236 3973636 3981094 
3497.112 3991967 4006545 4024995 4047047 4071430 4095967 4117523 4132498 
3500.969 4137739 4131240 4113140 4085644 4052961 4020228 3992486 3973478 
3504.827 3964847 3965905 3974176 3986075 3998133 4007892 4014624 4018982 
3508.684 4022900 4028467 4037366 4050079 4066008 4083700 4101446 4118027 
3512.542 4133072 4146998 4160797 4175224 4190433 4205708 4219586 4230344 
3516.399 4236758 4238369 4235871 4230736 4224760 4219443 4215646 4213442 
3520.257 4212365 4211563 4210413 4208555 4206000 4202942 4199641 4196245 
3524.114 4192846 4189352 4185855 4182382 4179329 4177042 4176041 4176876 
3527.971 4180101 4186175 4195399 4207654 4222678 4239559 4257253 4274496 
3531.829 4290277 4303753 4314488 4322181 4326721 4327721 4324842 4317673 
3535.686 4306263 4291042 4273481 4255473 4239389 4227290 4220769 4220271 
3539.544 4225246 4234248 4245364 4256555 4266037 4272555 4275550 4274948 
3543.401 4271318 4265501 4258476 4251219 4244431 4238585 4233678 4229543 
3547.259 4225733 4221740 4217240 4211880 4205432 4197748 4188685 4178110 
3551.116 4166020 4152442 4137581 4121616 4104936 4087889 4070900 4054405 
3554.973 4038971 4025275 4014067 4005965 4001440 4000398 4002320 4006189 
3558.831 4010604 4013847 4014366 4010734 4002003 3987761 3968432 3944935 
3562.688 3918880 3892170 3866643 3843680 3823994 3807405 3793126 3780066 
3566.546 3767489 3754932 3742689 3731364 3721670 3713817 3707608 3702233 
3570.403 3696797 3690632 3683752 3676663 3670311 3665329 3661932 3659335 
3574.260 3656095 3650330 3640491 3625786 3606519 3583939 3559937 3536418 
3578.118 3514944 3496269 3480611 3467631 3456940 3448308 3441773 3437518 
3581.975 3435639 3435810 3437231 3438483 3437938 3434103 3426186 3414262 
3585.833 3399566 3384116 3370495 3361014 3357239 3359682 3367667 3379371 
3589.690 3392332 3403899 3411518 3413217 3407971 3395693 3377611 3355974 
3593.548 3333885 3314699 3301192 3294689 3294911 3299661 3305653 3309151 
3597.405 3307525 3299580 3286275 3269949 3253632 3239857 3230026 3224052 
3601.262 3220769 3218630 3216539 3214216 3212160 3211188 3211838 3213681 
3605.120 3215599 3215675 3212166 3203936 3190789 3173700 3154339 3134732 
3608.977 3116890 3102425 3092592 3088259 3089733 3096833 3108610 3123443 
3612.835 3139112 3153113 3163356 3168433 3168013 3162532 3153188 3141165 
3616.692 3127501 3112882 3097869 3082975 3069093 3057117 3047889 3041545 
3620.550 3037498 3034283 3030149 3023542 3013863 3001834 2989190 2978355 
3624.407 2971384 2969295 2971807 2977173 2983066 2987247 2988318 2986179 
3628.264 2982105 2978127 2976697 2979605 2987710 3000551 3016522 3033039 
3632.122 3047096 3055771 3056938 3049746 3034930 3014650 2992231 2970902 
3635.979 2953117 2939466 2928808 2918184 2904415 2884886 2858970 2828302 
3639.837 2796538 2768001 2746690 2734816 2732330 2737063 2745824 2755252 
3643.694 2763000 2768120 2771043 2772724 2774246 2776334 2779013 2781963 
3647.552 2784766 2786844 2787889 2787322 2784405 2778201 2768155 2754317 
3651.409 2738014 2721623 2708232 2700551 2700329 2707334 2719527 2733313 
3655.266 2744751 2750511 2748802 2739588 2724170 2704695 2683146 2660854 
3659.124 2638449 2615918 2593347 2571008 2549688 2530462 2514512 2502392 
3662.981 2494326 2489624 2487251 2485963 2484785 2482942 2480270 2476908 
3666.839 2473371 2470105 2467703 2466459 2466635 2468132 2470667 2473610 
3670.696 2476269 2477793 2477575 2475293 2471416 2466735 2462683 2460534 
3674.553 2461364 2465310 2471594 2478338 2483241 2484160 2479685 2469750 
3678.411 2455383 2438514 2421555 2406673 2395538 2389043 2387648 2391118 
3682.268 2399134 2410658 2424007 2436579 2445289 2446935 2439259 2421651 
3686.126 2395771 2365351 2335264 2310307 2293936 2287393 2289564 2297837 
3689.983 2309114 2320877 2331802 2341339 2349501 2356078 2360371 2361424 
3693.841 2358764 2352899 2345827 2340530 2340115 2346410 2359219 2375788 
3697.698 2391615 2401541 2401543 2389864 2367559 2338323 2307132 2278886 
3701.555 2257093 2242996 2235638 2232508 2230535 2227042 2220824 2211953 
3705.413 2201985 2192899 2186761 2184767 2187181 2193393 2202210 2212537 
3709.270 2223839 2236167 2250106 2266308 2284909 2305138 2325538 2343974 
3713.128 2358559 2368079 2372283 2371879 2368264 2362788 2356411 2349407 
3716.985 2341766 2333097 2323314 2312718 2302181 2292830 2285777 2281948 
3720.843 2281919 2285753 2293378 2304320 2317969 2333349 2349460 2364952 
3724.700 2378569 2389261 2396297 2399402 2398810 2394746 2387699 2377905 
3728.557 2365664 2351252 2335246 2318749 2303252 2290585 2282581 2280732 
3732.415 2285754 2297264 2313958 2333696 2353856 2371826 2385532 2393615 
3736.272 2395733 2392361 2384439 2373110 2359429 2344074 2327762 2311296 
3740.130 2295845 2283032 2274690 2272432 2277339 2289239 2306916 2327997 
3743.987 2349665 2369150 2384337 2394038 2398024 2396720 2390906 2381437 
3747.844 2369346 2355752 2342030 2329806 2320704 2316226 2317066 2323364 
3751.702 2334343 2348440 2363929 2378742 2391074 2399636 2403631 2402917 
3755.559 2397997 2389807 2379846 2369479 2360335 2353690 2350822 2352513 
3759.417 2359386 2371291 2387359 2405696 2423458 2437368 2444500 2443143 
3763.274 2433559 2418139 2401135 2387393 2381003 2383890 2395337 2412146 
3767.132 2429846 2443942 2451516 2451741 2445996 2437017 2427693 2420118 
3770.989 2415165 2412190 2409924 2406833 2401901 2394774 2385869 2375922 
3774.846 2365884 2356593 2348886 2343221 2340156 2339871 2342354 2347414 
3778.704 2354470 2362900 2372133 2381331 2389908 2397026 2401921 2403753 
3782.561 2401987 2396646 2388671 2379945 2372857 2369953 2373105 2382787 
3786.419 2397970 2415921 2433153 2445894 2451161 2447383 2434850 2415473 
3790.276 2392398 2369269 2349540 2335720 2329199 2329916 2336776 2347834 
3794.134 2360960 2374001 2385388 2393972 2399279 2401408 2400858 2398380 
3797.991 2395046 2391685 2388873 2386864 2385277 2383459 2380785 2376947 
3801.848 2372597 2368898 2367651 2370240 2377214 2387745 2399674 2410058 
3805.706 2416134 2416286 2410641 2400938 2390132 2381027 2375568 2374038 
3809.563 2375439 2377904 2379716 2379851 2378461 2376302 2374283 2372853 
3813.421 2371590 2369288 2364383 2355669 2342811 2326580 2308846 2292123 
3817.278 2279013 2271658 2271393 2278375 2291621 2308887 2327121 2342782 
3821.135 2352785 2355278 2350360 2340201 2328678 2320326 2319154 2327516 
3824.993 2345378 2370447 2398766 2425745 2447461 2461501 2467037 2465031 
3828.850 2457294 2445874 2432585 2418675 2404905 2391583 2379134 2368035 
3832.708 2358996 2352723 2350069 2351382 2356626 2365312 2376373 2388571 
3836.565 2400593 2411303 2419940 2426217 2430187 2432144 2432385 2430961 
3840.423 2427832 2422688 2415399 2405978 2394915 2382933 2371091 2360409 
3844.280 2351792 2345640 2341955 2340246 2339790 2339734 2339549 2339015 
3848.137 2338377 2338347 2339843 2343796 2350739 2360647 2373003 2386800 
3851.995 2401107 2414913 2427869 2439663 2450386 2459789 2467381 2472369 
3855.852 2474027 2471704 2465698 2456889 2446742 2436944 2428843 2423049 
3859.710 2419408 2417206 2415561 2413916 2412284 2411066 2410926 2412317 
3863.567 2415086 2418543 2421625 2423213 2422528 2419374 2413931 2406967 
3867.425 2399182 2391110 2383140 2375389 2367988 2361184 2355366 2351042 
3871.282 2348825 2349261 2352689 2359279 2368774 2380563 2393670 2406677 
3875.139 2418203 2426985 2432407 2434508 2434250 2433054 2432431 2433398 
3878.997 2436061 2439624 2442444 2442735 2439359 2432134 2422337 2412265 
3882.854 2404604 2401562 2404314 2412471 2424234 2437033 2448085 2455182 
3886.712 2457446 2455046 2449222 2441671 2433987 2427413 2422667 2419908 
3890.569 2419097 2419985 2422325 2425699 2429598 2433340 2436115 2437346 
3894.427 2436679 2434271 2430762 2427069 2424161 2422772 2423320 2425742 
3898.284 2429855 2435240 2441662 2448832 2456569 2464727 2473084 2481496 
3902.141 2490055 2498865 2508138 2517859 2527596 2536260 2542352 2544203 
3905.999 2540602 2531364 2517737 2502045 2487322 2476382 2471076 2471814 
3909.856 2477403 2485688 2494397 2501569 2506284 2508579 2509138 2508750 
3913.714 2508019 2506999 2505583 2503575 2501158 2498964 2497876 2498790 
3917.571 2502100 2507480 2513757 2519298 2522468 2522093 2517881 2510413 
3921.428 2501017 2491383 2483131 2477370 2474668 2474998 2478033 2483259 
3925.286 2490069 2497925 2506086 2513602 2519127 2521325 2518821 2510967 
3929.143 2498038 2481236 2462834 2445526 2431954 2424034 2422547 2427285 
3933.001 2437059 2450221 2465225 2480776 2496173 2510915 2524667 2536982 
3936.858 2547407 2555240 2560162 2562316 2562379 2561473 2560925 2561769 
3940.716 2564415 2568440 2572612 2575366 2574912 2570148 2560780 2547498 
3944.573 2531853 2515688 2500807 2488457 2479170 2472786 2468577 2465932 
3948.430 2464402 2463827 2464433 2466500 2470147 2475149 2481043 2487058 
3952.288 2492610 2497179 2500487 2502493 2503104 2502438 2500670 2498169 
3956.145 2495787 2494495 2495224 2498549 2504202 2511068 2517443 2521410 
3960.003 2521678 2517963 2511292 2503527 2497026 2493681 2494637 2500123 
3963.860 2509195 2520536 2532413 2543040 2550724 2553915 2551611 2543384 
3967.718 2529979 2513316 2496451 2482772 2475336 2475890 2484398 2499023 
3971.575 2516709 2534014 2548133 2557286 2560937 2559604 2554315 2546418 
3975.432 2537357 2528709 2522331 2520030 2523277 2532596 2547256 2565238 
3979.290 2583521 2598985 2609247 2613112 2611111 2604838 2596502 2588203 
3983.147 2581498 2577242 2575691 2576740 2580094 2585191 2591348 2597776 
3987.005 2603508 2608007 2611233 2613775 2616493 2620379 2625728 2631844 
3990.862 2637317 2640200 2638800 2632203 2620782 2605922 2589729 2574273 
3994.719 2561231 2551573 2545648 2543402 2544448 2548491 2554981 2563153 
3998.577 2572215 2581320 2590172 2598865 2608071 
##END=
