##TITLE=3D-Fillies_PETG_White_Filament_r6_ATR-Corrected
##JCAMP-DX=5.01  $$ Nicolet v. 1
##DATATYPE=INFRARED SPECTRUM
##ORIGIN=Curtin University
##OWNER=Nicolet
##LONGDATE=2024/07/18
##TIME=12:41:53
##SPECTROMETER/DATA SYSTEM=Nicolet iS50
##DATA PROCESSING=
Ratio against background
%Transmittance->Absorbance
ATR Correction
Truncated
ElementMultiply or ElementDivide
##COMMENTS=
Number of sample scans: 32
Collection length: 47.29 sec
Sample gain: 1.0
Background collected on: Thu Jul 18 12:36:14 2024 (GMT+08:00);
Number of background scans: 32
Background gain: 1.0
Sample spacing:  1.000
Number of scan points: 16672
Resolution points: 8192
Number of FFT points: 65536
Apodization: N-B strong;
Phase correction: Mertz;
Laser frequency: 15798.3 cm-1
Number of rejected sample scans: 0
Number of rejected background scans: 0
Bench serial number: AUP1200105;
##RESOLUTION=4.000
##XUNITS=1/CM
##YUNITS=ABSORBANCE
##FIRSTX=400.163452
##LASTX=4000.187744
##FIRSTY=0.036949
##MAXX=4000.187744
##MINX=400.163452
##MAXY=1.559507
##MINY=-0.037057
##XFACTOR=1.000000
##YFACTOR=1.000000E-008
##NPOINTS=7468
##DELTAX=0.482125
##ZPD=8192
##XYDATA=(X++(Y..Y))
400.163 3694882 3640728 3579925 3517337 3458340 3408213 3372752 3357814 
404.020 3367886 3404238 3463219 3535761 3608806 3668252 3702532 3705694 
407.877 3678521 3628069 3565032 3500723 3444339 3401411 3373657 3360347 
411.734 3359909 3371540 3395586 3433018 3484023 3546594 3615601 3683098 
415.591 3739687 3776819 3788982 3775419 3740488 3692720 3642759 3600663 
419.448 3573554 3564286 3571353 3590192 3615117 3641308 3666214 3689932 
423.305 3714534 3742858 3776884 3816698 3860179 3903607 3942863 3974896 
427.162 3998816 4016338 4031177 4047772 4069556 4097515 4129303 4159577 
431.019 4181180 4187115 4172461 4135534 4079234 4009752 3935412 3864969 
434.876 3805817 3762934 3738344 3731352 3739123 3757559 3782063 3808229 
438.733 3832358 3851793 3865034 3871737 3872463 3868249 3860132 3848831 
442.590 3834534 3817136 3796535 3773120 3747991 3722901 3699856 3680588 
446.447 3666056 3656335 3650784 3648532 3648992 3652093 3658158 3667393 
450.304 3679266 3692079 3703019 3708718 3706225 3694065 3672928 3645892 
454.161 3617705 3593789 3578846 3575745 3584905 3604381 3630533 3659149 
458.017 3686524 3710333 3729879 3745951 3760075 3773794 3787909 3802223 
461.874 3815611 3826606 3834020 3837602 3838434 3838596 3840649 3846832 
465.731 3858197 3874187 3892617 3910197 3923492 3929932 3928631 3920684 
469.588 3908825 3896660 3887575 3883835 3886052 3893401 3904207 3916985 
473.445 3931146 3947374 3967193 3992214 4023078 4058950 4097414 4135258 
477.302 4169536 4198609 4222608 4243147 4262349 4281804 4301784 4321279 
481.159 4338782 4353472 4366244 4379934 4398716 4426685 4466237 4517063 
485.016 4575905 4637556 4696352 4747862 4790111 4823872 4852289 4879921 
488.873 4911669 4951913 5003926 5069469 5148570 5239414 5338501 5441240 
492.730 5542929 5640159 5731838 5819716 5907833 6000928 6102434 6212643 
496.587 6327867 6441071 6543673 6628030 6689445 6727208 6743993 6744212 
500.444 6731933 6709350 6676152 6630096 6568300 6488609 6390557 6275666 
504.301 6147047 6008789 5865236 5720603 5578673 5442675 5315017 5197090 
508.158 5089080 4990085 4898498 4812557 4731004 4653423 4580197 4512185 
512.015 4450150 4394468 4344944 4301091 4262459 4228874 4200462 4177357 
515.871 4159235 4145124 4133341 4121931 4109227 4094357 4077469 4059510 
519.728 4041743 4025151 4010043 3995979 3982019 3967132 3950548 3931990 
523.585 3911565 3889675 3866727 3843160 3819279 3795373 3771684 3748357 
527.442 3725288 3702185 3678577 3654090 3628699 3602958 3577970 3555170 
531.299 3535909 3521094 3510870 3504584 3500944 3498357 3495156 3489890 
535.156 3481424 3469067 3452622 3432469 3409538 3385209 3360937 3337879 
539.013 3316420 3296134 3275890 3254426 3231003 3206001 3180966 3158362 
542.870 3140729 3129892 3126282 3128866 3135452 3143488 3150753 3155860 
546.727 3158231 3157783 3154382 3147536 3136352 3119931 3097838 3070581 
550.584 3039673 3007345 2975933 2947181 2921882 2899813 2880082 2861632 
554.441 2843715 2826146 2809125 2793069 2778019 2763602 2749033 2733356 
558.298 2715775 2695907 2673841 2649910 2624521 2597874 2569951 2540694 
562.155 2510207 2479066 2448299 2419276 2393358 2371545 2354249 2341270 
566.012 2331952 2325454 2320956 2317737 2315108 2312287 2308274 2301990 
569.869 2292446 2279113 2262124 2242433 2221639 2201740 2184707 2172165 
573.725 2165147 2164036 2168510 2177590 2189717 2202790 2214470 2222535 
577.582 2225310 2222202 2213855 2202088 2189441 2178488 2171208 2168551 
581.439 2170445 2176172 2184814 2195777 2208840 2224062 2241329 2260023 
585.296 2278929 2296494 2311373 2323011 2331977 2339994 2349502 2362989 
589.153 2382367 2408637 2441867 2481498 2526786 2577148 2632275 2692078 
593.010 2756421 2824971 2897030 2971530 3047037 3121752 3193365 3259020 
596.867 3315243 3358206 3384135 3390040 3374307 3337233 3281024 3209532 
600.724 3127543 3040012 2951352 2865123 2783889 2709414 2642834 2584814 
604.581 2535561 2494735 2461413 2434201 2411416 2391515 2373415 2356701 
608.438 2341572 2328626 2318404 2311081 2306324 2303359 2301298 2299540 
612.295 2297984 2297079 2297570 2300075 2304713 2310957 2317724 2323849 
616.152 2328528 2331754 2334351 2337709 2343270 2351954 2363837 2378147 
620.009 2393621 2409079 2423915 2438418 2453648 2471148 2492366 2518272 
623.866 2549108 2584491 2623693 2666194 2712196 2763050 2821441 2891238 
627.723 2976802 3081863 3208056 3353356 3511004 3669312 3812787 3924660 
631.579 3990251 4000514 3954374 3859234 3729214 3581889 3434440 3300525 
635.436 3188529 3101516 3038428 2995897 2969917 2956893 2953916 2958574 
639.293 2968538 2981527 2995481 3009018 3021738 3034243 3047706 3063223 
643.150 3081281 3101462 3122607 3143344 3162470 3179315 3193673 3205569 
647.007 3214980 3221782 3225914 3227766 3228366 3229373 3232661 3239712 
650.864 3251032 3265934 3282727 3299341 3313999 3325764 3334690 3341546 
654.721 3347353 3352966 3358844 3365098 3371775 3379003 3387089 3396393 
658.578 3407145 3419356 3432916 3447869 3464685 3484337 3508116 3537081 
662.435 3571552 3610668 3652422 3694122 3733113 3767589 3797111 3822684 
666.292 3846416 3870888 3898457 3930722 3968256 4010605 4056566 4104513 
670.149 4152941 4200890 4248345 4296413 4347244 4403652 4468438 4543739 
674.006 4630451 4728044 4834782 4948253 5065894 5185410 5304754 5421842 
677.863 5534195 5638725 5731985 5810838 5873153 5918548 5948495 5965944 
681.720 5974459 5977398 5977258 5975605 5973434 5971707 5971825 5975615 
685.577 5985049 6001690 6026214 6058330 6097093 6141473 6190958 6245868 
689.433 6307279 6376549 6454777 6542383 6639009 6743791 6855856 6974902 
693.290 7101469 7237051 7383826 7544370 7721238 7916698 8132568 8370051 
697.147 8629730 8911466 9214425 9537060 9877172 10232002 10598309 10972429 
701.004 11350417 11728203 12101936 12468433 12825641 13172887 13510883 
704.379 13841291 14166032 14486513 14803100 15115041 15420918 15719368 
707.754 16009980 16293816 16573681 16853976 17140440 17439982 17760920 
711.129 18113228 18509054 18962840 19491152 20111992 20843848 21704804 
714.504 22711876 23880762 25225962 26760996 28498334 30448982 32621518 
717.878 35020776 37646564 40492460 43545312 46784468 50180780 53693748 
721.253 57266260 60816328 64227040 67339280 69954112 71854024 72847184 
724.628 72822336 71788440 69873328 67283160 64246340 60969604 57615704 
728.003 54300012 51097096 48050292 45180768 42494596 39987408 37647708 
731.378 35459004 33401870 31455680 29600656 27819640 26099446 24431432 
734.752 22811304 21238272 19713856 18240880 16822742 15463148 14166200 
738.127 12936559 11779329 10699829 9702913 8792247 7969617 7234467 6583915 
741.984 6012956 5515082 5082930 4708919 4385726 4106531 3865131 3655997 
745.841 3474250 3315726 3176995 3055367 2948874 2856040 2775715 2706840 
749.698 2648257 2598674 2556658 2520743 2489566 2461928 2436884 2413747 
753.555 2392097 2371814 2353100 2336426 2322540 2312230 2306134 2304507 
757.412 2307009 2312777 2320557 2329094 2337522 2345673 2354109 2363919 
761.269 2376259 2391900 2410857 2432339 2455069 2477794 2499855 2521613 
765.126 2544449 2570405 2601643 2639817 2685560 2738441 2797165 2860011 
768.983 2925253 2991474 3057593 3122729 3185944 3246146 3302066 3352619 
772.840 3397102 3435552 3468803 3498339 3525990 3553535 3582327 3613173 
776.697 3646327 3681653 3718862 3757703 3798124 3840341 3884884 3932584 
780.554 3984613 4042422 4107688 4182154 4267544 4365326 4476604 4602030 
784.410 4741828 4895748 5063246 5243471 5435431 5638108 5850575 6072171 
788.267 6302454 6541071 6787310 7039441 7293888 7544497 7782104 7994736 
792.124 8168429 8288838 8343236 8322689 8223796 8049687 7810107 7520376 
795.981 7199549 6868157 6545862 6249485 5991639 5780136 5618084 5504467 
799.838 5435054 5403471 5402144 5423242 5459262 5503607 5550848 5596993 
803.695 5639449 5676944 5709300 5737095 5761231 5782611 5801801 5819005 
807.552 5834026 5846525 5856229 5863196 5867838 5870971 5873608 5876734 
811.409 5881038 5886759 5893581 5900772 5907368 5912491 5915624 5916816 
815.266 5916735 5916586 5917806 5921786 5929543 5941502 5957371 5976295 
819.123 5997016 6018206 6038737 6057989 6075910 6093082 6110512 6129345 
822.980 6150613 6174863 6202059 6231560 6262386 6293542 6324464 6355282 
826.837 6386924 6420898 6458872 6502218 6551578 6606683 6666524 6729661 
830.694 6794791 6861152 6928749 6998295 7070910 7147708 7229362 7315927 
834.551 7406751 7500745 7596554 7692919 7788814 7883499 7976442 8067184 
838.408 8155203 8239873 8320490 8396398 8467202 8532909 8594042 8651633 
842.264 8707059 8761740 8816741 8872507 8928588 8983688 9035926 9083265 
846.121 9123936 9156923 9182036 9199877 9211583 9218403 9221449 9221585 
849.978 9219501 9215928 9211886 9208783 9208302 9212123 9221549 9237144 
853.835 9258635 9285042 9315083 9347689 9382500 9420171 9462324 9511313 
857.692 9569658 9639601 9722731 9819945 9931678 10058339 10200807 10360793 
861.549 10540923 10744542 10975341 11236873 11532251 11863996 12234181 
864.924 12644660 13097245 13593668 14135194 14721940 15351984 16020571 
868.299 16719390 17436400 18156082 18860010 19527768 20138108 20670120 
871.674 21104578 21425242 21620188 21682822 21612488 21414374 21098736 
875.048 20679562 20172988 19595820 18964324 18293572 17597196 16887396 
878.423 16175295 15471013 14783862 14122221 13493322 12902956 12355282 
881.798 11852628 11395659 10983537 10614376 10285611 9994445 9738104 9514023 
885.655 9319863 9153421 9012491 8894662 8797211 8717111 8651102 8595962 
889.512 8548800 8507419 8470491 8437636 8409280 8386333 8369767 8360253 
893.369 8357823 8361784 8370772 8382986 8396478 8409432 8420386 8428350 
897.226 8432665 8432853 8428353 8418245 8401033 8374674 8336703 8284716 
901.083 8216789 8132035 8030912 7915235 7787933 7652455 7512210 7370000 
904.940 7227751 7086597 6947123 6809811 6675359 6544904 6419980 6302396 
908.797 6193951 6096229 6010489 5937423 5877142 5828994 5791582 5762854 
912.654 5740410 5721994 5706055 5692116 5680885 5673956 5673205 5680033 
916.510 5694766 5716504 5743365 5773111 5803893 5834789 5865902 5898110 
920.367 5932464 5969646 6009591 6051520 6094261 6136694 6178100 6218314 
924.224 6257577 6296246 6334563 6372524 6409982 6446828 6483202 6519522 
928.081 6556372 6594287 6633544 6674091 6715616 6757749 6800337 6843479 
931.938 6887574 6933170 6980737 7030684 7083364 7139238 7199011 7263678 
935.795 7334393 7412255 7498050 7592083 7694241 7804239 7921866 8047288 
939.652 8181128 8324320 8477864 8642472 8818338 9005104 9201870 9407350 
943.509 9620049 9838289 10060338 10284297 10508259 10730419 10949286 
946.884 11163816 11373486 11578178 11778034 11973114 12163407 12348809 
950.259 12529394 12705675 12878704 13050076 13221474 13394074 13567886 
953.633 13741224 13910487 14070356 14214340 14335594 14427829 14486146 
957.008 14507803 14492464 14442429 14362440 14259160 14140587 14015238 
960.383 13891323 13776080 13675244 13592730 13530597 13489118 13467102 
963.758 13462208 13471398 13491304 13518593 13550282 13583879 13617402 
967.133 13649267 13678083 13702330 13720128 13729157 13726680 13709873 
970.508 13676088 13623388 13550811 13458489 13347648 13220282 13078825 
973.882 12925756 12763302 12593403 12417778 12238136 12056433 11875065 
977.257 11696793 11524647 11361538 11209969 11071736 10947737 10838006 
980.632 10741909 10658342 10586020 10523663 10470095 10424166 10384706 
984.007 10350336 10319491 10290472 10261645 10231750 10200181 10167115 
987.382 10133400 10100377 10069302 10041079 10015967 9993662 9973548 9955312 
991.239 9939291 9926829 9920081 9921634 9933914 9958501 9995905 10045560 
995.095 10106214 10176525 10255581 10343228 10440045 10547128 10665685 
998.470 10796655 10940561 11097437 11267065 11449144 11643565 11850538 
1001.845 12070791 12305627 12557040 12827808 13121471 13442208 13794675 
1005.220 14183652 14613844 15089740 15615655 16196068 16836106 17542172 
1008.595 18322608 19188356 20153392 21234764 22452104 23826214 25376576 
1011.970 27117664 29054174 31175340 33449224 35817420 38192208 40457440 
1015.344 42475412 44100820 45200936 45677760 45486152 44641160 43212824 
1018.719 41310792 39064984 36607768 34061040 31528414 29092074 26812458 
1022.094 24730020 22867888 21235126 19829904 18642554 17658038 16857944 
1025.469 16221945 15728894 15357637 15087749 14900258 14778186 14706983 
1028.844 14674780 14672263 14692494 14730404 14782441 14846234 14920282 
1032.219 15003735 15096194 15197454 15307313 15425424 15551177 15683727 
1035.595 15822122 15965301 16112305 16262183 16414025 16566862 16719548 
1038.970 16870704 17018580 17161060 17295590 17419324 17529268 17622608 
1042.345 17697010 17750928 17783714 17795618 17787596 17761064 17717672 
1045.720 17659248 17587750 17505380 17414608 17318052 17218324 17117776 
1049.096 17018328 16921488 16828452 16740388 16658677 16585010 16521402 
1052.471 16469994 16432871 16411865 16408491 16423900 16458932 16514102 
1055.846 16589636 16685471 16801318 16936848 17091848 17266480 17461266 
1059.221 17677016 17914498 18174080 18455516 18757888 19079960 19420574 
1062.597 19779184 20156076 20552292 20969286 21408276 21869888 22353936 
1065.972 22859604 23385962 23932492 24499530 25088438 25701546 26341864 
1069.347 27012872 27718430 28462764 29250420 30086226 30975016 31921196 
1072.722 32928404 33999304 35135664 36338560 37608756 38946820 40352980 
1076.098 41826672 43365980 44967100 46623992 48328548 50070848 51839436 
1079.473 53621648 55403812 57171448 58909816 60604976 62245108 63821764 
1082.848 65330772 66772252 68149864 69469336 70737400 71960728 73145632 
1086.223 74298088 75423912 76528480 77616232 78689936 79750040 80794656 
1089.599 81819936 82820584 83790328 84721824 85606016 86431144 87182400 
1092.974 87842144 88391576 88812680 89090696 89215568 89182280 88989976 
1096.349 88640376 88136152 87479976 86674536 85723352 84631944 83408464 
1099.724 82063952 80611608 79065528 77439344 75745440 73995000 72198840 
1103.100 70368688 68518872 66667040 64834268 63044368 61322440 59693372 
1106.475 58180696 56805764 55587424 54541672 53681232 53014808 52545952 
1109.850 52271844 52182372 52259676 52478552 52807588 53211064 53651076 
1113.225 54089840 54491652 54824548 55061664 55182292 55172656 55026268 
1116.601 54743552 54330768 53798240 53158308 52423428 51605116 50713504 
1119.976 49757700 48746676 47689832 46597308 45479892 44348432 43213128 
1123.351 42082988 40965416 39866196 38789612 37738796 36715984 35722820 
1126.726 34760408 33829432 32930004 32061640 31223124 30412644 29627944 
1130.102 28866554 28126154 27404860 26701366 26014868 25345022 24691610 
1133.477 24054462 23433250 22827618 22237218 21661898 21101760 20557084 
1136.852 20028254 19515534 19018952 18538148 18072512 17621234 17183530 
1140.227 16758838 16346912 15947905 15562220 15190426 14833061 14490396 
1143.603 14162374 13848591 13548380 13260986 12985779 12722391 12470724 
1146.978 12230892 12002960 11786745 11581598 11386301 11199220 11018480 
1150.353 10842227 10668870 10497237 10326496 10156106 9985775 9815329 
1153.728 9644795 9474510 9305219 9138159 8974982 8817574 8667815 8527357 
1157.586 8397376 8278581 8171273 8075386 7990729 7917037 7854077 7801740 
1161.443 7760014 7729175 7709803 7703054 7710615 7734798 7778311 7844021 
1165.301 7934537 8051865 8197046 8369890 8568870 8791109 9032306 9286860 
1169.158 9547897 9807580 10057363 10288561 10493024 10663795 10795809 
1172.533 10886098 10933971 10940623 10908689 10841504 10742580 10615238 
1175.908 10462439 10287011 10091857 9880318 9656266 9424183 9188887 8955231 
1179.766 8727771 8510501 8306639 8118658 7948228 7796460 7663945 7551030 
1183.623 7457894 7384752 7331889 7299633 7288202 7297524 7326995 7375413 
1187.481 7440955 7521435 7614644 7718698 7832335 7954924 8086344 8226582 
1191.338 8375429 8532223 8695761 8864525 9037030 9212122 9389280 9568536 
1195.196 9750361 9935363 10124056 10316785 10513819 10715486 10922363 
1198.571 11135346 11355466 11583713 11820690 12066518 12320755 12582710 
1201.946 12851700 13127384 13409995 13700290 13999419 14308621 14629003 
1205.321 14961348 15306045 15663223 16032860 16414958 16809610 17217178 
1208.697 17638250 18073716 18524658 18992404 19478416 19984252 20511410 
1212.072 21061372 21635508 22235094 22861166 23514598 24195812 24904636 
1215.447 25640124 26400406 27182590 27982852 28796586 29618704 30443976 
1218.822 31267596 32085722 32896188 33699000 34496860 35295236 36102200 
1222.198 36927888 37783724 38681704 39633516 40649952 41740504 42912872 
1225.573 44172936 45524724 46970684 48512076 50149680 51884276 53717232 
1228.948 55650384 57685928 59825468 62069468 64416476 66863144 69404272 
1232.323 72033240 74742072 77521256 80358624 83238408 86140232 89039048 
1235.698 91906176 94711056 97423144 100013376 102454496 104720808 106787408 
1239.074 108630656 110229216 111566600 112632904 113426352 113952872 
1241.967 114224872 114259184 114075896 113696752 113144768 112443280 
1244.860 111615040 110681320 109661568 108573712 107435368 106264640 
1247.753 105080488 103902080 102747296 101630672 100562584 99548968 98592704 
1251.128 97695328 96858952 96086840 95383296 94752280 94196120 93714104 
1254.503 93302264 92953432 92657992 92404120 92177936 91963352 91742080 
1257.879 91494120 91199304 90838864 90397488 89864328 89233688 88504168 
1261.254 87678080 86760416 85758608 84681928 83541480 82349200 81117200 
1264.629 79856536 78576696 77285448 75989560 74695376 73409448 72138440 
1268.004 70888648 69665136 68471216 67307968 66174984 65070796 63993788 
1271.380 62942516 61915780 60912228 59929944 58966404 58018576 57083420 
1274.755 56158368 55241704 54332524 53430456 52535428 51647176 50765352 
1278.130 49889536 49019380 48154720 47295636 46442364 45595236 44754768 
1281.505 43921752 43097360 42283216 41481140 40692900 39919900 39163168 
1284.881 38423200 37700520 36995724 36309816 35643972 34999220 34375836 
1288.256 33773024 33188648 32619506 32061666 31511042 30963802 30416504 
1291.631 29866064 29309606 28744432 28168056 27578542 26974934 26357526 
1295.006 25728178 25090190 24448016 23806920 23172528 22550356 21945580 
1298.382 21362752 20805592 20276974 19778744 19311694 18875530 18468858 
1301.757 18089286 17733524 17397634 17077278 16768102 16466130 16168131 
1305.132 15871786 15575913 15280287 14985573 14692953 14403990 14120324 
1308.507 13843724 13575962 13318868 13074186 12843475 12627833 12427711 
1311.883 12242607 12071060 11910653 11758279 11610407 11463487 11314398 
1315.258 11160690 11000829 10834267 10661369 10483193 10301159 10116748 
1318.633 9931141 9745083 9558808 9372285 9185369 8998190 8811329 8625921 
1322.490 8443587 8266319 8096215 7935296 7785399 7648144 7525066 7417647 
1326.348 7327566 7256705 7207285 7182008 7183905 7216501 7283579 7389067 
1330.205 7536714 7729625 7969691 8257192 8590261 8964673 9373778 9808650 
1334.063 10258242 10709900 11149799 11563703 11937792 12259685 12519200 
1337.438 12709169 12825620 12867752 12837619 12739691 12580201 12366750 
1340.813 12107798 11812167 11488728 11145911 10791535 10432552 10074963 
1344.188 9723741 9382928 9055559 8743809 8449092 8172158 7913320 7672581 
1348.046 7449781 7244792 7057513 6887813 6735500 6600128 6480904 6376679 
1351.903 6285981 6207220 6138987 6080116 6029992 5988383 5955428 5931342 
1355.761 5916285 5910215 5912843 5923764 5942594 5969197 6003902 6047617 
1359.618 6101815 6168602 6250491 6350267 6470668 6613994 6781760 6974338 
1363.476 7190694 7428307 7683161 7950033 8222755 8494761 8759513 9011060 
1367.333 9244413 9455788 9642772 9804064 9939372 10049038 10133909 10195183 
1371.190 10234454 10253577 10254658 10239816 10210981 10169597 10116611 
1374.566 10052472 9977365 9891504 9795461 9690358 9577911 9460387 9340473 
1378.423 9221088 9105250 8995970 8896114 8808317 8734842 8677486 8637355 
1382.281 8614792 8609373 8619950 8644848 8682082 8729590 8785406 8847791 
1386.138 8915178 8986218 9059649 9134232 9208654 9281600 9351704 9417821 
1389.995 9479183 9535612 9587640 9636602 9684373 9733237 9785465 9843210 
1393.853 9908466 9983175 10069542 10170285 10288808 10429230 10596162 
1397.228 10794462 11028969 11304232 11624525 11993901 12416410 12896413 
1400.603 13438708 14048661 14731784 15493222 16336517 17262100 18265370 
1403.979 19334660 20449480 21579480 22684558 23716538 24622376 25348700 
1407.354 25847110 26079446 26022142 25668948 25031686 24138836 23032344 
1410.729 21763002 20385488 18953350 17515092 16111465 14774080 13525289 
1414.104 12378842 11341178 10412897 9590243 8866417 8232820 7679903 7198122 
1417.962 6778374 6412548 6093611 5815707 5573917 5364075 5182582 5026263 
1421.819 4892461 4778978 4684307 4607348 4547355 4503657 4475473 4461903 
1425.677 4462011 4475090 4500864 4539500 4591528 4657509 4737734 4832012 
1429.534 4939718 5059867 5191448 5333565 5485485 5646578 5816096 5993112 
1433.391 6176440 6364761 6556692 6750867 6945923 7140402 7332739 7521283 
1437.249 7704518 7881345 8051362 8214952 8373360 8528519 8682974 8839730 
1441.106 9002168 9174022 9359106 9561098 9782963 10026529 10291993 10577810 
1444.964 10880794 11196557 11519974 11845645 12168083 12481683 12780571 
1448.339 13058519 13308837 13524687 13699433 13827133 13903181 13924965 
1451.714 13892318 13807824 13676596 13505629 13302915 13076444 12833486 
1455.089 12580381 12322503 12064560 11810689 11564395 11328276 11103784 
1458.465 10891072 10689147 10496369 10310932 10131370 9956809 9786948 
1461.840 9621763 9461205 9304816 9151671 9000338 8849220 8696762 8541774 
1465.697 8383639 8222405 8058732 7893805 7729316 7567111 7408987 7256457 
1469.555 7110498 6971331 6838535 6711045 6587516 6466499 6346744 6227276 
1473.412 6107468 5986967 5865558 5743210 5619907 5495722 5370846 5245451 
1477.270 5119722 4993754 4867599 4741217 4614638 4487994 4361632 4236095 
1481.127 4112076 3990256 3871298 3755709 3643885 3536148 3432807 3334183 
1484.984 3240620 3152436 3070034 2993679 2923728 2860443 2804073 2754767 
1488.842 2712520 2677119 2648276 2625681 2609223 2599110 2595928 2600554 
1492.699 2613994 2637202 2670968 2715936 2772807 2842520 2926562 3027011 
1496.557 3146651 3288927 3457980 3658715 3896856 4178791 4510797 4897729 
1500.414 5340976 5836175 6371227 6925299 7469456 7968951 8387151 8690324 
1504.271 8852576 8859935 8712809 8425981 8026284 7548061 7027821 6499190 
1508.129 5989378 5517538 5094795 4725560 4409099 4141362 3916460 3727876 
1511.986 3569449 3435916 3323334 3228881 3150627 3087026 3036519 2997268 
1515.844 2967132 2943898 2925571 2910741 2898743 2889635 2884013 2882668 
1519.701 2886223 2894826 2907964 2924425 2942566 2960595 2977019 2990891 
1523.559 3002037 3010871 3018200 3024728 3030806 3036221 3040214 3041736 
1527.416 3039729 3033455 3022793 3008030 2989862 2969080 2946314 2922005 
1531.273 2896237 2868980 2840085 2809536 2777480 2744227 2710356 2676571 
1535.131 2643655 2612445 2583674 2557918 2535536 2516644 2501053 2488401 
1538.988 2478195 2469851 2462800 2456439 2450190 2443493 2435960 2427495 
1542.846 2418386 2409340 2401392 2395592 2392697 2392955 2395963 2400782 
1546.703 2406316 2411620 2416247 2420365 2424699 2430158 2437595 2447455 
1550.561 2459592 2473390 2487893 2502108 2515277 2526976 2537220 2546347 
1554.418 2554930 2563503 2572552 2582288 2592765 2603822 2615295 2627067 
1558.275 2639131 2651601 2664699 2678667 2693699 2709982 2727698 2747084 
1562.133 2768411 2792033 2818263 2847333 2879384 2914547 2952992 2995168 
1565.990 3041799 3093877 3152589 3219013 3294068 3378373 3472420 3576721 
1569.848 3692022 3819408 3960287 4116180 4288450 4477984 4684905 4908300 
1573.705 5145904 5393687 5645657 5893625 6127479 6336005 6507985 6633617 
1577.563 6705583 6719650 6674842 6573082 6418836 6218760 5981264 5716126 
1581.420 5433970 5145484 4860691 4588242 4334943 4105477 3902493 3726762 
1585.277 3577549 3452951 3350340 3266606 3198547 3143050 3097250 3058738 
1589.135 3025584 2996292 2969789 2945326 2922314 2900407 2879450 2859571 
1592.992 2841241 2825188 2812274 2803316 2798842 2799039 2803761 2812617 
1596.850 2825137 2841013 2860063 2882318 2907847 2936827 2969358 3005555 
1600.707 3045537 3089375 3137072 3188453 3243139 3300622 3360370 3422074 
1604.564 3485768 3551894 3621146 3694214 3771496 3852941 3937941 4025576 
1608.422 4114771 4204464 4293683 4381423 4466489 4547298 4621931 4688186 
1612.279 4743828 4786727 4814982 4826931 4821194 4796844 4753748 4693029 
1616.137 4617343 4530908 4439079 4347426 4260888 4182966 4115454 4058599 
1619.994 4011615 3973246 3942283 3917773 3899062 3885695 3877243 3873269 
1623.852 3873333 3876939 3883653 3892874 3903900 3915890 3927944 3939402 
1627.709 3950019 3960026 3970080 3980944 3993080 4006434 4020387 4033954 
1631.566 4046249 4056812 4065812 4073993 4082327 4091727 4102647 4115067 
1635.424 4128558 4142535 4156546 4170300 4183640 4196487 4208721 4220250 
1639.281 4231122 4241603 4252265 4263799 4276865 4291788 4308514 4326674 
1643.139 4345797 4365613 4386151 4407854 4431291 4456952 4485022 4515293 
1646.996 4547277 4580382 4614153 4648396 4683081 4718332 4754255 4790900 
1650.854 4828326 4866693 4906360 4947959 4992239 5040001 5091855 5148155 
1654.711 5208866 5273746 5342405 5414473 5489761 5568466 5651238 5739251 
1658.568 5834041 5937114 6049677 6172188 6304265 6444704 6592004 6744786 
1662.426 6902262 7064441 7231998 7405808 7586577 7774437 7968971 8169300 
1666.283 8374459 8583439 8795445 9009618 9224954 9440380 9654911 9868038 
1670.141 10079946 10291610 10504521 10720133 10939559 11163148 11390791 
1673.516 11622232 11857546 12097412 12342925 12595144 12854552 13120696 
1676.891 13392149 13667105 13943885 14221451 14499699 14779094 15060385 
1680.266 15344200 15630876 15920593 16213675 16510665 16812446 17119814 
1683.642 17433306 17753000 18078784 18410956 18750848 19101086 19465518 
1687.017 19848532 20254434 20686676 21147956 21640416 22166238 22728064 
1690.392 23329120 23973010 24663274 25403324 26196908 27048838 27965798 
1693.767 28956366 30030158 31196058 32460472 33826260 35293792 36863632 
1697.143 38540156 40334100 42263144 44349516 46615456 49078304 51747072 
1700.518 54622360 57699836 60976004 64453460 68142536 72059160 76219128 
1703.893 80631808 85295192 90194456 95303384 100587168 106004192 111504952 
1707.268 117028712 122500816 127833104 132929704 137695648 142045376 
1710.161 145905536 149213520 151913024 153954944 155304080 155950704 
1713.054 155918768 155264528 154064272 152397248 150331952 147922032 
1715.948 145211248 142243040 139067440 135741888 132324936 128867520 
1718.841 125406304 121962512 118545544 115159632 111809352 108502456 
1721.734 105249200 102059592 98940792 95895904 92924512 90024768 87195280 
1725.109 84436008 81747824 79131360 76585592 74107632 71693256 69338288 
1728.484 67039664 64796104 62607424 60473280 58391832 56359196 54369540 
1731.859 52416492 50494588 48600864 46735264 44900524 43100612 41339160 
1735.235 39618168 37937276 36294104 34685308 33107832 31559970 30041962 
1738.610 28555986 27105722 25695760 24330692 23014888 21751966 20544720 
1741.985 19395158 18304268 17272174 16298169 15381162 14519903 13713519 
1745.360 12961449 12263259 11618081 11024139 10478453 9976957 9515078 
1748.736 9088429 8693466 8327697 7989586 7678129 7392221 7130390 6890677 
1752.593 6670706 6467981 6280007 6104401 5939062 5782240 5632711 5490031 
1756.450 5354523 5227152 5109000 5000756 4902206 4812216 4728840 4650046 
1760.308 4574067 4499992 4427558 4357020 4288622 4222397 4158051 4095358 
1764.165 4034409 3975842 3920734 3870203 3824968 3784961 3749209 3716091 
1768.023 3683879 3651197 3617177 3581699 3545057 3507800 3470534 3433985 
1771.880 3398937 3366297 3336837 3311082 3289016 3270077 3253243 3237440 
1775.738 3221755 3205628 3188876 3171346 3152828 3132845 3110800 3086284 
1779.595 3059290 3030481 3001030 2972279 2945511 2921582 2900909 2883666 
1783.452 2869837 2859242 2851476 2845547 2839866 2832329 2820835 2804009 
1787.310 2781616 2754756 2725595 2696522 2669376 2644889 2622703 2601713 
1791.167 2580853 2559735 2538833 2519226 2502073 2488074 2477010 2468095 
1795.025 2460256 2452647 2444937 2437204 2429566 2421967 2413793 2404240 
1798.882 2392580 2378684 2363161 2347405 2333113 2321785 2314284 2310751 
1802.740 2310643 2313064 2317025 2321579 2325827 2328938 2330145 2328949 
1806.597 2325261 2319431 2312172 2304319 2296326 2288082 2278947 2268023 
1810.454 2254588 2238617 2220728 2202030 2183641 2166186 2149663 2133629 
1814.312 2117843 2102756 2089880 2081688 2080851 2089382 2107688 2134163 
1818.169 2165384 2196936 2224438 2244588 2255669 2257663 2251848 2240305 
1822.027 2225343 2209028 2193093 2178587 2165939 2155026 2145145 2135323 
1825.884 2124589 2112148 2097621 2081099 2063155 2044596 2026362 2009334 
1829.741 1994295 1981664 1971416 1963061 1955523 1947452 1937350 1924182 
1833.599 1907263 1886742 1863248 1837764 1811148 1784142 1757255 1731003 
1837.456 1706171 1683747 1664788 1649997 1639293 1631634 1625129 1617557 
1841.314 1607056 1592548 1574062 1552409 1528796 1504300 1479531 1454794 
1845.171 1430313 1406649 1384734 1365844 1350951 1340434 1333568 1328897 
1849.029 1324404 1318314 1309399 1297340 1282460 1265481 1247044 1227624 
1852.886 1207494 1187028 1166775 1147564 1130322 1115781 1104288 1095654 
1856.743 1089384 1084833 1081366 1078471 1075773 1072781 1068920 1063608 
1860.601 1056420 1047635 1038010 1029093 1022585 1019911 1021632 1027232 
1864.458 1035074 1042965 1048688 1050825 1049218 1044958 1040052 1036647 
1868.316 1036250 1038963 1043171 1045981 1044205 1035434 1019100 997085 
1872.173 973270 952544 939039 934734 938712 947342 955455 958259 952890 
1876.513 939567 921025 901887 886612 878265 877552 883090 891975 901261 
1880.852 908581 912760 913624 911739 907911 902862 897439 892601 889389 
1885.192 888776 891183 896294 902894 909276 913809 915668 914972 912895 
1889.531 911052 910746 912384 915208 917647 917925 914786 908215 899465 
1893.871 891054 885837 886411 894020 908161 926130 943483 954742 954737 
1898.211 939794 908955 864395 811294 756428 706860 668219 643627 633413 
1902.550 635746 647517 665684 687707 711884 736928 761521 783863 801828 
1906.890 813592 818176 815905 808673 799324 791114 786682 787462 793337 
1911.229 802795 813193 821555 825244 822539 813334 799054 782636 767699 
1915.569 757529 754087 757359 765434 775027 783028 787274 787356 784068 
1919.909 778601 771232 760699 744169 718854 683600 640715 596310 559510 
1924.248 539891 544449 574715 626160 688594 749225 796030 820857 821321 
1928.588 800498 765248 723726 682907 647160 618081 595461 578470 566682 
1932.927 560537 561083 569300 585639 609571 639846 674957 713103 752204 
1937.267 789690 822141 845662 856390 852521 835310 810059 785400 771262 
1941.607 775810 802698 849369 907925 967124 1016359 1048745 1062525 1060765 
1945.946 1048742 1030740 1007786 977450 935409 878253 806394 724926 643183 
1950.286 571425 518069 487273 477690 483812 497923 512231 520407 518034 
1954.625 502310 472432 429603 377692 324200 278671 251128 248789 273051 
1958.965 317824 370291 414730 437243 430422 395324 340486 278259 221223 
1963.305 177945 151443 139608 136526 134779 126874 107041 72248 23108 -36376 
1968.126 -98936 -155895 -199788 -227059 -239014 -241774 -244022 -253454 
1971.984 -274007 -305644 -345579 -391555 -443574 -503280 -571080 -640886 
1975.841 -697535 -717707 -676466 -558422 -366777 -126335 122770 337744 
1979.699 487675 561407 567859 528659 468686 407262 353238 305796 258984 
1984.038 207522 151935 98504 56777 34887 35363 53313 79310 101898 112662 
1988.860 107767 88109 57508 20055 -20761 -62436 -102542 -137575 -163399 
1993.200 -176179 -174198 -158960 -135795 -111458 -92696 -83660 -85498 -97561 
1997.539 -118241 -147188 -185760 -236361 -300480 -377336 -463029 -549779 
2001.397 -628164 -687882 -720445 -719848 -684560 -617748 -527601 -427086 
2005.254 -331582 -256450 -212341 -202250 -220855 -256126 -294736 -327015 
2009.112 -349718 -365306 -379048 -393981 -408634 -416493 -411490 -391578 
2012.969 -362751 -338712 -335875 -366242 -430545 -516933 -604292 -670937 
2016.826 -703731 -703667 -685987 -672375 -682067 -722144 -784715 -849173 
2020.684 -890608 -889879 -841250 -754464 -651953 -561308 -508351 -510659 
2024.541 -574905 -697186 -865379 -1061131 -1263743 -1451965 -1607561 
2027.917 -1717920 -1777618 -1789615 -1763497 -1712239 -1647860 -1578545 
2031.292 -1508580 -1438823 -1370237 -1305008 -1247524 -1201256 -1167679 
2034.667 -1143497 -1121806 -1094298 -1054182 -998905 -930084 -851796 -769230 
2038.524 -686219 -606379 -533454 -473431 -433005 -418524 -432146 -468852 
2042.382 -515866 -555964 -571716 -551947 -495435 -410360 -310341 -207735 
2046.239 -107866 -7323 103899 235699 391091 560830 725455 860157 944278 
2050.579 967623 933541 856808 758653 660534 579508 524508 495960 487124 
2054.918 487683 487606 480344 463882 440627 414957 391474 372601 358380 
2059.258 347039 336652 326434 318260 315607 322419 340400 367972 399733 
2063.598 428703 448891 459047 463590 472601 497762 548228 626230 725215 
2067.937 830752 925196 992388 1023079 1016721 981090 928812 873129 823836 
2072.277 785940 759794 743492 734826 733299 739963 756566 783543 819134 
2076.616 858707 895876 923980 938170 936628 921109 896206 868146 842544 
2080.956 823422 811734 805985 802692 798073 789317 775502 757663 738163 
2085.296 719278 702512 688144 675597 664251 654504 647854 646595 652189 
2089.635 664370 680325 695439 704717 705257 697554 685874 676697 676259 
2093.975 687620 708918 733519 752405 757108 743381 712598 671478 630126 
2098.314 598796 585495 594247 624772 672979 731791 792642 846342 884773 
2102.654 902029 896219 870041 830856 788689 754179 735489 736227 754543 
2106.994 784438 817703 846843 866654 875550 874706 867213 856626 846424 
2111.333 839452 838224 844864 860615 885502 917580 952932 986104 1010983 
2115.673 1022228 1015733 989356 942854 877814 797464 707012 613723 526412 
2120.012 454144 404124 379883 379419 395143 415652 428585 423997 396626 
2124.352 347233 281087 205874 128607 54127 -16163 -82974 -148100 -212970 
2128.692 -277880 -342078 -404568 -464298 -520366 -571669 -616400 -652158 
2132.549 -676550 -688314 -688553 -680462 -668379 -655544 -642462 -626203 
2136.406 -601930 -566163 -520311 -472075 -434949 -424079 -451391 -520348 
2140.264 -624263 -747720 -872011 -981007 -1066428 -1129460 -1178401 -1223159 
2144.121 -1269354 -1314881 -1350390 -1363269 -1344906 -1295487 -1227395 
2147.497 -1162202 -1124381 -1133734 -1199388 -1317465 -1474143 -1651766 
2150.872 -1836203 -2021589 -2210166 -2409153 -2625273 -2858542 -3098870 
2154.247 -3327307 -3519966 -3652426 -3705708 -3667848 -3535964 -3313937 
2157.622 -3014569 -2658044 -2273679 -1898148 -1568752 -1316557 -1158232 
2160.998 -1092145 -1100961 -1156906 -1230332 -1296313 -1339363 -1354906 
2164.373 -1347949 -1327728 -1304430 -1285101 -1273612 -1270411 -1275816 
2167.748 -1290751 -1317572 -1359271 -1417566 -1491774 -1578543 -1671715 
2171.123 -1763277 -1844568 -1907421 -1944243 -1949654 -1921238 -1860417 
2174.499 -1774079 -1673422 -1572867 -1486439 -1423813 -1388136 -1375568 
2177.874 -1377025 -1381811 -1381761 -1373605 -1359458 -1344882 -1335627 
2181.249 -1334013 -1337258 -1337789 -1325199 -1290534 -1230027 -1147006 
2184.624 -1052087 -960980 -891417 -857676 -867521 -919181 -1001636 -1096390 
2188.482 -1182591 -1241862 -1262747 -1242717 -1187360 -1106851 -1011965 
2191.857 -910174 -805052 -697286 -588288 -482943 -390772 -323680 -292446 
2195.714 -301409 -345791 -411350 -479210 -530826 -553776 -545039 -510929 
2199.572 -463165 -414449 -374380 -347219 -333158 -330527 -338191 -357122 
2203.429 -388754 -434055 -490554 -551823 -608324 -649465 -666842 -656081 
2207.287 -617881 -557107 -480857 -396730 -311069 -227683 -147931 -71488 3626 
2211.626 79156 155960 232183 303218 361968 401036 414725 402330 369033 
2215.966 325314 283431 254067 241733 243678 250791 251745 237572 205999 
2220.305 162322 117777 84922 72888 83249 110078 141603 165122 171359 158069 
2225.127 130150 98049 73613 66151 79745 111765 154006 195572 226049 238604 
2229.949 231886 210634 184297 164651 162546 184958 232928 301398 379953 
2234.289 456530 519748 562429 583027 585717 578887 572517 575296 591869 
2238.628 621873 659727 696341 721872 728818 714546 682266 640785 601614 
2242.968 575777 570091 584798 613969 647354 674083 686576 682841 666684 
2247.307 645493 627244 616868 615029 618115 620918 619228 612307 603792 
2251.647 600506 610425 639955 691915 765030 853945 950611 1045661 1129640 
2255.987 1194431 1234237 1246375 1232181 1196914 1149038 1098289 1053666 
2259.844 1021482 1004122 1000046 1005202 1014925 1025692 1036040 1046605 
2263.701 1059215 1075927 1097802 1124965 1156325 1190360 1225258 1258874 
2267.559 1289372 1314896 1334174 1347161 1355269 1361299 1368536 1379829 
2271.416 1396425 1417673 1441180 1464229 1484953 1503150 1520134 1537947 
2275.274 1557937 1579909 1601603 1619707 1631018 1633972 1629039 1619008 
2279.131 1607729 1598996 1595603 1599005 1609267 1625612 1646871 1671497 
2282.989 1697708 1723368 1746133 1764036 1775907 1781624 1782192 1779213 
2286.846 1774181 1768067 1761187 1753502 1745158 1736857 1729827 1725405 
2290.703 1724185 1725644 1727970 1728650 1725327 1716661 1702589 1684384 
2294.561 1663949 1642961 1622563 1603275 1585303 1569036 1555262 1544871 
2298.418 1538482 1535657 1535012 1534173 1530904 1523724 1512710 1499416 
2302.276 1486227 1475488 1468696 1465975 1466436 1468704 1471530 1474287 
2306.133 1477131 1480597 1485165 1491055 1498158 1506111 1514589 1523341 
2309.990 1532246 1541210 1549867 1557898 1565015 1571217 1576884 1582586 
2313.848 1588905 1596232 1604715 1614364 1625352 1638138 1653445 1671827 
2317.705 1693297 1717256 1742646 1768819 1796214 1826970 1864288 1911179 
2321.563 1968441 2032973 2097132 2149863 2179268 2175826 2135090 2059033 
2325.420 1955544 1836643 1715559 1604259 1511240 1440564 1392062 1362331 
2329.278 1346477 1339442 1337036 1336272 1335304 1333146 1329460 1324567 
2333.135 1319116 1314218 1311090 1310632 1313160 1318291 1325087 1332279 
2336.992 1338799 1343933 1347397 1349331 1349994 1349754 1348838 1347639 
2340.850 1346510 1345836 1345908 1346807 1348154 1349493 1350204 1350025 
2344.707 1349177 1348329 1348464 1350474 1354644 1360754 1367939 1375174 
2348.565 1381562 1386729 1390777 1394323 1397853 1401741 1405860 1409837 
2352.422 1413193 1415553 1416910 1417509 1417831 1418185 1418681 1419319 
2356.280 1419848 1420051 1419763 1418937 1417508 1415357 1412199 1407590 
2360.137 1401099 1392410 1381372 1368141 1353027 1336466 1318838 1300516 
2363.994 1281833 1263153 1244977 1227970 1213070 1201362 1193847 1191416 
2367.852 1194500 1202920 1215697 1231236 1247499 1262348 1274136 1282071 
2371.709 1286453 1288522 1290105 1293106 1298784 1307563 1318921 1331743 
2375.567 1344707 1356785 1367344 1376265 1383577 1389264 1393060 1394629 
2379.424 1393609 1390271 1385285 1380017 1375915 1374258 1375616 1379719 
2383.281 1385576 1391916 1397490 1401536 1403894 1404859 1404911 1404433 
2387.139 1403498 1402010 1399630 1396006 1390825 1383949 1375280 1364868 
2390.996 1352959 1340132 1327358 1315968 1307394 1302775 1302515 1306063 
2394.854 1311854 1317801 1321692 1321982 1318058 1310416 1300334 1289485 
2398.711 1279325 1270899 1264475 1259843 1256361 1253272 1249642 1244738 
2402.569 1237939 1229108 1218622 1207706 1198101 1191998 1191165 1196459 
2406.426 1207369 1221883 1236929 1249246 1256304 1256967 1251798 1242627 
2410.283 1231991 1222427 1215583 1212382 1212827 1216514 1222872 1231321 
2414.141 1241158 1251453 1260837 1267586 1269880 1266179 1255790 1239108 
2417.998 1217600 1193802 1170721 1151534 1138925 1134571 1138916 1150757 
2421.856 1167350 1184796 1198745 1205407 1202422 1189631 1169216 1145157 
2425.713 1122232 1104721 1095451 1095205 1102827 1115891 1131410 1146523 
2429.571 1158966 1167051 1169538 1165796 1155765 1140419 1121738 1102744 
2433.428 1086621 1075943 1071651 1072637 1076004 1078027 1075631 1067394 
2437.285 1054204 1038931 1025073 1015747 1012398 1014769 1021435 1030700 
2441.143 1041888 1055501 1072709 1094440 1120249 1147728 1172604 1190157 
2445.000 1196503 1190217 1172644 1147669 1120485 1095986 1077618 1066858 
2448.858 1063389 1065885 1072908 1083338 1096488 1111762 1128358 1144799 
2452.715 1159293 1170195 1176326 1177643 1174914 1169577 1162988 1155969 
2456.573 1148511 1139932 1128939 1114544 1096187 1074180 1049593 1024311 
2460.430 1000646 981075 967738 961985 964215 973387 987143 1002068 1014421 
2464.770 1020721 1018554 1007058 987074 960850 931606 902629 876832 856192 
2469.109 841541 832717 828929 828950 831695 836445 842965 851353 861686 
2473.449 873668 886408 898377 907764 913044 913760 910719 905914 902026 
2477.788 901390 905242 913146 923099 932419 938743 940915 939655 937026 
2482.128 935806 938203 945124 955709 967728 978374 985119 986523 982384 
2486.468 973679 962088 949544 937904 928830 923762 923849 929728 941351 
2490.807 957643 976625 995593 1011579 1021963 1025112 1020540 1009092 992912 
2495.147 974951 958738 947760 944947 951965 968854 993587 1022354 1050304 
2499.486 1072584 1085523 1087507 1079414 1064163 1045954 1029005 1016689 
2503.344 1010915 1011922 1018725 1029518 1042085 1054147 1063707 1069204 
2507.201 1069737 1065378 1057225 1047341 1037991 1031316 1028399 1029041 
2511.059 1031851 1034712 1035776 1034084 1030030 1025125 1021572 1021498 
2514.916 1026194 1035771 1049308 1065083 1081085 1095571 1107165 1115317 
2518.773 1120176 1122414 1123278 1124084 1126122 1130278 1136868 1145647 
2522.631 1156027 1167375 1179075 1191009 1202931 1214648 1225456 1234331 
2526.488 1240120 1242118 1240484 1236544 1232570 1231076 1233752 1241006 
2530.346 1251536 1262631 1271279 1275034 1273096 1266335 1257313 1249045 
2534.203 1244382 1244789 1250489 1260209 1272205 1284477 1295752 1305297 
2538.061 1313178 1319658 1324992 1329101 1331508 1331463 1328273 1321767 
2541.918 1312515 1301896 1291930 1284656 1281591 1283096 1288090 1294520 
2545.775 1299937 1302317 1301241 1297875 1294909 1295607 1302645 1317309 
2549.633 1338632 1363928 1389282 1410772 1425347 1431236 1428045 1416508 
2553.490 1398105 1374498 1347846 1320582 1295464 1275379 1262846 1259443 
2557.348 1265405 1279359 1298860 1320774 1342202 1361024 1376162 1387512 
2561.205 1395704 1401476 1405677 1408830 1411469 1413911 1416483 1419400 
2565.063 1422783 1426468 1430276 1434067 1437869 1441896 1446692 1452774 
2568.920 1460652 1470570 1482545 1496451 1511918 1528480 1545458 1561925 
2572.777 1576637 1588243 1595608 1597879 1595089 1587919 1577545 1565427 
2576.635 1552899 1540836 1529981 1520899 1514359 1511420 1513150 1520329 
2580.492 1532808 1549177 1566863 1582581 1593082 1596079 1590786 1578284 
2584.350 1561013 1542045 1524445 1510435 1501112 1496684 1496729 1500674 
2588.207 1508185 1519080 1533345 1550462 1569442 1588423 1605062 1616859 
2592.064 1621925 1619429 1610109 1596062 1580512 1567007 1558641 1557161 
2595.922 1562840 1574112 1588269 1602023 1612448 1617699 1617283 1612184 
2599.779 1604453 1596502 1590541 1588161 1590064 1596174 1605968 1618636 
2603.637 1633489 1649821 1666860 1683647 1698934 1711388 1719763 1723360 
2607.494 1722337 1717760 1711427 1705443 1701773 1701535 1704957 1711323 
2611.352 1719290 1727365 1734468 1740089 1744560 1748699 1753648 1760394 
2615.209 1769572 1781104 1794385 1808307 1821591 1833041 1841938 1848124 
2619.066 1852116 1854785 1857288 1860490 1864813 1870109 1875752 1880911 
2622.924 1884976 1887691 1889346 1890436 1891411 1892369 1893043 1892781 
2626.781 1891013 1887573 1882954 1878138 1874454 1872912 1873813 1876593 
2630.639 1879896 1882075 1881746 1878270 1871858 1863475 1854593 1846516 
2634.496 1840449 1836918 1836207 1838256 1842986 1850115 1859299 1869935 
2638.354 1881286 1892393 1902376 1910647 1916965 1921461 1924455 1926283 
2642.211 1927143 1926871 1925236 1921909 1916808 1910155 1902501 1894685 
2646.068 1887705 1882388 1879317 1878741 1880653 1884545 1889804 1895583 
2649.926 1901015 1905218 1907574 1907626 1905266 1900752 1894638 1887735 
2653.783 1880990 1875316 1871473 1869828 1870365 1872547 1875570 1878318 
2657.641 1879804 1879223 1876126 1870467 1862442 1852436 1840841 1828078 
2661.498 1814578 1800851 1787478 1775160 1764415 1755639 1748706 1743232 
2665.355 1738518 1733847 1728933 1723802 1718983 1715230 1713189 1713113 
2669.213 1714769 1717377 1719994 1721751 1722179 1721268 1719431 1717297 
2673.070 1715440 1714068 1713092 1712097 1710607 1708144 1704547 1699914 
2676.928 1694677 1689366 1684566 1680736 1678094 1676604 1675996 1675829 
2680.785 1675689 1675233 1674426 1673357 1672215 1671181 1670209 1669021 
2684.643 1667218 1664359 1660389 1655677 1651018 1647630 1646661 1648926 
2688.500 1654597 1663045 1672924 1682491 1690073 1694266 1694443 1690746 
2692.357 1684135 1676064 1668182 1662053 1658728 1658491 1660835 1664619 
2696.215 1668442 1670925 1671287 1669501 1666281 1662823 1660436 1660070 
2700.072 1662064 1666009 1671008 1675946 1679896 1682321 1683221 1682857 
2703.930 1681776 1680377 1678894 1677512 1676237 1675226 1674660 1674877 
2707.787 1676158 1678577 1681999 1685922 1689655 1692325 1693263 1692006 
2711.645 1688634 1683657 1677994 1672739 1669034 1667588 1668650 1671885 
2715.502 1676480 1681433 1685776 1688914 1690749 1691697 1692473 1693878 
2719.359 1696592 1700897 1706785 1714075 1722411 1731427 1740814 1750067 
2723.217 1758709 1765973 1771132 1773636 1773473 1771275 1768380 1766538 
2727.074 1767529 1772483 1781567 1793712 1806881 1818615 1826697 1829822 
2730.932 1828068 1822638 1815616 1809125 1804737 1803042 1803526 1805141 
2734.789 1806545 1806964 1806317 1805199 1804523 1805108 1807258 1810607 
2738.646 1814390 1817741 1820117 1821525 1822555 1824056 1826849 1831386 
2742.504 1837568 1844840 1852403 1859515 1865633 1870533 1874234 1876995 
2746.361 1879080 1880760 1882274 1883760 1885367 1887030 1888565 1889655 
2750.219 1889977 1889225 1887343 1884469 1881177 1878014 1875712 1874946 
2754.076 1876173 1879803 1885890 1894280 1904464 1915524 1926302 1935505 
2757.934 1942029 1945229 1945179 1942555 1938443 1934032 1930261 1927576 
2761.791 1926017 1925292 1925201 1925602 1926533 1928070 1929998 1931889 
2765.648 1933092 1932917 1931028 1927675 1923566 1919764 1917311 1916816 
2769.506 1918408 1921735 1926202 1931332 1936875 1942877 1949581 1956961 
2773.363 1965062 1973522 1981892 1989732 1996677 2002485 2006901 2009841 
2777.221 2011154 2010951 2009662 2007998 2006905 2007281 2009615 2013813 
2781.078 2019222 2024857 2029782 2033425 2035878 2037609 2039379 2041777 
2784.936 2045087 2049318 2054348 2060121 2066780 2074587 2083619 2093604 
2788.793 2103800 2113163 2120817 2126396 2130292 2133560 2137496 2143062 
2792.650 2150524 2159222 2167850 2174943 2179485 2181247 2180926 2179830 
2796.508 2179593 2181582 2186922 2196096 2209107 2225542 2244508 2264703 
2800.365 2284783 2303153 2318713 2330959 2340238 2347485 2354081 2361220 
2804.223 2369527 2378926 2388803 2398324 2406911 2414457 2421322 2428058 
2808.080 2435052 2442306 2449466 2456079 2461840 2466965 2472055 2478058 
2811.938 2485681 2495113 2505909 2517005 2527192 2535307 2540731 2543480 
2815.795 2544097 2543503 2542767 2543021 2545306 2550413 2558868 2570886 
2819.652 2586056 2603649 2622595 2641752 2660287 2677761 2694286 2710351 
2823.510 2726768 2744340 2763835 2785886 2810975 2839354 2871094 2905788 
2827.367 2942643 2980634 3018697 3055997 3092436 3128475 3165286 3204172 
2831.225 3246250 3292182 3342062 3395663 3452781 3513460 3578123 3647418 
2835.082 3721924 3801839 3886942 3976664 4070630 4168743 4271815 4381252 
2838.939 4499007 4626992 4766848 4919600 5085724 5265044 5457103 5661086 
2842.797 5875874 6099985 6331713 6569191 6810757 7054988 7300894 7547807 
2846.654 7794932 8041190 8284749 8523174 8753675 8973393 9180065 9372152 
2850.512 9548828 9709851 9855028 9984015 10096202 10190752 10266922 10324385 
2854.369 10363418 10384790 10389579 10379008 10354009 10315308 10263474 
2857.744 10199083 10122979 10036538 9941427 9839527 9732728 9622527 9510044 
2861.602 9395818 9280098 9162926 9044606 8925686 8807211 8690559 8577356 
2865.459 8469130 8367004 8271579 8182739 8099681 8021255 7946133 7873150 
2869.317 7801602 7731315 7662727 7596680 7534276 7476701 7425000 7380011 
2873.174 7342272 7312073 7289372 7273955 7265282 7262824 7265809 7273735 
2877.031 7286250 7303440 7325825 7354267 7389921 7433866 7486918 7549414 
2880.889 7621231 7701733 7789881 7884507 7984189 8087619 8193484 8300562 
2884.746 8407949 8515115 8621963 8728846 8836271 8944612 9053688 9162664 
2888.604 9269884 9373350 9471098 9561700 9644729 9720741 9790917 9856694 
2892.461 9919180 9978807 10035222 10087667 10135285 10177433 10214196 
2895.836 10246193 10274648 10301220 10327651 10355854 10387534 10424136 
2899.212 10466687 10515565 10570429 10630384 10694144 10760382 10828260 
2902.587 10897532 10968616 11042462 11120144 11202673 11290868 11385135 
2905.962 11485775 11592899 11706255 11825342 11949120 12076260 12205186 
2909.337 12334784 12464649 12595356 12728393 12865610 13008556 13157791 
2912.713 13312761 13471794 13632877 13794084 13954380 14113648 14272282 
2916.088 14430766 14589050 14746256 14900634 15050302 15193520 15329441 
2919.463 15457977 15579841 15695876 15806669 15912269 16012199 16105528 
2922.838 16191471 16269571 16339883 16402815 16459271 16510086 16556077 
2926.214 16597763 16635433 16668962 16698086 16722102 16740382 16752249 
2929.589 16757399 16755913 16748373 16735631 16718623 16697991 16674078 
2932.964 16646738 16615774 16581121 16543236 16503103 16462074 16421397 
2936.339 16381808 16342916 16303413 16261105 16213644 16159114 16096683 
2939.715 16026673 15950568 15870339 15787874 15704371 15620036 15534224 
2943.090 15445782 15353404 15256429 15154730 15048933 14939913 14828499 
2946.465 14715068 14599471 14481089 14359221 14233425 14103886 13971391 
2949.840 13837403 13703603 13571551 13442324 13316260 13193002 13071604 
2953.216 12950739 12829182 12706181 12581825 12456960 12333234 12212531 
2956.591 12096554 11985993 11880386 11777731 11675376 11570143 11459733 
2959.966 11343052 11220749 11094740 10967630 10841642 10718139 10596980 
2963.341 10476895 10356177 10233278 10107654 9979907 9851664 9724974 9601661 
2967.199 9482893 9368779 9258724 9151582 9046087 8941206 8836221 8730613 
2971.056 8624008 8516102 8406528 8295113 8181924 8067320 7952134 7837297 
2974.914 7723856 7612518 7503592 7396897 7291843 7187604 7083530 6979341 
2978.771 6875142 6771545 6669309 6569231 6471825 6377204 6285222 6195495 
2982.628 6107928 6022535 5939790 5860196 5784327 5712386 5644130 5578967 
2986.486 5516034 5454455 5393454 5332431 5270984 5208774 5145585 5081409 
2990.343 5016501 4951452 4887320 4825339 4766650 4712018 4661679 4615056 
2994.201 4571237 4529023 4487322 4445314 4402608 4358937 4314363 4269176 
2998.058 4223876 4179112 4136041 4095545 4058689 4025727 3996424 3969670 
3001.916 3943960 3917661 3889483 3858649 3825106 3789204 3751497 3712355 
3005.773 3672004 3630424 3587665 3543998 3500042 3456612 3414736 3375336 
3009.630 3339005 3305873 3275655 3247561 3220630 3193686 3165787 3136251 
3013.488 3104993 3072393 3039619 3007863 2978405 2951898 2928280 2906641 
3017.345 2885561 2863353 2838802 2811366 2781383 2749824 2718200 2687821 
3021.203 2659830 2634675 2612438 2592741 2575043 2558547 2542559 2526271 
3025.060 2509009 2490233 2469807 2447806 2424933 2402179 2380862 2362137 
3028.917 2346983 2335720 2328132 2323250 2319725 2316087 2311099 2304279 
3032.775 2295872 2286942 2278960 2273318 2270969 2271944 2275446 2280054 
3036.632 2284286 2287034 2287909 2287351 2286167 2285403 2285919 2288239 
3040.490 2292784 2299739 2309723 2323433 2341796 2365393 2394534 2428765 
3044.347 2467239 2508697 2552218 2597001 2642894 2689734 2737718 2786560 
3048.205 2835816 2884807 2932849 2979466 3024636 3068407 3111015 3152305 
3052.062 3191673 3227914 3259438 3284518 3301737 3310279 3310283 3302637 
3055.919 3288949 3271085 3250789 3229349 3207666 3186333 3166004 3147861 
3059.777 3133420 3124675 3123381 3130218 3144442 3163429 3183537 3200525 
3063.634 3211313 3214459 3211065 3203893 3196698 3192633 3193427 3198726 
3067.492 3206496 3214008 3218752 3219330 3215867 3209527 3201976 3194590 
3071.349 3187983 3181855 3175474 3168028 3159214 3149261 3139400 3131122 
3075.207 3126189 3126011 3131416 3142227 3157323 3174742 3192086 3206930 
3079.064 3217370 3222514 3222454 3217919 3209839 3198765 3184667 3166853 
3082.921 3144655 3117811 3086991 3053857 3020575 2989204 2960998 2936112 
3086.779 2913596 2892069 2870257 2847501 2824052 2800632 2778295 2757888 
3090.636 2740007 2725007 2713328 2705503 2702151 2703398 2709049 2718027 
3094.494 2728694 2739364 2748824 2756675 2763367 2769882 2776955 2784827 
3098.351 2792901 2800138 2805481 2808392 2809154 2808741 2808339 2808901 
3102.208 2810545 2812672 2814043 2813273 2809100 2800725 2787852 2770608 
3106.066 2749400 2724860 2697964 2669648 2641014 2612776 2585470 2559064 
3109.923 2533526 2508972 2486042 2465954 2450230 2440036 2435626 2435783 
3113.781 2438093 2439342 2436715 2428517 2414863 2397338 2378729 2361671 
3117.638 2348099 2338792 2333256 2330516 2329456 2329490 2330555 2332998 
3121.496 2337294 2343622 2351783 2361011 2370369 2378603 2384754 2388061 
3125.353 2388240 2385520 2380807 2375186 2369880 2365627 2362501 2359679 
3129.210 2355834 2349381 2339424 2325793 2309425 2291800 2274582 2258733 
3133.068 2244548 2231468 2218756 2205808 2192635 2179862 2168351 2158729 
3136.925 2150962 2144365 2137989 2130755 2122241 2112637 2102639 2093030 
3140.783 2084085 2075602 2066716 2056358 2043842 2029092 2012997 1997090 
3144.640 1983505 1974136 1970663 1973873 1983696 1998917 2017436 2036429 
3148.498 2052994 2064504 2069407 2067467 2059878 2048706 2036408 2024870 
3152.355 2015174 2007129 1999855 1992188 1983342 1973221 1962610 1952760 
3156.212 1945029 1940510 1939555 1941952 1946780 1952725 1958373 1962527 
3160.070 1964367 1963721 1961163 1957637 1954450 1952452 1951846 1951836 
3163.927 1950995 1947624 1940572 1929816 1916677 1903523 1893132 1887898 
3167.785 1889175 1896987 1910433 1927706 1946990 1966239 1983727 1997588 
3171.642 2006048 2007580 2001293 1987497 1967757 1944909 1922336 1903034 
3175.500 1889190 1881519 1879638 1882474 1888875 1897882 1908954 1921546 
3179.357 1934688 1947012 1956893 1962834 1964297 1961654 1956444 1950548 
3183.214 1945752 1942923 1942233 1942902 1944084 1945085 1945818 1946380 
3187.072 1946943 1947183 1946300 1943176 1937031 1927765 1916440 1904908 
3190.929 1895475 1890048 1889776 1894629 1903731 1915560 1928618 1941551 
3194.787 1953373 1963213 1970425 1974406 1974780 1971564 1965360 1957199 
3198.644 1948337 1939838 1932412 1925931 1920017 1914048 1907744 1901428 
3202.501 1895895 1892372 1891915 1894976 1901342 1910024 1919701 1929111 
3206.359 1937459 1944538 1950692 1956493 1962253 1967734 1972300 1974818 
3210.216 1974371 1970470 1963558 1954799 1945843 1938235 1932988 1930180 
3214.074 1929109 1928675 1928025 1926823 1925654 1925586 1927744 1932573 
3217.931 1939619 1947446 1954259 1958434 1959247 1956955 1952811 1948222 
3221.789 1944336 1941260 1938378 1934564 1928995 1921768 1914116 1908293 
3225.646 1906693 1911030 1921666 1937216 1954908 1971209 1982872 1987639 
3229.503 1985006 1975957 1962945 1948985 1937020 1929319 1926968 1929840 
3233.361 1936547 1944972 1952716 1957506 1957885 1953242 1944205 1932338 
3237.218 1919937 1909512 1903380 1903109 1909310 1921367 1937662 1955880 
3241.076 1973517 1988428 1999346 2006138 2009597 2010910 2011230 2010929 
3244.933 2009516 2005736 1998354 1986717 1971542 1954990 1940203 1930463 
3248.791 1928044 1933601 1945579 1961001 1976276 1988411 1995677 1998181 
3252.648 1997253 1994980 1993045 1992367 1992838 1993570 1993548 1992039 
3256.505 1988963 1984782 1980249 1975944 1972165 1968712 1965159 1961026 
3260.363 1956092 1950422 1944444 1938717 1933985 1930983 1930512 1933330 
3264.220 1940007 1950734 1965281 1982433 2000582 2017518 2031245 2040166 
3268.078 2043587 2041713 2035465 2026184 2015229 2003789 1992698 1982660 
3271.935 1974103 1967545 1963283 1961285 1961112 1961786 1962108 1960867 
3275.792 1957415 1951969 1945719 1940491 1938475 1941359 1949914 1963925 
3279.650 1981843 2001519 2020543 2036696 2048565 2055353 2057188 2054721 
3283.507 2049008 2041306 2032897 2025048 2019052 2016102 2017281 2023277 
3287.365 2034245 2049406 2067016 2084477 2098784 2107110 2107685 2100426 
3291.222 2087134 2071140 2056626 2047299 2045363 2050743 2061197 2072894 
3295.080 2081715 2084535 2080064 2069354 2055094 2040810 2029749 2023816 
3298.937 2023391 2027379 2034007 2041359 2048346 2054515 2060275 2066225 
3302.794 2072911 2080253 2087665 2094112 2098573 2100346 2099452 2096457 
3306.652 2092461 2088485 2085410 2083223 2081413 2078936 2074766 2068304 
3310.509 2059849 2050501 2041874 2035549 2032551 2032780 2035125 2037904 
3314.367 2039370 2038408 2034939 2029831 2024599 2020748 2019414 2021057 
3318.224 2025620 2032818 2042348 2053957 2067367 2081864 2096300 2108943 
3322.082 2117995 2122044 2120755 2114827 2106071 2096675 2088575 2083042 
3325.939 2080270 2079912 2081186 2083602 2087058 2091769 2098058 2105905 
3329.796 2114819 2123735 2131378 2136470 2138034 2135474 2128791 2118363 
3333.654 2104997 2089880 2074737 2061385 2051650 2046847 2047523 2053269 
3337.511 2062886 2074806 2087561 2100074 2111783 2122463 2131765 2139048 
3341.369 2143503 2144284 2141143 2134742 2126529 2118484 2112325 2108784 
3345.226 2107345 2106321 2103700 2097681 2087689 2074387 2059507 2045199 
3349.083 2033172 2024417 2018833 2015758 2014382 2014041 2014647 2016468 
3352.941 2019822 2024956 2031884 2040189 2049241 2058251 2066384 2072648 
3356.798 2075957 2075364 2070235 2060534 2047207 2031926 2016970 2004572 
3360.656 1996326 1992785 1993263 1996135 1999471 2001361 2000733 1997370 
3364.513 1991882 1985398 1979138 1974143 1971012 1969745 1970106 1971564 
3368.371 1973577 1975715 1977876 1980060 1982483 1985280 1988519 1992031 
3372.228 1995566 1998796 2001518 2003685 2005524 2007205 2008909 2010500 
3376.085 2011694 2011868 2010805 2008347 2004878 2001136 1997926 1995828 
3379.943 1995068 1995364 1996126 1996683 1996729 1996355 1996083 1996686 
3383.800 1998731 2002551 2007805 2013674 2018998 2022425 2022986 2020213 
3387.658 2014356 2006632 1998962 1993715 1993258 1999041 2011521 2029371 
3391.515 2050020 2069982 2086064 2096109 2099783 2098633 2095554 2093752 
3395.373 2095682 2102130 2112017 2122969 2132177 2137574 2138700 2136832 
3399.230 2134759 2135553 2141868 2154804 2173794 2196796 2221077 2244191 
3403.087 2264417 2281491 2296041 2309347 2322669 2336741 2351494 2366368 
3406.945 2380467 2393058 2403930 2413372 2422049 2430945 2441028 2453182 
3410.802 2468121 2486364 2508316 2533923 2562671 2593503 2624857 2654971 
3414.660 2682403 2706311 2726909 2745141 2762503 2780310 2799313 2819408 
3418.517 2839720 2859138 2876739 2892118 2905561 2917632 2929015 2940090 
3422.375 2950948 2961636 2972640 2984957 3000182 3019907 3045130 3075438 
3426.232 3108973 3142535 3172704 3196621 3212934 3222139 3226145 3227411 
3430.089 3227935 3228562 3228784 3227054 3221755 3211842 3197499 3180087 
3433.947 3161659 3144217 3129155 3116634 3105914 3095539 3084220 3071202 
3437.804 3056669 3041519 3027225 3015022 3005619 2998842 2993610 2988260 
3441.662 2980977 2970122 2954657 2934211 2909108 2880186 2848808 2816497 
3445.519 2784998 2756056 2731274 2711723 2697704 2688649 2683116 2679000 
3449.376 2674140 2666822 2656036 2641721 2624634 2605891 2586716 2568131 
3453.234 2550951 2535746 2522995 2513034 2505830 2500778 2496621 2491509 
3457.091 2483658 2471752 2455641 2436428 2416362 2397773 2382651 2371673 
3460.949 2364234 2358843 2353882 2348337 2342185 2336416 2332335 2330911 
3464.806 2332180 2335093 2337972 2338974 2336849 2331282 2322996 2313353 
3468.664 2304071 2296654 2292281 2291584 2294669 2300955 2309251 2317690 
3472.521 2324134 2326408 2323015 2313578 2298926 2281033 2262191 2244632 
3476.378 2229735 2217956 2208958 2202132 2196942 2193270 2191235 2191000 
3480.236 2192462 2195094 2198078 2200536 2201824 2201614 2199975 2196848 
3484.093 2192245 2186130 2178630 2170415 2162736 2157376 2155905 2159203 
3487.951 2166946 2177516 2188618 2198128 2204802 2208849 2211572 2214730 
3491.808 2219579 2226131 2233156 2238715 2241044 2239580 2235329 2230784 
3495.666 2228906 2232199 2241783 2256991 2275663 2294849 2311841 2324566 
3499.523 2332433 2335757 2335832 2334080 2332093 2330989 2331604 2334259 
3503.380 2338740 2344462 2350480 2355886 2359913 2362432 2363925 2365643 
3507.238 2369083 2375807 2386759 2402073 2420853 2441437 2461568 2479046 
3511.095 2491979 2499382 2501133 2497927 2491254 2482793 2474224 2466954 
3514.953 2461907 2459748 2460700 2465004 2472649 2483470 2496984 2512256 
3518.810 2527819 2542095 2553613 2561529 2565735 2567155 2567055 2566944 
3522.667 2567912 2570305 2574017 2578549 2583427 2588508 2593982 2600195 
3526.525 2607312 2615241 2623385 2631068 2637791 2643409 2648529 2653924 
3530.382 2660546 2668790 2678524 2688762 2698205 2705351 2709235 2709557 
3534.240 2706947 2702776 2699044 2698017 2701735 2711513 2727605 2749095 
3538.097 2773924 2799504 2823148 2843124 2858852 2871097 2881589 2892059 
3541.955 2903503 2915763 2927429 2936491 2941187 2940737 2935918 2928727 
3545.812 2921570 2916423 2914174 2914366 2915600 2916392 2915770 2913806 
3549.669 2911385 2909874 2910102 2912175 2915113 2917404 2917548 2914645 
3553.527 2908825 2900785 2891891 2883139 2874997 2867201 2859139 2850199 
3557.384 2840201 2829613 2819322 2810242 2802926 2797228 2792371 2787211 
3561.242 2780608 2771974 2761404 2749557 2737444 2725906 2715290 2705453 
3565.099 2695603 2685029 2673082 2659871 2646093 2633105 2622495 2615719 
3568.957 2613595 2616197 2622674 2631390 2640145 2646507 2648405 2644212 
3572.814 2633287 2616015 2593827 2568795 2543424 2520036 2500425 2485580 
3576.671 2475729 2470390 2468725 2469683 2472124 2474915 2476815 2476547 
3580.529 2472854 2464749 2451953 2435068 2415624 2395985 2378802 2366523 
3584.386 2360716 2361854 2369022 2380318 2393066 2404598 2412574 2415567 
3588.244 2413259 2406507 2397012 2386876 2378090 2371862 2368484 2367292 
3592.101 2367017 2366369 2364873 2362785 2361313 2362041 2366130 2373789 
3595.958 2383894 2394365 2402733 2407328 2407772 2405370 2402787 2403230 
3599.816 2409378 2422614 2442665 2467741 2494878 2520874 2542805 2558652 
3603.673 2567418 2569266 2565239 2557169 2547056 2536845 2528003 2521321 
3607.531 2516946 2514707 2514557 2516983 2523079 2534246 2551727 2575744 
3611.388 2605100 2637171 2668173 2694477 2713094 2722824 2724150 2719212 
3615.246 2710959 2702411 2696348 2694745 2698762 2708803 2724422 2744183 
3619.103 2765769 2786436 2803326 2814433 2819302 2819079 2816327 2814014 
3622.960 2814645 2819187 2826934 2835978 2843839 2848792 2850320 2849317 
3626.818 2847530 2846856 2848471 2852546 2858141 2863932 2868538 2870988 
3630.675 2870917 2868407 2863825 2857601 2850480 2843259 2837177 2833349 
3634.533 2832278 2833880 2836807 2838949 2838148 2832955 2823429 2811202 
3638.390 2799071 2790140 2786607 2789039 2796074 2805125 2813049 2817352 
3642.248 2816742 2811414 2802707 2792351 2781907 2772370 2764023 2756621 
3646.105 2749733 2742770 2735240 2726699 2716732 2704904 2691034 2675218 
3649.962 2657862 2639729 2621556 2603872 2586838 2570305 2553917 2537514 
3653.820 2521514 2506631 2494046 2484902 2479718 2478348 2479622 2481684 
3657.677 2482344 2479593 2471733 2457800 2437500 2411250 2379950 2345164 
3661.535 2308912 2273545 2241634 2215444 2196598 2185762 2182430 2185216 
3665.392 2192067 2200987 2210071 2218233 2224734 2229377 2231987 2232527 
3669.250 2230984 2227565 2222741 2217237 2211571 2205954 2199717 2191260 
3673.107 2178581 2159916 2134574 2103814 2070745 2039956 2016220 2002953 
3676.964 2001057 2008735 2021857 2035513 2045373 2049073 2046699 2040459 
3680.822 2033587 2028925 2027695 2028912 2029623 2026107 2015322 1995822 
3684.679 1968780 1937484 1906593 1880743 1862983 1854353 1853447 1857064 
3688.537 1861597 1864028 1863085 1859259 1854381 1850578 1849224 1850356 
3692.394 1852380 1852770 1849113 1839859 1824933 1805920 1785256 1765531 
3696.251 1748651 1735433 1725853 1719329 1715441 1714142 1715926 1721341 
3700.109 1730437 1742300 1755147 1766621 1774280 1776533 1773030 1764701 
3703.966 1753368 1741288 1730446 1722233 1717010 1714601 1713993 1714030 
3707.824 1713495 1711644 1708092 1703321 1698512 1695328 1695586 1700665 
3711.681 1710940 1725682 1742828 1759819 1774029 1783528 1787767 1787426 
3715.539 1784298 1780608 1778486 1779514 1784290 1792667 1803937 1817105 
3719.396 1831199 1845385 1859103 1871652 1882447 1890788 1895774 1896619 
3723.253 1892796 1884341 1872227 1858100 1844321 1833461 1827518 1827267 
3727.111 1831950 1839344 1846278 1849728 1847606 1839671 1827710 1814785 
3730.968 1804494 1799839 1802172 1810971 1824012 1838321 1851021 1860333 
3734.826 1865793 1868099 1868616 1868782 1869223 1869853 1869756 1867779 
3738.683 1863033 1855379 1845743 1835930 1828308 1825071 1827701 1836337 
3742.541 1849642 1865070 1879313 1889293 1893063 1890319 1882779 1873228 
3746.398 1864781 1859860 1859371 1862562 1867047 1869964 1868546 1861196 
3750.255 1848076 1830781 1812164 1795392 1783192 1777112 1777453 1783075 
3754.113 1792258 1802864 1813235 1822275 1829959 1836941 1844440 1853591 
3757.970 1864962 1878439 1892992 1906920 1918344 1925700 1928280 1926068 
3761.828 1920060 1911616 1901973 1892302 1883235 1875086 1868097 1862558 
3765.685 1859048 1858050 1859979 1864824 1872007 1880556 1889386 1897435 
3769.542 1904323 1910026 1915023 1919932 1925146 1930590 1935667 1939646 
3773.400 1941665 1941230 1938264 1933032 1925951 1917362 1907316 1895647 
3777.257 1882217 1867012 1850589 1834012 1818635 1805838 1796546 1790975 
3781.115 1788519 1788000 1787987 1787252 1785136 1781790 1778012 1775108 
3784.972 1774611 1777931 1786057 1799335 1817311 1838630 1860973 1881573 
3788.830 1897482 1906473 1907491 1901229 1890049 1877470 1867315 1862508 
3792.687 1864308 1871828 1882389 1892495 1898828 1899514 1894425 1885455 
3796.544 1875517 1867777 1864387 1866177 1872294 1880934 1889755 1896680 
3800.402 1900462 1900614 1897491 1891858 1884465 1875911 1866489 1856542 
3804.259 1846300 1836464 1827952 1822026 1819859 1822270 1829401 1840539 
3808.117 1853990 1867650 1879284 1887297 1890881 1890584 1887924 1884816 
3811.974 1883177 1883964 1886975 1890946 1893843 1893814 1889899 1882389 
3815.832 1872999 1864182 1858382 1857312 1860987 1868093 1876095 1882219 
3819.689 1883750 1879213 1868350 1852390 1833471 1814383 1798095 1787144 
3823.546 1783349 1787825 1800591 1820688 1846305 1874777 1902966 1927794 
3827.404 1946472 1957048 1958475 1950892 1935311 1913835 1889122 1864214 
3831.261 1842346 1826084 1817302 1816363 1822253 1832679 1844623 1855274 
3835.119 1862613 1866175 1867078 1867403 1869617 1875381 1884953 1897139 
3838.976 1909574 1919722 1925819 1927245 1924706 1919824 1914296 1909501 
3842.833 1906007 1903786 1902659 1902769 1904553 1908903 1916399 1926848 
3846.691 1938990 1950736 1959661 1963815 1962538 1956501 1947597 1938072 
3850.548 1929667 1923094 1917849 1912551 1905677 1896400 1884939 1872611 
3854.406 1861558 1853759 1850878 1853680 1862167 1875825 1893702 1914778 
3858.263 1937710 1960937 1982632 2000789 2013582 2019646 2018409 2010335 
3862.121 1996821 1979898 1962015 1945450 1932056 1922803 1917849 1916417 
3865.978 1917084 1917984 1917497 1914406 1908397 1899911 1890217 1880652 
3869.835 1872537 1866494 1862629 1860397 1859228 1858733 1858964 1860442 
3873.693 1864021 1870379 1879920 1892657 1908138 1925807 1945106 1965413 
3877.550 1986234 2006829 2026416 2043943 2058157 2068108 2072881 2071994 
3881.408 2065013 2051989 2033262 2009428 1981751 1952081 1922941 1897028 
3885.265 1876879 1864185 1859287 1861132 1867510 1875738 1883344 1888606 
3889.123 1890925 1890703 1889126 1887613 1887652 1890219 1895970 1905060 
3892.980 1917441 1932852 1950840 1970766 1991796 2012755 2032455 2049600 
3896.837 2063053 2072027 2076179 2075691 2071122 2063179 2052488 2039479 
3900.695 2024258 2006628 1986798 1965318 1943691 1924050 1909102 1900978 
3904.552 1900912 1908487 1921679 1937374 1952276 1963962 1971434 1975463 
3908.410 1978051 1981545 1987726 1997093 2008640 2020295 2029671 2034932 
3912.267 2035301 2031471 2025056 2018193 2012852 2010239 2010683 2013452 
3916.125 2017087 2019883 2020394 2017924 2012629 2005848 1999644 1996290 
3919.982 1997495 2003905 2014614 2027418 2039344 2047670 2050763 2048661 
3923.839 2043070 2036742 2032532 2032347 2036532 2043918 2052174 2058879 
3927.697 2062214 2061532 2057385 2051155 2044370 2038256 2033433 2029767 
3931.554 2026853 2024148 2021153 2017656 2013539 2008893 2003903 1999070 
3935.412 1995120 1993056 1993815 1997952 2005337 2014836 2024576 2032404 
3939.269 2036509 2036045 2031578 2024653 2017396 2011802 2008929 2008554 
3943.126 2009420 2009917 2008590 2004987 1999612 1993733 1988924 1986125 
3946.984 1985375 1985764 1985874 1984422 1980787 1975535 1970084 1966419 
3950.841 1966235 1970594 1979324 1991448 2005205 2018834 2030785 2040246 
3954.699 2046899 2051074 2053380 2054652 2055618 2056983 2059092 2062103 
3958.556 2065620 2069004 2071288 2071660 2069641 2065390 2059677 2053764 
3962.414 2049032 2046770 2047644 2051773 2058696 2067601 2077572 2087666 
3966.271 2097204 2105481 2112191 2116972 2119758 2120628 2119834 2117509 
3970.128 2113784 2108448 2101286 2092110 2080949 2068400 2055356 2042870 
3973.986 2031700 2022287 2014152 2006707 1999288 1991707 1984591 1979207 
3977.843 1976967 1978900 1984993 1994063 2004095 2012756 2018244 2019863 
3981.701 2018373 2015494 2013655 2015127 2021580 2033712 2051150 2072669 
3985.558 2096255 2119355 2139294 2153569 2160223 2158478 2148798 2133001 
3989.416 2113750 2093935 2075869 2060933 2049165 2039885 2032235 2025587 
3993.273 2020036 2016424 2015677 2018424 2024426 2032560 2040923 2047734 
3997.130 2051586 2052128 2049963 2046538 2043513 2042432 2044274 2049282 
##END=
