##TITLE=3D-Fillies_PLA-Flex_Black_Filament_r1_ATR-Corrected
##JCAMP-DX=5.01  $$ Nicolet v. 1
##DATATYPE=INFRARED SPECTRUM
##ORIGIN=Curtin University
##OWNER=Nicolet
##LONGDATE=2024/07/18
##TIME=11:12:21
##SPECTROMETER/DATA SYSTEM=Nicolet iS50
##DATA PROCESSING=
Ratio against background
%Transmittance->Absorbance
ATR Correction
Truncated
ElementMultiply or ElementDivide
##COMMENTS=
Number of sample scans: 32
Collection length: 47.29 sec
Sample gain: 1.0
Background collected on: Thu Jul 18 11:10:25 2024 (GMT+08:00);
Number of background scans: 32
Background gain: 1.0
Sample spacing:  1.000
Number of scan points: 16672
Resolution points: 8192
Number of FFT points: 65536
Apodization: N-B strong;
Phase correction: Mertz;
Laser frequency: 15798.3 cm-1
Number of rejected sample scans: 0
Number of rejected background scans: 0
Bench serial number: AUP1200105;
##RESOLUTION=4.000
##XUNITS=1/CM
##YUNITS=ABSORBANCE
##FIRSTX=400.163452
##LASTX=4000.187744
##FIRSTY=0.036398
##MAXX=4000.187744
##MINX=400.163452
##MAXY=1.401319
##MINY=-0.016434
##XFACTOR=1.000000
##YFACTOR=1.000000E-008
##NPOINTS=7468
##DELTAX=0.482125
##ZPD=8192
##XYDATA=(X++(Y..Y))
400.163 3639822 3619616 3566068 3485683 3387944 3283650 3182580 3091369 
404.020 3012701 2945346 2885888 2830940 2779173 2732094 2693362 2666828 
407.877 2654513 2655540 2666332 2682351 2700244 2719359 2741911 2771471 
411.734 2810504 2858140 2909213 2955150 2986374 2995113 2977669 2935083 
415.591 2872515 2797552 2718441 2642730 2576607 2524700 2490009 2473649 
419.448 2474292 2487791 2507408 2524958 2532882 2526436 2505337 2473991 
423.305 2440145 2412439 2397771 2399510 2417202 2447641 2486802 2531438 
427.162 2579865 2631245 2684314 2735863 2780336 2810662 2820415 2806214 
431.019 2769648 2717499 2660327 2609550 2574541 2560005 2565303 2585295 
434.876 2612573 2639876 2662155 2677425 2686441 2691563 2695213 2698833 
438.733 2702510 2705243 2705771 2703221 2697625 2689753 2680808 2671862 
442.590 2663527 2656013 2649442 2644381 2642161 2644893 2654943 2674131 
446.447 2702809 2739258 2779630 2818531 2850233 2870116 2875809 2867867 
450.304 2849602 2826271 2803735 2787187 2780134 2783969 2798070 2820382 
454.161 2848222 2878883 2910098 2940042 2967289 2990632 3009113 3022123 
458.017 3029585 3032096 3030789 3027099 3022358 3017532 3013100 3009239 
461.874 3006212 3004667 3005764 3010803 3021028 3036590 3056147 3076857 
465.731 3094867 3106228 3108066 3099402 3081588 3057941 3032905 3010995 
469.588 2995849 2989766 2993620 3007156 3029363 3058747 3093489 3131397 
473.445 3169941 3206408 3238237 3263441 3280957 3290769 3293737 3291194 
477.302 3284558 3275057 3263765 3251809 3240684 3232390 3229287 3233560 
481.159 3246688 3268788 3298473 3332951 3368681 3402126 3430561 3452583 
485.016 3468387 3479618 3489029 3499975 3515952 3540048 3574618 3620934 
488.873 3679040 3747767 3825016 3908193 3994801 4082910 4171433 4260015 
492.730 4348742 4437653 4526351 4613817 4698724 4779532 4854844 4923529 
496.587 4984624 5037037 5079258 5109248 5124651 5123195 5103343 5064677 
500.444 5008131 4935861 4850799 4756144 4654952 4549855 4443159 4336921 
504.301 4233126 4133763 4040597 3954878 3877013 3806402 3741521 3680289 
508.158 3620654 3561153 3501279 3441545 3383218 3327888 3276941 3231224 
512.015 3190972 3155902 3125460 3099044 3076118 3056192 3038727 3023059 
515.871 3008515 2994519 2980891 2967886 2956204 2946629 2939675 2935185 
519.728 2932241 2929354 2924993 2918154 2908850 2898223 2888238 2881071 
523.585 2878388 2880744 2887373 2896236 2904771 2910334 2910909 2905491 
527.442 2894272 2878483 2860158 2841641 2825177 2812426 2804134 2799921 
531.299 2798398 2797548 2795311 2790213 2781867 2771026 2759298 2748509 
535.156 2740007 2734156 2730224 2726707 2721936 2714711 2704695 2692377 
539.013 2678828 2665151 2652142 2640101 2629029 2618962 2610203 2603433 
542.870 2599483 2598905 2601592 2606569 2612135 2616279 2617227 2613905 
546.727 2606151 2594570 2580188 2564008 2546656 2528305 2508832 2488163 
550.584 2466595 2445066 2425107 2408540 2397011 2391439 2391660 2396244 
554.441 2402829 2408670 2411367 2409532 2403167 2393505 2382443 2371775 
558.298 2362523 2354573 2346883 2338132 2327544 2315533 2303868 2295184 
562.155 2292086 2296138 2307247 2323565 2342164 2359961 2374795 2385962 
566.012 2394208 2401202 2408710 2417902 2429051 2441675 2455006 2468475 
569.869 2481980 2495895 2510767 2527063 2545015 2564679 2586142 2609659 
573.725 2635671 2664510 2696043 2729358 2762880 2794721 2823315 2848014 
577.582 2869339 2888770 2908125 2928759 2951036 2974127 2996504 3016561 
581.439 3033349 3046959 3058380 3068982 3079825 3091204 3102521 3112653 
585.296 3120604 3126095 3129889 3133633 3139344 3148637 3162136 3179054 
589.153 3197325 3213948 3225771 3230139 3225537 3211929 3190812 3164834 
593.010 3137311 3111424 3089534 3072643 3060260 3050652 3041521 3030777 
596.867 3017261 3001082 2983520 2966465 2951696 2940246 2932092 2926257 
600.724 2921275 2915802 2909080 2901079 2892371 2883827 2876090 2869470 
604.581 2863816 2858692 2853611 2848125 2841947 2834852 2826621 2817039 
608.438 2805967 2793480 2779994 2766223 2753098 2741503 2732050 2724956 
612.295 2720030 2716766 2714508 2712567 2710316 2707164 2702637 2696435 
616.152 2688578 2679542 2670238 2661863 2655577 2652108 2651458 2652842 
620.009 2654987 2656600 2656903 2655996 2654846 2654954 2657739 2663982 
623.866 2673461 2684970 2696710 2706916 2714487 2719419 2722920 2727227 
627.723 2735096 2749242 2771674 2803137 2842737 2887807 2934095 2976336 
631.579 3009184 3028327 3031472 3018963 2993744 2960672 2925286 2892448 
635.436 2865304 2844782 2829860 2818301 2807719 2796423 2783851 2770549 
639.293 2757720 2746711 2738595 2733998 2733238 2736459 2743733 2754932 
643.150 2769543 2786351 2803420 2818305 2828624 2832647 2829857 2821130 
647.007 2808515 2794704 2782299 2773217 2768346 2767564 2769951 2774181 
650.864 2778874 2782751 2784747 2784000 2779878 2772108 2760915 2747118 
654.721 2732073 2717492 2704998 2695736 2690062 2687470 2686839 2686887 
658.578 2686699 2686087 2685719 2686861 2690896 2698780 2710617 2725506 
662.435 2741793 2757515 2771021 2781413 2788793 2794144 2798956 2804720 
666.292 2812461 2822453 2834217 2846667 2858559 2868787 2876750 2882424 
670.149 2886408 2889696 2893506 2898962 2906981 2918086 2932450 2949930 
674.006 2970236 2993079 3018336 3046028 3076333 3109350 3144945 3182508 
677.863 3220924 3258593 3293695 3324467 3349593 3368452 3381310 3389171 
681.720 3393663 3396648 3399909 3404785 3412053 3421845 3433813 3447340 
685.577 3461877 3477179 3493516 3511621 3532590 3557561 3587524 3623061 
689.433 3664318 3711009 3762542 3818139 3876906 3937865 4000043 4062526 
693.290 4124650 4186171 4247452 4309394 4373352 4440692 4512485 4589194 
697.147 4670692 4756524 4846258 4939887 5037985 5141527 5251447 5368082 
701.004 5490763 5617686 5746121 5872878 5994859 6109474 6214851 6309838 
704.861 6393984 6467512 6531442 6587749 6639397 6690200 6744407 6806098 
708.718 6878736 6964807 7065804 7182541 7315443 7464931 7631621 7816373 
712.575 8020378 8245149 8492684 8765550 9066982 9400852 9771695 10184873 
716.432 10647056 11167053 11756834 12432220 13213062 14122508 15185674 
719.807 16427998 17874036 19547040 21469290 23662614 26147624 28940076 
723.182 32042026 35426192 39013000 42643224 46057368 48904760 50811648 
726.556 51508712 50953264 49349928 47050852 44417104 41726720 39148060 
729.931 36755076 34557044 32528024 30629494 28825190 27088050 25401684 
733.306 23758600 22157496 20601078 19094824 17646150 16263795 14956790 
736.681 13733505 12600686 11563094 10623494 9782992 9041325 8396923 7846714 
740.538 7385836 7007536 6703599 6465108 6283426 6151091 6062228 6012255 
744.395 5997168 6012722 6053893 6114883 6189648 6272627 6359298 6446262 
748.252 6530863 6610527 6682238 6742321 6786827 6812093 6815355 6795158 
752.109 6751276 6684505 6596370 6489058 6365438 6229225 6084876 5937226 
755.966 5790803 5649092 5514069 5386201 5264958 5149539 5039593 4935505 
759.823 4838240 4748751 4667431 4593748 4526346 4463516 4403815 4346496 
763.679 4291637 4239744 4191385 4146712 4105420 4066915 4030700 3996668 
767.536 3965154 3936689 3911590 3889624 3869973 3851461 3833044 3814207 
771.393 3795191 3776745 3759806 3744914 3731944 3720171 3708592 3696406 
775.250 3683428 3670180 3657755 3647402 3640131 3636474 3636432 3639672 
779.107 3645718 3654100 3664365 3676012 3688416 3700779 3712399 3722842 
782.964 3732309 3741758 3752801 3767477 3787735 3815007 3849880 3892010 
786.821 3940258 3993037 4048783 4106352 4165307 4226007 4289587 4357585 
790.678 4431678 4513184 4602708 4699767 4802562 4907787 5010785 5105686 
794.535 5186062 5245656 5279429 5284507 5260914 5211877 5143442 5063557 
798.392 4980844 4903217 4836895 4785799 4751575 4733942 4731363 4741545 
802.249 4761891 4789528 4821479 4854593 4885722 4912038 4931476 4943046 
806.106 4946992 4944684 4938278 4930312 4923261 4919224 4919728 4925618 
809.963 4936979 4953098 4972518 4993115 5012446 5028113 5038263 5041951 
813.820 5039297 5031369 5019841 5006453 4992570 4978834 4965079 4950469 
817.677 4933759 4913703 4889370 4860517 4827667 4792187 4756111 4721798 
821.533 4691488 4666791 4648325 4635569 4627001 4620487 4613889 4605582 
825.390 4594814 4581705 4567060 4551928 4537239 4523570 4511101 4499786 
829.247 4489555 4480480 4472765 4466636 4462125 4458977 4456592 4454221 
833.104 4451206 4447298 4442852 4438860 4436792 4438307 4444852 4457347 
836.961 4475891 4499757 4527411 4556955 4586439 4614330 4639828 4662953 
840.818 4684410 4705231 4726370 4748338 4771044 4793809 4815732 4835989 
844.675 4854163 4870293 4884787 4898081 4910367 4921424 4930582 4937101 
848.532 4940383 4940343 4937562 4933173 4928628 4925379 4924549 4926779 
852.389 4932210 4940515 4951177 4963543 4977114 4991594 5007018 5023725 
856.246 5042274 5063232 5086928 5113202 5141360 5170350 5199102 5227046 
860.103 5254543 5283047 5314989 5353348 5401132 5460987 5535010 5624863 
863.960 5732092 5858380 6005745 6176765 6374737 6604258 6872055 7187710 
867.817 7563975 8015646 8556850 9196533 9932868 10747980 11604593 12446599 
871.674 13204840 13808160 14197820 14340854 14237748 13921119 13446246 
875.048 12877022 12272717 11678874 11123770 10619599 10166605 9758081 
878.423 9384823 9038089 8710938 8398513 8097812 7807417 7527409 7259336 
882.280 7006000 6770941 6557650 6368889 6206147 6069560 5958101 5869994 
886.137 5803038 5754802 5722671 5703860 5695588 5695428 5701681 5713604 
889.994 5731427 5755935 5787898 5827526 5874293 5927077 5984658 6046235 
893.851 6111728 6181633 6256618 6336952 6422135 6511028 6602262 6694885 
897.708 6788871 6885192 6985504 7091454 7204023 7323170 7447842 7576324 
901.565 7706825 7837894 7968578 8098382 8227028 8354320 8480044 8604033 
905.422 8726183 8846573 8965315 9082602 9198862 9315136 9433582 9557813 
909.279 9692944 9845015 10019834 10221603 10451611 10707521 10983377 
912.654 11270332 11557823 11834783 12090671 12315966 12502518 12643787 
916.028 12735143 12774509 12762962 12704974 12608324 12483265 12341370 
919.403 12194125 12051859 11923048 11814174 11729961 11673792 11648086 
922.778 11654544 11694188 11767405 11873967 12013064 12183402 12383293 
926.153 12610562 12862490 13135697 13426095 13728981 14039217 14351511 
929.528 14660665 14961770 15250279 15522116 15773639 16001639 16203363 
932.902 16376445 16518889 16628964 16705342 16747090 16754061 16727081 
936.277 16668184 16580670 16468814 16337484 16191556 16035435 15872774 
939.652 15706462 15538774 15371689 15207121 15047000 14893189 14747354 
943.027 14610696 14483930 14367300 14260752 14164099 14077096 13999470 
946.402 13930848 13870557 13817690 13771099 13729613 13692249 13658388 
949.776 13627823 13600668 13577116 13557188 13540551 13526402 13513538 
953.151 13500467 13485599 13467470 13444836 13416794 13382843 13342886 
956.526 13297199 13246450 13191457 13133143 13072351 13009717 12945640 
959.901 12880298 12813787 12746209 12677807 12608975 12540190 12471858 
963.276 12404236 12337361 12271138 12205439 12140308 12076060 12013271 
966.651 11952666 11894877 11840247 11788622 11739352 11691354 11643348 
970.025 11594060 11542442 11487809 11429862 11368784 11305147 11239902 
973.400 11174321 11109855 11048009 10990159 10937420 10890552 10850006 
976.775 10816063 10789006 10769239 10757373 10754160 10760323 10776276 
980.150 10801905 10836438 10878313 10925291 10974590 11023155 11067985 
983.525 11106540 11137094 11159059 11173103 11181006 11185259 11188552 
986.899 11193137 11200403 11210777 11223783 11238609 11254485 11271095 
990.274 11288524 11307143 11327197 11348478 11370269 11391433 11410829 
993.649 11427724 11442059 11454467 11465985 11477691 11490248 11503709 
997.024 11517476 11530531 11541770 11550286 11555631 11557868 11557593 
1000.399 11555818 11553909 11553445 11556147 11563832 11578321 11601517 
1003.774 11635372 11682076 11744058 11824042 11925059 12050261 12202862 
1007.148 12385937 12602325 12854704 13145530 13477375 13853309 14277709 
1010.523 14757259 15302177 15927082 16651009 17495882 18482852 19626732 
1013.898 20928616 22368072 23896648 25434852 26875680 28096310 28978178 
1017.273 29431268 29415106 28948376 28103134 26986694 25718662 24410966 
1020.648 23154982 22016422 21035998 20233328 19611948 19163978 18874020 
1024.022 18721864 18684450 18737232 18855244 19013962 19190064 19362244 
1027.398 19512000 19624388 19688860 19699772 19656580 19563602 19429154 
1030.773 19264286 19081262 18892142 18707496 18535752 18382782 18251940 
1034.148 18144404 18059510 17995246 17948754 17916710 17895934 17883580 
1037.523 17877436 17875914 17877892 17882504 17888942 17896452 17904316 
1040.899 17912140 17919894 17927900 17936694 17946686 17957826 17969480 
1044.274 17980456 17989330 17994796 17996096 17993176 17986674 17977678 
1047.649 17967430 17957068 17947566 17939788 17934804 17933934 17938840 
1051.024 17951392 17973290 18005640 18048658 18101562 18162660 18229802 
1054.400 18300814 18373966 18448254 18523536 18600300 18679406 18761680 
1057.775 18847638 18937316 19030146 19125194 19221220 19316970 19411360 
1061.150 19503664 19593574 19681328 19767620 19853590 19940632 20030274 
1064.525 20124004 20223246 20329346 20443654 20567660 20703080 20851798 
1067.901 21015808 21197016 21396986 21616850 21857274 22118506 22400500 
1071.276 22702960 23025430 23367214 23727226 24104048 24495984 24901324 
1074.651 25318638 25746990 26186016 26635688 27095910 27566034 28044396 
1078.026 28528380 29014498 29498928 29978150 30449266 30910286 31359782 
1081.402 31796498 32218712 32623786 33008016 33366876 33695688 33990352 
1084.777 34248456 34469864 34657148 34815560 34952812 35078464 35203336 
1088.152 35338944 35497092 35689492 35927484 36221852 36582588 37018692 
1091.527 37537992 38147004 38850964 39653580 40557240 41562820 42669716 
1094.903 43875692 45176640 46566348 48036100 49574096 51164728 52787876 
1098.278 54418124 56024480 57570736 59016912 60321736 61445808 62354980 
1101.653 63022868 63432128 63574112 63447116 63054468 62402608 61500240 
1105.028 60358568 58992512 57422544 55676668 53792100 51815872 49804016 
1108.404 47819236 45927296 44192488 42673100 41417400 40460600 39823056 
1111.779 39509556 39509772 39799452 40342464 41093220 41999380 43004724 
1115.154 44051844 45084892 46052156 46908516 47617692 48154016 48503428 
1118.529 48663568 48642772 48458084 48132672 47692776 47164784 46572632 
1121.905 45936044 45269640 44582836 43880652 43164752 42434896 41690060 
1125.280 40929620 40153968 39365108 38566940 37765268 36967812 36183704 
1128.655 35422988 34695808 34011756 33379132 32804536 32292750 31846744 
1132.030 31467768 31155438 30907896 30721784 30592310 30513448 30478204 
1135.406 30479064 30508372 30558726 30623182 30695378 30769452 30840132 
1138.781 30902806 30953640 30989918 31010056 31013662 31001400 30974558 
1142.156 30934772 30883708 30822942 30753910 30678060 30596936 30512258 
1145.531 30425942 30339972 30256442 30177438 30105212 30042132 29991028 
1148.906 29955346 29939342 29948070 29987294 30063212 30182000 30349242 
1152.282 30569440 30845672 31179338 31570232 32016810 32516422 33065618 
1155.657 33660240 34295400 34965304 35663092 36380712 37109220 37838972 
1159.032 38560172 39263228 39939048 40579240 41175980 41722180 42211516 
1162.407 42638668 42999632 43291900 43514560 43668152 43754536 43776600 
1165.783 43738196 43643956 43499176 43309636 43081312 42820008 42531188 
1169.158 42219760 41890304 41547132 41194500 40836676 40477760 40121444 
1172.533 39770572 39426984 39091504 38764076 38444088 38130732 37823440 
1175.908 37521856 37226080 36936380 36653160 36376680 36106808 35842868 
1179.284 35583456 35326432 35069204 34808980 34543340 34270588 33990060 
1182.659 33702116 33407774 33108398 32805246 32499182 32190714 31880168 
1186.034 31567928 31254596 30941222 30629026 30319368 30013498 29712588 
1189.409 29417762 29130188 28851188 28582150 28324434 28079078 27846700 
1192.785 27627454 27421262 27228122 27048400 26883086 26733750 26602370 
1196.160 26490850 26400816 26333252 26288590 26266706 26267320 26290030 
1199.535 26334542 26400582 26487782 26595526 26722670 26867520 27027744 
1202.910 27200156 27380738 27564454 27745176 27915758 28068184 28194044 
1206.286 28285288 28335044 28338706 28294754 28205404 28076720 27918130 
1209.661 27741372 27559042 27383038 27223184 27086338 26976168 26893414 
1213.036 26836726 26803556 26791006 26796428 26817622 26852796 26900446 
1216.411 26959118 27027484 27104256 27188340 27278832 27375000 27476094 
1219.787 27581268 27689644 27800402 27913072 28027952 28146148 28269666 
1223.162 28401146 28543422 28699068 28870114 29057852 29262974 29485794 
1226.537 29726574 29985780 30264280 30563394 30884854 31230802 31603754 
1229.912 32006538 32442310 32914350 33425966 33980176 34579444 35225448 
1233.288 35919072 36660396 37448992 38284104 39165060 40091200 41061904 
1236.663 42076160 43132292 44227516 45357892 46518340 47703204 48906704 
1240.038 50123496 51348768 52578020 53806452 55028272 56236084 57420932 
1243.413 58572544 59680240 60733688 61723612 62642156 63482976 64241200 
1246.789 64913672 65499008 65998000 66413580 66750576 67014976 67213096 
1250.164 67350800 67433056 67463920 67446888 67385296 67282832 67143760 
1253.539 66973268 66777248 66562544 66336732 66107952 65884668 65675132 
1256.914 65487392 65329032 65207404 65129984 65104480 65138768 65240412 
1260.290 65416016 65670164 66004872 66419168 66909100 67467872 68086008 
1263.665 68751064 69447352 70155424 70852168 71511296 72105272 72607144 
1267.040 72993168 73244456 73348112 73297152 73089976 72729456 72222320 
1270.415 71578512 70810800 69933904 68963832 67916664 66807764 65651268 
1273.791 64459832 63244640 62015380 60780048 59544932 58314240 57090384 
1277.166 55874348 54666476 53466980 52276492 51096036 49926664 48769128 
1280.541 47623436 46488844 45364164 44248164 43139952 42039104 40945620 
1283.916 39859612 38781104 37709908 36645752 35588528 34538548 33496726 
1287.292 32464558 31444112 30437812 29448426 28478948 27532592 26612688 
1290.667 25722546 24865366 24043976 23260760 22517664 21816166 21157294 
1294.042 20541658 19969258 19439452 18950882 18501510 18088680 17709542 
1297.417 17361106 17040536 16745165 16472480 16220096 15985654 15766890 
1300.792 15561777 15368712 15186569 15014715 14852862 14700682 14557594 
1304.168 14422500 14293890 14169994 14049195 13930401 13813224 13698100 
1307.543 13585980 13478066 13375409 13278732 13188313 13104141 13026129 
1310.918 12954482 12889840 12833379 12786755 12751950 12731002 12725763 
1314.293 12737699 12767792 12816511 12883696 12968676 13070099 13185835 
1317.669 13312761 13446566 13581552 13710637 13825598 13917598 13977890 
1321.044 13998768 13974436 13901620 13779943 13611907 13402468 13158450 
1324.419 12887765 12598598 12298699 11994902 11692891 11397030 11110555 
1327.794 10835900 10574740 10328356 10097621 9883095 9684951 9503024 9336787 
1331.652 9185472 9048211 8924184 8812785 8713670 8626740 8552057 8489643 
1335.509 8439384 8400888 8373527 8356394 8348447 8348651 8356001 8369625 
1339.367 8388853 8413167 8442276 8476054 8514526 8557802 8606083 8659604 
1343.224 8718723 8783945 8856025 8935948 9024804 9123480 9232356 9350845 
1347.082 9477177 9608289 9740137 9868125 9987817 10095555 10189113 10267940 
1350.939 10333256 10387777 10435273 10479981 10525977 10576610 10634190 
1354.314 10699807 10773426 10854168 10940655 11031444 11125150 11220639 
1357.689 11316936 11413006 11507875 11600420 11689569 11774348 11854092 
1361.065 11928402 11997110 12060120 12117289 12168330 12212831 12250289 
1364.440 12280222 12302139 12315573 12320001 12314852 12299617 12273823 
1367.815 12237305 12190268 12133363 12067692 11994750 11916386 11834815 
1371.190 11752567 11672484 11597613 11531018 11475614 11433838 11407539 
1374.566 11397931 11405651 11430853 11473457 11533064 11609061 11700507 
1377.941 11806110 11924453 12054151 12194207 12344372 12505147 12677795 
1381.316 12863895 13065065 13282529 13516837 13767794 14034277 14314193 
1384.691 14604330 14900234 15196158 15485404 15760888 16015902 16244903 
1388.067 16444018 16611116 16745459 16847158 16916596 16954112 16959990 
1391.442 16934700 16879076 16794526 16682974 16546583 16387568 16207938 
1394.817 16009510 15794049 15563661 15321000 15069573 14813866 14559184 
1398.192 14311585 14077449 13863292 13675480 13520168 13403341 13331047 
1401.568 13309541 13345477 13445626 13616532 13863610 14190033 14595529 
1404.943 15075140 15618423 16209015 16824984 17439732 18023746 18546706 
1408.318 18980070 19299648 19487804 19535188 19441432 19214724 18870538 
1411.693 18429356 17914372 17349120 16755676 16153386 15558195 14982340 
1415.069 14434396 13919401 13439260 12993126 12578116 12189963 11823902 
1418.444 11475440 11140853 10817533 10503893 10199264 9903422 9616379 
1421.819 9338365 9069760 8811304 8564157 8329759 8109665 7905287 7717617 
1425.677 7547262 7394533 7259721 7143208 7045563 6967289 6908618 6869185 
1429.534 6847878 6842975 6852326 6873757 6905296 6945325 6992607 7046190 
1433.391 7105294 7169216 7237357 7309187 7384293 7462392 7543310 7626952 
1437.249 7713333 7802678 7895451 7992434 8094695 8203644 8320822 8447900 
1441.106 8586569 8738530 8905462 9088893 9290215 9510487 9750385 10010206 
1444.964 10289994 10589837 10910092 11251561 11615364 12002438 12412758 
1448.339 12844253 13291793 13746460 14195397 14622462 15009958 15341248 
1451.714 15603794 15791973 15908825 15965886 15981065 15975302 15968585 
1455.089 15976447 16007523 16062358 16133516 16207039 16264664 16286810 
1458.465 16255520 16157262 15985149 15740420 15432619 15078536 14699523 
1461.840 14317957 13953410 13619651 13322854 13061720 12828863 12613384 
1465.215 12403604 12189434 11964047 11724421 11471166 11207912 10940178 
1468.590 10674304 10416364 10171252 9941819 9728752 9530615 9344487 9166864 
1472.448 8994468 8824941 8656859 8489590 8322672 8155336 7986297 7813794 
1476.305 7636004 7451497 7259622 7060570 6855310 6645263 6432125 6217613 
1480.163 6003429 5791185 5582325 5378008 5179042 4985803 4798356 4616758 
1484.020 4441359 4272946 4112861 3962747 3824223 3698369 3585561 3485331 
1487.877 3396556 3317789 3247610 3184867 3128796 3079082 3035715 2998980 
1491.735 2969419 2947742 2934789 2931409 2938337 2956101 2985002 3025211 
1495.592 3076846 3140206 3215934 3305156 3409674 3532165 3676350 3846971 
1499.450 4049407 4288617 4567537 4884979 5233728 5599370 5960450 6290267 
1503.307 6560183 6743925 6821925 6784966 6636033 6389899 6070492 5706480 
1507.165 5326547 4955212 4610345 4302642 4036463 3811419 3624239 3470176 
1511.022 3344017 3240733 3155822 3085406 3026338 2976079 2932704 2894741 
1514.879 2861148 2831236 2804585 2781050 2760470 2742629 2727073 2713124 
1518.737 2699992 2687091 2674309 2662193 2651860 2644799 2642311 2645143 
1522.594 2653190 2665609 2681039 2698038 2715394 2732352 2748482 2763593 
1526.452 2777513 2789976 2800602 2808980 2814721 2817527 2817142 2813260 
1530.309 2805573 2793713 2777583 2757411 2733926 2708398 2682451 2657699 
1534.167 2635442 2616378 2600570 2587528 2576548 2566912 2558123 2549900 
1538.024 2542092 2534533 2526966 2519012 2510286 2500554 2489894 2478717 
1541.881 2467681 2457542 2448887 2441968 2436667 2432531 2428976 2425540 
1545.739 2422028 2418635 2415878 2414314 2414365 2416095 2419114 2422772 
1549.596 2426342 2429365 2431825 2434174 2437201 2441734 2448269 2456815 
1553.454 2466856 2477496 2487749 2496860 2504404 2510386 2515093 2518902 
1557.311 2522146 2525048 2527716 2530300 2532976 2536044 2539780 2544414 
1561.168 2549975 2556296 2563014 2569719 2576026 2581771 2587024 2592195 
1565.026 2597939 2605088 2614501 2626968 2643055 2663113 2687274 2715535 
1568.883 2747888 2784369 2825115 2870331 2920123 2974471 3033135 3095705 
1572.741 3161609 3230250 3300953 3372898 3444890 3515229 3581555 3640956 
1576.598 3690291 3726557 3747353 3751133 3737421 3706757 3660664 3601531 
1580.456 3532451 3456982 3378872 3301547 3227895 3159896 3098592 3044195 
1584.313 2996372 2954593 2918340 2887212 2861047 2839720 2823120 2811078 
1588.170 2803288 2799507 2799392 2802655 2808833 2817325 2827323 2837925 
1592.028 2848266 2857767 2866196 2873712 2880731 2887638 2894633 2901681 
1595.885 2908530 2914947 2920871 2926489 2932254 2938608 2945894 2954147 
1599.743 2963185 2972721 2982563 2992771 3003700 3015923 3030119 3046905 
1603.600 3066785 3090206 3117477 3148762 3184044 3222952 3264637 3307888 
1607.458 3351296 3393532 3433671 3471307 3506485 3539482 3570469 3599347 
1611.315 3625637 3648683 3667926 3683181 3694716 3703176 3709380 3714053 
1615.172 3717634 3720245 3721857 3722381 3721971 3721046 3720295 3720612 
1619.030 3722931 3728018 3736378 3748123 3762869 3779818 3797938 3816237 
1622.887 3834078 3851423 3868831 3887220 3907541 3930264 3955183 3981395 
1626.745 4007625 4032748 4056112 4077793 4098451 4118954 4139978 4161655 
1630.602 4183659 4205361 4226243 4246206 4265559 4284928 4304926 4325844 
1634.459 4347638 4369962 4392339 4414498 4436469 4458375 4480388 4502419 
1638.317 4524230 4545469 4565915 4585698 4605342 4625569 4647217 4670828 
1642.174 4696656 4724593 4754326 4785432 4817442 4849803 4881875 4912956 
1646.032 4942413 4969944 4995721 5020537 5045573 5072102 5101160 5133344 
1649.889 5168732 5207167 5248473 5292563 5339569 5389510 5442228 5497084 
1653.747 5553247 5609857 5666446 5723139 5780643 5839997 5902279 5968309 
1657.604 6038735 6113972 6194611 6281449 6375526 6477850 6589126 6709508 
1661.461 6838608 6975825 7120716 7273359 7434524 7605622 7788356 7984403 
1665.319 8195189 8421792 8664896 8924801 9201366 9493758 9800311 10118467 
1669.176 10444973 10776121 11108068 11437016 11759222 12070893 12368173 
1672.552 12647218 12904659 13138105 13346699 13531210 13694066 13838726 
1675.927 13969283 14089899 14204760 14318155 14434695 14559287 14696909 
1679.302 14851870 15027536 15225980 15448461 15696082 15970568 16274565 
1682.677 16611168 16982918 17390526 17832244 18304046 18800908 19318614 
1686.052 19855138 20411246 20989848 21594930 22230322 22899174 23604036 
1689.428 24347516 25132650 25963074 26842460 27774000 28760112 29803232 
1692.803 30907076 32077926 33325198 34660404 36094808 37636780 39290096 
1696.178 41054884 42930964 44922724 47043104 49314956 51768392 54435528 
1699.553 57343764 60510916 63943964 67642552 71605136 75834832 80340752 
1702.929 85133400 90214952 95567528 101142976 106857976 112595032 118208504 
1706.304 123532656 128389696 132598520 135988112 138417856 139802624 
1709.197 140131920 139473696 137957936 135748368 133013128 129905856 
1712.090 126557720 123077928 119556392 116065512 112659832 109375968 
1714.983 106233880 103240968 100397800 97703960 95161688 92776808 90556608 
1718.358 88506528 86627272 84913736 83355704 81940088 80652928 79481096 
1721.734 78412536 77435920 76539984 75713112 74943432 74219208 73529000 
1725.109 72861848 72206568 71551648 70884832 70193784 69466960 68694744 
1728.484 67870192 66989376 66050576 65053380 63997720 62883328 61709636 
1731.859 60476404 59184252 57835484 56434292 54986800 53500448 51983184 
1735.235 50442476 48884420 47313436 45732440 44143344 42548260 40950220 
1738.610 39353868 37765424 36192100 34641156 33118966 31630534 30179596 
1741.985 28769026 27401624 26080546 24809480 23592422 22433120 21334598 
1745.360 20298730 19326138 18416320 17567906 16779158 16048191 15373375 
1748.736 14753361 14187016 13673136 13210155 12795688 12426531 12098511 
1752.111 11807020 11547314 11315027 11106233 10917670 10746395 10589793 
1755.486 10445215 10310105 10181931 10058248 9936716 9815189 9691601 9564150 
1759.344 9431420 9292593 9147482 8996656 8841132 8682310 8521526 8359913 
1763.201 8198305 8037387 7877700 7719888 7564555 7412307 7263572 7118614 
1767.058 6977423 6839896 6705883 6575310 6448284 6325102 6206295 6092564 
1770.916 5984657 5883354 5788992 5701450 5619708 5542120 5466525 5390841 
1774.773 5313472 5233818 5152217 5069830 4988086 4908243 4831050 4756664 
1778.631 4684834 4615224 4547491 4481382 4416539 4352453 4288356 4223511 
1782.488 4157546 4090719 4024051 3958968 3896815 3838420 3783684 3731765 
1786.345 3681535 3632236 3583729 3536629 3491794 3449818 3410586 3373162 
1790.203 3336127 3298340 3259370 3219823 3180956 3144227 3110551 3079981 
1794.060 3051856 3025134 2998994 2973220 2948034 2923949 2901119 2879291 
1797.918 2857754 2835754 2812902 2789414 2765964 2743299 2721790 2701067 
1801.775 2680195 2658132 2634223 2608646 2582360 2556823 2533429 2513001 
1805.633 2495784 2481446 2469556 2459699 2451476 2444423 2437559 2429541 
1809.490 2418718 2403848 2384471 2361291 2335825 2309754 2284148 2259043 
1813.347 2233352 2205832 2175830 2144222 2113618 2087822 2070688 2064867 
1817.205 2070755 2086465 2108300 2132002 2153933 2171754 2184467 2192159 
1821.062 2195382 2194734 2190754 2184021 2175198 2165019 2153991 2142293 
1824.920 2129635 2115531 2099694 2082405 2064570 2047500 2032245 2019061 
1828.777 2007095 1994665 1979899 1961635 1939997 1916564 1893746 1873968 
1832.635 1858679 1848059 1840798 1834908 1828281 1819536 1808174 1794531 
1836.492 1779502 1764144 1749440 1736281 1725389 1717393 1712619 1711025 
1840.349 1712053 1714733 1717868 1720444 1721836 1721863 1720516 1717658 
1844.207 1712626 1704314 1691440 1673104 1649330 1621442 1591839 1563431 
1848.064 1538893 1519986 1507048 1499156 1494507 1491036 1487058 1481603 
1851.922 1474464 1465947 1456551 1446851 1437135 1427708 1418765 1410857 
1855.779 1404692 1401264 1401478 1405824 1413969 1424737 1435888 1444758 
1859.636 1448745 1446141 1436763 1422110 1405274 1390190 1380581 1378936 
1863.494 1385705 1399164 1415642 1430630 1439694 1439820 1430015 1411493 
1867.351 1387227 1361104 1336821 1317013 1302782 1293732 1288418 1285293 
1871.209 1283162 1281672 1281145 1282067 1284447 1287621 1290035 1289925 
1875.066 1285952 1277988 1267173 1255760 1246162 1240134 1238058 1238850 
1878.924 1240457 1240851 1238811 1234587 1229513 1225602 1224587 1227167 
1882.781 1232883 1240357 1247924 1254595 1260224 1265837 1272874 1282803 
1886.638 1296314 1312858 1330640 1346717 1357507 1359495 1349868 1327445 
1890.496 1292868 1248987 1200409 1152730 1111430 1080963 1063830 1060402 
1894.353 1069065 1087052 1110901 1137336 1163486 1187177 1207079 1222693 
1898.211 1234565 1244170 1253354 1263775 1275713 1287619 1295854 1295760 
1902.068 1282941 1255440 1214682 1165876 1116832 1075929 1049612 1040812 
1905.926 1048366 1067945 1093820 1120804 1145368 1166341 1183924 1198919 
1909.783 1211670 1221668 1227932 1229643 1226463 1219147 1208728 1196061 
1913.640 1181248 1163375 1141014 1113233 1080233 1044240 1009035 979406 
1917.498 959553 951869 955805 968028 982935 994524 998116 992222 979150 
1921.837 964791 956844 962414 985394 1024605 1073638 1122394 1160225 1179538 
1926.177 1178351 1161433 1138601 1121886 1121273 1141399 1180004 1228338 
1930.034 1273880 1303876 1308919 1285407 1236180 1169751 1097853 1033094 
1933.892 986128 963836 968051 995988 1040746 1093433 1144851 1187980 1218755 
1938.231 1236874 1244691 1246364 1245754 1245339 1245486 1244907 1240927 
1942.089 1231043 1213351 1187780 1155852 1121166 1088598 1063752 1051530 
1945.946 1055329 1075281 1108036 1146700 1182795 1208203 1218098 1212444 
1949.804 1196644 1179344 1170553 1177319 1201690 1239003 1279247 1309145 
1953.661 1316390 1292717 1237445 1157533 1067080 983307 923113 897399 908279 
1958.001 947624 999665 1045382 1069586 1065614 1038112 999699 965556 945278 
1962.340 938903 935649 919531 876063 800197 698537 588241 489647 419317 
1966.680 383203 377156 390490 413418 442192 481466 539748 624190 733157 
1971.020 855356 971974 1064275 1120123 1139128 1129753 1105533 1076963 
1974.877 1047878 1014828 972439 918599 859620 808720 781940 789486 832479 
1979.217 902016 984249 1065630 1137212 1194130 1234315 1254977 1252876 
1983.074 1224778 1171397 1099465 1022701 957699 919346 914788 941022 985933 
1987.414 1034241 1073229 1098113 1111802 1122901 1139064 1163432 1192432 
1991.271 1218036 1231892 1229459 1211241 1182092 1146754 1107974 1064281 
1995.128 1012710 951960 884869 818972 764155 727077 708563 701457 694416 
1999.468 676448 642613 595653 545387 502863 476170 466092 467779 473631 
2003.808 479252 485798 500117 528948 574004 626100 667565 677369 641466 
2008.147 560054 450070 339430 257829 225741 247477 310824 391364 460630 
2012.487 495717 483717 425780 334725 231956 141802 86361 80445 128529 223049 
2017.309 346170 474127 585366 666715 718602 754202 794061 856332 948017 
2021.648 1059920 1168338 1242562 1256246 1196512 1069424 898306 716954 
2025.506 559856 454040 412801 435742 510209 614993 724742 813971 860580 
2029.845 850150 779036 655151 496640 327683 171611 45742 -42228 -93536 
2034.185 -114582 -111121 -85748 -36399 39763 142714 266046 397637 522014 
2038.524 625501 699145 740962 753638 742785 713718 671473 620787 568750 
2042.864 524760 500105 504186 541799 610880 704047 811458 925962 1044928 
2047.204 1170005 1302724 1439558 1568521 1671266 1728404 1728402 1672501 
2051.061 1575866 1462485 1358314 1283222 1246033 1243048 1260752 1281755 
2054.918 1292251 1286530 1268693 1249062 1239349 1247394 1274185 1313777 
2058.776 1356140 1390234 1408125 1406173 1385787 1351973 1312119 1274072 
2062.633 1245427 1232279 1238466 1264554 1307365 1359727 1411816 1453036 
2066.491 1475012 1473135 1448630 1407457 1359124 1313647 1279284 1260580 
2070.348 1258265 1269294 1289046 1312064 1333871 1351142 1361790 1364646 
2074.206 1359828 1348435 1333619 1320375 1315510 1326323 1358748 1414852 
2078.063 1491832 1581113 1670214 1745352 1795535 1815107 1805575 1774669 
2081.920 1734127 1695658 1667731 1653465 1650762 1653802 1655809 1651281 
2085.778 1637349 1613582 1581297 1541988 1497130 1447887 1396272 1345387 
2089.635 1299830 1264359 1242585 1235167 1239456 1249895 1260123 1265160 
2093.493 1263728 1258806 1256774 1264960 1288965 1330009 1384544 1444833 
2097.350 1501368 1545434 1571193 1576471 1563154 1535676 1499951 1461869 
2101.208 1426338 1396454 1373573 1357460 1347114 1341390 1339999 1343675 
2105.065 1354345 1374121 1404481 1444947 1492531 1541879 1586201 1618825 
2108.922 1635007 1632876 1614080 1582758 1544711 1505368 1468910 1437313 
2112.780 1410937 1389007 1370669 1355781 1345084 1339779 1340668 1347071 
2116.637 1356373 1363453 1362232 1346540 1312542 1260041 1193288 1120175 
2120.495 1051025 995334 959835 946563 952690 971414 993991 1011809 1018329 
2124.834 1009514 984068 942463 886910 820458 747452 672986 602975 542442 
2129.174 494623 458946 431478 405232 373196 330688 278302 222169 173153 
2133.513 143013 140900 169288 223278 291127 358488 411586 441360 444156 
2137.853 421804 379556 324406 263522 203822 151378 111501 87280 79565 85018 
2142.675 97295 107624 107876 92809 62094 20044 -25865 -68426 -104089 -134768 
2147.497 -167603 -213499 -282334 -380226 -505560 -649502 -796664 -929034 
2151.354 -1029594 -1087783 -1101327 -1078859 -1037573 -1000578 -990965 
2154.729 -1027269 -1115855 -1250090 -1407124 -1552230 -1643384 -1640491 
2158.104 -1515835 -1264483 -906939 -487693 -61763 317936 614434 809641 
2161.962 904663 914957 865474 783132 692960 611719 547364 498011 456636 
2166.302 415247 370232 323843 284595 262439 264702 291229 333718 377003 
2170.641 404421 402654 367134 301884 219202 134026 59675 3925 -30953 -47512 
2175.463 -49425 -39585 -18926 13070 55991 107713 164902 223785 283239 344336 
2180.285 410810 485486 566979 647982 716587 759214 767199 740101 687957 
2184.624 627716 577662 550421 549239 566405 587220 595087 578325 532584 
2188.964 462507 378205 292463 216187 157489 120615 107656 119301 155415 
2193.303 214498 293094 385198 482927 577397 660698 726846 772266 795005 
2197.643 795209 774118 735498 686192 636632 598930 584910 601343 647625 
2201.983 714103 784143 838116 860345 843073 789639 713172 632915 568085 
2206.322 533249 534528 570024 631111 705934 782324 849599 899559 926532 
2210.662 927222 901575 852699 787843 717883 656271 615780 606508 632694 
2215.001 691541 773297 863336 944880 1002879 1026567 1011744 960660 881466 
2219.341 785659 685994 593658 517562 462951 432397 426042 443082 481769 
2223.681 539675 613428 698909 790732 883381 971324 1050084 1115736 1165303 
2228.020 1195872 1205094 1191171 1154695 1099205 1032444 965193 910145 
2231.878 878675 878470 911266 972977 1054033 1142577 1226673 1296571 1345899 
2236.217 1372141 1375647 1359442 1328081 1287262 1242890 1200292 1162905 
2240.075 1132049 1106055 1081791 1055496 1024940 990643 955915 926010 906583 
2244.414 901164 911140 934685 968721 1009935 1056203 1106375 1160084 1215769 
2248.754 1270014 1317038 1350213 1363845 1355683 1328306 1289637 1250846 
2252.611 1224229 1219170 1240337 1285713 1347563 1414328 1474066 1516891 
2256.469 1537877 1537218 1519542 1492040 1462012 1434881 1413700 1398789 
2260.326 1389334 1384456 1383969 1388627 1399407 1416360 1438338 1462385 
2264.184 1485047 1503174 1515726 1523458 1528815 1534808 1543672 1556143 
2268.041 1571858 1589797 1609902 1632824 1660190 1693031 1730751 1770340 
2271.898 1807010 1835547 1852578 1857768 1854585 1848905 1846993 1853360 
2275.756 1869281 1892637 1919284 1944649 1965481 1980466 1990198 1995989 
2279.613 1999394 2001536 2003578 2007280 2015418 2031324 2058179 2097397 
2283.471 2147578 2204088 2260181 2308277 2342251 2358511 2357015 2340358 
2287.328 2313086 2279953 2245182 2211478 2180330 2152117 2126713 2103616 
2291.186 2082545 2063230 2045616 2029633 2015173 2001919 1989436 1977135 
2295.043 1964622 1951810 1939459 1928998 1922211 1920791 1925478 1935742 
2298.900 1949569 1963814 1975270 1981305 1980872 1974428 1963991 1952213 
2302.758 1941909 1935430 1934326 1939370 1950349 1966279 1985421 2005221 
2306.615 2022818 2035589 2041827 2041083 2034594 2024479 2013480 2003866 
2310.473 1997077 1993643 1993465 1996280 2002104 2011074 2023334 2038337 
2314.330 2055117 2072103 2088025 2102256 2115295 2128318 2142814 2159562 
2318.188 2178618 2199476 2221966 2247250 2277906 2317198 2367621 2428609 
2322.045 2495312 2558541 2606608 2628291 2615955 2567649 2487587 2384551 
2325.902 2270022 2155293 2049616 1959006 1886158 1831201 1792610 1768303 
2329.760 1755999 1753378 1757983 1767055 1777830 1787902 1795603 1800428 
2333.617 1802846 1803872 1804788 1806531 1809575 1813951 1819401 1825499 
2337.475 1831711 1837334 1841618 1843774 1843333 1840405 1835692 1830384 
2341.332 1825604 1821967 1819308 1816711 1812991 1807380 1799957 1791922 
2345.189 1785087 1781128 1780948 1784131 1789277 1794410 1798089 1799662 
2349.047 1799888 1800115 1801927 1806197 1812839 1820911 1828963 1835599 
2352.904 1840158 1842338 1842310 1840122 1835637 1828410 1818114 1804723 
2356.762 1788992 1772121 1755714 1741036 1728818 1718861 1710499 1702675 
2360.619 1694530 1685588 1675846 1665617 1655353 1645411 1636190 1628041 
2364.477 1621536 1617290 1615836 1617495 1622118 1628926 1636757 1644232 
2368.334 1650188 1653970 1655503 1655258 1654102 1652882 1652388 1652963 
2372.191 1654801 1657765 1661674 1666200 1671143 1676264 1681443 1686505 
2376.049 1691505 1696386 1701374 1706748 1712901 1720292 1729200 1739612 
2379.906 1751039 1762360 1771985 1778244 1779728 1775784 1766731 1753892 
2383.764 1739186 1724661 1711900 1701665 1694022 1688442 1684427 1681753 
2387.621 1680653 1681580 1685000 1690795 1698403 1706812 1714837 1721626 
2391.479 1726840 1730621 1733379 1735575 1737384 1738831 1739972 1741048 
2395.336 1742819 1746052 1751417 1758892 1767502 1775486 1780701 1781438 
2399.193 1776945 1767808 1755716 1742885 1731319 1722097 1715290 1710116 
2403.051 1705603 1701170 1696953 1693804 1692977 1695576 1702114 1712294 
2406.908 1725057 1739018 1752905 1765712 1776919 1786158 1793256 1797750 
2410.766 1799191 1796909 1790652 1780571 1767512 1752905 1738675 1726695 
2414.623 1718565 1715240 1716909 1722915 1732147 1743207 1754729 1765442 
2418.480 1774391 1780630 1783260 1781381 1774289 1761600 1743874 1722432 
2422.338 1699535 1677743 1659437 1646079 1637734 1633181 1630413 1627374 
2426.195 1622922 1617072 1611219 1607456 1607751 1613128 1623263 1636461 
2430.053 1650148 1661756 1669360 1672228 1670996 1667225 1663175 1660949 
2433.910 1662368 1668400 1678959 1692991 1708498 1722874 1733662 1738856 
2437.768 1737780 1731061 1720563 1708755 1697765 1688719 1681330 1674341 
2441.625 1666240 1656270 1645180 1635369 1630117 1632404 1643723 1663211 
2445.482 1687788 1712849 1733947 1747862 1753730 1752871 1748260 1743120 
2449.340 1739883 1739458 1741302 1743584 1744200 1741480 1734580 1723787 
2453.197 1710290 1695873 1682716 1672654 1666983 1666046 1669076 1674100 
2457.055 1678654 1680266 1677460 1670409 1661079 1652814 1649223 1652874 
2460.912 1664502 1682398 1703030 1722074 1735970 1742822 1743163 1739421 
2464.770 1735023 1733178 1735801 1742892 1752844 1762793 1769961 1771936 
2468.627 1767759 1757551 1742957 1726197 1709973 1696699 1688253 1685480 
2472.484 1688338 1695409 1704765 1713825 1720316 1722442 1719502 1711678 
2476.342 1700232 1686925 1673747 1662333 1653751 1648135 1644744 1642195 
2480.199 1639076 1634079 1626994 1618546 1610654 1605632 1605802 1612303 
2484.057 1624989 1642053 1660873 1678499 1692880 1703108 1709901 1714494 
2487.914 1718294 1721793 1724406 1724673 1720875 1712146 1698938 1683387 
2491.771 1668830 1658546 1655185 1659464 1670138 1684117 1697664 1707138 
2495.629 1710332 1706806 1698070 1687002 1676940 1670607 1669408 1672833 
2499.486 1679009 1684868 1687684 1685678 1678832 1668827 1658557 1651190 
2503.344 1649242 1653830 1664528 1679765 1697363 1715129 1731462 1745146 
2507.201 1755341 1761235 1762064 1757385 1747374 1733212 1717305 1702536 
2511.059 1691911 1687225 1689036 1695963 1705388 1714293 1720063 1721315 
2514.916 1718048 1711511 1703778 1697018 1693125 1693127 1697400 1705301 
2518.773 1715817 1727346 1738516 1748190 1756069 1762585 1768771 1775785 
2522.631 1784432 1794562 1804960 1813858 1819426 1820709 1818181 1813593 
2526.488 1809693 1809085 1813457 1822914 1836022 1850337 1863262 1872723 
2530.346 1877906 1878912 1876702 1872486 1867458 1862462 1858199 1855086 
2534.203 1853543 1853725 1855538 1858625 1862508 1866735 1871330 1876817 
2538.061 1884068 1893786 1906102 1919999 1933458 1943890 1949015 1947756 
2541.918 1940780 1930518 1920613 1914624 1915330 1923464 1938020 1956343 
2545.775 1975199 1991617 2003722 2010968 2013910 2013741 2011792 2008999 
2549.633 2005990 2002979 2000398 1998917 1999510 2003142 2010539 2021453 
2553.490 2034691 2048150 2059211 2065653 2066026 2060247 2049480 2035646 
2557.348 2021059 2007546 1996308 1987932 1982350 1979581 1979738 1983108 
2561.205 1990073 2000773 2015066 2032314 2051656 2072185 2093011 2113269 
2565.063 2132125 2148530 2161311 2169477 2172530 2170830 2165790 2159429 
2568.920 2154020 2151292 2152051 2156014 2162263 2169600 2177332 2185283 
2572.777 2193760 2202892 2212385 2221091 2227458 2229965 2228084 2222476 
2576.635 2215002 2208023 2203611 2202664 2204827 2208664 2212660 2215846 
2580.492 2218510 2221890 2227671 2236901 2249364 2263275 2275864 2284099 
2584.350 2285993 2281106 2271043 2258781 2247959 2241900 2242790 2251255 
2588.207 2266364 2285980 2307262 2327223 2343436 2354074 2358501 2357011 
2592.064 2350776 2341355 2330493 2319628 2309839 2301679 2295595 2291722 
2595.922 2290453 2291854 2295914 2302146 2309777 2317719 2325101 2331511 
2599.779 2337307 2343370 2350931 2360791 2373024 2386707 2400079 2411131 
2603.637 2418231 2420583 2418615 2413623 2407535 2402256 2399261 2399342 
2607.494 2402610 2408686 2416811 2426116 2435724 2444718 2452478 2458562 
2611.352 2462986 2466120 2468583 2471118 2474220 2477898 2481675 2484727 
2615.209 2486257 2485874 2484011 2481917 2481478 2484604 2492740 2506165 
2619.066 2524006 2544057 2563532 2579492 2589738 2593173 2590211 2582324 
2622.924 2571918 2561527 2553463 2549201 2549386 2553821 2561736 2571952 
2626.781 2583418 2595023 2606099 2616056 2624744 2632214 2638635 2644344 
2630.639 2649601 2654468 2658747 2662001 2663765 2663789 2662196 2659753 
2634.496 2657614 2657037 2659060 2663891 2670905 2678664 2685353 2689450 
2638.354 2690156 2687685 2683244 2678479 2674974 2673716 2674715 2677219 
2642.211 2680002 2681880 2682270 2681262 2679689 2678832 2679966 2683963 
2646.068 2691174 2701216 2713192 2725848 2737763 2747491 2753933 2756206 
2649.926 2754045 2747702 2738002 2726212 2713817 2702209 2692434 2684996 
2653.783 2679814 2676403 2674117 2672325 2670748 2669278 2668078 2667184 
2657.641 2666442 2665448 2663543 2660005 2654347 2646406 2636370 2624788 
2661.498 2612365 2599695 2587265 2575257 2563704 2552673 2542261 2532676 
2665.355 2524361 2517506 2512246 2508403 2505380 2502409 2498661 2493457 
2669.213 2486544 2478064 2468652 2459246 2450795 2444141 2439808 2437725 
2673.070 2437595 2438813 2440665 2442579 2444178 2445325 2446019 2446415 
2676.928 2446620 2446834 2447302 2448395 2450630 2454462 2460145 2467454 
2680.785 2475655 2483496 2489553 2492669 2492418 2489188 2484376 2479662 
2684.643 2476691 2476364 2478663 2482653 2486909 2490156 2491649 2491496 
2688.500 2490404 2489304 2488940 2489523 2490734 2492100 2493303 2494415 
2692.357 2495982 2498617 2502756 2508101 2513739 2518349 2520743 2520336 
2696.215 2517492 2513314 2509308 2506643 2505885 2506634 2508005 2508928 
2700.072 2508727 2507530 2505911 2504887 2505215 2507171 2510327 2513785 
2703.930 2516522 2517693 2516989 2514425 2510467 2505639 2500478 2495408 
2707.787 2490886 2487370 2485347 2485166 2486974 2490425 2494822 2499101 
2711.645 2502225 2503358 2502142 2498785 2494013 2488845 2484538 2482095 
2715.502 2482259 2485329 2490991 2498374 2506230 2513068 2517617 2519131 
2719.359 2517617 2513940 2509515 2506000 2504760 2506511 2511285 2518300 
2723.217 2526516 2534874 2542626 2549459 2555436 2560769 2565764 2570427 
2727.074 2574723 2578392 2581231 2583018 2583844 2583838 2583380 2582847 
2730.932 2582637 2582926 2583669 2584421 2584590 2583492 2580698 2576302 
2734.789 2571229 2566764 2564605 2566002 2571587 2580835 2592321 2604081 
2738.646 2614250 2621557 2625656 2626990 2626645 2625751 2625238 2625626 
2742.504 2627249 2630274 2634947 2641442 2649670 2659136 2668774 2677189 
2746.361 2683038 2685734 2685442 2683390 2681458 2681472 2684718 2691460 
2750.219 2701019 2712092 2723226 2733423 2742195 2749609 2755990 2761645 
2754.076 2766554 2770579 2773455 2775184 2775978 2776388 2777052 2778416 
2757.934 2780894 2784467 2789145 2794826 2801314 2808367 2815534 2822123 
2761.791 2827310 2830417 2831099 2829578 2826631 2823355 2820799 2819537 
2765.648 2819691 2820680 2821913 2822752 2823009 2822881 2822913 2823621 
2769.506 2825202 2827516 2830170 2832683 2834653 2835954 2836673 2836941 
2773.363 2836841 2836385 2835644 2834810 2834465 2835418 2838576 2844617 
2777.221 2853656 2865159 2878014 2890818 2902355 2911792 2918997 2924336 
2781.078 2928421 2931874 2935150 2938341 2941335 2943970 2946106 2947807 
2784.936 2949291 2950814 2952763 2955402 2958894 2963286 2968446 2973987 
2788.793 2979341 2983843 2986964 2988352 2988214 2987167 2986270 2986615 
2792.650 2989018 2993774 3000515 3008292 3015968 3022659 3027919 3032079 
2796.508 3036031 3040897 3047751 3056955 3068217 3080425 3091981 3101116 
2800.365 3106409 3107249 3103975 3097796 3090749 3085041 3082800 3085446 
2804.223 3093466 3106466 3123228 3142164 3161576 3180252 3197544 3213335 
2808.080 3227882 3241642 3254891 3267601 3279485 3290111 3299201 3306753 
2811.938 3313341 3320037 3328095 3338944 3353439 3371850 3393626 3417447 
2815.795 3441635 3464540 3484988 3502710 3518258 3532843 3547943 3564763 
2819.652 3583927 3605198 3627674 3649968 3670665 3688654 3703365 3714776 
2823.510 3723501 3730512 3737140 3744774 3754968 3768913 3787450 3810596 
2827.367 3837580 3866754 3896042 3923216 3946737 3965952 3981407 3994516 
2831.225 4007173 4021193 4037809 4057342 4079601 4103774 4129269 4155692 
2835.082 4183139 4212002 4242815 4275786 4310802 4347329 4384766 4422547 
2838.939 4460488 4498922 4538767 4581224 4627590 4679043 4736199 4799039 
2842.797 4866947 4938749 5013038 5088457 5164025 5239456 5315057 5391703 
2846.654 5470462 5552286 5637597 5726364 5817983 5911493 6005965 6100686 
2850.512 6195304 6289843 6384516 6479720 6575714 6672901 6771502 6871772 
2854.369 6974006 7078329 7184608 7292437 7401085 7509583 7617181 7723386 
2858.227 7828374 7932795 8037824 8144673 8254221 8366777 8481968 8598837 
2862.084 8716246 8833101 8948952 9063730 9177764 9291534 9405139 9518125 
2865.941 9629563 9738109 9842668 9942562 10037872 10129221 10217549 10303334 
2869.799 10386453 10465589 10538723 10603379 10657380 10699246 10728548 
2873.174 10745661 10751345 10746478 10731515 10706599 10671736 10627046 
2876.549 10573283 10511705 10444129 10372318 10298072 10222575 10146870 
2879.925 10071872 9998691 9928848 9864416 9807510 9760249 9724361 9700901 
2883.782 9690332 9692468 9706470 9731140 9764812 9805672 9852037 9902730 
2887.639 9957499 10016991 10082722 10156645 10240136 10333857 10436958 
2891.015 10547396 10662455 10779223 10895310 11008932 11118859 11223881 
2894.390 11322569 11413027 11493219 11561486 11617108 11660679 11693756 
2897.765 11718386 11736337 11748379 11754245 11752889 11743356 11725485 
2901.140 11700463 11670827 11639925 11611148 11587070 11569203 11557762 
2904.516 11552258 11551854 11556156 11565122 11579558 11600397 11628809 
2907.891 11665708 11711711 11766893 11831048 11903540 11983640 12070534 
2911.266 12163606 12262438 12366977 12477233 12593141 12714131 12839139 
2914.641 12966502 13094361 13221060 13345642 13468108 13589212 13710162 
2918.017 13832083 13955335 14079551 14203420 14325546 14444497 14559655 
2921.392 14671211 14780028 14887257 14994171 15101592 15210004 15319438 
2924.767 15429881 15541252 15653719 15767500 15883000 16000450 16120102 
2928.142 16241729 16364986 16489170 16613369 16736579 16858088 16977366 
2931.518 17094546 17210144 17325122 17440504 17557012 17675090 17794532 
2934.893 17914752 18035056 18154998 18274514 18394300 18515468 18639536 
2938.268 18768274 18903324 19045948 19196852 19355968 19522250 19693852 
2941.643 19868286 20042888 20215424 20384524 20549952 20712582 20873712 
2945.019 21034650 21196022 21357512 21518048 21676030 21829918 21978534 
2948.394 22121104 22257058 22385444 22504994 22614078 22711232 22795672 
2951.769 22868246 22931024 22987228 23040108 23091918 23143216 23192540 
2955.144 23236922 23273038 23298202 23311224 23312558 23304074 23287790 
2958.520 23265020 23235588 23197522 23147450 23081296 22995092 22885886 
2961.895 22751758 22592176 22407480 22198606 21966648 21712736 21438072 
2965.270 21143996 20832128 20504484 20163464 19811740 19451966 19086708 
2968.645 18718188 18348070 17977778 17608458 17241254 16877366 16518253 
2972.021 16165587 15821020 15486056 15161642 14848299 14545822 14253728 
2975.396 13971137 13697191 13431087 13172168 12919885 12673478 12432291 
2978.771 12195583 11962745 11733619 11508670 11289044 11076355 10872556 
2982.146 10679153 10496916 10325526 10163518 10008585 9858162 9709822 
2985.521 9561989 9414025 9266280 9119740 8975699 8835196 8698931 8567031 
2989.379 8439357 8315330 8194453 8076067 7959523 7844110 7729282 7614507 
2993.236 7499673 7385138 7271620 7160025 7051287 6945757 6843190 6742700 
2997.094 6642864 6542330 6440173 6336356 6231555 6127215 6024902 5925916 
3000.951 5830853 5739580 5651293 5564772 5478945 5393200 5307496 5222494 
3004.809 5139240 5058849 4982321 4910179 4842467 4778833 4718659 4661449 
3008.666 4606702 4554336 4504370 4456851 4411647 4368290 4326099 4284343 
3012.523 4242430 4200179 4158123 4117335 4079279 4045341 4016521 3993056 
3016.381 3974335 3959074 3945458 3931817 3916753 3899531 3880235 3859524 
3020.238 3838480 3818195 3799462 3782376 3766460 3750562 3733434 3714160 
3024.096 3692553 3669449 3646567 3625889 3609401 3597979 3591358 3587951 
3027.953 3585616 3582155 3576321 3568032 3558584 3549826 3543530 3540700 
3031.811 3541047 3543085 3544918 3544615 3541017 3534124 3524771 3514260 
3035.668 3503807 3493899 3484496 3474872 3464389 3452684 3440097 3427561 
3039.525 3416384 3407934 3403192 3402708 3406433 3413850 3424270 3436836 
3043.383 3450804 3465399 3480113 3494709 3509218 3524002 3539767 3557114 
3047.240 3576512 3597922 3620639 3643449 3664920 3683492 3698051 3708084 
3051.098 3713617 3715089 3713388 3709273 3703503 3696671 3689296 3681616 
3054.955 3673748 3665554 3656703 3646726 3635225 3622224 3608293 3594577 
3058.813 3582785 3574437 3570626 3571491 3576200 3583150 3590468 3596734 
3062.670 3601377 3604760 3607966 3612153 3618032 3625405 3633281 3640253 
3066.527 3645033 3647037 3646680 3645122 3643794 3643740 3645221 3647498 
3070.385 3649189 3648717 3644991 3637792 3627830 3616359 3604947 3594674 
3074.242 3586188 3579321 3573498 3567956 3562026 3555319 3547752 3539324 
3078.100 3530265 3520660 3510749 3500741 3490981 3481775 3473520 3466446 
3081.957 3460543 3455593 3451155 3446549 3441290 3435034 3427738 3419654 
3085.814 3411357 3403531 3396908 3391900 3388537 3386170 3383623 3379281 
3089.672 3371642 3359665 3343328 3323881 3303737 3285984 3273876 3269650 
3093.529 3274214 3286647 3304601 3324854 3344348 3360854 3373706 3383690 
3097.387 3392499 3401933 3413191 3426233 3439670 3451322 3458940 3460849 
3101.244 3456664 3447311 3434836 3421640 3410014 3401484 3396665 3395221 
3105.102 3396212 3398249 3399884 3399651 3396379 3389115 3377561 3362088 
3108.959 3343803 3324554 3306505 3291516 3280937 3274971 3272954 3273376 
3112.816 3274739 3275754 3275923 3275236 3274168 3273025 3271787 3269839 
3116.674 3266463 3261075 3253612 3244825 3236214 3229444 3225995 3226398 
3120.531 3230296 3236164 3242024 3245904 3246458 3243388 3237487 3230524 
3124.389 3224599 3221609 3222615 3227566 3235181 3243288 3249561 3251962 
3128.246 3249565 3242592 3232442 3220899 3209863 3200492 3193051 3186957 
3132.104 3181158 3174615 3166795 3157772 3148216 3138954 3130891 3124453 
3135.961 3119820 3116717 3114814 3113516 3112091 3109718 3105419 3098437 
3139.818 3088484 3076124 3062898 3051214 3043742 3042687 3049202 3062811 
3143.676 3081486 3102109 3121173 3135630 3143468 3143950 3137648 3126137 
3147.533 3111701 3096941 3084579 3076836 3075354 3080649 3091925 3107038 
3151.391 3123002 3136450 3144721 3146388 3141823 3132875 3122447 3113494 
3155.248 3108216 3107429 3110589 3115996 3121545 3125361 3126394 3124485 
3159.105 3120303 3114868 3109250 3104068 3099550 3095598 3092138 3089363 
3162.963 3088000 3089082 3093777 3102827 3116150 3132599 3149914 3165293 
3166.820 3175846 3179305 3174600 3161968 3142964 3120078 3096353 3074889 
3170.678 3058525 3049516 3049184 3057717 3073842 3094843 3116908 3135723 
3174.535 3147498 3149838 3142663 3127984 3109738 3092470 3080311 3075782 
3178.393 3079469 3090028 3104996 3121415 3136774 3149259 3157932 3162315 
3182.250 3162482 3158591 3151334 3141699 3131178 3121583 3114457 3110870 
3186.107 3110855 3113474 3117185 3120195 3121262 3119929 3116846 3113426 
3189.965 3111465 3112411 3117185 3125658 3136915 3149214 3160663 3169519 
3193.822 3174685 3175890 3173900 3170133 3166528 3164784 3166151 3170963 
3197.680 3178791 3188518 3198878 3208579 3216906 3223402 3227980 3230691 
3201.537 3231525 3230470 3227634 3223211 3217613 3211362 3204968 3198659 
3205.395 3192512 3186384 3180169 3173853 3167721 3162141 3157560 3154206 
3209.252 3152103 3151206 3151527 3153349 3157295 3163984 3173854 3186777 
3213.109 3201894 3217715 3232474 3244600 3253002 3257405 3258144 3255895 
3216.967 3251495 3245698 3239234 3232789 3227195 3223312 3221917 3223295 
3220.824 3227196 3232747 3238682 3243689 3246634 3246955 3244610 3239859 
3224.682 3233312 3225704 3217952 3211083 3206106 3203937 3204853 3208309 
3228.539 3213089 3217280 3219107 3217616 3213037 3206945 3201783 3199839 
3232.396 3202640 3210087 3220704 3231951 3241315 3246975 3248457 3246571 
3236.254 3242973 3239495 3237497 3237584 3239548 3242578 3245664 3247860 
3240.111 3248487 3247091 3243739 3238727 3232800 3226884 3222065 3219014 
3243.969 3218009 3218553 3219625 3219983 3218645 3215151 3209939 3204010 
3247.826 3198519 3194403 3192070 3191277 3191476 3191916 3192345 3192709 
3251.684 3193370 3194593 3196565 3199167 3202111 3205200 3208399 3212008 
3255.541 3216323 3221479 3227166 3232623 3236834 3238848 3238300 3235465 
3259.398 3231248 3226853 3223319 3221199 3220448 3220547 3220880 3221047 
3263.256 3221235 3221932 3224057 3228284 3234870 3243506 3253330 3263168 
3267.113 3271857 3278522 3282873 3285087 3286058 3286787 3288514 3292236 
3270.971 3298390 3306864 3316772 3326683 3334921 3339888 3340635 3336962 
3274.828 3329623 3320004 3309917 3300994 3294413 3290598 3289315 3289855 
3278.686 3291339 3293023 3294598 3296049 3297836 3300690 3305214 3311977 
3282.543 3321034 3331933 3343781 3354977 3363714 3368175 3366942 3359333 
3286.400 3345668 3327309 3306382 3285396 3266683 3251933 3242098 3236987 
3290.258 3235912 3237691 3241321 3246025 3251466 3257556 3264429 3271974 
3294.115 3279801 3287160 3292992 3296223 3295957 3291801 3283999 3273492 
3297.973 3261797 3250568 3241406 3235261 3232367 3231945 3232607 3232598 
3301.830 3230486 3225474 3217787 3208620 3199832 3193515 3191485 3194739 
3305.688 3203402 3216516 3232481 3249247 3264754 3277205 3285331 3288614 
3309.545 3287309 3282279 3274767 3266345 3258292 3251503 3246420 3243087 
3313.402 3241235 3240550 3240999 3242537 3245245 3248964 3253471 3258193 
3317.260 3262646 3266472 3269634 3272460 3275343 3278586 3281966 3284806 
3321.117 3286341 3285918 3283489 3279833 3276356 3274556 3275628 3279743 
3324.975 3286067 3292901 3298463 3301320 3300806 3297202 3291419 3284495 
3328.832 3277119 3269560 3261582 3252778 3242843 3231800 3220123 3208420 
3332.689 3197584 3188496 3182216 3179605 3181442 3188036 3198958 3212982 
3336.547 3227970 3241426 3251112 3255596 3254743 3249692 3242365 3234879 
3340.404 3228793 3224778 3222663 3221723 3221271 3220830 3220366 3219777 
3344.262 3218870 3216944 3212954 3206029 3195849 3183139 3169713 3158018 
3348.119 3150435 3148576 3152715 3161652 3173110 3184345 3192952 3197316 
3351.977 3197106 3193150 3187182 3181474 3178263 3179061 3184550 3193973 
3355.834 3205320 3215796 3222318 3222485 3215225 3201152 3182502 3162462 
3359.691 3144342 3130711 3122720 3120039 3121329 3124576 3127995 3130231 
3363.549 3130679 3129056 3125587 3120374 3113804 3106333 3098905 3092718 
3367.406 3089253 3089820 3095324 3105856 3120589 3138019 3156175 3173117 
3371.264 3187212 3197498 3203802 3206670 3207288 3207130 3207737 3210195 
3375.121 3214940 3221504 3228711 3234821 3238234 3237839 3233530 3226393 
3378.979 3218339 3211646 3208361 3209735 3215929 3225846 3237646 3248968 
3382.836 3257728 3262261 3261911 3256805 3248005 3237013 3225595 3215366 
3386.693 3207601 3203000 3201723 3203522 3207982 3214727 3223645 3234803 
3390.551 3248309 3264070 3281584 3299783 3317230 3332431 3344325 3352702 
3394.408 3358149 3362285 3367067 3374383 3385512 3400929 3420360 3442935 
3398.266 3467765 3494152 3521578 3549627 3577689 3604668 3629025 3649096 
3402.123 3663813 3673151 3678584 3682978 3689986 3703115 3724590 3754788 
3405.980 3791923 3832634 3872822 3908848 3938085 3959564 3973872 3982649 
3409.838 3987843 3991599 3995495 4000705 4007843 4017063 4028041 4039939 
3413.695 4051518 4061425 4068580 4072434 4073172 4071676 4069028 4066134 
3417.553 4063113 4059403 4053749 4045100 4032993 4018089 4002228 3987854 
3421.410 3977250 3971918 3972024 3976427 3983138 3989898 3995040 3997643 
3425.268 3997739 3996075 3993792 3991940 3991336 3992433 3995281 3999566 
3429.125 4004598 4009398 4012904 4014180 4012853 4009317 4004870 4001542 
3432.982 4001520 4006511 4017195 4032663 4050839 4068753 4083422 4092747 
3436.840 4095990 4094060 4089120 4083957 4081064 4081846 4086401 4093546 
3440.697 4101254 4107372 4110573 4110481 4108044 4105031 4103402 4104656 
3444.555 4109395 4117033 4126140 4134863 4141522 4145002 4144994 4141745 
3448.412 4136017 4128690 4120481 4111975 4103526 4095287 4087269 4079320 
3452.270 4071063 4062063 4051770 4039886 4026448 4011703 3996226 3980535 
3456.127 3964971 3949685 3934903 3920976 3908788 3899748 3895387 3896859 
3459.984 3904285 3916290 3930242 3942656 3950400 3951326 3945387 3934275 
3463.842 3921170 3909676 3902585 3901432 3905911 3914410 3924339 3933126 
3467.699 3938497 3939009 3934012 3923623 3908559 3890071 3869930 3850020 
3471.557 3832385 3818664 3809801 3805823 3805926 3808673 3812614 3816532 
3475.414 3820014 3823249 3826980 3831990 3838760 3847106 3856210 3864725 
3479.271 3871305 3874893 3875122 3872535 3868374 3864378 3862261 3863317 
3483.129 3867995 3875896 3885872 3896324 3905725 3913021 3917770 3920149 
3486.986 3920762 3920284 3919202 3917680 3915695 3913163 3910322 3907623 
3490.844 3905872 3905831 3908138 3912917 3919869 3928249 3937416 3946597 
3494.701 3955520 3964006 3972030 3979617 3986577 3992539 3997241 4000541 
3498.559 4002437 4003238 4003266 4002889 4002191 4001182 3999791 3998174 
3502.416 3996545 3995582 3995893 3997945 4001832 4007116 4012938 4018272 
3506.273 4022391 4024924 4026109 4026640 4027300 4028666 4030867 4033510 
3510.131 4035975 4037855 4039090 4040219 4042279 4046335 4053022 4062353 
3513.988 4073397 4084874 4095363 4104193 4111516 4118543 4127057 4138889 
3517.846 4155013 4175347 4198387 4221735 4242479 4258038 4266597 4267542 
3521.703 4261263 4249068 4232755 4214363 4195944 4179287 4165926 4157123 
3525.561 4153455 4155092 4161350 4170949 4182221 4193243 4202275 4208064 
3529.418 4209901 4207856 4202588 4195119 4186457 4177733 4169585 4162420 
3533.275 4156361 4151335 4147353 4144503 4142890 4142709 4143900 4146053 
3537.133 4148510 4150351 4150821 4149495 4146615 4143012 4139804 4138103 
3540.990 4138426 4140713 4144182 4147821 4150869 4153243 4155606 4159200 
3544.848 4165256 4174306 4185787 4197886 4207901 4213195 4211762 4203190 
3548.705 4188609 4170597 4152471 4137170 4126652 4121315 4120025 4120537 
3552.563 4120202 4116602 4108237 4094888 4077414 4057458 4037004 4017743 
3556.420 4000886 3986820 3975303 3965489 3956289 3946555 3935283 3921746 
3560.277 3905571 3887081 3867088 3847202 3829562 3816505 3810040 3811245 
3564.135 3819435 3832372 3846233 3856382 3858502 3849744 3829318 3798956 
3567.992 3762367 3724238 3689245 3660740 3640309 3627589 3620861 3617620 
3571.850 3615491 3612878 3608931 3603699 3597532 3590782 3583558 3575593 
3575.707 3566486 3555983 3544351 3532219 3520570 3510373 3502114 3495528 
3579.564 3489631 3482969 3474205 3462578 3448242 3432351 3416567 3402672 
3583.422 3391784 3384243 3379383 3376075 3373033 3369322 3364627 3358971 
3587.279 3352452 3345106 3336361 3325391 3311504 3294529 3275218 3255176 
3591.137 3236529 3221486 3211592 3207576 3209051 3214987 3224062 3235108 
3594.994 3247119 3259377 3271201 3281508 3289032 3292394 3290278 3282063 
3598.852 3267977 3249212 3227815 3206220 3186766 3171375 3161182 3156429 
3602.709 3156413 3159747 3164470 3168635 3170630 3169433 3165128 3158761 
3606.566 3152075 3147119 3145345 3147180 3151736 3156853 3159752 3157795 
3610.424 3149319 3134178 3113712 3090400 3067243 3046891 3031089 3020398 
3614.281 3014319 3011523 3010496 3009700 3008001 3004640 2999373 2992247 
3618.139 2983776 2974790 2966376 2959879 2956509 2957281 2962749 2972901 
3621.996 2987177 3004578 3023711 3043046 3060908 3075544 3085665 3090069 
3625.854 3088348 3080488 3067174 3049508 3028728 3006069 2982624 2959237 
3629.711 2936840 2916535 2899658 2887582 2881372 2881424 2887224 2897194 
3633.568 2909142 2920701 2929835 2935291 2936454 2933063 2925130 2912347 
3637.426 2894518 2872008 2845950 2818869 2794082 2775256 2765067 2764513 
3641.283 2772221 2784929 2798292 2808318 2812352 2809861 2802121 2791689 
3645.141 2781426 2773472 2769106 2768378 2770724 2775124 2780608 2786130 
3648.998 2790509 2792564 2790914 2784661 2773297 2757155 2737231 2715150 
3652.855 2692500 2670758 2651106 2634271 2620904 2611326 2605773 2604035 
3656.713 2605401 2608836 2612901 2616658 2619640 2622377 2625890 2631414 
3660.570 2639480 2649583 2659813 2667553 2670101 2665627 2653771 2635742 
3664.428 2613983 2591172 2569643 2550776 2534905 2521710 2510734 2501769 
3668.285 2494975 2490821 2489432 2490561 2493087 2495502 2496324 2494725 
3672.143 2490715 2485344 2480133 2476490 2475023 2475347 2475846 2474525 
3676.000 2469519 2459947 2446364 2430615 2415196 2402707 2395042 2392918 
3679.857 2395967 2402965 2412379 2422601 2432207 2439698 2443474 2441886 
3683.715 2433357 2417230 2393976 2365824 2336219 2309265 2288663 2276670 
3687.572 2273436 2277377 2285670 2295441 2304471 2311929 2317714 2322210 
3691.430 2325703 2327930 2328706 2328302 2327725 2328997 2334169 2344473 
3695.287 2359265 2375765 2389399 2395367 2390147 2372765 2345409 2312580 
3699.145 2279861 2252138 2232268 2220836 2216538 2217100 2220585 2226035 
3703.002 2233342 2243114 2255725 2270769 2287163 2302927 2316131 2325178 
3706.859 2329280 2328524 2323804 2316653 2308814 2302083 2297744 2296534 
3710.717 2298179 2301634 2305076 2306935 2306187 2303092 2299334 2297536 
3714.574 2300544 2310356 2327390 2350214 2375622 2399815 2419128 2431097 
3718.432 2434914 2431589 2423173 2412415 2401693 2392771 2386361 2382191 
3722.289 2379445 2377050 2374191 2370655 2366667 2362828 2359791 2357766 
3726.146 2356418 2354906 2352304 2348035 2342398 2336510 2332062 2330558 
3730.004 2332602 2337782 2344429 2350665 2355059 2357534 2359507 2363489 
3733.861 2371853 2385996 2405254 2427183 2448152 2464655 2474364 2476845 
3737.719 2473292 2465852 2456461 2446289 2435285 2422719 2407810 2390284 
3741.576 2370729 2350681 2331800 2315935 2304308 2297810 2297012 2301989 
3745.434 2312732 2328602 2348080 2368799 2387359 2400318 2404760 2399599 
3749.291 2385827 2366897 2347749 2333604 2328571 2334683 2351227 2375232 
3753.148 2402250 2427639 2447419 2459376 2462989 2459301 2450458 2438985 
3757.006 2427206 2416942 2409216 2404255 2401543 2400195 2398998 2396853 
3760.863 2392773 2386555 2378552 2370003 2362718 2358821 2360047 2367460 
3764.721 2380596 2397863 2416643 2433860 2446864 2454031 2454801 2449894 
3768.578 2440690 2428885 2415963 2403216 2391594 2381784 2374253 2369307 
3772.436 2366821 2366362 2367070 2368261 2369452 2370909 2373534 2378508 
3776.293 2386873 2398808 2413300 2428304 2441116 2449192 2450966 2446232 
3780.150 2436108 2422841 2408950 2396887 2388432 2384630 2385671 2390961 
3784.008 2399242 2408492 2416409 2420649 2419519 2412265 2399637 2383621 
3787.865 2367066 2352954 2343589 2340029 2342135 2348700 2358019 2368475 
3791.723 2378526 2387114 2393397 2396634 2396250 2392231 2385302 2377058 
3795.580 2370037 2366906 2369874 2380002 2396503 2417147 2438476 2456785 
3799.438 2469044 2473536 2470003 2459861 2445383 2429291 2413939 2401116 
3803.295 2391576 2385461 2382451 2382024 2383784 2387527 2393075 2400263 
3807.152 2408540 2417166 2425192 2431735 2436282 2438871 2440242 2441615 
3811.010 2444102 2448538 2454885 2462273 2468982 2473103 2472672 2466469 
3814.867 2454272 2436994 2416776 2396645 2380052 2370307 2369900 2379940 
3818.725 2399661 2426528 2456360 2484329 2505717 2517125 2517212 2506742 
3822.582 2488120 2464752 2440019 2416645 2396599 2381062 2370601 2365499 
3826.439 2365463 2369723 2376748 2384484 2390703 2393681 2392760 2388620 
3830.297 2383192 2379102 2378912 2384221 2395405 2411385 2430063 2448800 
3834.154 2464979 2476313 2481203 2478923 2469740 2454944 2436843 2418379 
3838.012 2402388 2391130 2385431 2384724 2387114 2390525 2393135 2394534 
3841.869 2395221 2396929 2401222 2409054 2420107 2432868 2444948 2454085 
3845.727 2458621 2457985 2452628 2443778 2432934 2421545 2410839 2401969 
3849.584 2395684 2392658 2393113 2396830 2403098 2410869 2419070 2426872 
3853.441 2433976 2440577 2447025 2453591 2460197 2466404 2471458 2474723 
3857.299 2475915 2475083 2472577 2468786 2464086 2458839 2453281 2447889 
3861.156 2443431 2440698 2440354 2442723 2447443 2453594 2460175 2466355 
3865.014 2471679 2476354 2480784 2485357 2489984 2494118 2496874 2497355 
3868.871 2495194 2490678 2484664 2478454 2473127 2469674 2468419 2469547 
3872.729 2472901 2478118 2484484 2490785 2495304 2496044 2491233 2480165 
3876.586 2463452 2443269 2422953 2406167 2395869 2393481 2398772 2409750 
3880.443 2423665 2437690 2449683 2458483 2463722 2465790 2465313 2462968 
3884.301 2459396 2455261 2451347 2448320 2446677 2446537 2447624 2449405 
3888.158 2451238 2452966 2454709 2457158 2460862 2466373 2473572 2481611 
3892.016 2489221 2494869 2497246 2495723 2490415 2482291 2472816 2464047 
3895.873 2457909 2456117 2459618 2468543 2482017 2498342 2515248 2530612 
3899.730 2542676 2550612 2554326 2554366 2551400 2545941 2538092 2527786 
3903.588 2515168 2501130 2487353 2476357 2470688 2472490 2482632 2500317 
3907.445 2523435 2548836 2573168 2593669 2608562 2617264 2620152 2618356 
3911.303 2613152 2605788 2597159 2587831 2578014 2567576 2556294 2543930 
3915.160 2530471 2516286 2502019 2488738 2477561 2469345 2464487 2462867 
3919.018 2463881 2466701 2470470 2474490 2478076 2480899 2482338 2482010 
3922.875 2479572 2475195 2469669 2464419 2461410 2462478 2468969 2481151 
3926.732 2498090 2517859 2538019 2556165 2570379 2579509 2583328 2582072 
3930.590 2576400 2567355 2555955 2543256 2530489 2518514 2508044 2499278 
3934.447 2492085 2486107 2481001 2477018 2474781 2475653 2480760 2491006 
3938.305 2506338 2525570 2546305 2565722 2580852 2589571 2590816 2585101 
3942.162 2574054 2560393 2547021 2536657 2531159 2531216 2536208 2544638 
3946.020 2554450 2563893 2571852 2578234 2584073 2590816 2599793 2611483 
3949.877 2625142 2638900 2650161 2656614 2656765 2650547 2639220 2625124 
3953.734 2610947 2598922 2590672 2586785 2587179 2591021 2597273 2604736 
3957.592 2611843 2617248 2619511 2617646 2611345 2601153 2588482 2575262 
3961.449 2563519 2554837 2549912 2548503 2549387 2550976 2551580 2550104 
3965.307 2546107 2540336 2534124 2529430 2527910 2530779 2538078 2548608 
3969.164 2560115 2570011 2575891 2576751 2572978 2566438 2559818 2555613 
3973.021 2555135 2557917 2561969 2564392 2562644 2555710 2544469 2531783 
3976.879 2521273 2516551 2519598 2530389 2546856 2565643 2583031 2596141 
3980.736 2603552 2605514 2603432 2599609 2596133 2594706 2596105 2600278 
3984.594 2606490 2613654 2620687 2626796 2631714 2635546 2638641 2641322 
3988.451 2643479 2644604 2643796 2640009 2632770 2622429 2609992 2597513 
3992.309 2586737 2579221 2575437 2575023 2576798 2579567 2582498 2585484 
3996.166 2589007 2593877 2600494 2608673 2617526 2625737 2631905 2635195 
4000.023 2635271 2632426 
##END=
