##TITLE=3D-Fillies_PLA-Flex_Black_Filament_r5_ATR-Corrected
##JCAMP-DX=5.01  $$ Nicolet v. 1
##DATATYPE=INFRARED SPECTRUM
##ORIGIN=Curtin University
##OWNER=Nicolet
##LONGDATE=2024/07/18
##TIME=11:32:05
##SPECTROMETER/DATA SYSTEM=Nicolet iS50
##DATA PROCESSING=
Ratio against background
%Transmittance->Absorbance
ATR Correction
Truncated
ElementMultiply or ElementDivide
##COMMENTS=
Number of sample scans: 32
Collection length: 47.29 sec
Sample gain: 1.0
Background collected on: Thu Jul 18 11:30:44 2024 (GMT+08:00);
Number of background scans: 32
Background gain: 1.0
Sample spacing:  1.000
Number of scan points: 16672
Resolution points: 8192
Number of FFT points: 65536
Apodization: N-B strong;
Phase correction: Mertz;
Laser frequency: 15798.3 cm-1
Number of rejected sample scans: 0
Number of rejected background scans: 0
Bench serial number: AUP1200105;
##RESOLUTION=4.000
##XUNITS=1/CM
##YUNITS=ABSORBANCE
##FIRSTX=400.163452
##LASTX=4000.187744
##FIRSTY=0.035204
##MAXX=4000.187744
##MINX=400.163452
##MAXY=1.272500
##MINY=-0.002277
##XFACTOR=1.000000
##YFACTOR=1.000000E-008
##NPOINTS=7468
##DELTAX=0.482125
##ZPD=8192
##XYDATA=(X++(Y..Y))
400.163 3520398 3514897 3492705 3447673 3378205 3289096 3190221 3093707 
404.020 3010573 2947555 2906113 2882863 2871829 2866759 2863242 2859522 
407.877 2856297 2855539 2859417 2869123 2884502 2903769 2923816 2940291 
411.734 2948294 2942837 2920258 2879332 2822346 2755481 2688004 2630645 
415.591 2593276 2582556 2600240 2642621 2701036 2763703 2818254 2854433 
419.448 2866533 2854331 2823127 2782081 2742094 2713205 2702573 2713021 
423.305 2742737 2785789 2833794 2877824 2910568 2927800 2929203 2918026 
427.162 2900081 2881994 2869733 2867184 2875649 2893909 2918944 2946880 
431.019 2974220 2998379 3018344 3034244 3047120 3058020 3067436 3074894 
434.876 3079101 3078355 3071364 3057843 3039007 3017493 2996853 2980715 
438.733 2971848 2971460 2978907 2991876 3007097 3021115 3031199 3035876 
442.590 3035228 3030551 3023997 3017884 3014176 3014185 3018500 3027183 
446.447 3040091 3057057 3078043 3102863 3130884 3160594 3189501 3214363 
450.304 3231890 3239638 3237040 3225773 3209700 3193870 3183156 3180775 
454.161 3187305 3200474 3215883 3228263 3233120 3227957 3212956 3190822 
458.017 3165967 3143245 3126813 3119247 3121250 3131818 3148765 3169284 
461.874 3190596 3210302 3226710 3238807 3246575 3250458 3251270 3249810 
465.731 3246700 3242164 3236241 3228919 3220560 3211965 3204469 3199566 
469.588 3198525 3201859 3209070 3218649 3228448 3236275 3240490 3240461 
473.445 3236687 3230582 3224146 3219493 3218616 3223213 3234614 3253748 
477.302 3280952 3315694 3356307 3399956 3442820 3480775 3510241 3529092 
481.159 3537286 3536918 3531779 3526324 3524569 3529086 3540488 3557513 
485.016 3577757 3598629 3618450 3637193 3656705 3680308 3712108 3755870 
488.873 3814169 3887697 3975179 4073617 4179035 4287295 4394866 4499215 
492.730 4598841 4692885 4780647 4861110 4933110 4995477 5047651 5090246 
496.587 5125053 5154626 5181224 5205633 5226316 5239250 5238777 5219152 
500.444 5176414 5109856 5022536 4920700 4812181 4704400 4602656 4509210 
504.301 4423400 4342559 4263426 4183425 4101410 4017844 3934320 3852858 
508.158 3775224 3702486 3634969 3572460 3514519 3460797 3411149 3365652 
512.015 3324523 3287956 3256051 3228779 3205952 3187263 3172273 3160387 
515.871 3150798 3142430 3133973 3123909 3110807 3093630 3072108 3047012 
519.728 3020185 2994224 2971911 2955408 2945610 2941885 2942263 2944126 
523.585 2945174 2944192 2941453 2938453 2937273 2939533 2945715 2954920 
527.442 2965240 2974480 2981000 2984193 2984499 2982972 2980638 2977984 
531.299 2974795 2970319 2963780 2954777 2943493 2930632 2917107 2903742 
535.156 2891110 2879563 2869410 2861035 2854833 2851030 2849361 2849036 
539.013 2848803 2847374 2843885 2838245 2831042 2823227 2815466 2807726 
542.870 2799170 2788499 2774638 2757368 2737603 2717212 2698308 2682419 
546.727 2669920 2659930 2650788 2640889 2629422 2616741 2604233 2593633 
550.584 2586251 2582332 2580951 2580333 2578530 2574099 2566553 2556379 
554.441 2544788 2533143 2522587 2513735 2506735 2501364 2497253 2494115 
558.298 2491742 2490041 2488972 2488485 2488510 2488956 2489779 2490951 
562.155 2492547 2494733 2497795 2502105 2508058 2515951 2525851 2537552 
566.012 2550520 2564025 2577293 2589707 2600939 2611049 2620362 2629458 
569.869 2638954 2649521 2661746 2676152 2693111 2712768 2734962 2759224 
573.725 2784835 2811022 2837180 2862970 2888371 2913475 2938245 2962325 
577.582 2985046 3005606 3023541 3039049 3053251 3067979 3085313 3106891 
581.439 3133300 3163737 3196241 3228178 3257012 3281036 3299708 3313653 
585.296 3324308 3333345 3342161 3351484 3361254 3370654 3378319 3382614 
589.153 3381975 3375230 3361947 3342712 3319142 3293759 3269440 3248764 
593.010 3233332 3223300 3217312 3212868 3207107 3197583 3183020 3163600 
596.867 3140819 3116963 3094398 3074969 3059540 3047996 3039441 3032577 
600.724 3026134 3019108 3010933 3001410 2990650 2978963 2966831 2954873 
604.581 2943921 2934892 2928745 2926211 2927571 2932431 2939633 2947391 
608.438 2953588 2956265 2954117 2946887 2935531 2922004 2908865 2898566 
612.295 2892814 2892095 2895514 2901082 2906303 2908891 2907463 2901882 
616.152 2893218 2883346 2874276 2867509 2863620 2862167 2861927 2861441 
620.009 2859507 2855572 2849852 2843198 2836743 2831558 2828371 2827427 
623.866 2828514 2831081 2834405 2837805 2840894 2843779 2847292 2853054 
627.723 2863339 2880598 2906788 2942556 2986594 3035477 3083987 3126124 
631.579 3156361 3170926 3168656 3151171 3122262 3086889 3049959 3015385 
635.436 2985601 2961549 2943091 2929506 2919892 2913506 2909772 2908325 
639.293 2908882 2911223 2915035 2919932 2925306 2930368 2934193 2935906 
643.150 2934946 2931274 2925458 2918528 2911706 2906017 2902048 2899915 
647.007 2899401 2900256 2902367 2905778 2910474 2916082 2921653 2925758 
650.864 2926868 2923901 2916734 2906358 2894643 2883716 2875250 2869986 
654.721 2867632 2867167 2867408 2867533 2867318 2867042 2867177 2868010 
658.578 2869502 2871330 2873191 2875033 2877102 2879794 2883295 2887347 
662.435 2891136 2893612 2893816 2891420 2886852 2881211 2875862 2872022 
666.292 2870470 2871477 2875051 2881177 2890002 2901784 2916699 2934603 
670.149 2954946 2976941 2999875 3023450 3047867 3073698 3101456 3131175 
674.006 3162157 3193060 3222338 3248789 3272032 3292605 3311785 3331038 
677.863 3351519 3373646 3397013 3420599 3442983 3462834 3479113 3491332 
681.720 3499647 3504885 3508506 3512313 3518178 3527514 3540912 3558049 
685.577 3577824 3598964 3620596 3642770 3666462 3693255 3724606 3761229 
689.433 3802750 3847884 3895073 3943126 3991790 4041749 4094191 4150181 
693.290 4210113 4273559 4339594 4407402 4476812 4548504 4623812 4704135 
697.147 4790387 4882598 4979990 5081349 5185516 5291756 5399825 5509810 
701.004 5621795 5735591 5850670 5966153 6080848 6193205 6301213 6402416 
704.861 6494112 6573917 6640587 6694763 6739309 6779035 6819853 6867595 
708.718 6926953 7000962 7091088 7197892 7321711 7463254 7623672 7804391 
712.575 8006818 8232148 8481596 8756704 9059782 9394061 9763702 10173837 
716.432 10630786 11142805 11721151 12380979 13141759 14026512 15060349 
719.807 16268428 17674354 19299466 21163212 23283840 25677916 28356982 
723.182 31318926 34533064 37918720 41321068 44495408 47120280 48862172 
726.556 49487868 48966640 47484728 45358540 42914964 40409048 37997968 
729.931 35752444 33682956 31766576 29968212 28254366 26599726 24988546 
733.306 23413174 21871800 20366852 18903980 17491442 16139255 14857954 
736.681 13657333 12545401 11527831 10608044 9787385 9065456 8440083 7907203 
740.538 7460849 7093307 6795799 6559369 6375808 6238381 6141907 6082448 
744.395 6056619 6060946 6091572 6144198 6214306 6297455 6389255 6485229 
748.252 6580544 6669843 6747529 6808264 6847746 6863262 6853953 6820518 
752.109 6764675 6688522 6594199 6483924 6360189 6226114 6085466 5942404 
755.966 5800868 5664000 5533698 5410618 5294446 5184465 5080033 4980911 
759.823 4887286 4799646 4718481 4644085 4576341 4514743 4458390 4406075 
763.679 4356479 4308343 4260739 4213307 4166350 4120765 4077742 4038345 
767.536 4003141 3972039 3944362 3919169 3895704 3873693 3853386 3835319 
771.393 3819963 3807312 3796838 3787548 3778410 3768755 3758515 3748255 
775.250 3738885 3731288 3725991 3723035 3722068 3722633 3724426 3727493 
779.107 3732182 3739009 3748409 3760570 3775337 3792261 3810731 3830096 
782.964 3849823 3869559 3889261 3909221 3930047 3952648 3978072 4007305 
786.821 4041066 4079688 4123089 4170980 4223047 4279254 4340007 4406120 
790.678 4478678 4558653 4646572 4742097 4843750 4948705 5052757 5150469 
794.535 5235645 5302011 5344188 5358752 5345081 5305794 5246561 5175201 
798.392 5100430 5030296 4970978 4926094 4896604 4881363 4878042 4883982 
802.249 4896921 4915205 4937710 4963378 4990863 5018381 5043800 5065016 
806.106 5080403 5089242 5091801 5089273 5083404 5076150 5069309 5064390 
809.963 5062544 5064573 5070900 5081433 5095355 5110992 5125919 5137188 
813.820 5141972 5138188 5125066 5103394 5075237 5043465 5010919 4979796 
817.677 4951253 4925462 4901940 4880053 4859414 4840006 4822108 4805950 
821.533 4791495 4778243 4765300 4751711 4736689 4719923 4701596 4682301 
825.390 4662785 4643690 4625419 4608050 4591401 4575222 4559318 4543692 
829.247 4528707 4515026 4503605 4495528 4491740 4492773 4498531 4508190 
833.104 4520295 4533093 4544959 4554754 4562081 4567272 4571226 4575006 
836.961 4579606 4585754 4593935 4604457 4617653 4633827 4653227 4675817 
840.818 4701178 4728429 4756482 4784256 4811085 4836809 4861822 4886671 
844.675 4911719 4936741 4960805 4982434 5000064 5012575 5019777 5022539 
848.532 5022596 5022068 5022833 5025965 5031568 5038840 5046531 5053453 
852.389 5058852 5062643 5065181 5067005 5068480 5069710 5070656 5071467 
856.246 5072858 5076228 5083441 5096313 5115994 5142558 5174960 5211549 
860.103 5250810 5292153 5336316 5385248 5441564 5507792 5585836 5676874 
863.960 5781782 5901785 6039176 6197714 6382760 6601209 6861463 7173449 
867.817 7548585 7998992 8535609 9164803 9883759 10675675 11506256 12323530 
871.674 13062428 13654757 14042789 14192657 14102611 13802761 13346384 
875.048 12796244 12211081 11636011 11098514 10609484 10167558 9764698 
878.423 9391163 9038893 8702922 8381334 8074335 7783185 7509426 7254466 
882.280 7019331 6804620 6610477 6436696 6282800 6148277 6032677 5935594 
886.137 5856440 5794100 5746760 5711990 5687212 5670410 5660783 5659009 
889.994 5666947 5686859 5720396 5767801 5827592 5896954 5972507 6051289 
893.851 6131424 6212273 6294261 6378276 6465248 6555886 6650730 6750300 
897.708 6855266 6966276 7083820 7207803 7337396 7471028 7606712 7742413 
901.565 7876456 8007614 8135170 8258725 8378048 8493090 8604006 8711307 
905.422 8815866 8918890 9021821 9126235 9233918 9347078 9468506 9601771 
909.279 9750929 9920075 10112549 10330197 10572767 10837612 11119745 
912.654 11412071 11705804 11990794 12256110 12490600 12683964 12827858 
916.028 12917162 12950841 12932169 12868236 12768774 12644720 12506872 
919.403 12365010 12227529 12101669 11993683 11909223 11853334 11830199 
922.778 11842792 11892605 11979523 12102023 12257685 12443624 12657106 
926.153 12895657 13157123 13439339 13739721 14054850 14380220 14710236 
929.528 15038522 15358467 15663853 15949406 16211079 16446078 16652501 
932.902 16828894 16973912 17086172 17164486 17208202 17217592 17194012 
936.277 17139814 17057986 16951766 16824420 16679285 16519880 16350138 
939.652 16174342 15996839 15821581 15651564 15488587 15333328 15185776 
943.027 15045764 14913455 14789481 14674757 14570121 14475936 14391918 
946.402 14317279 14251046 14192414 14140972 14096673 14059572 14029521 
949.776 14005946 13987821 13973805 13962406 13952163 13941598 13929191 
953.151 13913305 13892335 13864851 13829996 13787773 13739024 13685288 
956.526 13628429 13570198 13511826 13454078 13397251 13341382 13286325 
959.901 13231735 13176982 13121034 13062590 13000259 12933072 12860766 
963.276 12784031 12704365 12623765 12544216 12467287 12393890 12324373 
966.651 12258636 12196388 12137213 12080581 12025712 11971515 11916625 
970.025 11859550 11799022 11734240 11665040 11591948 11516025 11438733 
973.400 11361774 11286958 11216176 11151285 11093968 11045580 11006922 
976.775 10978230 10959152 10948972 10946880 10952206 10964533 10983633 
980.150 11009300 11041080 11078050 11118798 11161467 11204048 11244573 
983.525 11281486 11313791 11341138 11363747 11382315 11397713 11410850 
986.899 11422497 11433259 11443687 11454265 11465681 11478704 11494088 
990.274 11512280 11533140 11555877 11579055 11601103 11620696 11637290 
993.649 11651311 11664005 11677026 11691777 11708935 11728194 11748329 
997.024 11767657 11784495 11797639 11806570 11811515 11813264 11812997 
1000.399 11812197 11812513 11815737 11823741 11838332 11861182 11893677 
1003.774 11937094 11992683 12061994 12147100 12250652 12375911 12526555 
1007.148 12706456 12919542 13169657 13460545 13796094 14180681 14619838 
1010.523 15121360 15696390 16360316 17132912 18036770 19093656 20318632 
1013.898 21712296 23252424 24886582 26528704 28062418 29353898 30274216 
1017.273 30726790 30670788 30131146 29190778 27968944 26595408 25188920 
1020.648 23844230 22627964 21580326 20719914 20049300 19560052 19236480 
1024.022 19058234 19002116 19043180 19155806 19314680 19495598 19676514 
1027.398 19838276 19965444 20046824 20076034 20051474 19976304 19857622 
1030.773 19705534 19531830 19348558 19166874 18996022 18842754 18711180 
1034.148 18602912 18517532 18453042 18406602 18374940 18354922 18343746 
1037.523 18339164 18339514 18343574 18350534 18359856 18371132 18383958 
1040.899 18398010 18412924 18428312 18443822 18459128 18473878 18487692 
1044.274 18500040 18510218 18517364 18520608 18519310 18513320 18503296 
1047.649 18490684 18477672 18466806 18460578 18461004 18469266 18485800 
1051.024 18510412 18542648 18581998 18628166 18680994 18740364 18805986 
1054.400 18877228 18953124 19032436 19113812 19196036 19278118 19359436 
1057.775 19439756 19519140 19597888 19676410 19755070 19834060 19913304 
1061.150 19992528 20071320 20149390 20226778 20304084 20382436 20463448 
1064.525 20548964 20640882 20741018 20850954 20972166 21106098 21254172 
1067.901 21417802 21598292 21796750 22014094 22251104 22508518 22787168 
1071.276 23087894 23411392 23757952 24127106 24517532 24927158 25353398 
1074.651 25793728 26245900 26708292 27179810 27659670 28147080 28640992 
1078.026 29140004 29642484 30146540 30650216 31151324 31647390 32135216 
1081.402 32610870 33069530 33505762 33913804 34288208 34624524 34919976 
1084.777 35174100 35389224 35570452 35725488 35863940 35996644 36134844 
1088.152 36289692 36472084 36692608 36961784 37290128 37688112 38165836 
1091.527 38732572 39396388 40163800 41039652 42027244 43128380 44343320 
1094.903 45670452 47105760 48641968 50267772 51967108 53718580 55495424 
1098.278 57265456 58991724 60633384 62147236 63490136 64621704 65507352 
1101.653 66120596 66444568 66471864 66203348 65646208 64812048 63715660 
1105.028 62374788 60810800 59050132 57126140 55080624 52964576 50837304 
1108.404 48764220 46813004 45048952 43530236 42303684 41401728 40840596 
1111.779 40620004 40723996 41122764 41775136 42631348 43635712 44729224 
1115.154 45851976 46945560 47955848 48835676 49547724 50066656 50380228 
1118.529 50489068 50405204 50149364 49748016 49230120 48624144 47955564 
1121.905 47245084 46507724 45752732 44984432 44203672 43409548 42600984 
1125.280 41777976 40942048 40096488 39245988 38396552 37555232 36730136 
1128.655 35930388 35165848 34446616 33782300 33181062 32648948 32189422 
1132.030 31803306 31488984 31242954 31060246 30934914 30860316 30829302 
1135.406 30834440 30868254 30923482 30993376 31071884 31153696 31234264 
1138.781 31309616 31376296 31431356 31472460 31498018 31507388 31500884 
1142.156 31479720 31445840 31401626 31349572 31292086 31231254 31168788 
1145.531 31105966 31043846 30983440 30926024 30873596 30829024 30796346 
1148.906 30780620 30787820 30824316 30896444 31010070 31170264 31381100 
1152.282 31645692 31966146 32343670 32778540 33270022 33816136 34413572 
1155.657 35057596 35741960 36459108 37200384 37956296 38716988 39472460 
1159.032 40212856 40928572 41610268 42249016 42836288 43364288 43826416 
1162.407 44217660 44534956 44777288 44945512 45041872 45069544 45032288 
1165.783 44934284 44780104 44574912 44324432 44034832 43712480 43363608 
1169.158 42994052 42609184 42213860 41812508 41409148 41007300 40609824 
1172.533 40218808 39835504 39460572 39094196 38736488 38387608 38047828 
1175.908 37717328 37396108 37083692 36779128 36481168 36188336 35899220 
1179.284 35612536 35327156 35042068 34756292 34468876 34179028 33886148 
1182.659 33589912 33290300 32987400 32681414 32372430 32060566 31746032 
1186.034 31429320 31111320 30793426 30477416 30165318 29859108 29560610 
1189.409 29271254 28992006 28723342 28465268 28217434 27979380 27750754 
1192.785 27531660 27322968 27126366 26944298 26779446 26634342 26510810 
1196.160 26409668 26330740 26273188 26235988 26218378 26220142 26241636 
1199.535 26283506 26346370 26430508 26535696 26661134 26805514 26966918 
1202.910 27142596 27328682 27519852 27709266 27888786 28049472 28182474 
1206.286 28279888 28335628 28346080 28310502 28231290 28113914 27966714 
1209.661 27800190 27626136 27456378 27301524 27169836 27066636 26994118 
1213.036 26951870 26937542 26947844 26979130 27027938 27090988 27165296 
1216.411 27248112 27337012 27430156 27526418 27625432 27727490 27833212 
1219.787 27943200 28057906 28177652 28302798 28434088 28572696 28720298 
1223.162 28878742 29049728 29234630 29434494 29650224 29882858 30133876 
1226.537 30405128 30698674 31016434 31359852 31729982 32127670 32554084 
1229.912 33011180 33502070 34030820 34602224 35220932 35890828 36614488 
1233.288 37392960 38225828 39111560 40047980 41032804 42063924 43139664 
1236.663 44258696 45419868 46621840 47862488 49138564 50445372 51776652 
1240.038 53124888 54481500 55837320 57182788 58508164 59803456 61058496 
1243.413 62262880 63406144 64478000 65468524 66368824 67171440 67871192 
1246.789 68465968 68957112 69349680 69651752 69873264 70024488 70114680 
1250.164 70151112 70138928 70081680 69982216 69843488 69669176 69463760 
1253.539 69232496 68980936 68714856 68440192 68163320 67891056 67630864 
1256.914 67390840 67179640 67006348 66880564 66811984 66810308 66884452 
1260.290 67041884 67287336 67622056 68042984 68542688 69109496 69728104 
1263.665 70380280 71045520 71701304 72323528 72886904 73365904 73736072 
1267.040 73975720 74067560 73999992 73767544 73370864 72816040 72113624 
1270.415 71277664 70324680 69272392 68138696 66940552 65693428 64410812 
1273.791 63104372 61784188 60459052 59136708 57823944 56526172 55247532 
1277.166 53990596 52756476 51544996 50355052 49184928 48032744 46896680 
1280.541 45775256 44667360 43572240 42489268 41417776 40356828 39305280 
1283.916 38261848 37225440 36195456 35172100 34156344 33149812 32154444 
1287.292 31172230 30204874 29253924 28320802 27407214 26515204 25647366 
1290.667 24806774 23996756 23220580 22481290 21781378 21122650 20506128 
1294.042 19931956 19399426 18907074 18452852 18034284 17648658 17293294 
1297.417 16965510 16662766 16382618 16122802 15881242 15656142 15445912 
1300.792 15249228 15064931 14891921 14729165 14575519 14429879 14291118 
1304.168 14158171 14030147 13906316 13786203 13669592 13556542 13447374 
1307.543 13342610 13242868 13148755 13060708 12979005 12903762 12835106 
1310.918 12773305 12718940 12672980 12636688 12611571 12599111 12600690 
1314.293 12617491 12650357 12699874 12766148 12848811 12946749 13057916 
1317.669 13179229 13306487 13434330 13556407 13665496 13753812 13813402 
1321.044 13836731 13817431 13751020 13635638 13472505 13265853 13022596 
1324.419 12751387 12461594 12162237 11861067 11564165 11275859 10998857 
1327.794 10734801 10484512 10248443 10026800 9819780 9627467 9449929 9287065 
1331.652 9138615 9004137 8883068 8774810 8678879 8595026 8523181 8463363 
1335.509 8415422 8378892 8352834 8335925 8326769 8324105 8327238 8335921 
1339.367 8350433 8371064 8397949 8430728 8468746 8511149 8557359 8607385 
1343.224 8661955 8722432 8790518 8867873 8955738 9054650 9164327 9283500 
1347.082 9410007 9540774 9671976 9799409 9918939 10027135 10121856 10202617 
1350.939 10270731 10328988 10381144 10431229 10482947 10539195 10601874 
1354.314 10671948 10749506 10833949 10924179 11018711 11115915 11214107 
1357.689 11311901 11408217 11502519 11594649 11684710 11772819 11858958 
1361.065 11942800 12023723 12100906 12173374 12240104 12300130 12352470 
1364.440 12396117 12430112 12453483 12465374 12465063 12452094 12426325 
1367.815 12387970 12337641 12276439 12205970 12128250 12045716 11961068 
1371.190 11877034 11796276 11721262 11654287 11597490 11552860 11522264 
1374.566 11507239 11508911 11527769 11563702 11616003 11683614 11765353 
1377.941 11860158 11967231 12086142 12216783 12359446 12514721 12683503 
1381.316 12866959 13066278 13282512 13516270 13767366 14034612 14315647 
1384.691 14606920 14903757 15200651 15491492 15770081 16030522 16267724 
1388.067 16477643 16657557 16805860 16922112 17006458 17059570 17082248 
1391.442 17075414 17039878 16976532 16886266 16770124 16629328 16465361 
1394.817 16279973 16075277 15853754 15618402 15372829 15121317 14868897 
1398.192 14621192 14384235 14164343 13967898 13801427 13671583 13585396 
1401.568 13550295 13573951 13664010 13827346 14069176 14392012 14794540 
1404.943 15270616 15808490 16390575 16993758 17590548 18150928 18644806 
1408.318 19044770 19328654 19481576 19496962 19376660 19129984 18772132 
1411.693 18322314 17801886 17232774 16636117 16031188 15434413 14858761 
1415.069 14313130 13802426 13327871 12887788 12478553 12095658 11734518 
1418.444 11391125 11062283 10745706 10439871 10143865 9857181 9579617 
1421.819 9311268 9052423 8803661 8565848 8340010 8127368 7929171 7746596 
1425.677 7580723 7432503 7302683 7191869 7100340 7027992 6974197 6937796 
1429.534 6917131 6910275 6915275 6930406 6954368 6986272 7025606 7072025 
1433.391 7125222 7184773 7250116 7320526 7395296 7473687 7555073 7639057 
1437.249 7725496 7814586 7906878 8003340 8105209 8213990 8331195 8458369 
1441.106 8596932 8748212 8913488 9094060 9291179 9506056 9739694 9992827 
1444.964 10265935 10559393 10873669 11209413 11567414 11948166 12351102 
1448.339 12773708 13210498 13652505 14087200 14499298 14872402 15191454 
1451.714 15445410 15629666 15747444 15809523 15832385 15835191 15836349 
1455.089 15850358 15885483 15942416 16014113 16086894 16142616 16161691 
1458.465 16126348 16023627 15847744 15601285 15295038 14946398 14576502 
1461.840 14206605 13854671 13532791 13246043 12992653 12765570 12554668 
1465.215 12349081 12139369 11918866 11684377 11436144 11177268 10912856 
1468.590 10648906 10391308 10144876 9912787 9696265 9494776 9306379 9128451 
1472.448 8958073 8792551 8629567 8467112 8303459 8137034 7966466 7790515 
1476.305 7608382 7419651 7224399 7023185 6816873 6606647 6393843 6179997 
1480.163 5966713 5755599 5548207 5345888 5149718 4960553 4779020 4605638 
1484.020 4440853 4285151 4138951 4002582 3876238 3759935 3653498 3556614 
1487.877 3468830 3389633 3318479 3254843 3198317 3148727 3106128 3070909 
1491.735 3043642 3024963 3015401 3015255 3024550 3043268 3071368 3109126 
1495.592 3157233 3216758 3289115 3375972 3479307 3601683 3746491 3918250 
1499.450 4122222 4363539 4645440 4967129 5321562 5694203 6063102 6400686 
1503.307 6677294 6865722 6945920 6908844 6758359 6510742 6191499 5830506 
1507.165 5456725 5093966 4758614 4459595 4199718 3977867 3790850 3634759 
1511.022 3505618 3399566 3312827 3241838 3183333 3134644 3093704 3059087 
1514.879 3029786 3004946 2983763 2965432 2949328 2935105 2922936 2913296 
1518.737 2906911 2904378 2905989 2911674 2920965 2933356 2948338 2965711 
1522.594 2985516 3007926 3033126 3061073 3091426 3123536 3156476 3189212 
1526.452 3220747 3250206 3276824 3300180 3319926 3336009 3348453 3357399 
1530.309 3363002 3365411 3364865 3361589 3356010 3348793 3340777 3333022 
1534.167 3326520 3322044 3319960 3320115 3321911 3324431 3326603 3327368 
1538.024 3325798 3321124 3312686 3299939 3282471 3260028 3232740 3201177 
1541.881 3166497 3130320 3094574 3061127 3031474 3006516 2986293 2970204 
1545.739 2957171 2946011 2935745 2925795 2916016 2906544 2897597 2889294 
1549.596 2881554 2874099 2866672 2859113 2851452 2843896 2836720 2830121 
1553.454 2824038 2818220 2812307 2805999 2799289 2792485 2786197 2781126 
1557.311 2777821 2776438 2776647 2777635 2778343 2777765 2775290 2770874 
1561.168 2765102 2759036 2753942 2751050 2751290 2755052 2762194 2772057 
1565.026 2783731 2796262 2808980 2821692 2834738 2848958 2865480 2885497 
1568.883 2910038 2939835 2975297 3016524 3063498 3116112 3174226 3237616 
1572.741 3305881 3378247 3453457 3529705 3604647 3675549 3739475 3793654 
1576.598 3835686 3863806 3876906 3874594 3857096 3825247 3780418 3724588 
1580.456 3660236 3590222 3517475 3444668 3373933 3306745 3243967 3185908 
1584.313 3132797 3084808 3042254 3005529 2974964 2950671 2932425 2919682 
1588.170 2911676 2907591 2906695 2908472 2912519 2918515 2926070 2934709 
1592.028 2943815 2952729 2960945 2968101 2974049 2978809 2982501 2985246 
1595.885 2987131 2988348 2989135 2989926 2991299 2993888 2998269 3004834 
1599.743 3013760 3024963 3038240 3053400 3070307 3089032 3109692 3132477 
1603.600 3157559 3184998 3214749 3246719 3280791 3316890 3354921 3394710 
1607.458 3435937 3478013 3520125 3561131 3599803 3634967 3665686 3691491 
1611.315 3712376 3728873 3741781 3751965 3760125 3766597 3771397 3774386 
1615.172 3775524 3775092 3773817 3772739 3772954 3775278 3779950 3786606 
1619.030 3794454 3802618 3810442 3817754 3824867 3832533 3841601 3852808 
1622.887 3866631 3883163 3902208 3923329 3945988 3969577 3993415 4016880 
1626.745 4039435 4060712 4080693 4099610 4118033 4136572 4155872 4176235 
1630.602 4197789 4220313 4243471 4266855 4290149 4313223 4336172 4359197 
1634.459 4382675 4406905 4432032 4457861 4483877 4509261 4533067 4554613 
1638.317 4573682 4590722 4606818 4623320 4641568 4662286 4685523 4710563 
1642.174 4736248 4761524 4785710 4808776 4831277 4854002 4877726 4902860 
1646.032 4929469 4957319 4986095 5015554 5045608 5076212 5107426 5139256 
1649.889 5171834 5205444 5240593 5277956 5318129 5361424 5407643 5456138 
1653.747 5506064 5556779 5608178 5660728 5715403 5773223 5835047 5901308 
1657.604 5972212 6047792 6128315 6214277 6306370 6405218 6511152 6624216 
1661.461 6744268 6871238 7005561 7148046 7299878 7462157 7635634 7820654 
1665.319 8017377 8226146 8447884 8684032 8936314 9205897 9492715 9794910 
1669.176 10108845 10429578 10751574 11069346 11378004 11673316 11951726 
1672.552 12210287 12446871 12660483 12851568 13022053 13175122 13314454 
1675.927 13443691 13565831 13683453 13799036 13915759 14037794 14170302 
1679.302 14318757 14487998 14681429 14900948 15147050 15419994 15720212 
1682.677 16048785 16406950 16795392 17213392 17658828 18128556 18619684 
1686.052 19130578 19661376 20213906 20790988 21395568 22030426 22698126 
1689.428 23401246 24142880 24926470 25755432 26632900 27561492 28544080 
1692.803 29584690 30689604 31867444 33128210 34481136 35932456 37484268 
1696.178 39135592 40885536 42737736 44703504 46802848 49061856 51507788 
1699.553 54163404 57042904 60151152 63486896 67048164 70836720 74858720 
1702.929 79119976 83617512 88329640 93208560 98177680 103134504 107957256 
1706.304 112512864 116663600 120273504 123217144 125393176 126740312 
1709.197 127250040 126968752 125986504 124418328 122384264 119996680 
1712.090 117355112 114546800 111648192 108724904 105830016 103002488 
1714.983 100267216 97637920 95121744 92724144 90451776 88312904 86315480 
1718.358 84464200 82758632 81193080 79758144 78443344 77239104 76137624 
1721.734 75132312 74216280 73380896 72615024 71905256 71237152 70596608 
1725.109 69970808 69348608 68720256 68076864 67410096 66712136 65976016 
1728.484 65195900 64367224 63486528 62551080 61558676 60507576 59396808 
1731.859 58226548 56998444 55715912 54383904 53008556 51596648 50154800 
1735.235 48688960 47204028 45703688 44190772 42667812 41137664 39604096 
1738.610 38072096 36547676 35037428 33547732 32084268 30651662 29253652 
1741.985 27893480 26574340 25299690 24073228 22898700 21779552 20718620 
1745.360 19717820 18778192 17899868 17082026 16323350 15621795 14975139 
1748.736 14380898 13836522 13339335 12886538 12475277 12102629 11765973 
1752.111 11463059 11192179 10951981 10740971 10557087 10397114 10256704 
1755.486 10130551 10013111 9899390 9785546 9669108 9548794 9424043 9294505 
1759.344 9159858 9019758 8874181 8723657 8569397 8413099 8256611 8101471 
1763.201 7948542 7798083 7649774 7503181 7357914 7213866 7071229 6930506 
1767.058 6792332 6657511 6526837 6401123 6280981 6166772 6058499 5955768 
1770.916 5857984 5764457 5674591 5588016 5504440 5423686 5345431 5269281 
1774.773 5194771 5121532 5049450 4978509 4908812 4840234 4772283 4704275 
1778.631 4635364 4565099 4493579 4421588 4350370 4281120 4214651 4151057 
1782.488 4089818 4030139 3971412 3913596 3857228 3803207 3752348 3704960 
1786.345 3660728 3618675 3577584 3536250 3493914 3450388 3405997 3361490 
1790.203 3317802 3275935 3236742 3200646 3167510 3136510 3106168 3074838 
1794.060 3041119 3004541 2965644 2926271 2888743 2855313 2827312 2804843 
1797.918 2786635 2770717 2754986 2737859 2718610 2697268 2674253 2650129 
1801.775 2625313 2600226 2575461 2551950 2530897 2513491 2500389 2491376 
1805.633 2485292 2480285 2474350 2465915 2454232 2439405 2422188 2403587 
1809.490 2384480 2365577 2347306 2330017 2313886 2298973 2284877 2270776 
1813.347 2255390 2237445 2216106 2191578 2165258 2139718 2118135 2103569 
1817.205 2098073 2102334 2115347 2134806 2157606 2180622 2201170 2217348 
1821.062 2228193 2233476 2233551 2229000 2220439 2208314 2193017 2175129 
1824.920 2155589 2135970 2118270 2104486 2095924 2092629 2092939 2093952 
1828.777 2092127 2084708 2070521 2050617 2027808 2005590 1986678 1972028 
1832.635 1960330 1948695 1933900 1913815 1888297 1859444 1830885 1806341 
1836.492 1788487 1777971 1773383 1771912 1770390 1766245 1758285 1746813 
1840.349 1733237 1719649 1707958 1699591 1695166 1694400 1696178 1698962 
1844.207 1700879 1700219 1695530 1685943 1671205 1651647 1628161 1602340 
1848.064 1576270 1552544 1534038 1523227 1521632 1529358 1544503 1563586 
1851.922 1582345 1596573 1603526 1602591 1595163 1584192 1572828 1563684 
1855.779 1557740 1554646 1552937 1550906 1547180 1540998 1532128 1520636 
1859.636 1506603 1490387 1472678 1455027 1439800 1429823 1427467 1433824 
1863.494 1447885 1466482 1484904 1498209 1502576 1496547 1481276 1460262 
1867.351 1438153 1419383 1406937 1401681 1402445 1406766 1411731 1415229 
1871.209 1416301 1415366 1413572 1412313 1412109 1412617 1412343 1409401 
1875.066 1402071 1389599 1372400 1351895 1329957 1308077 1286988 1266551 
1878.924 1246064 1225161 1204126 1184388 1168140 1157647 1154371 1158449 
1882.781 1168661 1182608 1197710 1212006 1224441 1235127 1244622 1253804 
1886.638 1263050 1272510 1281900 1291143 1300436 1310472 1322067 1336037 
1890.496 1352410 1370502 1388581 1404371 1415299 1419328 1415343 1403722 
1894.353 1386275 1366167 1347101 1332594 1324977 1324892 1331112 1341024 
1898.211 1351535 1359866 1364421 1365030 1362618 1358655 1354421 1350621 
1902.068 1347069 1343246 1338017 1330505 1319950 1306097 1289226 1270471 
1905.926 1251801 1236036 1226069 1224269 1231270 1245521 1262954 1278195 
1909.783 1285799 1282022 1265811 1239053 1205606 1170241 1136961 1108740 
1913.640 1087316 1073635 1068720 1073553 1088676 1113549 1145428 1180226 
1917.498 1212723 1238836 1256530 1266625 1272051 1276285 1281432 1287331 
1921.355 1291242 1289458 1278580 1257639 1228364 1194991 1162598 1136084 
1925.213 1118589 1111589 1114732 1126572 1144530 1165402 1185323 1200754 
1929.070 1209315 1211434 1210646 1213350 1226390 1254325 1296271 1345591 
1932.927 1390602 1419096 1422356 1399580 1358182 1312069 1276514 1263154 
1936.785 1275671 1309797 1355052 1399674 1434585 1455976 1464864 1465091 
1940.642 1459711 1449997 1434416 1411154 1379873 1343885 1308999 1282187 
1944.500 1268200 1267161 1274162 1281148 1279632 1265012 1238005 1206019 
1948.357 1180017 1172171 1191363 1241138 1318323 1414470 1517638 1615872 
1952.215 1698925 1760594 1797912 1811249 1801755 1770956 1719295 1647534 
1956.072 1557051 1452698 1342092 1236492 1147185 1083136 1046505 1032265 
1959.929 1028773 1023010 1004820 973017 935551 907500 904568 937346 1005262 
1964.269 1097100 1192969 1271583 1316462 1321357 1290716 1237610 1177512 
1968.126 1123083 1078946 1042054 1003206 952356 883112 797047 703920 620740 
1972.466 566430 557159 600261 692451 818374 955593 1079550 1171745 1224136 
1976.806 1242435 1243422 1248253 1273626 1326945 1402662 1487111 1563212 
1980.663 1617753 1644170 1643807 1623325 1592123 1557727 1524807 1493595 
1984.521 1462306 1428017 1389013 1345221 1298257 1249927 1202449 1157109 
1988.378 1115636 1079508 1051296 1033134 1026524 1030764 1042819 1057380 
1992.235 1068521 1071092 1062386 1041775 1011973 975631 936086 894755 852316 
1996.575 808622 764476 721625 683952 655650 640995 641870 657661 684717 
2000.915 717342 748945 773836 787578 788357 776009 752560 721954 690842 
2005.254 668021 664853 692922 761278 872788 1022216 1195672 1373827 1535202 
2009.594 1662240 1743160 1774050 1756111 1693647 1590797 1451361 1279481 
2013.451 1083736 878224 684216 524809 420398 380877 402288 466121 546076 
2017.791 614912 654704 660939 643155 619219 608751 624140 668530 735460 
2022.130 813352 890680 960780 1022605 1079940 1137020 1197006 1258607 
2025.988 1317964 1367492 1399063 1403818 1374317 1305207 1196193 1052661 
2029.845 887846 719700 568859 452421 379787 350526 355951 383189 421071 
2034.185 462950 508503 560038 620104 687261 757713 827539 896914 971176 
2038.524 1060045 1172159 1309339 1462062 1611133 1731663 1802471 1813289 
2042.382 1769152 1688047 1593895 1507478 1440069 1390350 1348768 1303437 
2046.239 1248667 1187837 1133092 1099812 1100098 1136347 1200631 1276763 
2050.097 1347051 1397687 1422870 1424020 1408411 1385704 1365354 1354477 
2053.954 1357338 1374556 1403791 1439471 1475370 1504321 1521121 1522816 
2057.812 1509796 1485420 1454945 1423509 1394940 1370185 1347900 1325201 
2061.669 1299282 1268971 1235504 1202692 1176596 1163672 1170409 1200869 
2065.526 1256126 1332845 1423611 1517179 1601061 1664020 1698895 1704594 
2069.384 1686511 1654758 1621396 1596473 1586053 1590468 1606010 1626577 
2073.241 1646605 1662923 1675064 1684438 1693300 1702979 1713819 1724954 
2077.099 1735807 1746098 1756542 1768066 1781367 1795758 1809371 1819032 
2080.956 1821444 1813683 1794146 1762525 1719975 1668595 1611359 1551463 
2084.813 1492654 1438833 1393748 1360524 1341498 1337049 1346084 1365069 
2088.671 1388788 1410408 1422794 1419633 1397399 1356347 1301585 1242137 
2092.528 1189522 1154581 1144753 1161437 1199702 1249442 1298950 1338331 
2096.386 1362882 1373768 1377153 1380800 1391451 1412031 1441173 1474199 
2100.243 1505228 1529048 1542865 1546222 1541037 1529906 1515612 1499910 
2104.101 1483707 1467217 1450283 1432933 1415989 1401054 1390593 1387182 
2107.958 1392889 1408175 1431113 1457391 1481237 1496627 1499536 1488715 
2111.815 1466479 1437484 1407461 1381010 1360973 1348011 1341266 1339324 
2115.673 1340668 1343535 1345122 1340973 1325888 1294804 1245786 1181537 
2119.530 1110517 1044847 997430 977271 986352 1018588 1061875 1102120 
2123.388 1127727 1132827 1117481 1085717 1041834 987416 920745 838077 737562 
2127.727 622042 500872 387724 297123 239509 217397 225159 251601 284105 
2132.067 313955 338028 359967 386160 422997 472410 531582 593937 652314 
2136.406 701717 740962 772122 799113 824315 848147 867832 879078 876928 
2140.746 858289 822137 770785 708802 642751 579097 522928 475565 434058 
2145.086 391537 338800 268025 176507 69169 -41372 -138119 -203874 -227659 
2149.425 -206381 -146934 -61850 34155 128940 213673 283163 332612 356395 
2153.765 347170 299232 212078 94640 -34112 -146100 -210897 -202158 -104905 
2158.104 80732 337934 638831 948211 1232280 1460640 1610077 1665290 1622470 
2162.444 1491872 1299295 1082611 885443 743560 676023 677900 723395 775394 
2166.784 799174 773936 699890 595082 488704 408836 374653 390987 450152 
2171.123 535926 631247 721645 798266 855394 888720 892858 863146 797146 
2175.463 699193 581275 461184 357387 283314 242363 227433 223858 216576 
2179.802 195626 161835 125826 105442 117341 171365 265908 388800 521014 
2184.142 644078 744498 817980 868447 905413 939526 979692 1029995 1090678 
2188.482 1158230 1227542 1292707 1348229 1388025 1405752 1395289 1351316 
2192.339 1270892 1155224 1010044 846518 678595 522410 391750 297176 243461 
2196.679 230155 251779 300088 365323 438591 511846 579484 636867 681136 
2201.018 710234 723934 723924 714384 701180 691869 692690 707931 737941 
2205.358 779648 827340 875461 920200 961575 1002719 1048854 1104736 1172152 
2209.698 1247794 1324212 1390216 1434732 1449260 1430619 1382087 1313085 
2213.555 1236956 1168650 1121147 1103335 1117632 1160409 1222491 1291437 
2217.412 1354322 1400937 1425184 1426963 1410722 1384590 1357581 1337469 
2221.270 1328961 1333078 1346963 1365508 1382421 1392370 1392201 1381833 
2225.127 1364267 1345277 1331412 1328866 1340794 1366816 1402270 1439062 
2228.985 1467817 1480360 1471572 1440930 1392287 1332815 1270687 1213418 
2232.842 1166131 1131191 1108315 1095601 1090551 1090757 1094483 1101028 
2236.699 1110178 1122429 1138250 1157681 1179828 1202838 1223789 1239694 
2240.557 1248239 1249621 1246159 1242981 1246213 1261514 1292045 1337409 
2244.414 1393304 1452744 1507605 1550786 1577491 1586235 1578811 1559905 
2248.272 1535991 1514487 1501923 1503062 1519119 1547570 1582173 1615052 
2252.129 1638583 1648497 1645343 1634306 1623538 1620734 1629839 1649421 
2255.987 1672642 1690781 1695760 1684267 1658275 1624199 1590105 1562071 
2259.844 1542299 1528898 1517538 1504456 1488342 1471600 1459122 1456365 
2263.701 1466785 1490812 1525668 1566902 1610002 1651467 1689238 1722147 
2267.559 1748711 1767465 1777047 1777294 1770092 1759504 1750704 1748242 
2271.416 1754343 1768225 1786454 1805116 1821279 1834743 1847784 1864203 
2275.274 1886841 1916165 1949533 1981956 2008043 2024064 2029470 2026979 
2279.131 2021673 2019164 2024025 2038621 2062724 2094207 2129669 2165367 
2282.989 2197589 2223219 2239701 2245477 2240136 2224593 2201086 2172697 
2286.846 2142662 2113939 2088403 2066887 2049168 2034595 2022473 2012522 
2290.703 2004954 2000535 2000026 2003887 2011680 2021988 2032340 2039842 
2294.561 2041653 2036222 2023601 2005862 1986621 1969874 1958845 1954962 
2298.418 1957298 1963123 1968981 1971982 1970934 1966582 1961177 1957287 
2302.276 1956670 1959873 1965832 1972970 1979768 1985471 1990217 1994616 
2306.133 1999078 2003371 2006668 2008039 2007038 2004321 2001391 2000169 
2309.990 2002094 2007572 2015741 2025077 2033988 2041660 2048186 2054496 
2313.848 2061528 2069761 2079110 2088933 2098809 2108978 2120369 2134391 
2317.705 2152046 2173674 2198754 2226498 2256595 2289780 2327474 2370897 
2321.563 2419240 2468699 2512025 2539915 2543450 2516936 2459788 2377005 
2325.420 2278164 2174923 2078464 1996973 1934472 1890566 1861692 1842754 
2329.278 1829091 1817689 1807485 1798843 1792650 1789443 1788987 1790333 
2333.135 1792331 1794102 1795379 1796552 1798223 1800871 1804512 1808667 
2336.992 1812500 1815216 1816316 1815894 1814596 1813226 1812542 1812884 
2340.850 1814102 1815353 1815671 1814133 1810382 1804804 1798630 1793475 
2344.707 1790965 1792188 1797247 1805244 1814447 1822887 1828804 1831176 
2348.565 1829880 1825613 1819481 1812777 1806545 1801509 1798041 1796244 
2352.422 1795970 1796917 1798563 1800297 1801459 1801542 1800378 1798086 
2356.280 1795069 1791797 1788357 1784597 1779961 1773821 1765777 1755886 
2360.137 1744647 1732928 1721277 1709892 1698250 1685435 1670594 1653505 
2363.994 1634829 1616435 1600671 1589941 1585918 1589188 1598965 1613552 
2367.852 1630777 1648498 1665033 1679358 1691113 1700383 1707684 1713719 
2371.709 1719325 1725261 1731855 1738980 1745780 1751007 1753219 1751430 
2375.567 1745501 1736384 1725879 1716139 1708959 1705212 1704701 1706192 
2379.424 1708085 1708888 1707662 1704319 1699242 1693137 1686571 1679996 
2383.281 1673619 1667761 1662952 1659949 1659497 1662058 1667495 1675049 
2387.139 1683506 1691572 1698284 1703486 1707612 1711699 1716939 1724340 
2390.996 1734345 1746821 1761053 1775840 1789764 1801250 1808974 1812026 
2394.854 1810033 1803501 1793672 1782394 1771517 1762647 1756635 1753489 
2398.711 1752459 1752383 1752186 1751090 1748692 1744909 1739750 1733188 
2402.569 1725329 1716554 1707783 1700547 1696646 1697698 1704349 1716011 
2406.426 1730531 1744946 1756083 1761668 1760836 1754395 1744315 1732950 
2410.283 1722215 1713011 1704998 1697030 1687639 1675702 1660749 1643345 
2414.141 1624875 1607268 1592770 1583524 1581223 1586863 1600554 1621354 
2417.998 1647334 1675984 1704457 1730211 1751261 1766394 1775107 1777525 
2421.856 1773913 1764904 1751200 1733786 1714123 1694007 1675470 1660570 
2425.713 1650932 1647627 1650788 1659775 1673040 1688494 1703769 1716459 
2429.571 1724850 1728098 1726722 1722439 1717745 1715186 1716296 1721044 
2433.428 1727589 1732759 1733103 1726246 1711809 1691801 1670173 1651714 
2437.285 1640738 1639964 1649912 1669231 1695180 1724546 1754350 1782217 
2441.143 1806269 1825183 1837826 1843368 1841541 1832654 1817833 1798988 
2445.000 1778475 1758888 1742651 1731904 1728084 1731960 1743184 1760391 
2448.858 1781074 1802098 1820072 1832447 1837979 1837060 1831520 1823855 
2452.715 1816385 1810426 1805911 1801651 1795984 1787428 1775493 1760577 
2456.573 1743920 1727184 1711810 1698996 1689515 1684011 1682942 1686634 
2460.430 1694824 1706381 1719245 1730499 1737098 1736733 1728488 1713472 
2464.287 1694337 1674891 1658909 1649360 1647608 1653275 1664715 1679406 
2468.145 1694795 1708630 1719213 1725519 1726912 1722899 1713327 1698428 
2472.002 1678991 1656529 1633331 1612002 1594994 1583889 1578997 1579130 
2475.860 1582010 1585107 1586457 1585400 1582950 1581134 1582225 1587559 
2479.717 1597015 1608811 1620278 1629106 1634381 1637261 1640653 1648030 
2483.574 1661970 1682889 1708361 1733822 1753785 1763669 1761130 1746850 
2487.432 1724082 1697735 1672807 1653318 1641379 1637434 1640456 1648801 
2491.289 1660745 1674817 1690060 1705665 1721017 1735344 1747739 1757157 
2495.147 1762463 1762896 1758159 1748705 1735776 1721364 1707545 1696110 
2499.004 1687877 1682542 1678845 1675274 1670674 1664979 1659500 1656377 
2502.862 1657909 1665462 1678916 1696507 1715261 1731952 1744002 1750253 
2506.719 1750877 1747187 1740946 1733741 1726617 1720083 1714365 1709601 
2510.576 1706008 1704004 1703798 1705427 1708570 1712501 1716391 1719437 
2514.434 1721095 1721146 1719723 1717360 1714717 1712521 1711425 1711796 
2518.291 1713564 1716300 1719172 1721502 1723096 1724249 1726072 1730077 
2522.149 1737709 1749845 1766405 1786355 1807958 1829104 1847966 1863161 
2526.006 1874004 1880204 1881900 1879635 1874208 1866786 1858731 1851517 
2529.864 1846201 1843143 1841865 1841108 1839479 1835948 1830461 1824008 
2533.721 1818475 1816038 1818270 1825935 1838608 1855040 1873564 1892613 
2537.578 1910893 1927488 1941533 1952168 1958396 1959428 1954959 1945596 
2541.436 1933050 1919765 1908567 1901832 1900829 1905520 1914475 1925459 
2545.293 1936147 1944866 1950996 1955239 1959002 1963935 1970942 1979756 
2549.151 1988660 1995092 1996226 1990167 1976690 1957529 1936094 1916684 
2553.008 1903312 1898731 1904065 1918908 1941656 1970287 2002773 2037065 
2556.865 2071079 2102163 2127219 2143026 2146896 2137688 2116297 2085800 
2560.723 2050833 2016606 1987578 1966670 1954907 1951688 1955487 1964622 
2564.580 1977783 1994342 2013990 2036342 2060707 2085719 2109506 2129968 
2568.438 2145149 2153786 2155683 2151808 2144251 2135840 2129641 2128147 
2572.295 2132742 2143368 2158667 2176443 2194437 2210917 2225212 2237425 
2576.153 2248085 2257539 2265436 2270784 2272159 2268443 2259336 2245650 
2580.010 2229056 2211708 2195604 2182391 2173091 2168402 2168981 2175390 
2583.867 2188043 2206631 2230138 2256507 2283233 2308025 2329453 2347270 
2587.725 2362355 2375879 2388507 2399942 2408681 2412627 2410112 2400694 
2591.582 2385607 2367597 2349976 2335651 2326066 2320998 2318815 2317367 
2595.440 2314954 2310950 2306059 2302000 2300626 2303215 2309898 2319617 
2599.297 2330377 2339857 2346264 2348582 2346993 2342597 2337107 2332267 
2603.155 2329432 2329265 2331758 2336559 2343151 2351111 2360283 2370676 
2607.012 2382096 2394166 2406055 2416714 2425391 2431598 2435706 2438541 
2610.869 2441148 2444437 2448566 2453184 2457459 2460664 2462507 2463431 
2614.727 2464327 2466172 2469558 2474239 2479427 2483942 2486971 2488280 
2618.584 2488535 2488842 2490418 2493955 2499481 2506315 2513658 2520949 
2622.442 2528120 2535667 2544371 2554663 2566408 2578800 2590360 2599548 
2626.299 2605047 2606326 2603457 2597379 2589499 2581280 2574304 2569786 
2630.156 2568564 2571014 2576924 2585672 2596235 2607561 2618686 2628889 
2634.014 2637871 2645518 2651792 2656719 2660280 2662554 2663846 2664736 
2637.871 2665921 2667956 2670922 2674346 2677270 2678511 2677245 2673452 
2641.729 2667946 2662350 2658364 2657370 2659809 2665109 2671926 2678737 
2645.586 2684331 2688150 2690408 2691724 2692798 2694034 2695414 2696614 
2649.444 2697267 2697155 2696487 2695808 2695768 2696852 2699348 2703078 
2653.301 2707475 2711874 2715491 2717686 2717954 2715953 2711545 2704756 
2657.158 2695802 2684881 2672361 2658585 2643914 2628734 2613523 2598868 
2661.016 2585436 2573794 2564323 2556977 2551226 2546130 2540673 2533887 
2664.873 2525375 2515417 2504905 2495095 2487196 2482092 2479796 2479738 
2668.731 2480801 2481710 2481480 2479678 2476555 2472961 2469935 2468527 
2672.588 2469243 2472059 2476315 2481079 2485301 2488338 2490010 2490721 
2676.446 2491170 2492054 2493599 2495535 2496963 2496778 2493971 2488188 
2680.303 2479891 2470375 2461364 2454684 2451640 2452689 2457524 2465158 
2684.160 2474230 2483433 2491713 2498488 2503592 2507133 2509457 2510944 
2688.018 2511959 2512710 2513324 2513693 2513643 2513028 2511756 2509974 
2691.875 2507954 2506153 2504842 2504142 2503816 2503506 2502869 2501739 
2695.733 2500453 2499659 2500161 2502515 2506707 2512169 2517724 2522112 
2699.590 2524344 2524128 2521818 2518391 2514954 2512504 2511498 2512001 
2703.448 2513675 2516164 2519259 2522867 2527108 2532019 2537363 2542764 
2707.305 2547580 2551307 2553549 2554407 2554137 2553243 2552174 2551242 
2711.162 2550494 2549772 2548774 2547336 2545318 2542739 2539873 2537108 
2715.020 2534894 2533717 2533918 2535738 2539049 2543575 2548755 2554076 
2718.877 2559058 2563489 2567287 2570570 2573402 2575711 2577236 2577647 
2722.735 2576674 2574262 2570872 2567186 2564107 2562494 2562809 2565072 
2726.592 2568821 2573347 2577801 2581517 2584275 2586071 2587305 2588409 
2730.449 2589892 2591986 2594738 2597897 2600993 2603488 2604836 2604722 
2734.307 2603079 2600315 2597142 2594423 2593026 2593539 2595952 2599895 
2738.164 2604535 2608972 2612372 2614401 2615204 2615311 2615651 2617058 
2742.022 2620156 2625121 2631621 2638915 2646043 2652012 2656086 2657855 
2745.879 2657549 2655690 2653300 2651336 2650647 2651652 2654203 2657854 
2749.737 2661804 2665280 2667901 2669645 2670962 2672604 2675236 2679492 
2753.594 2685476 2693131 2702144 2712206 2723010 2734286 2745781 2757038 
2757.451 2767393 2776013 2782166 2785543 2786358 2785394 2783961 2783427 
2761.309 2784840 2788661 2794562 2801656 2808798 2814903 2819361 2822018 
2765.166 2823185 2823378 2822951 2822213 2821231 2820137 2819117 2818621 
2769.024 2819225 2821397 2825496 2831448 2838765 2846715 2854620 2862021 
2772.881 2868719 2874826 2880625 2886276 2891711 2896707 2900865 2903866 
2776.739 2905652 2906458 2906755 2907260 2908557 2911155 2915245 2920762 
2780.596 2927450 2934812 2942328 2949439 2955647 2960723 2964582 2967525 
2784.453 2970015 2972610 2975735 2979561 2983833 2987993 2991274 2992946 
2788.311 2992593 2990222 2986239 2981479 2976973 2973744 2972685 2974317 
2792.168 2978812 2985936 2995026 3005230 3015609 3025337 3034100 3041889 
2796.026 3049309 3057142 3066213 3077084 3089842 3104032 3118761 3132898 
2799.883 3145508 3155819 3163514 3168813 3172207 3174487 3176435 3178811 
2803.740 3182171 3186695 3192195 3198267 3204257 3209742 3214647 3219429 
2807.598 3225007 3232659 3243496 3258093 3276312 3297179 3319119 3340333 
2811.455 3359268 3374890 3386945 3395814 3402377 3407887 3413773 3421436 
2815.313 3432162 3446874 3465912 3488944 3514755 3541617 3567610 3591077 
2819.170 3611180 3628060 3642781 3656815 3671520 3687764 3705528 3724138 
2823.028 3742613 3760103 3776298 3791487 3806441 3822030 3838901 3857326 
2826.885 3877035 3897518 3918155 3938513 3958270 3977397 3996012 4014305 
2830.742 4032636 4051422 4071321 4093015 4117253 4144581 4175216 4208949 
2834.600 4245162 4283108 4321944 4361078 4400227 4439528 4479448 4520750 
2838.457 4564373 4611285 4662414 4718496 4779963 4846983 4919340 4996588 
2842.315 5078079 5163332 5251917 5343839 5439188 5538161 5640915 5747235 
2846.172 5856468 5967417 6078382 6187398 6292437 6391673 6483910 6568756 
2850.030 6646663 6718881 6787262 6853914 6920615 6988820 7059368 7132430 
2853.887 7207823 7285122 7363877 7443823 7524781 7606791 7689900 7774209 
2857.744 7859833 7947076 8036326 8128199 8223377 8322630 8426293 8534399 
2861.602 8646315 8760856 8876426 8991324 9104209 9214330 9321810 9427561 
2865.459 9532914 9639136 9746889 9855786 9964358 10070330 10171100 10264481 
2869.317 10349087 10424614 10491511 10550679 10602738 10647794 10685115 
2872.692 10713582 10731988 10739516 10736047 10722299 10699470 10668788 
2876.067 10631465 10588209 10539382 10485221 10425965 10362200 10294826 
2879.442 10225073 10154407 10084470 10016970 9953612 9896040 9845927 9804741 
2883.300 9773726 9753898 9745828 9749884 9766013 9793859 9832819 9882054 
2887.157 9940530 10007206 10081143 10161530 10247901 10339835 10437039 
2890.532 10538989 10645018 10754171 10865332 10977350 11089070 11199290 
2893.908 11306783 11410106 11507513 11597153 11677188 11746109 11803006 
2897.283 11847606 11880415 11902349 11914676 11918727 11915947 11907661 
2900.658 11895349 11880311 11863818 11846945 11830585 11815604 11802968 
2904.033 11794151 11790858 11795183 11809105 11833883 11869959 11916523 
2907.409 11972164 12035219 12104488 12179755 12261761 12351977 12451858 
2910.784 12562416 12683626 12814465 12953116 13097338 13244878 13393758 
2914.159 13542247 13688725 13831782 13970193 14103003 14229657 14350022 
2917.534 14464238 14572541 14675094 14772063 14863591 14950287 15033364 
2920.910 15114711 15196338 15280195 15367198 15457119 15548499 15639290 
2924.285 15727541 15812078 15893137 15972163 16051488 16133596 16220392 
2927.660 16312897 16411017 16513754 16619602 16726831 16833700 16938732 
2931.035 17040888 17139586 17234934 17327826 17419656 17512176 17606900 
2934.411 17704838 17806154 17910578 18017366 18126092 18236984 18350810 
2937.786 18468866 18592174 18721262 18855822 18994776 19136884 19281286 
2941.161 19427956 19577708 19731898 19891688 20057352 20227922 20401214 
2944.536 20574194 20743860 20907848 21064760 21214276 21356874 21493240 
2947.912 21624168 21749944 21870748 21986476 22096950 22201804 22300606 
2951.287 22392604 22476864 22552518 22619100 22676858 22726850 22770566 
2954.662 22809570 22844664 22875634 22900926 22918128 22924630 22918376 
2958.037 22898284 22864358 22817228 22757500 22684958 22598480 22495894 
2961.413 22374692 22232660 22068606 21882424 21675190 21448490 21203894 
2964.788 20942798 20666010 20374144 20067796 19747862 19415758 19073188 
2968.163 18722210 18364904 18003408 17639808 17276434 16915580 16559702 
2971.538 16210824 15870532 15539484 15217531 14903770 14596917 14295882 
2974.914 14000142 13709956 13426329 13150808 12885000 12629947 12385995 
2978.289 12152390 11927710 11709760 11496558 11286605 11079199 10874741 
2981.664 10674446 10479885 10292698 10113950 9944020 9782629 9628921 9482161 
2985.521 9341579 9206694 9077299 8952987 8833092 8716477 8601753 8487421 
2989.379 8372331 8255885 8138208 8020076 7902752 7787423 7675034 7565953 
2993.236 7460050 7356406 7253850 7150832 7046111 6938690 6828324 6715516 
2997.094 6601551 6488161 6377285 6270381 6168344 6071197 5978233 5888385 
3000.951 5800516 5713935 5628351 5544022 5461473 5381182 5303671 5229166 
3004.809 5157871 5089790 5025068 4963502 4904832 4848301 4792912 4737532 
3008.666 4681339 4623903 4565691 4507764 4451662 4398816 4350276 4306154 
3012.523 4265867 4228324 4192294 4156819 4121550 4086670 4052685 4020193 
3016.381 3989562 3960774 3933631 3907885 3883507 3860763 3840128 3822075 
3020.238 3806572 3793077 3780494 3767611 3753332 3737475 3720677 3704421 
3024.096 3690358 3679672 3672476 3667732 3663327 3657013 3647130 3633273 
3027.953 3616434 3598633 3582168 3568692 3558873 3552096 3547141 3542660 
3031.811 3537837 3532517 3527248 3522503 3518324 3514238 3509230 3502363 
3035.668 3493355 3482878 3472575 3464387 3460039 3460134 3464197 3470566 
3039.525 3477320 3482680 3485881 3487271 3488145 3490302 3495399 3504442 
3043.383 3517578 3533931 3552083 3570066 3586056 3598714 3607499 3612955 
3047.240 3616494 3620253 3626243 3636036 3650111 3667774 3687483 3707376 
3051.098 3725854 3742105 3756157 3768560 3779864 3789986 3798164 3803106 
3054.955 3803395 3798192 3787560 3772499 3754641 3735708 3717052 3699413 
3058.813 3683117 3668306 3655337 3644898 3637958 3635414 3637717 3644734 
3062.670 3655675 3669144 3683569 3697373 3709261 3718157 3723400 3724822 
3066.527 3722639 3717780 3711456 3705173 3700090 3696939 3695470 3694786 
3070.385 3693369 3689765 3682854 3672269 3658292 3641832 3624030 3605995 
3074.242 3588824 3573409 3560491 3550573 3543877 3540120 3538529 3537963 
3078.100 3537239 3535332 3531895 3527116 3521529 3515771 3510139 3504369 
3081.957 3497821 3489647 3479352 3466980 3453231 3439102 3425661 3413655 
3085.814 3403324 3394542 3387111 3380958 3376356 3373684 3373160 3374548 
3089.672 3376985 3379076 3379320 3376686 3371015 3363211 3355058 3348636 
3093.529 3345847 3347599 3353797 3363330 3374495 3385645 3395567 3403852 
3097.387 3410697 3416670 3422278 3427581 3432339 3435865 3437653 3437650 
3101.244 3436382 3434850 3434256 3435317 3438034 3441522 3444335 3444755 
3105.102 3441796 3435143 3425500 3414060 3402428 3391627 3382165 3373914 
3108.959 3366432 3359191 3351853 3344397 3336781 3329046 3321024 3312587 
3112.816 3303894 3295528 3288491 3283904 3282647 3284773 3289438 3294919 
3116.674 3299291 3300987 3299285 3294460 3287570 3279841 3272258 3265107 
3120.531 3258368 3251785 3245657 3240744 3238193 3239107 3243899 3251895 
3124.389 3261473 3270259 3276047 3277390 3273916 3266377 3256257 3245297 
3128.246 3235086 3226859 3221539 3219583 3221289 3226416 3234115 3242891 
3132.104 3250745 3255625 3256009 3251406 3242644 3231689 3221103 3213270 
3135.961 3209785 3210918 3215880 3222845 3229782 3234814 3236706 3234924 
3139.818 3229753 3221887 3212345 3202130 3192189 3183162 3175455 3169397 
3143.676 3165172 3162950 3162933 3165114 3169290 3174768 3180473 3185080 
3147.533 3187479 3187038 3183991 3179332 3174543 3170938 3169223 3169056 
3151.391 3169338 3168647 3165936 3161118 3155390 3150708 3149158 3152131 
3155.248 3159748 3170781 3183017 3193983 3201891 3206032 3206778 3205297 
3159.105 3203000 3200821 3199038 3197210 3194558 3190317 3184123 3176223 
3162.963 3167431 3158926 3152039 3147863 3147163 3150035 3156010 3164069 
3166.820 3172871 3181023 3187576 3191993 3194456 3195683 3196503 3197699 
3170.678 3199636 3202145 3204707 3206765 3208027 3208665 3209444 3211330 
3174.535 3215393 3222040 3231102 3241536 3251671 3259558 3263491 3262520 
3178.393 3256697 3247249 3236343 3226469 3219829 3217740 3220115 3225534 
3182.250 3231722 3236184 3237149 3234162 3228248 3221566 3216836 3216168 
3186.107 3220630 3229871 3242207 3255250 3266675 3274752 3278687 3278718 
3189.965 3275793 3271104 3265959 3261267 3257678 3255431 3254493 3254627 
3193.822 3255627 3257311 3259829 3263388 3268401 3275063 3283116 3291833 
3197.680 3299923 3305977 3308950 3308482 3305485 3301651 3299174 3299866 
3201.537 3304632 3312897 3322992 3332546 3339407 3342127 3340543 3335390 
3205.395 3327962 3319336 3310142 3300206 3289048 3276126 3261493 3246029 
3209.252 3231314 3219240 3211582 3209354 3212579 3220281 3230708 3241706 
3213.109 3251378 3258187 3261575 3261738 3259795 3257165 3255483 3256026 
3216.967 3259405 3265579 3273915 3283422 3293272 3302906 3312216 3321441 
3220.824 3330757 3340055 3348798 3356101 3360912 3362552 3360965 3356753 
3224.682 3351181 3345411 3340472 3336702 3333807 3331096 3327926 3324152 
3228.539 3320124 3316852 3315628 3317394 3322601 3330935 3341398 3352688 
3232.396 3363531 3372920 3380335 3385669 3388984 3390367 3389917 3387710 
3236.254 3383888 3378877 3373525 3368665 3365277 3363965 3364807 3367286 
3240.111 3370415 3373039 3374245 3373636 3371431 3368478 3365864 3364692 
3243.969 3365577 3368554 3373008 3377783 3381511 3382973 3381348 3376418 
3247.826 3368730 3359443 3350076 3342151 3337025 3335392 3337209 3341698 
3251.684 3347742 3353965 3359417 3363800 3367467 3371235 3375997 3382142 
3255.541 3389304 3396259 3401205 3402448 3399194 3391858 3382320 3373465 
3259.398 3368379 3369176 3376489 3388817 3403075 3415456 3422472 3422181 
3263.256 3414734 3402379 3388802 3378070 3373428 3376608 3387369 3403742 
3267.113 3422718 3441046 3456020 3465952 3470525 3470449 3467397 3463366 
3270.971 3460379 3459801 3462377 3467820 3475064 3482467 3488405 3491609 
3274.828 3491556 3488578 3483675 3478047 3472640 3467834 3463459 3459050 
3278.686 3454327 3449492 3445346 3442992 3443320 3446409 3451338 3456368 
3282.543 3459383 3458855 3454414 3447063 3438751 3431785 3427774 3427262 
3286.400 3429594 3433366 3437294 3440845 3444553 3449645 3457464 3468535 
3290.258 3482067 3495817 3506922 3512410 3510386 3500402 3483731 3462707 
3294.115 3440205 3418784 3400433 3386329 3376951 3372369 3372426 3376744 
3297.973 3384779 3395535 3407906 3420429 3431745 3440837 3447176 3450839 
3301.830 3452497 3453192 3454234 3456734 3461410 3468386 3476935 3485711 
3305.688 3492998 3497121 3497059 3492707 3485144 3476185 3467989 3462171 
3309.545 3459486 3459529 3460977 3462199 3462086 3460151 3457046 3453940 
3313.402 3452025 3451921 3453277 3454950 3455295 3452939 3447297 3438772 
3317.260 3428635 3418597 3410166 3404065 3400325 3397981 3395953 3393168 
3321.117 3389244 3384520 3380008 3376814 3376042 3378110 3382805 3389362 
3324.975 3396824 3404423 3411968 3419719 3428251 3437994 3448688 3459341 
3328.832 3468145 3473053 3472585 3466160 3454692 3440182 3425375 3412735 
3332.689 3403959 3399443 3398397 3399307 3400635 3401161 3400329 3398230 
3336.547 3395201 3391628 3387908 3384299 3381278 3379377 3379140 3380954 
3340.404 3384523 3388943 3392605 3393945 3391850 3386319 3378610 3370877 
3344.262 3365670 3364965 3369635 3379118 3391611 3404539 3415373 3422064 
3348.119 3423489 3419483 3410638 3398201 3383750 3368831 3354887 3342973 
3351.977 3333659 3326831 3322047 3318649 3316272 3314782 3314497 3315849 
3355.834 3318999 3323241 3327223 3329100 3327029 3320153 3308859 3295081 
3359.691 3281755 3272013 3268418 3272144 3282865 3298898 3317879 3337220 
3363.549 3354734 3368832 3378601 3383604 3383962 3380213 3373404 3364846 
3367.406 3356104 3348501 3343100 3340153 3339420 3340069 3341175 3341962 
3371.264 3342120 3341764 3341396 3341828 3343895 3348261 3355328 3364857 
3375.121 3376081 3387574 3397696 3404754 3407782 3406848 3403074 3398564 
3378.979 3395498 3395433 3398759 3404368 3410115 3413720 3413542 3409258 
3382.836 3402012 3393916 3387424 3384351 3385533 3390755 3399124 3409367 
3386.693 3420327 3430957 3440395 3447607 3451798 3452347 3449389 3444085 
3390.551 3438285 3434645 3435548 3442593 3456119 3475266 3498428 3523615 
3394.408 3549135 3573733 3596614 3617163 3635068 3650096 3662659 3673520 
3398.266 3684084 3695609 3708930 3723605 3738241 3750546 3758614 3761737 
3402.123 3761125 3759716 3761185 3768577 3783227 3804062 3828112 3851744 
3405.980 3872293 3889097 3903913 3920104 3941413 3970178 4006603 4048445 
3409.838 4091890 4132606 4167171 4193663 4211827 4222530 4227280 4227447 
3413.695 4224262 4218679 4211860 4204993 4199289 4195585 4194035 4193753 
3417.553 4193075 4190020 4182876 4170860 4154437 4135157 4115233 4096948 
3421.410 4082017 4071336 4065035 4062507 4063335 4067067 4073808 4083712 
3425.268 4096896 4112932 4130737 4148315 4163506 4174311 4179500 4179025 
3429.125 4174110 4166902 4159717 4154597 4152668 4154105 4158209 4163926 
3432.982 4170114 4175976 4181183 4185644 4189638 4193445 4197559 4202597 
3436.840 4209195 4217892 4228865 4241611 4254959 4267128 4276381 4281214 
3440.697 4281263 4276795 4268981 4258924 4247433 4234661 4220432 4204626 
3444.555 4187727 4171176 4157111 4147762 4144644 4148019 4156679 4168500 
3448.412 4181267 4193226 4203932 4213583 4222931 4232071 4240272 4245971 
3452.270 4247270 4242779 4232368 4217117 4199179 4180804 4163579 4147976 
3456.127 4133405 4118702 4102996 4086145 4068975 4053025 4039780 4030300 
3459.984 4024786 4022520 4022515 4023641 4025356 4027413 4030048 4033450 
3463.842 4037713 4042567 4047457 4051617 4054410 4055187 4053628 4049565 
3467.699 4043177 4034745 4025155 4015185 4005991 3998425 3993136 3990325 
3471.557 3989710 3990607 3992283 3993818 3994550 3993899 3991557 3987501 
3475.414 3982143 3976204 3970819 3967054 3965794 3967255 3970715 3974887 
3479.271 3978053 3978711 3976232 3970993 3964474 3958641 3955494 3956125 
3483.129 3960748 3968369 3977569 3986571 3994247 3999969 4003867 4006568 
3486.986 4008996 4011983 4016477 4023085 4032426 4044702 4059927 4077511 
3490.844 4096384 4114943 4131512 4144461 4152919 4156560 4155933 4152116 
3494.701 4146489 4140254 4134339 4128981 4124146 4119239 4113770 4107383 
3498.559 4100161 4092675 4085878 4080902 4078939 4080692 4086617 4096643 
3502.416 4110321 4126913 4145669 4165615 4185735 4204825 4221629 4234857 
3506.273 4243705 4247873 4247955 4245169 4241163 4237503 4235168 4234339 
3510.131 4234586 4235060 4235032 4234322 4233372 4233044 4234223 4237401 
3513.988 4242484 4248824 4255550 4262075 4268313 4274625 4281718 4289976 
3517.846 4299399 4309076 4317726 4323942 4326790 4326039 4322371 4316940 
3521.703 4311314 4306611 4303635 4302507 4303048 4304826 4307433 4310520 
3525.561 4313981 4317696 4321735 4326209 4331320 4337311 4344254 4352089 
3529.418 4360238 4367789 4373681 4376819 4376730 4373534 4368232 4362312 
3533.275 4357500 4354987 4355329 4358056 4362000 4365596 4367457 4366847 
3537.133 4363873 4359416 4354885 4351679 4350788 4352358 4355811 4359794 
3540.990 4362645 4362853 4359476 4352354 4342115 4330184 4318153 4307607 
3544.848 4299653 4294767 4292862 4293253 4295154 4297707 4300358 4302768 
3548.705 4304791 4306272 4306917 4306159 4303309 4297577 4288373 4275549 
3552.563 4259527 4241422 4222660 4204864 4189316 4176572 4166392 4157831 
3556.420 4149691 4140958 4131374 4121402 4112395 4105650 4102041 4101264 
3560.277 4101748 4100885 4095806 4084329 4065713 4040768 4011957 3982331 
3564.135 3954799 3931092 3911671 3895530 3881022 3866341 3850410 3832901 
3567.992 3814505 3796373 3779825 3765819 3754815 3746476 3739794 3733075 
3571.850 3724391 3711824 3694008 3670636 3642788 3612938 3584370 3560369 
3575.707 3543407 3533994 3530979 3531515 3532380 3531000 3526406 3519324 
3579.564 3511889 3506139 3503359 3502944 3502785 3499724 3491104 3475707 
3583.422 3454578 3430375 3406861 3387484 3374004 3366408 3362770 3360258 
3587.279 3356083 3348531 3337369 3323533 3308746 3294638 3282155 3271370 
3591.137 3261616 3251762 3241030 3229059 3216257 3203612 3192228 3182993 
3594.994 3176236 3171155 3166534 3160648 3152341 3141210 3128229 3115500 
3598.852 3105725 3101373 3103771 3112631 3126046 3141036 3154533 3164394 
3602.709 3169872 3171600 3171147 3169951 3168827 3167471 3164616 3158968 
3606.566 3149722 3137169 3122847 3108900 3097316 3089168 3084202 3080735 
3610.424 3076401 3068773 3056359 3038794 3017164 2993774 2971467 2953122 
3614.281 2941034 2936350 2938926 2947289 2958901 2970713 2979830 2984148 
3618.139 2983006 2976843 2967378 2956629 2946500 2938275 2932531 2929340 
3621.996 2928642 2930535 2935279 2942911 2953114 2964495 2974949 2981992 
3625.854 2983564 2978573 2967691 2952999 2937569 2924537 2916083 2912882 
3629.711 2913918 2916976 2919349 2918646 2913456 2903448 2889602 2873632 
3633.568 2857782 2844332 2835037 2830815 2831583 2836104 2842429 2848143 
3637.426 2851110 2849978 2844563 2835733 2825233 2814927 2806423 2800447 
3641.283 2796778 2794262 2791242 2785949 2776957 2763417 2745477 2724009 
3645.141 2700793 2678004 2658039 2642800 2633590 2630400 2632296 2637167 
3648.998 2642690 2646384 2646389 2641500 2631530 2616921 2598817 2578656 
3652.855 2558431 2540097 2525536 2516213 2512891 2515179 2522021 2531720 
3656.713 2542530 2553109 2562682 2570731 2576823 2579726 2577921 2569498 
3660.570 2553136 2528958 2498997 2466866 2437307 2414240 2400017 2394553 
3664.428 2395509 2399079 2401651 2400721 2395611 2387268 2377321 2367371 
3668.285 2358357 2350291 2343025 2336361 2330770 2326930 2325557 2326517 
3672.143 2328662 2330042 2328755 2323774 2315829 2307091 2300587 2298999 
3676.000 2303094 2311466 2320607 2326450 2325728 2317031 2301642 2282788 
3679.857 2264525 2250401 2242509 2241009 2244890 2252162 2261219 2270872 
3683.715 2280429 2289172 2296283 2300460 2300662 2296268 2287845 2277141 
3687.572 2266484 2258105 2253257 2251668 2251738 2251450 2249264 2245193 
3691.430 2240414 2237295 2237898 2242991 2251623 2260891 2267194 2267341 
3695.287 2259839 2245257 2226303 2206687 2190148 2179058 2174324 2175142 
3699.145 2179711 2185649 2191029 2194136 2194148 2190443 2183393 2173767 
3703.002 2163318 2154398 2149790 2151836 2161882 2179311 2201612 2224557 
3706.859 2243215 2253035 2250986 2236192 2210269 2176621 2140182 2105921 
3710.717 2078507 2061092 2055306 2060743 2075276 2095461 2117423 2137585 
3714.574 2153540 2164335 2170805 2174655 2178170 2183108 2190345 2199870 
3718.432 2210958 2222387 2233420 2243395 2251897 2258315 2261645 2260638 
3722.289 2254127 2241487 2223492 2201867 2179402 2158872 2142430 2131062 
3726.146 2124458 2121543 2121067 2122292 2125345 2130839 2139765 2152601 
3730.004 2169248 2188607 2209151 2228926 2246000 2258579 2265267 2265020 
3733.861 2257585 2243725 2225573 2206414 2190514 2181575 2182083 2192065 
3737.719 2208892 2227772 2243356 2250931 2248068 2235103 2214937 2191941 
3741.576 2170840 2155376 2147675 2148392 2156725 2171346 2190561 2212601 
3745.434 2235643 2257625 2276430 2290005 2297112 2297294 2291733 2282694 
3749.291 2273414 2266941 2265720 2270624 2281074 2295195 2310507 2324462 
3753.148 2335129 2341232 2342581 2339361 2332341 2322177 2309702 2295469 
3757.006 2280124 2264195 2248301 2233327 2220370 2210806 2206128 2207674 
3760.863 2216330 2231862 2252884 2276668 2299679 2318259 2329459 2332136 
3764.721 2327019 2316853 2305357 2296224 2291899 2292711 2297068 2302047 
3768.578 2304747 2303358 2298143 2291229 2285898 2285125 2290461 2301121 
3772.436 2314294 2325784 2331572 2328827 2316948 2297381 2273093 2247471 
3776.293 2223521 2203258 2187875 2177982 2174112 2176838 2186772 2203981 
3780.150 2227582 2255332 2284097 2310269 2330923 2344288 2350423 2350824 
3784.008 2347766 2343436 2339206 2335268 2330756 2324399 2315062 2302517 
3787.865 2287589 2271769 2257014 2244956 2236625 2232378 2232050 2235327 
3791.723 2241838 2251179 2262918 2275934 2288662 2298921 2304580 2304019 
3795.580 2297004 2284633 2269555 2254870 2243461 2237074 2236032 2239365 
3799.438 2245213 2251828 2258061 2263659 2269015 2274718 2281073 2287699 
3803.295 2293828 2298438 2301004 2301526 2300744 2299565 2298897 2298984 
3807.152 2299518 2299809 2299282 2297730 2295884 2294767 2295710 2299700 
3811.010 2306956 2316827 2328007 2338704 2347020 2351315 2350408 2343822 
3814.867 2331684 2315223 2296389 2277629 2261726 2250639 2245436 2245694 
3818.725 2249966 2256010 2261682 2265470 2266886 2266415 2265058 2264008 
3822.582 2263934 2264990 2267074 2269890 2273349 2277400 2282159 2287356 
3826.439 2292438 2296558 2299085 2299889 2299574 2299336 2300552 2304148 
3830.297 2310164 2317636 2325123 2330952 2334142 2334552 2332669 2329343 
3834.154 2325089 2319880 2313214 2304485 2293680 2281648 2270195 2261458 
3838.012 2257102 2257798 2262981 2271027 2280134 2288844 2296769 2304464 
3841.869 2313285 2324276 2338189 2354689 2372654 2390303 2405748 2417256 
3845.727 2423518 2423732 2417764 2406080 2390061 2371634 2353477 2338278 
3849.584 2328237 2324661 2327332 2334831 2344647 2353922 2360159 2361658 
3853.441 2357694 2348562 2335336 2319414 2302492 2286358 2272889 2263860 
3857.299 2260801 2264478 2274829 2290562 2309450 2328694 2345572 2358007 
3861.156 2364918 2366420 2363692 2358406 2352405 2347182 2343632 2341808 
3865.014 2341049 2340328 2338412 2334404 2328056 2319993 2311681 2305030 
3868.871 2302004 2304019 2311391 2323301 2337817 2352571 2365327 2374599 
3872.729 2380087 2382414 2383088 2383645 2385387 2388653 2393079 2397336 
3876.586 2399941 2399470 2395208 2387295 2376788 2365327 2354971 2347417 
3880.443 2343667 2343854 2347353 2352900 2359154 2364900 2369552 2372782 
3884.301 2374643 2375146 2374162 2371323 2366237 2358591 2348697 2337417 
3888.158 2326083 2316496 2310226 2308396 2311400 2318730 2329133 2340952 
3892.016 2352304 2361606 2367862 2370824 2371079 2369881 2368983 2369996 
3895.873 2374033 2381200 2390438 2399744 2406604 2408893 2405640 2397329 
3899.730 2386133 2375223 2367797 2366111 2370729 2380003 2391063 2400212 
3903.588 2404417 2402077 2393832 2382056 2370409 2362487 2361007 2366877 
3907.445 2379155 2395311 2412129 2426535 2436531 2441418 2442008 2440035 
3911.303 2437575 2436272 2437124 2440291 2445367 2451719 2459087 2467535 
3915.160 2477618 2489810 2504323 2520606 2537277 2552411 2564045 2570568 
3919.018 2571359 2566626 2557489 2545567 2532457 2519556 2507786 2497768 
3922.875 2489740 2483781 2479562 2476384 2473099 2468152 2460009 2447576 
3926.732 2430800 2410735 2389743 2370821 2356964 2350218 2351220 2358967 
3930.590 2371180 2384836 2397176 2406256 2411506 2413414 2413736 2414429 
3934.447 2417330 2423668 2433792 2447013 2461893 2476433 2488530 2496553 
3938.305 2499599 2497972 2492927 2486504 2480941 2477946 2478461 2482183 
3942.162 2487787 2493406 2497145 2497675 2494573 2488274 2479760 2470315 
3946.020 2460802 2451778 2443296 2435051 2426765 2418212 2409524 2401047 
3949.877 2393272 2386636 2381459 2377767 2375203 2373130 2370843 2367573 
3953.734 2362895 2356715 2349617 2342637 2336944 2333920 2334444 2338782 
3957.592 2346710 2357325 2369593 2382396 2395044 2407070 2418488 2429337 
3961.449 2439803 2449806 2459293 2467996 2475623 2481906 2486619 2489600 
3965.307 2490836 2490459 2489002 2487171 2485940 2486349 2489252 2494971 
3969.164 2503319 2513445 2524081 2533732 2540929 2544416 2543550 2537968 
3973.021 2528124 2514872 2499801 2484634 2471455 2461841 2456942 2456812 
3976.879 2460772 2467554 2475593 2483502 2490530 2496275 2500765 2503770 
3980.736 2505038 2503922 2500009 2493245 2484471 2475548 2468751 2466479 
3984.594 2470300 2480590 2496322 2515195 2534597 2551848 2564988 2572915 
3988.451 2575519 2573403 2567610 2559535 2550721 2542710 2536817 2533957 
3992.309 2534384 2537482 2542179 2546997 2550729 2552810 2553561 2553842 
3996.166 2554957 2557912 2563180 2570452 2578721 2586818 2593598 2598161 
4000.023 2600062 2599044 
##END=
