##TITLE=3D-Fillies_PLA-Rainbow_Purple_Filament_r5_ATR-Corrected
##JCAMP-DX=5.01  $$ Nicolet v. 1
##DATATYPE=INFRARED SPECTRUM
##ORIGIN=Curtin University
##OWNER=Nicolet
##LONGDATE=2024/07/18
##TIME=14:05:00
##SPECTROMETER/DATA SYSTEM=Nicolet iS50
##DATA PROCESSING=
Ratio against background
%Transmittance->Absorbance
ATR Correction
Truncated
ElementMultiply or ElementDivide
##COMMENTS=
Number of sample scans: 32
Collection length: 47.28 sec
Sample gain: 1.0
Background collected on: Thu Jul 18 14:02:48 2024 (GMT+08:00);
Number of background scans: 32
Background gain: 1.0
Sample spacing:  1.000
Number of scan points: 16672
Resolution points: 8192
Number of FFT points: 65536
Apodization: N-B strong;
Phase correction: Mertz;
Laser frequency: 15798.3 cm-1
Number of rejected sample scans: 0
Number of rejected background scans: 0
Bench serial number: AUP1200105;
##RESOLUTION=4.000
##XUNITS=1/CM
##YUNITS=ABSORBANCE
##FIRSTX=400.163452
##LASTX=4000.187744
##FIRSTY=0.059714
##MAXX=4000.187744
##MINX=400.163452
##MAXY=0.910494
##MINY=-0.024167
##XFACTOR=1.000000
##YFACTOR=1.000000E-009
##NPOINTS=7468
##DELTAX=0.482125
##ZPD=8192
##XYDATA=(X++(Y..Y))
400.163 59714100 58390268 57094076 55904712 54843184 53884632 52962800 
403.538 52001732 50949820 49810052 48647908 47574876 46711276 46139756 
406.913 45869368 45824908 45864488 45823232 45565092 45022952 44214920 
410.288 43228572 42184524 41192996 40323100 39590692 38971404 38422492 
413.663 37907216 37406112 36915368 36437004 35968332 35498672 35019236 
417.038 34534060 34070572 33677116 33407130 33295448 33337154 33480148 
420.412 33638984 33721600 33662552 33445862 33108562 32726086 32382142 
423.787 32140278 32022900 32009766 32050512 32087070 32074418 31992882 
427.162 31847376 31657458 31445008 31224754 31002652 30780240 30561032 
430.537 30356008 30183274 30062112 30006398 30017866 30085572 30186820 
433.912 30294628 30385944 30447180 30477052 30485448 30487990 30500828 
437.286 30535022 30592080 30663930 30733860 30781096 30784946 30730060 
440.661 30609748 30426938 30192766 29923714 29638100 29352188 29079828 
444.036 28831056 28613008 28430690 28287286 28184888 28125006 28108304 
447.411 28135680 28207208 28320568 28468122 28633934 28793238 28915202 
450.786 28968380 28930346 28794878 28577862 28314558 28052178 27837922 
454.161 27705350 27666058 27706782 27793852 27882494 27928254 27896700 
457.535 27770174 27549492 27252154 26908326 26554846 26229254 25963502 
460.910 25778290 25678780 25654370 25680612 25726982 25761582 25768112 
464.285 25740926 25686560 25619266 25553046 25496646 25450784 25410650 
467.660 25370462 25327912 25286034 25252096 25233214 25231998 25244616 
471.035 25261426 25271252 25265354 25240256 25197084 25138290 25062962 
474.409 24965334 24835878 24666640 24457910 24222956 23988804 23791392 
477.784 23665792 23636840 23710978 23873864 24093054 24325752 24528888 
481.159 24667830 24723006 24692444 24589504 24438980 24269222 24105494 
484.534 23964228 23850170 23756578 23670118 23576996 23470250 23353624 
487.909 23242442 23159056 23126044 23157784 23255750 23406884 23587642 
491.284 23770904 23933694 24062728 24157082 24225842 24285208 24351530 
494.658 24443468 24573758 24748710 24966874 25216936 25477770 25720256 
498.033 25912532 26027332 26050704 25986494 25857574 25699480 25550090 
501.408 25437732 25372860 25345794 25331596 25300584 25229742 25111046 
504.783 24953148 24777886 24611324 24474748 24378418 24319736 24286114 
508.158 24260912 24228316 24178238 24106598 24014942 23908434 23794218 
511.532 23680242 23575156 23487520 23424142 23387840 23375898 23378314 
514.907 23379012 23358752 23299090 23187070 23018558 22799152 22543422 
518.282 22271886 22006790 21768772 21573238 21428654 21336074 21290120 
521.657 21280110 21292596 21313360 21329330 21329954 21307442 21257908 
525.032 21179418 21076344 20955100 20824760 20696232 20580216 20485460 
528.406 20416620 20373522 20351598 20343436 20340832 20337130 20328300 
531.781 20312248 20288246 20254902 20210104 20150456 20072654 19974550 
535.156 19855882 19717570 19561694 19390720 19207946 19018616 18831622 
538.531 18659530 18517174 18417742 18368174 18365072 18394358 18434094 
541.906 18460724 18457130 18417576 18348880 18266760 18188470 18125852 
545.281 18081160 18047382 18013860 17972454 17923112 17874452 17839714 
548.655 17830542 17850820 17894042 17946344 17992186 18021506 18033962 
552.030 18038230 18046820 18069516 18107812 18153510 18193066 18213252 
555.405 18208554 18182634 18149326 18124402 18120052 18139992 18179458 
558.780 18228366 18277516 18322986 18367830 18419926 18486232 18568540 
562.155 18660750 18749946 18820960 18861844 18868310 18844416 18800308 
565.529 18747820 18696098 18648314 18602300 18552450 18492992 18420216 
568.904 18334424 18239164 18140516 18045328 17961510 17897054 17860522 
572.279 17859644 17899670 17980718 18096334 18232074 18368198 18482742 
575.654 18557972 18585152 18567720 18522152 18473552 18449824 18474140 
579.029 18558058 18698982 18880214 19076516 19261282 19414130 19526458 
582.404 19602480 19656506 19706774 19768736 19849578 19945838 20045768 
585.778 20132922 20192364 20214990 20199926 20153678 20087486 20014564 
589.153 19946442 19892294 19857764 19846374 19859480 19896858 19956108 
592.528 20032390 20118686 20206454 20287288 20353998 20402356 20430824 
595.903 20440552 20433804 20413818 20383456 20345846 20304478 20263890 
599.278 20229338 20206956 20202460 20219908 20260504 20322000 20398206 
602.652 20479374 20554114 20610974 20641792 20644200 20623126 20591756 
606.027 20568936 20576240 20632586 20749402 20927752 21156970 21417432 
609.402 21684816 21936300 22155646 22336602 22483900 22610296 22732974 
612.777 22867780 23026170 23212078 23422380 23648720 23880428 24107194 
616.152 24321502 24518942 24698020 24859442 25005220 25137478 25259236 
619.527 25373928 25485790 25599146 25718314 25846196 25984452 26134098 
622.901 26295490 26470176 26660704 26869848 27099506 27348482 27611760 
626.276 27881180 28147894 28405194 28651714 28891360 29132192 29381386 
629.651 29640850 29903584 30153968 30371648 30537996 30642924 30689140 
633.026 30692364 30676428 30666710 30682092 30730902 30810180 30909430 
636.401 31016080 31121184 31222250 31323098 31430580 31551122 31687196 
639.775 31836416 31993140 32150798 32305450 32457036 32609918 32770842 
643.150 32947070 33143304 33359658 33591304 33828540 34058684 34268824 
646.525 34449136 34596424 34716324 34824208 34943012 35099024 35316116 
649.900 35609376 35981500 36421100 36905116 37403692 37886560 38328412 
653.275 38712652 39031988 39287032 39482920 39626488 39723780 39779460 
656.650 39797412 39782020 39739468 39678324 39609660 39545096 39495728 
660.024 39469832 39471792 39501220 39554152 39623740 39703216 39787420 
663.399 39874820 39967340 40070152 40189756 40331828 40500040 40694620 
666.774 40911884 41145244 41385316 41621864 41844888 42046928 42224608 
670.149 42379948 42521104 42660452 42811764 42986436 43188908 43415392 
673.524 43654064 43888540 44103392 44289644 44447716 44587200 44723564 
676.898 44871932 45041660 45232732 45435288 45633280 45809612 45950352 
680.273 46049172 46108040 46135760 46145004 46149300 46160976 46189808 
683.648 46242660 46323588 46433472 46569768 46726788 46896296 47069488 
687.023 47239268 47402420 47561028 47722236 47896412 48094212 48323368 
690.398 48586992 48882128 49200704 49531864 49864024 50187760 50496808 
693.773 50789000 51065892 51331992 51593868 51859624 52138416 52439820 
697.147 52773884 53149556 53573460 54047996 54570012 55131136 55717816 
700.522 56314716 56907376 57484956 58041356 58575128 59087108 59577632 
703.897 60044488 60482340 60883956 61242180 61552924 61816352 62036448 
707.272 62219980 62373808 62503844 62615468 62714384 62808728 62910148 
710.647 63031524 63184568 63375688 63602628 63854368 64113564 64362012 
714.021 64587528 64789176 64979732 65184900 65440176 65786444 66267392 
717.396 66929168 67823192 69010752 70567160 72585552 75175408 78458864 
720.771 82560184 87593384 93644824 100754496 108898368 117972056 127781448 
724.146 138041952 148389920 158408384 167665232 175758832 182364256 
727.039 187267856 190385248 191757024 191526240 189905424 187139872 
729.931 183475472 179133632 174294976 169092944 163615552 157914272 
732.824 152018096 145948912 139734864 133417456 127053272 120709456 
735.717 114457344 108365512 102496544 96906680 91647312 86766120 82306248 
739.091 78302640 74776664 71731200 69148352 66991648 65212316 63757604 
742.466 62579364 61640396 60916444 60393648 60064276 59920596 59950320 
745.841 60135220 60451044 60871620 61371920 61931684 62536924 63179664 
749.216 63856236 64563996 65298484 66050916 66807344 67549200 68255304 
752.591 68905096 69480480 69968592 70361312 70654768 70846632 70933568 
755.966 70909912 70767064 70495480 70087064 69538600 68854720 68048376 
759.340 67139736 66153056 65112060 64035700 62935144 61812812 60665020 
762.715 59485424 58270668 57024324 55759016 54495180 53257208 52068120 
766.090 50944344 49892528 48909380 47983848 47101280 46247408 45411064 
769.465 44585708 43768492 42959752 42161728 41378756 40616004 39880740 
772.840 39179500 38516600 37892496 37302852 36739908 36194916 35661420 
776.214 35137624 34626524 34133892 33664576 33219348 32793504 32378298 
779.589 31963796 31543270 31114778 30681222 30247718 29817810 29391400 
782.964 28964740 28533764 28097636 27662264 27240230 26847326 26497608 
786.339 26197712 25944798 25728220 25534124 25352128 25179462 25022282 
789.714 24891848 24799488 24750418 24740632 24757398 24782742 24798166 
793.089 24788934 24745322 24662300 24537466 24370172 24161566 23916256 
796.463 23644322 23362390 23091676 22854600 22670238 22550008 22496300 
799.838 22503336 22560276 22654254 22773408 22907020 23045164 23176992 
803.213 23292100 23379740 23431796 23445332 23423008 23372336 23303066 
806.588 23223092 23136058 23040652 22931658 22803748 22654456 22486972 
809.963 22309844 22135590 21977062 21844188 21741784 21668702 21619162 
813.337 21584944 21557576 21530288 21498912 21461918 21419820 21375220 
816.712 21332124 21296146 21274852 21277294 21312126 21386382 21502024 
820.087 21654780 21833602 22022012 22201446 22355520 22474056 22554866 
823.462 22602982 22628462 22642254 22653196 22665856 22681866 22702160 
826.837 22729328 22769012 22829336 22917796 23038476 23189720 23364682 
830.212 23553324 23746984 23941270 24137888 24342714 24562058 24799086 
833.586 25050924 25310304 25567584 25815522 26053604 26288434 26532662 
836.961 26799952 27100894 27440080 27815568 28221966 28654306 29112414 
840.336 29602966 30138006 30731948 31396114 32133706 32936328 33782828 
843.711 34642016 35476360 36249056 36930124 37501972 37961852 38321592 
847.086 38603056 38833188 39037308 39235124 39440268 39662196 39910348 
850.460 40198296 40546068 40978468 41521776 42198692 43024784 44007240 
853.835 45147064 46442432 47892456 49498260 51261900 53181636 55248888 
857.210 57444212 59738424 62095212 64476140 66845512 69172824 71434288 
860.585 73611664 75691520 77665056 79528136 81282888 82936512 84499720 
863.960 85983408 87395536 88737880 90006952 91195960 92299336 93315264 
867.335 94247824 95105872 95899936 96637608 97319712 97936832 98468104 
870.709 98880816 99133248 99177080 98963224 98448656 97603120 96414992 
874.084 94894432 93071184 90989704 88700776 86254088 83691944 81048120 
877.459 78349296 75618656 72879960 70159568 67486400 64890704 62401372 
880.834 60045108 57845144 55821896 53992780 52371252 50965216 49774516 
884.209 48789988 47993576 47360944 46865200 46480952 46187460 45968940 
887.583 45814428 45715664 45665512 45657264 45684544 45741712 45823908 
890.958 45926500 46043628 46167696 46289240 46398060 46485344 46545256 
894.333 46575572 46577352 46552820 46503832 46431068 46334172 46213920 
897.708 46072948 45917000 45754248 45592824 45439580 45298128 45169696 
901.083 45054024 44951488 44863776 44792520 44738940 44700896 44673192 
904.458 44648732 44621308 44588692 44554468 44526996 44516364 44529964 
907.832 44568852 44626852 44692436 44752876 44799164 44829492 44849992 
911.207 44872824 44912396 44981684 45090156 45242792 45441156 45684024 
914.582 45968676 46290492 46641776 47011608 47386168 47750040 48088964 
917.957 48391720 48652356 48870220 49049152 49196308 49320308 49429928 
921.332 49533472 49637928 49748864 49869700 50002244 50145876 50299144 
924.706 50460088 50628024 50803200 50987888 51185140 51397584 51627108 
928.081 51874108 52137400 52414680 52703112 52999856 53301664 53605232 
931.456 53906116 54199772 54480624 54743212 54982552 55194832 55378268 
934.831 55533080 55662052 55769448 55860460 55938760 56005276 56057552 
938.206 56089228 56093352 56064000 56001196 55912536 55813660 55725676 
941.581 55671136 55668492 55728756 55852840 56034204 56261152 56522036 
944.955 56809032 57119920 57457680 57828872 58239952 58695708 59196952 
948.330 59740920 60321536 60931048 61560856 62203016 62850168 63496044 
951.705 64134552 64759208 65361224 65928908 66446276 66894024 67250152 
955.080 67493304 67604664 67570400 67382024 67036808 66535152 65880776 
958.455 65079784 64142308 63084064 61928684 60708084 59461372 58230900 
961.829 57057576 55975512 55008524 54168380 53456320 52865552 52385580 
965.204 52005004 51713856 51503828 51367836 51298516 51287216 51323244 
968.579 51394960 51490392 51599296 51714852 51834440 51959824 52096284 
971.954 52250484 52428764 52634688 52867992 53124616 53397276 53676956 
975.329 53955228 54225236 54483340 54728948 54964420 55193956 55422912 
978.703 55655584 55895564 56143972 56400496 56664012 56933688 57210104 
982.078 57495972 57795504 58113272 58452336 58811984 59187612 59571384 
985.453 59953752 60326824 60686084 61031708 61367908 61701980 62040444 
988.828 62389264 62752784 63134348 63537308 63966064 64424976 64918272 
992.203 65447680 66012540 66608876 67231592 67875512 68538104 69219600 
995.578 69923664 70656168 71425056 72238800 73106888 74038040 75039360 
998.952 76113360 77255256 78450920 79677016 80904616 82105264 83258856 
1002.327 84360424 85423216 86478032 87567848 88739800 90036904 91492464 
1005.702 93127264 94951464 96968080 99178072 101585032 104198544 107035784 
1009.077 110123576 113498080 117204536 121296112 125830456 130863520 
1011.970 136442176 142593296 149313040 156555168 164221680 172157136 
1014.862 180149168 187937776 195234800 201752768 207241776 211525568 
1017.755 214530192 216297520 216980224 216816128 216092816 215107024 
1020.648 214128448 213373968 212995616 213080960 213661968 214730288 
1023.540 216251840 218179696 220464112 223056816 225914176 228998720 
1026.433 232279392 235733232 239346336 243114016 247040160 251135584 
1029.326 255415552 259897200 264598368 269535520 274723648 280174208 
1032.219 285892352 291874304 298102272 304543392 311149824 317862144 
1035.113 324615808 331348192 338004448 344539360 350915648 357098688 
1038.006 363050368 368724160 374065152 379011488 383502304 387483552 
1040.899 390914816 393771424 396043040 397729056 398833632 399359168 
1043.792 399305728 398671168 397457600 395677344 393360448 390557472 
1046.685 387338112 383785312 379986240 376022400 371964064 367867808 
1049.578 363779968 359739744 355783744 351946080 348255968 344731392 
1052.471 341375296 338174496 335103424 332132800 329240192 326417664 
1055.364 323676096 321043200 318557888 316262816 314200448 312411776 
1058.257 310941152 309840064 309173312 309017792 309459328 310583968 
1061.150 312470560 315181536 318760800 323233216 328608640 334885920 
1064.043 342057600 350110688 359028384 368788704 379364800 390724032 
1066.936 402829536 415639168 429105504 443173632 457780736 472856192 
1069.829 488326080 504116896 520163104 536408064 552804800 569309440 
1072.722 585875904 602448640 618961344 635338624 651504960 667389696 
1075.615 682934272 698092800 712831488 727121920 740937024 754247680 
1078.509 767019584 779210624 790769216 801630656 811718592 820942016 
1081.402 829204416 836406592 842455808 847270848 850788032 852964800 
1084.295 853784256 853259200 851436544 848394240 844236416 839081664 
1087.188 833051520 826257728 818800256 810765248 802232832 793280512 
1090.081 783988224 774434368 764693376 754827776 744886784 734903872 
1092.974 724901184 714892480 704888448 694895808 684920448 674964288 
1095.867 665027136 655104832 645192128 635282240 625368640 615444096 
1098.760 605500416 595528064 585518016 575462848 565358336 555204096 
1101.653 545003456 534762272 524489056 514193056 503890048 493602720 
1104.546 483365664 473227040 463248544 453502560 444069344 435032096 
1107.439 426474080 418474944 411108992 404442912 398532416 393418880 
1110.332 389125056 385651520 382976064 381053376 379820032 379200384 
1113.225 379114016 379483136 380236160 381310272 382650080 384204864 
1116.118 385926752 387769888 389691712 391657088 393641696 395635264 
1119.011 397642848 399681792 401777568 403956576 406239168 408631936 
1121.905 411124288 413686048 416268960 418810848 421240640 423483680 
1124.798 425466944 427122016 428387232 429209312 429545280 429365120 
1127.691 428654048 427413792 425662144 423429056 420751552 417665280 
1130.584 414199072 410370944 406186976 401643552 396730560 391435776 
1133.477 385747968 379658592 373163872 366264096 358965024 351279680 
1136.370 343228640 334842784 326163712 317243808 308144960 298935232 
1139.263 289686496 280469856 271352736 262396992 253657728 245183456 
1142.156 237016576 229195008 221752128 214716896 208114208 201964640 
1145.049 196284096 191083584 186369152 182141280 178395088 175121056 
1147.942 172305584 169932032 167982192 166436752 165275760 164478352 
1150.835 164021424 163880912 164030640 164443584 165093152 165953776 
1153.728 167001456 168213424 169568384 171046080 172628048 174298672 
1156.621 176046144 177863712 179748736 181701504 183724240 185818080 
1159.514 187983344 190219120 192525536 194905408 197366864 199923568 
1162.407 202594944 205403904 208375600 211535072 214907024 218515936 
1165.301 222387632 226551056 231039824 235893472 241157632 246883888 
1168.194 253129152 259954624 267425440 275609472 284576512 294396224 
1171.087 305136992 316861920 329625856 343469952 358416352 374462752 
1173.980 391575232 409681888 428667296 448366400 468561184 488979904 
1176.873 509300128 529156224 548154560 565890752 581973184 596044864 
1179.766 607806528 617035200 623599104 627464960 628697920 627453184 
1182.659 623957888 618487424 611342208 602825536 593227264 582814720 
1185.552 571828864 560482880 548963904 537433536 526027808 514857536 
1188.445 504009120 493544704 483506048 473916416 464786368 456118656 
1191.338 447912384 440167712 432886496 426071776 419725344 413845312 
1194.231 408422816 403441568 398880480 394715808 390925248 387489472 
1197.124 384392992 381621664 379160512 376992032 375096064 373452320 
1200.017 372043424 370857120 369886944 369127808 368572384 368204800 
1202.910 367997536 367911328 367899136 367912992 367909952 367856544 
1205.803 367728960 367511520 367191424 366755648 366188160 365470304 
1208.697 364582912 363509088 362235968 360754752 359060960 357153280 
1211.590 355033792 352707872 350185472 347481184 344613056 341601696 
1214.483 338467584 335230272 331907968 328517888 325077760 321606144 
1217.376 318122432 314646176 311194784 307783296 304424032 301125920 
1220.269 297896128 294739648 291660032 288659104 285736448 282890624 
1223.162 280120224 277424064 274803520 272261120 269800480 267424080 
1226.055 265132848 262924496 260794960 258739648 256754400 254838432 
1228.948 252993728 251225616 249542288 247953392 246469504 245100736 
1231.841 243856384 242743840 241769088 240936256 240248992 239711920 
1234.734 239330944 239114928 239073072 239213440 239540096 240051024 
1237.627 240738112 241588512 242587440 243720880 244976944 246345120 
1240.520 247813680 249365888 250977552 252616976 254247792 255833328 
1243.413 257341984 258750256 260043360 261213744 262257968 263173728 
1246.306 263959952 264617264 265151504 265574784 265907168 266174048 
1249.199 266403312 266622400 266854672 267119504 267432000 267803552 
1252.093 268242592 268753152 269334912 269982048 270684768 271431712 
1254.986 272213504 273026016 273871904 274759808 275702240 276712000 
1257.879 277798816 278968128 280220640 281552032 282954144 284415040 
1260.772 285918080 287442400 288963040 290452736 291883328 293227776 
1263.665 294460768 295557888 296493952 297242240 297773632 298060224 
1266.558 298077120 297804992 297233024 296356608 295176256 293694816 
1269.451 291914624 289837568 287465920 284804608 281862720 278654112 
1272.344 275196704 271511392 267620832 263548704 259320288 254961424 
1275.237 250499632 245962336 241375920 236762864 232142480 227529232 
1278.130 222934976 218369648 213843168 209366256 204950928 200609840 
1281.023 196355984 192201232 188156320 184230304 180430912 176764224 
1283.916 173235936 169851136 166615520 163534416 160613184 157856208 
1286.809 155265632 152841168 150579360 148474512 146519856 144709024 
1289.702 143037120 141501072 140099024 138828832 137685728 136661328 
1292.595 135742688 134913280 134154824 133449760 132784176 132148624 
1295.489 131539224 130956576 130404088 129886504 129407984 128970456 
1298.382 128574488 128218832 127900960 127618704 127370240 127154368 
1301.275 126970216 126815928 126687912 126578984 126478088 126370864 
1304.168 126241160 126073632 125856552 125583800 125256016 124879368 
1307.061 124463336 124017704 123549288 123059912 122546416 122000968 
1309.954 121413144 120772208 120068256 119293960 118444608 117518648 
1312.847 116518840 115451352 114327712 113163640 111979032 110795568 
1315.740 109635080 108517176 107456880 106464072 105543432 104695056 
1318.633 103915424 103198424 102536128 101918336 101333280 100768536 
1321.526 100212416 99655824 99094872 98530928 97971704 97428808 96915672 
1324.901 96444464 96024352 95660768 95356144 95111000 94926552 94805136 
1328.277 94750952 94768216 94861688 95034080 95287792 95624256 96045536 
1331.652 96554336 97154248 97848056 98635864 99513128 100470056 101491664 
1335.027 102559408 103653816 104756968 105853880 106932968 107985664 
1337.920 109004856 109983920 110916224 111796616 112622384 113395592 
1340.813 114123416 114818080 115495496 116173544 116869648 117600288 
1343.706 118380688 119224672 120145536 121155168 122263640 123477800 
1346.599 124800264 126229328 127758648 129378792 131078528 132845280 
1349.492 134666320 136527952 138415296 140312416 142203248 144070960 
1352.385 145899792 147674864 149381600 151005520 152532032 153946800 
1355.279 155236768 156392432 157408176 158282928 159019120 159621440 
1358.172 160095568 160448576 160689888 160832944 160896416 160903744 
1361.065 160880896 160851888 160834976 160838320 160859968 160887232 
1363.958 160901360 160880528 160802640 160646592 160391584 160015232 
1366.851 159493200 158797360 157899328 156774000 155405536 153793360 
1369.744 151957856 149942816 147816240 145667440 143600352 141726816 
1372.637 140156864 138991040 138312000 138179696 138626224 139655904 
1375.530 141243984 143339424 145868032 148736080 151835184 155047536 
1378.423 158253024 161334672 164185952 166714496 168843456 170512048 
1381.316 171673504 172294320 172353872 171845376 170776096 169167504 
1384.209 167052768 164473616 161477200 158113952 154436464 150498880 
1387.102 146357488 142068448 137686464 133260728 128832656 124433656 
1389.995 120085192 115800064 111585896 107448632 103395960 99440152 95599384 
1393.371 91896776 88358416 85008936 81869208 78952688 76264944 73804864 
1396.746 71567424 69545704 67733728 66126788 64721288 63513472 62499152 
1400.121 61672056 61025416 60552340 60248128 60110860 60142456 60347980 
1403.496 60733584 61304016 62058248 62984480 64057312 65234892 66459148 
1406.872 67659368 68757136 69673184 70334848 70683272 70677688 70299416 
1410.247 69553328 68466744 67087492 65479300 63715876 61875216 60030816 
1413.622 58247212 56573576 55041580 53665964 52446388 51372324 50428888 
1416.997 49600180 48873076 48238732 47691508 47227824 46844852 46538972 
1420.373 46305076 46137428 46030376 45978948 45979464 46027856 46119412 
1423.748 46246912 46399540 46564508 46728188 46880020 47015464 47138408 
1427.123 47261592 47405352 47593468 47850152 48196328 48647904 49215624 
1430.498 49906128 50723436 51670016 52746888 53953864 55289736 56752932 
1433.874 58343432 60064720 61924448 63934988 66112348 68474088 71038512 
1437.249 73824008 76850096 80137360 83707712 87582544 91779160 96307168 
1440.624 101164888 106337936 111798832 117509152 123420072 129474520 
1443.517 135607504 141747968 147820592 153750368 159465440 164900704 
1446.410 169999536 174714272 179006880 182850304 186230576 189147904 
1449.303 191615152 193654720 195291664 196547744 197437536 197967760 
1452.196 198139168 197950096 197398464 196480896 195191072 193518048 
1455.089 191446800 188963392 186061312 182747904 179046608 174994672 
1457.982 170635632 166012736 161163520 156120352 150912880 145572416 
1460.875 140133824 134635648 129116488 123613544 118160048 112786480 
1463.769 107522136 102396296 97438216 92674840 88127688 83812328 79737328 
1467.144 75906928 72323096 68987120 65900064 63060896 60464464 58099968 
1470.519 55951328 53998288 52218204 50587492 49083736 47685688 46373804 
1473.894 45131240 43944524 42804456 41706884 40651408 39640508 38677036 
1477.270 37762328 36894964 36070884 35284040 34527604 33796132 33085122 
1480.645 32392398 31717834 31063226 30431114 29824798 29247050 28698906 
1484.020 28178462 27681166 27200668 26730178 26265576 25806292 25356424 
1487.395 24923640 24516468 24142316 23804630 23502316 23230494 22982458 
1490.771 22751232 22532378 22323430 22125260 21940786 21774812 21633544 
1494.146 21524500 21455534 21433014 21460874 21538500 21660932 21819980 
1497.521 22007904 22220290 22458822 22733484 23058816 23450450 23918876 
1500.896 24463980 25071902 25714616 26353012 26941672 27435838 27795748 
1504.271 27992230 28008122 27840388 27499660 27008884 26401110 25715040 
1507.647 24991688 24269514 23581780 22953630 22401762 21934338 21551514 
1511.022 21247220 21010554 20827808 20684512 20567060 20463988 20366662 
1514.397 20270214 20171906 20072614 19974106 19879478 19792002 19713802 
1517.772 19645974 19587954 19538344 19495504 19458124 19425706 19397984 
1521.148 19375016 19356184 19339520 19322688 19302982 19279260 19252038 
1524.523 19224120 19199716 19182010 19173030 19171072 19171606 19167918 
1527.898 19154274 19126646 19085028 19032590 18974956 18917604 18864702 
1531.273 18817250 18773264 18728468 18678264 18618628 18547670 18465856 
1534.649 18375374 18279458 18181926 18085392 17991320 17900602 17813598 
1538.024 17730534 17652602 17581856 17521176 17473136 17438476 17415584 
1541.399 17399544 17383488 17360078 17323906 17273960 17213802 17151302 
1544.774 17096014 17056024 17035554 17032986 17042344 17055226 17063804 
1548.150 17063490 17053964 17038530 17022242 17010054 17004540 17005874 
1551.525 17012058 17020404 17028118 17033934 17037060 17037960 17036964 
1554.900 17034430 17030566 17025802 17020872 17017152 17016232 17020548 
1558.275 17032114 17053432 17086152 17131558 17189026 17256394 17329326 
1561.651 17402734 17471250 17530988 17580512 17621186 17656294 17689724 
1565.026 17723756 17758606 17792196 17821754 17845310 17864074 17882102 
1568.401 17907180 17946896 18009000 18097906 18215674 18361332 18533586 
1571.776 18731032 18952430 19196854 19462430 19745222 20039090 20336000 
1575.152 20626542 20900582 21148654 21361394 21530700 21648944 21710714 
1578.527 21712546 21654862 21541738 21381470 21184844 20964666 20733188 
1581.902 20502082 20281494 20080876 19908386 19770558 19670860 19608388 
1585.277 19576744 19564970 19559234 19546466 19517676 19469488 19405092 
1588.653 19331892 19259086 19193984 19141196 19100894 19070916 19047962 
1592.028 19029820 19015626 19006248 19003914 19011022 19029806 19062010 
1595.403 19109124 19171758 19249710 19341914 19446210 19559780 19680730 
1598.778 19808094 19944332 20093932 20263900 20461916 20694424 20965802 
1602.154 21277236 21626396 22008826 22418290 22848176 23291212 23740502 
1605.529 24189020 24629482 25053980 25454288 25821564 26146488 26420710 
1608.904 26636716 26790072 26880242 26910302 26887580 26821788 26723166 
1612.279 26600586 26459472 26302482 26129726 25942146 25742686 25538498 
1615.655 25339796 25158408 25003984 24881420 24789448 24721092 24666190 
1619.030 24614872 24560634 24501470 24440272 24382490 24334238 24300756 
1622.405 24284446 24285762 24302944 24333494 24374032 24421114 24470174 
1625.780 24516248 24554426 24580066 24590976 24587988 24575558 24560876 
1629.156 24552050 24555854 24575756 24610432 24655088 24701894 24743462 
1632.531 24774856 24795568 24808996 24821810 24840520 24869336 24908432 
1635.906 24952992 24996070 25030226 25050580 25056554 25051782 25041326 
1639.281 25030970 25023478 25018282 25012124 25001170 24982826 24956864 
1642.656 24927098 24898562 24877052 24865738 24866486 24878630 24901052 
1646.032 24932910 24974390 25026572 25089414 25161284 25238968 25318230 
1649.407 25395556 25471174 25548256 25633494 25735004 25858766 26006908 
1652.782 26175716 26356882 26539262 26712122 26867296 27001242 27113454 
1656.157 27207742 27290284 27369462 27455130 27558260 27687620 27850030 
1659.533 28047492 28276634 28530526 28800564 29079504 29363696 29653656 
1662.908 29953544 30268312 30601562 30953854 31322918 31705230 32097996 
1666.283 32500420 32914094 33340958 33782192 34235580 34695996 35155848 
1669.658 35608396 36049028 36477816 36898356 37316968 37740536 38174632 
1673.034 38622540 39085124 39561024 40048084 40543192 41043540 41547436 
1676.409 42054420 42566736 43088592 43625960 44184576 44768284 45376928 
1679.784 46005668 46646012 47288096 47923708 48547640 49159852 49763172 
1683.159 50363180 50965128 51573584 52191604 52822172 53468272 54133984 
1686.535 54823948 55542956 56295472 57085356 57916580 58793684 59722252 
1689.910 60708744 61758340 62873952 64055300 65300108 66606604 67977496 
1693.285 69422600 70960344 72615656 74416176 76385696 78541552 80891968 
1696.660 83440744 86192600 89160000 92368376 95855400 99666912 103850528 
1700.036 108449744 113501192 119036536 125088512 131699472 138925568 
1702.929 146837408 155514656 165036672 175472576 186873888 199271728 
1705.822 212675456 227076768 242449536 258751392 275920512 293877568 
1708.715 312526080 331759360 351462304 371512064 391771648 412079456 
1711.608 432239296 452018208 471152576 489366400 506393504 522000960 
1714.501 536010080 548311872 558879360 567774144 575143040 581201344 
1717.394 586199424 590383104 593953024 597041792 599711296 601970688 
1720.287 603802240 605187200 606118336 606603392 606659584 606310016 
1723.180 605581824 604515200 603165952 601606912 599917824 598170688 
1726.073 596414656 594668480 592925376 591168768 589387968 587592384 
1728.966 585811008 584084096 582447808 580925440 579524288 578243584 
1731.859 577088832 576080640 575261248 574689600 574431680 574552704 
1734.752 575113536 576174656 577800704 580068416 583061824 586866368 
1737.646 591556160 597185856 603787008 611375616 619962880 629567296 
1740.539 640214080 651929472 664721024 678557824 693358016 708988608 
1743.432 725277120 742029888 759047424 776130816 793076544 809668480 
1746.325 825672256 840842240 854938688 867746944 879091840 888838976 
1749.218 896882304 903135296 907522240 909984960 910494016 909061056 
1752.111 905731392 900572672 893650944 885018304 874711488 862771264 
1755.004 849262848 834296768 818029184 800649408 782354624 763328000 
1757.897 743723456 723672320 703291200 682696704 662013440 641374144 
1760.790 620909056 600740608 580975424 561701632 542990528 524897984 
1763.683 507464064 490712288 474647168 459257888 444521568 430412576 
1766.576 416909888 404002368 391686400 379960672 368816928 358232416 
1769.469 348167072 338566752 329369152 320513472 311944864 303619840 
1772.362 295503392 287566528 279783776 272130336 264581616 257114800 
1775.255 249709584 242349568 235021776 227716624 220427056 213148960 
1778.148 205881792 198629776 191401568 184211392 177076544 170018080 
1781.042 163057280 156215920 149515440 142977552 136623424 130474448 
1783.935 124550104 118867144 113437616 108268480 103361008 98713176 94320368 
1787.310 90177384 86279464 82621480 79196984 75998168 73015160 70236392 
1790.685 67650008 65244248 63007236 60927108 58991932 57189988 55509788 
1794.060 53942116 52479572 51117268 49850872 48677044 47590724 46586764 
1797.436 45659784 44805668 44021768 43305904 42654800 42062496 41518320 
1800.811 41008572 40518888 40037480 39558124 39080956 38610540 38153280 
1804.186 37713292 37291448 36883536 36482880 36081792 35673556 35253296 
1807.561 34817008 34362716 33890052 33402424 32907776 32418810 31951696 
1810.937 31520336 31133068 30787496 30471164 30164408 29848122 29510776 
1814.312 29154176 28793442 28454008 28162734 27939682 27791584 27710588 
1817.687 27675710 27660656 27638598 27588878 27498430 27359744 27169876 
1821.062 26929010 26639654 26308624 25948046 25575086 25209852 24871716 
1824.438 24575008 24325206 24118622 23942472 23779668 23612144 23425540 
1827.813 23211068 22965802 22692988 22397558 22086868 21767166 21443564 
1831.188 21119116 20796622 20477766 20163792 19854322 19547924 19241360 
1834.563 18931770 18617842 18302504 17994594 17708352 17460884 17266492 
1837.938 17131584 17051694 17010044 16981200 16938698 16861800 16741833 
1841.314 16583884 16403148 16219119 16047804 15896682 15762581 15635597 
1844.689 15503642 15358927 15200512 15035440 14874301 14727200 14598562 
1848.064 14486213 14380614 14270175 14143037 13992463 13817325 13623483 
1851.439 13420044 13219605 13031715 12865101 12725074 12614821 12535477 
1854.815 12487617 12469947 12478622 12506225 12541526 12569658 12576299 
1858.190 12550234 12488318 12397098 12292140 12192898 12117959 12076720 
1861.565 12068204 12079156 12092370 12089485 12060902 12005226 11930841 
1864.940 11848962 11770873 11702348 11644330 11595383 11554384 11522528 
1868.316 11504030 11502602 11518509 11548501 11586363 11626822 11668121 
1871.691 11712838 11765068 11824504 11884036 11926780 11933943 11889495 
1875.066 11793521 11662273 11526691 11420567 11367626 11370481 11408989 
1878.441 11447200 11448118 11387340 11263950 11097949 10922546 10769262 
1881.817 10658249 10592365 10563860 10559865 10574392 10609857 10675773 
1885.192 10778113 10915532 11072867 11228029 11357685 11449243 11502474 
1888.567 11528701 11542307 11552111 11553535 11533739 11473716 11362323 
1891.942 11201318 11007410 10806459 10625662 10482944 10383209 10317825 
1895.318 10272125 10229137 10177094 10109571 10024007 9921100 9803069 
1898.693 9673663 9541985 9419235 9319491 9253839 9225868 9229673 9252788 
1902.550 9279678 9301413 9318504 9342555 9388254 9466473 9572518 9688021 
1906.408 9778988 9809847 9752410 9598570 9363017 9082971 8806844 8585587 
1910.265 8458073 8445626 8547111 8739228 8982077 9225823 9418663 9518836 
1914.123 9494869 9337506 9057373 8684323 8260277 7834570 7456418 7169559 
1917.980 7005688 6984052 7101223 7337854 7652091 7989084 8286656 8493283 
1921.837 8575632 8533386 8397995 8224975 8077327 8006354 8033664 8146650 
1925.695 8301913 8442583 8515244 8489574 8363639 8163795 7930223 7705439 
1929.552 7517950 7381050 7291140 7237332 7208219 7197946 7204327 7228540 
1933.410 7264847 7301754 7317022 7290262 7201142 7043166 6820784 6554955 
1937.267 6270646 5999161 5764676 5589758 5489545 5478942 5569274 5770358 
1941.125 6082743 6498532 6991483 7523147 8041824 8495701 8837043 9034895 
1944.982 9068727 8942435 8670959 8291189 7851111 7415015 7050773 6824978 
1948.839 6784228 6943932 7276856 7720661 8185863 8585063 8849893 8953591 
1952.697 8902319 8727965 8461437 8121188 7702222 7196299 6605078 5962287 
1956.554 5331930 4803125 4448646 4305632 4346150 4486971 4614633 4628174 
1960.412 4474221 4164364 3756163 3327270 2934069 2603216 2330249 2107979 
1964.269 1942211 1866615 1917517 2116840 2430497 2779658 3053907 3182115 
1968.126 3169150 3132481 3269916 3803846 4880108 6505882 8509569 10581888 
1971.984 12350230 13495862 13829998 13348375 12210378 10696767 9124380 
1975.359 7786758 6891880 6556985 6793177 7527384 8608009 9836362 10993089 
1979.217 11886263 12378979 12421867 12038751 11333252 10438501 9508855 
1982.592 8681013 8066105 7722909 7668542 7861420 8222137 8633080 8970143 
1986.449 9114916 8992659 8577816 7914537 7089628 6223491 5429767 4800454 
1990.307 4386808 4203921 4234574 4443325 4775008 5162965 5523701 5774633 
1994.164 5842081 5696064 5356626 4907633 4464174 4151994 4048422 4166967 
1998.021 4442203 4765329 5015717 5119411 5057392 4877298 4644632 4411250 
2001.879 4168155 3847041 3329226 2506743 1318594 -202185 -1932753 -3668593 
2005.736 -5181927 -6260480 -6768404 -6652893 -5956323 -4779380 -3269692 
2009.112 -1581323 120722 1692446 2998138 3935463 4434571 4481130 4109577 
2012.969 3416357 2540152 1658256 943111 545720 546518 943788 1629117 2426871 
2017.309 3116190 3506292 3479670 3043717 2305400 1450311 654056 32203 
2021.166 -414288 -772699 -1195703 -1809724 -2669498 -3714464 -4790035 
2024.541 -5691346 -6235487 -6310468 -5910869 -5117546 -4072215 -2912935 
2027.917 -1760156 -682008 271751 1074911 1685978 2058833 2149228 1948309 
2031.774 1490389 880420 262567 -194597 -357386 -153450 393984 1180734 
2035.631 2044607 2818839 3368936 3636035 3624829 3406441 3073590 2720174 
2039.489 2410299 2184264 2065035 2083891 2282100 2715211 3417905 4390265 
2043.346 5556106 6781482 7884745 8705785 9142011 9203406 9001803 8725022 
2047.204 8564411 8658566 9033252 9600776 10181218 10578326 10639929 10312048 
2051.061 9643674 8767886 7855852 7079489 6567079 6381597 6502571 6834306 
2054.918 7230972 7540294 7641812 7482956 7081750 6517925 5895307 5317421 
2058.776 4848681 4512647 4293010 4163021 4098353 4103839 4199228 4413928 
2062.633 4755528 5203705 5703780 6188323 6592999 6885864 7065621 7162140 
2066.491 7211988 7244806 7269767 7281617 7267630 7228968 7175431 7127745 
2070.348 7093936 7066198 7008983 6879873 6643641 6302031 5896085 5505204 
2074.206 5213704 5088746 5149673 5373401 5700564 6072673 6449958 6830766 
2078.063 7241544 7721598 8294237 8953365 9654930 10334422 10915986 11337278 
2081.920 11555555 11550964 11320768 10879585 10252235 9480976 8622988 
2085.296 7754409 6958476 6314190 5880128 5685639 5722383 5951614 6308107 
2089.153 6714897 7086890 7347984 7433687 7312541 6989652 6519619 5997620 
2093.010 5545867 5281295 5285443 5572880 6089356 6721126 7337732 7825210 
2096.868 8126065 8243838 8232336 8164498 8104211 8079476 8084492 8088805 
2100.725 8060256 7980075 7854701 7710320 7586548 7520135 7542731 7669516 
2104.583 7907009 8243967 8655567 9093828 9494481 9778920 9877428 9743157 
2108.440 9377115 8829719 8199962 7606228 7161994 6939795 6957097 7169019 
2112.298 7487058 7799983 8005582 8031358 7850043 7478508 6976303 6424168 
2116.155 5910925 5513783 5284596 5238875 5355752 5581799 5843965 6063133 
2120.012 6175384 6136474 5935213 5587157 5134861 4632966 4144824 3725517 
2123.870 3419566 3245368 3198912 3242954 3320099 3357760 3288792 3061031 
2127.727 2654760 2079282 1371667 577798 -255111 -1093710 -1914952 -2702890 
2131.585 -3431271 -4064889 -4548331 -4827669 -4858505 -4634505 -4189950 
2134.960 -3607165 -2996176 -2475487 -2137903 -2037793 -2173275 -2499410 
2138.335 -2930884 -3372732 -3739106 -3979501 -4086729 -4108693 -4132008 
2141.710 -4264330 -4594818 -5174654 -5985831 -6944861 -7918696 -8763568 
2145.086 -9358380 -9651096 -9658331 -9469875 -9208960 -9003733 -8945771 
2148.461 -9072212 -9358996 -9738995 -10123448 -10434860 -10627594 -10717923 
2151.836 -10772762 -10925102 -11322119 -12110225 -13378115 -15127681 
2154.729 -17246376 -19515326 -21633480 -23280624 -24167332 -24119034 
2157.622 -23110456 -21294352 -18979208 -16546655 -14357543 -12664750 
2160.515 -11557295 -10991094 -10810631 -10818565 -10808300 -10616935 
2163.408 -10150359 -9412806 -8507634 -7624020 -6970647 -6725574 -6958434 
2166.784 -7610659 -8494954 -9360253 -9958265 -10137782 -9880839 -9316834 
2170.159 -8674656 -8209576 -8108564 -8434736 -9096708 -9888164 -10540267 
2173.534 -10818947 -10574789 -9785429 -8544474 -7025421 -5419881 -3898506 
2176.909 -2574560 -1516576 -761968 -338507 -266054 -553367 -1163499 -2011849 
2180.767 -2954393 -3827034 -4472800 -4802523 -4805958 -4555530 -4157414 
2184.142 -3719667 -3295302 -2882901 -2435035 -1906961 -1285904 -628829 
2187.517 -39281 351077 445674 209331 -302594 -967929 -1623818 -2125286 
2191.375 -2368480 -2323290 -2012317 -1501717 -868653 -190924 468236 1053087 
2195.232 1528763 1877387 2110916 2271355 2426856 2642538 2964215 3381390 
2199.090 3836675 4229204 4464817 4493338 4343035 4113425 3949334 3974232 
2202.947 4241411 4692979 5184600 5520207 5535523 5154503 4422812 3489874 
2206.804 2558830 1805801 1327683 1111570 1061261 1043760 957581 772795 
2210.662 549341 403528 464169 811833 1450761 2300139 3227679 4088373 4778536 
2215.001 5251345 5524648 5655010 5710166 5735719 5752485 5748710 5707224 
2218.859 5614475 5477693 5320236 5173610 5063333 5002658 4991017 5026737 
2222.716 5110669 5257595 5486847 5811587 6222773 6682266 7125312 7483046 
2226.574 7701926 7773586 7732340 7654994 7621895 7692995 7878138 8137598 
2230.431 8391503 8559222 8585165 8464153 8238889 7985311 7776145 7663607 
2234.289 7656607 7732741 7848036 7964438 8061479 8138020 8205402 8272296 
2238.146 8336454 8386727 8412331 8417585 8427707 8489128 8646461 8928299 
2242.003 9323874 9781244 10219045 10555631 10730174 10726916 10570708 
2245.379 10317089 10015910 9696884 9350616 8940673 8421349 7771120 7006902 
2249.236 6194506 5429582 4816714 4433761 4317835 4454546 4793322 5262765 
2253.094 5797361 6346454 6881799 7389514 7862686 8291519 8663332 8963840 
2256.951 9186063 9331104 9409985 9434129 9411208 9337639 9205319 9005842 
2260.808 8747444 8456965 8183220 7983338 7906136 7971167 8165394 8439561 
2264.666 8731029 8981124 9161452 9277008 9366241 9478045 9653330 9903939 
2268.523 10212128 10534903 10828041 11060239 11228365 11351838 11461899 
2271.898 11581918 11714954 11838994 11918424 11917443 11821971 11646237 
2275.274 11433697 11242012 11127158 11125015 11242822 11460393 11741649 
2278.649 12045265 12340919 12610008 12848821 13061914 13256834 13438613 
2282.024 13608239 13762703 13896464 14002752 14075399 14105778 14090863 
2285.399 14030015 13932277 13814304 13701518 13620658 13594327 13633087 
2288.775 13732679 13871545 14019876 14144505 14219002 14229388 14176467 
2292.150 14071455 13934054 13782673 13632868 13492343 13364264 13246700 
2295.525 13138581 13039445 12952455 12884478 12844388 12841685 12885571 
2298.900 12980944 13127002 13316768 13534769 13761412 13972729 14147128 
2302.276 14267619 14326097 14325149 14275498 14195473 14104347 14020468 
2305.651 13955851 13917707 13906512 13921510 13958996 14018678 14100414 
2309.026 14206088 14334948 14484761 14647010 14811681 14965561 15098302 
2312.401 15202096 15276533 15325634 15358017 15384032 15412391 15449408 
2315.777 15497429 15554508 15618164 15683016 15747664 15813669 15890863 
2319.152 15996199 16154457 16392337 16730273 17171782 17694290 18244468 
2322.527 18742404 19096696 19222660 19065466 18613304 17900414 17001006 
2325.902 16013006 15037067 14157751 13430029 12872656 12471702 12193184 
2329.278 11995767 11845086 11720844 11615624 11530759 11468527 11428306 
2332.653 11404875 11391208 11382847 11380197 11388647 11414470 11459714 
2336.028 11520867 11586825 11644668 11682324 11695390 11686906 11666115 
2339.403 11644213 11628498 11620857 11617758 11612932 11602532 11585847 
2342.779 11567349 11552688 11545326 11543145 11539626 11523769 11486600 
2346.154 11423794 11338085 11240471 11146214 11071347 11029964 11030420 
2349.529 11075097 11158920 11269550 11388509 11493503 11561744 11574993 
2352.904 11524619 11414852 11262550 11094198 10937870 10816362 10740011 
2356.280 10706789 10703376 10713301 10721177 10717919 10699660 10665592 
2359.655 10611054 10530185 10411679 10248180 10038730 9795974 9542983 
2363.030 9308519 9118334 8988393 8917522 8893020 8894833 8907083 8923530 
2366.887 8950029 9000119 9086477 9211753 9365367 9522234 9652797 9729913 
2370.745 9740378 9687873 9591962 9480874 9383790 9321904 9306657 9337121 
2374.602 9406186 9502282 9615430 9736896 9860810 9980733 10091173 10184240 
2378.460 10253795 10294960 10307479 10295391 10268242 10237978 10217979 
2381.835 10218931 10247386 10302802 10380018 10467401 10553627 10626325 
2385.210 10677020 10702497 10703702 10686051 10657605 10628187 10608030 
2388.585 10606895 10633506 10693084 10785732 10904119 11033695 11153806 
2391.961 11242013 11278735 11253037 11164565 11025642 10855738 10679539 
2395.336 10518775 10390278 10302800 10260201 10260420 10300193 10374089 
2398.711 10476113 10597062 10726023 10850711 10959228 11042229 11095352 
2402.086 11119538 11122494 11114346 11107722 11113895 11143179 11199696 
2405.462 11282583 11383880 11489339 11580658 11640725 11656044 11625620 
2408.837 11559433 11478859 11409638 11377045 11394502 11461796 11564268 
2412.212 11677859 11774854 11833485 11842886 11805047 11730304 11635549 
2415.587 11536152 11444089 11366972 11307634 11268357 11252061 11261512 
2418.963 11300213 11367369 11457091 11555936 11644364 11700305 11705069 
2422.338 11647508 11530356 11368774 11189782 11025117 10902863 10841301 
2425.713 10844592 10902464 10995295 11101009 11202144 11288769 11359982 
2429.088 11420243 11474671 11524075 11566256 11594120 11603180 11591305 
2432.464 11562234 11522964 11480743 11438754 11395769 11345674 11282838 
2435.839 11203832 11110852 11010988 10913622 10827079 10756750 10703700 
2439.214 10668346 10649716 10649126 10666340 10699002 10738134 10769434 
2442.589 10776385 10744577 10668597 10556197 10425441 10300622 10203336 
2445.965 10147829 10135999 10159932 10208190 10270962 10344738 10433052 
2449.340 10541648 10674402 10827807 10991711 11149963 11287197 11391325 
2452.715 11457880 11487982 11486789 11458471 11406387 11330276 11229966 
2456.090 11106439 10964128 10809854 10654556 10508183 10383162 10289442 
2459.466 10236005 10227811 10264052 10335383 10424612 10506799 10555739 
2462.841 10549398 10477616 10345141 10171334 9984549 9814207 9682406 9598799 
2466.698 9560103 9553148 9560294 9567029 9563371 9548317 9525252 9501597 
2470.556 9483796 9476232 9480063 9494639 9515085 9537110 9555921 9569443 
2474.413 9576686 9581530 9588443 9602727 9626368 9656810 9685440 9702317 
2478.271 9697082 9666068 9613578 9552534 9501995 9481538 9505109 9580038 
2482.128 9703461 9866538 10054701 10251936 10440308 10600771 10712419 
2485.503 10756334 10719489 10601261 10417608 10203378 10005501 9873309 
2488.878 9844930 9935318 10130160 10390174 10660100 10885754 11027387 
2492.254 11072064 11030402 10934236 10820679 10720948 10652068 10615472 
2495.629 10600659 10594270 10588299 10584913 10594476 10632128 10707495 
2499.004 10821283 10960803 11103240 11223067 11299744 11326209 11308458 
2502.379 11264309 11216293 11181664 11166384 11160488 11141507 11081431 
2505.755 10956842 10756237 10489681 10183844 9883092 9632943 9475062 9433614 
2509.612 9510326 9685408 9922025 10175158 10403917 10577423 10682257 
2512.987 10720631 10706794 10660064 10600025 10540470 10491920 10459172 
2516.363 10448300 10464444 10514700 10602040 10724045 10868955 11017475 
2519.738 11144736 11226418 11245947 11198055 11088447 10934749 10757719 
2523.113 10581154 10423374 10297975 10212556 10170682 10170850 10209875 
2526.488 10280010 10371812 10473124 10571185 10653217 10708213 10726164 
2529.864 10699263 10623335 10500738 10341113 10165529 10004980 9895616 
2533.239 9869807 9946568 10122330 10368039 10634419 10864818 11008696 
2536.614 11039224 10960750 10805666 10626345 10479762 10410672 10442460 
2539.989 10573329 10779396 11025118 11269622 11477682 11622011 11685434 
2543.365 11662869 11560230 11395044 11195496 10997012 10837077 10746698 
2546.740 10742684 10824145 10972306 11155761 11338890 11492844 11600181 
2550.115 11658899 11677840 11673216 11658762 11645585 11637187 11634683 
2553.490 11637394 11648655 11672238 11715673 11780434 11862512 11950018 
2556.865 12025146 12070671 12076457 12044117 11990168 11939370 11919589 
2560.241 11950300 12035741 12161367 12298209 12410568 12470258 12462557 
2563.616 12391550 12275252 12139682 12006395 11886993 11780787 11679881 
2566.991 11578346 11479098 11397786 11360985 11396393 11523073 11743082 
2570.366 12038880 12376122 12712986 13008869 13233615 13369714 13411050 
2573.742 13361004 13229211 13029198 12780298 12509011 12248043 12033032 
2577.117 11896682 11859288 11925306 12078309 12287886 12514608 12721399 
2580.492 12881774 12985047 13036704 13054547 13062263 13083491 13132956 
2583.867 13216916 13327600 13449775 13561694 13642439 13676034 13659153 
2587.243 13599745 13518974 13443992 13401360 13409588 13471998 13575169 
2590.618 13693074 13793387 13847067 13836079 13759435 13632161 13481890 
2593.993 13340716 13237515 13189432 13200760 13261516 13353464 13453982 
2597.368 13544877 13614472 13662481 13695609 13726829 13768784 13830906 
2600.744 13915729 14019263 14132099 14243063 14340803 14416485 14463714 
2604.119 14479767 14464003 14420000 14354733 14280524 14213469 14170440 
2607.494 14166765 14209719 14296099 14413160 14539555 14653133 14735658 
2610.869 14780006 14788347 14771614 14742422 14709277 14672169 14624523 
2614.245 14554927 14455124 14325550 14178914 14036899 13926438 13871771 
2617.620 13886620 13971018 14112638 14289033 14475013 14648076 14791495 
2620.995 14896272 14960262 14986074 14980116 14951875 14913583 14879597 
2624.370 14865944 14885331 14947197 15050697 15186785 15338810 15485973 
2627.746 15609372 15696809 15744548 15759621 15753062 15739074 15728438 
2631.121 15729025 15741894 15767148 15803289 15850585 15907902 15974972 
2634.496 16047822 16118670 16176967 16213588 16221870 16203567 16167449 
2637.871 16127238 16098626 16092876 16113732 16156768 16210111 16261084 
2641.247 16299289 16320730 16328150 16330507 16336860 16353702 16381208 
2644.622 16413974 16441323 16451968 16437180 16394099 16326634 16244462 
2647.997 16160043 16085656 16030112 15996981 15983688 15982144 15983270 
2651.372 15977180 15956838 15919819 15867373 15804306 15736312 15668210 
2654.748 15601959 15537469 15473318 15407628 15339955 15272352 15207938 
2658.123 15150553 15102340 15062056 15025331 14984751 14932550 14861932 
2661.498 14768340 14651944 14515149 14363763 14204477 14044083 13889104 
2664.873 13744988 13616207 13506697 13419676 13357658 13320650 13308750 
2668.249 13318221 13345047 13382616 13424583 13463434 13493258 13510377 
2671.624 13513533 13504596 13487414 13467001 13448280 13433409 13422742 
2674.999 13414044 13403551 13387221 13362452 13328884 13287587 13241070 
2678.374 13191667 13141259 13091104 13042009 12995236 12953293 12920051 
2681.750 12899915 12896662 12910575 12940401 12980129 13023290 13062237 
2685.125 13091304 13107693 13111304 13105107 13094134 13083065 13076317 
2688.500 13076501 13085874 13103990 13129501 13158809 13188218 13212676 
2691.875 13228211 13232114 13224559 13208245 13188406 13170182 13158182 
2695.250 13152861 13151510 13148262 13136427 13109856 13067191 13010317 
2698.626 12946553 12885486 12836061 12804258 12791347 12793267 12802791 
2702.001 12810596 12808268 12790361 12756241 12709252 12656267 12605802 
2705.376 12566736 12543874 12540312 12554237 12581769 12616654 12653910 
2708.751 12689004 12721205 12751147 12780741 12809798 12838049 12861495 
2712.127 12875499 12876244 12863356 12840285 12814203 12794476 12789293 
2715.502 12802660 12832679 12872717 12912860 12943462 12958138 12955066 
2718.877 12937418 12911292 12883335 12859195 12842336 12833037 12831481 
2722.252 12837037 12849342 12868582 12894674 12926063 12961026 12995816 
2725.628 13027148 13052742 13072403 13087140 13099413 13112146 13126806 
2729.003 13144301 13164089 13184981 13205970 13225503 13243122 13258547 
2732.378 13271417 13281815 13289655 13295936 13302219 13310615 13324599 
2735.753 13347116 13379997 13422794 13473222 13525409 13573398 13610204 
2739.129 13631510 13635472 13624187 13602154 13574878 13545935 13516342 
2742.504 13484072 13444528 13393761 13331021 13259072 13185626 13120987 
2745.879 13076107 13058532 13071315 13111616 13173104 13246587 13322489 
2749.254 13393544 13453936 13499606 13528890 13540755 13536216 13516821 
2752.630 13485523 13445083 13397985 13344688 13285102 13219588 13149904 
2756.005 13080196 13018315 12972670 12950649 12956055 12987236 13037279 
2759.380 13096678 13154987 13203335 13235977 13249665 13242173 13211819 
2762.755 13158414 13084164 12994989 12903662 12824344 12773614 12761582 
2766.131 12791131 12854323 12937090 13021839 13095869 13152861 13195687 
2769.506 13232588 13273400 13323045 13381433 13442352 13497256 13539545 
2772.881 13566523 13580219 13585742 13587822 13589347 13590594 13592024 
2776.256 13592895 13596002 13605993 13626507 13659498 13703210 13752247 
2779.632 13799437 13838263 13865731 13882208 13890489 13893548 13892974 
2783.007 13888198 13878289 13862034 13842504 13823154 13811080 13811043 
2786.382 13825761 13854396 13892850 13936087 13979709 14021852 14062139 
2789.757 14101133 14139673 14178786 14218945 14262672 14312593 14371616 
2793.133 14440211 14513521 14581794 14631539 14649812 14628247 14569075 
2796.508 14484759 14396479 14327120 14296758 14315265 14382103 14487447 
2799.883 14615745 14752457 14886974 15013286 15129873 15237208 15334521 
2803.258 15419366 15487968 15537022 15566143 15577760 15578554 15576619 
2806.634 15580424 15596665 15628742 15676187 15735248 15799418 15862294 
2810.009 15916705 15959907 15991617 16015781 16037878 16063573 16096449 
2813.384 16136799 16180849 16224155 16262377 16294654 16324297 16357541 
2816.759 16402053 16464271 16546005 16646037 16760221 16882782 17009568 
2820.135 17136502 17259886 17376598 17480934 17568146 17633570 17677288 
2823.510 17703562 17721868 17744264 17782522 17843304 17929192 18035640 
2826.885 18154678 18277288 18396616 18508674 18611926 18706370 18792382 
2830.260 18868424 18932880 18982878 19018218 19038804 19047572 19048528 
2833.635 19046332 19045282 19048906 19059108 19075708 19096226 19116554 
2837.011 19129924 19131268 19118188 19092304 19062590 19041752 19044890 
2840.386 19084822 19167406 19290278 19442088 19608794 19776440 19937846 
2843.761 20094440 20256950 20440614 20659830 20922890 21228486 21564686 
2847.136 21913186 22253348 22567290 22844592 23082328 23285362 23461736 
2850.512 23622220 23775748 23927796 24082232 24240010 24401042 24563980 
2853.887 24726308 24884092 25033056 25167804 25286096 25387914 25478960 
2857.262 25567908 25666756 25786430 25934196 26112116 26316342 26538968 
2860.637 26771388 27006252 27239692 27471592 27703032 27935372 28170154 
2864.013 28407100 28647852 28895626 29157918 29444652 29765006 30125250 
2867.388 30525822 30960362 31420336 31896132 32383196 32883000 33403098 
2870.763 33952708 34537660 35156432 35797260 36441868 37067984 37656836 
2874.138 38197564 38689076 39138884 39558008 39957044 40339800 40703096 
2877.514 41036176 41325688 41558660 41726768 41828348 41868412 41855288 
2880.889 41799320 41708800 41590116 41446244 41280308 41095388 40897116 
2884.264 40691792 40484752 40279660 40074724 39864928 39644324 39410856 
2887.639 39169260 38934736 38729796 38579792 38504880 38514668 38603252 
2891.015 38752832 38937648 39131636 39315544 39479152 39621668 39746520 
2894.390 39857668 39956084 40041072 40111328 40169132 40222088 40280332 
2897.765 40354540 40450000 40563448 40685268 40799312 40892048 40954340 
2901.140 40985184 40989408 40974572 40947700 40912568 40868688 40816140 
2904.516 40755336 40689628 40625100 40568012 40523624 40495940 40488136 
2907.891 40506788 40558384 40651392 40791024 40974340 41189908 41417648 
2911.266 41635320 41827172 41989096 42132124 42277720 42451116 42669232 
2914.641 42937304 43243984 43568844 43891276 44197488 44486052 44767252 
2918.017 45056520 45367896 45706708 46070708 46450064 46833164 47211088 
2921.392 47580788 47942280 48298248 48651900 49003964 49356332 49712632 
2924.767 50077404 50458232 50861388 51290024 51743092 52216856 52707536 
2928.142 53215148 53745780 54310428 54921424 55590180 56321424 57115052 
2931.518 57966752 58874024 59835992 60859232 61952880 63128292 64394540 
2934.893 65757444 67219528 68780528 70439032 72194320 74042592 75978432 
2938.268 77990848 80066880 82189728 84342136 86506352 88662160 90784696 
2941.643 92841840 94793504 96596056 98205200 99585632 100713720 101580192 
2945.019 102187064 102544552 102664864 102561528 102250296 101751368 
2947.912 101092120 100307184 99433144 98503944 97541160 96555312 95543880 
2951.287 94499784 93417520 92301544 91166368 90037192 88941592 87903712 
2954.662 86938528 86051264 85238624 84493280 83805880 83168272 82572064 
2958.037 82008536 81467840 80939224 80414616 79888072 79358136 78828264 
2961.413 78301248 77777528 77253736 76721672 76170480 75590936 74977424 
2964.788 74333096 73666328 72991360 72325088 71682728 71076112 70510424 
2968.163 69984664 69491248 69018296 68550456 68074144 67580832 67068072 
2971.538 66541044 66012404 65497400 65009668 64558632 64146764 63770296 
2974.914 63422084 63096932 62792352 62513948 62273380 62086812 61972456 
2978.289 61945112 62014264 62181400 62441444 62782140 63188248 63647008 
2981.664 64149344 64695544 65294640 65963640 66722296 67589512 68577048 
2985.039 69688056 70914952 72244432 73659872 75146072 76691976 78289608 
2988.415 79930440 81602952 83285296 84947192 86546232 88035760 89368920 
2991.790 90505624 91417848 92094856 92541960 92777152 92826616 92717312 
2995.165 92470752 92100344 91610880 91000672 90266792 89410448 88439768 
2998.540 87368824 86214240 84992024 83711088 82373208 80974000 79507240 
3001.916 77970528 76368384 74713672 73026040 71326824 69634656 67962936 
3005.291 66317356 64697316 63100628 61521692 59958688 58410400 56880340 
3008.666 55373220 53897092 52460584 51072380 49738488 48460196 47232308 
3012.041 46044692 44883592 43737824 42600128 41471200 40358876 39275648 
3015.417 38234640 37246156 36316360 35447532 34638640 33889704 33197482 
3018.792 32557998 31961068 31392294 30832498 30263046 29671434 29056062 
3022.167 28426758 27802884 27206000 26652852 26151280 25699092 25286150 
3025.542 24903862 24546482 24217380 23924412 23675022 23470438 23300742 
3028.917 23146336 22981790 22783300 22536672 22240782 21907080 21555900 
3032.293 21209090 20883908 20591364 20332478 20105308 19904336 19725382 
3035.668 19567828 19432498 19320726 19232204 19163366 19108810 19061588 
3039.043 19017012 18972420 18930468 18896686 18879238 18885200 18920192 
3042.418 18983422 19070402 19171326 19275360 19369298 19442284 19485196 
3045.794 19493094 19464020 19401230 19311380 19205320 19094520 18991790 
3049.169 18905124 18838930 18790354 18754880 18725236 18697846 18672906 
3052.544 18655342 18652236 18667596 18700202 18742976 18783408 18809472 
3055.919 18814084 18798668 18770302 18740800 18719094 18706834 18699198 
3059.295 18686212 18659754 18618788 18570304 18530340 18514642 18533914 
3062.670 18587768 18665106 18747410 18816462 18860616 18878312 18877574 
3066.045 18871066 18870012 18880708 18901716 18928606 18954476 18975502 
3069.420 18991168 19003028 19012926 19019936 19021684 19014552 18996062 
3072.796 18967238 18932204 18896958 18865522 18839656 18817084 18793886 
3076.171 18766548 18734754 18699440 18664316 18632388 18603970 18577608 
3079.546 18551550 18526208 18506132 18498682 18510892 18546606 18602216 
3082.921 18664476 18715152 18734450 18707636 18629824 18507736 18356808 
3086.297 18197966 18048736 17920002 17812594 17718746 17623418 17511996 
3089.672 17374726 17211398 17031136 16854158 16703075 16601127 16563466 
3093.047 16593955 16684853 16819170 16974412 17131172 17275012 17400726 
3096.422 17507054 17597934 17674704 17735902 17778192 17797602 17793922 
3099.798 17770048 17734092 17693756 17654240 17614398 17568300 17508542 
3103.173 17430230 17336172 17235420 17144024 17077188 17044830 17046746 
3106.548 17073886 17110630 17140602 17151712 17139560 17105392 17056924 
3109.923 17000300 16941992 16883876 16827518 16775217 16731879 16706903 
3113.299 16711060 16754696 16843688 16976182 17140298 17316508 17480346 
3116.674 17606278 17673978 17672210 17601472 17474712 17312030 17137900 
3120.049 16973894 16835296 16728284 16652552 16602978 16573284 16559925 
3123.424 16559338 16567970 16580379 16587548 16576797 16538991 16469825 
3126.800 16374746 16269259 16175495 16115792 16106632 16153075 16247695 
3130.175 16372688 16505392 16622605 16707411 16749693 16747858 16707139 
3133.550 16638031 16553983 16470540 16401375 16357007 16341960 16354045 
3136.925 16384538 16423035 16457971 16484285 16501555 16516089 16535999 
3140.301 16567186 16610702 16661296 16708845 16741971 16752450 16736463 
3143.676 16696645 16640047 16576579 16517105 16471956 16450111 16456008 
3147.051 16489871 16544858 16607251 16657099 16675176 16647730 16573906 
3150.426 16467096 16354451 16267141 16233066 16263455 16351989 16473439 
3153.802 16594518 16683267 16720839 16707310 16659483 16605191 16571946 
3157.177 16578183 16628049 16712565 16813214 16911040 16991730 17048918 
3160.552 17086506 17112126 17137008 17168048 17207484 17250538 17286920 
3163.927 17302504 17283270 17218798 17107794 16958328 16789074 16625419 
3167.302 16496889 16425898 16425954 16495392 16619690 16774761 16934782 
3170.678 17077534 17190022 17268610 17318382 17347200 17361970 17367274 
3174.053 17363520 17350078 17328104 17301116 17275828 17259480 17257094 
3177.428 17268772 17289516 17309948 17320360 17312852 17286676 17246084 
3180.803 17202176 17167430 17153700 17167296 17208652 17272666 17348660 
3184.179 17425748 17493996 17546340 17580960 17598480 17603496 17600492 
3187.554 17594702 17589558 17589328 17597018 17616482 17651150 17701780 
3190.929 17767850 17843686 17919658 17984080 18025698 18036780 18015814 
3194.304 17969108 17906624 17842198 17784938 17739460 17701482 17661772 
3197.680 17608854 17534246 17436870 17323802 17209952 17112934 17049598 
3201.055 17031766 17064290 17145910 17270956 17431726 17619326 17822598 
3204.430 18029294 18224458 18390656 18511708 18575318 18576606 18521352 
3207.805 18422150 18298576 18169162 18050604 17952484 17879012 17830624 
3211.181 17805714 17804510 17827124 17874754 17946128 18037908 18142018 
3214.556 18250052 18353372 18445076 18521370 18582248 18628994 18664194 
3217.931 18691090 18714096 18738412 18770730 18816572 18879628 18958060 
3221.306 19044096 19123774 19181614 19203322 19182160 19119628 19026872 
3224.682 18922394 18825368 18750844 18708366 18698378 18715150 18748618 
3228.057 18790114 18833140 18874774 18915656 18957314 18999740 19039902 
3231.432 19072156 19089980 19087076 19062344 19020556 18973110 18935100 
3234.807 18922278 18944546 19003332 19089092 19182490 19261132 19304456 
3238.183 19302112 19256902 19185788 19114548 19071256 19078118 19144746 
3241.558 19265612 19422680 19589398 19737876 19845328 19898638 19896252 
3244.933 19846980 19768144 19680344 19604086 19554202 19538778 19555320 
3248.308 19593140 19635124 19663256 19662680 19627160 19559414 19472214 
3251.684 19384768 19316422 19283016 19294394 19352772 19454560 19590824 
3255.059 19749670 19917438 20079258 20218704 20322404 20379504 20389090 
3258.434 20357828 20303882 20249260 20216214 20219422 20260882 20328988 
3261.809 20403690 20460660 20480242 20452996 20382956 20284264 20179298 
3265.185 20091202 20040176 20039956 20097356 20211328 20374206 20570108 
3268.560 20777416 20969860 21121816 21211694 21230768 21184510 21092250 
3271.935 20982808 20884562 20817212 20785286 20774588 20760146 20714210 
3275.310 20617282 20464294 20270972 20066498 19887322 19765920 19723788 
3278.686 19766120 19883600 20055564 20258348 20469606 20672016 20855424 
3282.061 21015628 21153042 21270086 21370494 21456358 21527784 21582322 
3285.436 21614888 21619938 21593262 21536286 21456410 21368106 21288856 
3288.811 21234906 21214132 21225202 21254424 21282996 21289984 21262112 
3292.187 21197138 21106906 21011454 20935464 20897998 20910582 20971356 
3295.562 21068276 21182406 21293810 21382740 21436768 21448890 21418744 
3298.937 21351758 21259572 21156932 21062816 20995308 20970070 20997224 
3302.312 21076454 21199026 21346852 21497406 21626124 21712088 21740944 
3305.688 21708308 21617616 21480980 21315730 21139334 20969686 20818474 
3309.063 20692816 20594382 20520734 20468206 20437024 20427652 20446762 
3312.438 20498498 20586546 20707366 20850178 20996604 21125148 21216058 
3315.813 21256826 21245648 21192304 21116308 21040742 20986682 20968314 
3319.188 20988430 21041364 21114410 21193838 21268492 21334350 21391960 
3322.564 21444672 21495612 21543326 21580548 21596870 21582784 21534134 
3325.939 21456276 21364874 21280716 21225960 21215382 21254380 21335136 
3329.314 21443010 21559548 21670186 21767534 21851810 21927480 21998242 
3332.689 22064208 22119092 22151902 22152300 22113098 22034396 21922570 
3336.065 21790416 21652174 21521760 21409390 21324712 21273916 21261384 
3339.440 21289940 21357472 21457374 21576860 21698972 21806404 21883296 
3342.815 21920970 21916258 21876344 21810886 21733488 21656970 21592584 
3346.190 21546298 21520596 21512892 21518466 21529220 21538290 21539926 
3349.566 21532780 21518644 21501122 21482472 21461108 21430498 21382744 
3352.941 21309386 21210424 21093738 20977140 20883294 20832050 20833806 
3356.316 20885642 20971566 21067680 21151294 21206150 21227032 21218338 
3359.691 21188856 21146488 21093606 21027488 20942374 20836786 20714000 
3363.067 20585428 20467562 20376348 20323088 20312210 20338522 20393570 
3366.442 20465260 20541384 20610970 20662356 20684444 20666914 20602512 
3369.817 20492232 20347734 20191548 20053224 19963682 19945584 20007452 
3373.192 20140270 20317902 20504450 20661588 20758332 20777520 20718884 
3376.568 20598514 20443062 20284854 20153286 20069124 20042252 20069406 
3379.943 20138226 20231486 20331814 20426842 20509628 20578350 20632432 
3383.318 20672208 20692888 20687426 20647836 20569338 20452262 20305242 
3386.693 20143296 19985984 19851394 19754782 19703884 19698154 19730206 
3390.069 19787200 19853774 19915928 19962040 19987434 19993350 19987762 
3393.444 19981826 19987288 20011330 20053962 20107900 20161282 20200422 
3396.819 20217210 20209466 20184262 20152540 20127204 20114420 20116128 
3400.194 20126748 20139196 20148334 20154048 20162958 20185134 20227654 
3403.570 20294310 20378602 20467720 20544744 20595360 20610404 20590092 
3406.945 20541156 20475728 20405356 20338402 20278192 20226092 20180620 
3410.320 20143616 20119658 20117808 20148608 20220446 20336098 20491116 
3413.695 20670622 20854214 21017450 21138862 21204638 21211992 21170206 
3417.071 21098202 21019526 20956446 20924370 20929274 20966810 21026424 
3420.446 21093754 21156854 21207672 21243894 21268400 21287270 21306720 
3423.821 21333198 21368428 21412420 21461024 21506420 21540544 21555438 
3427.196 21546724 21515648 21467856 21413946 21364170 21324522 21294322 
3430.572 21265030 21222820 21156380 21061782 20947904 20835038 20750874 
3433.947 20719064 20752662 20845708 20975254 21105430 21203426 21247060 
3437.322 21234560 21184278 21129020 21102284 21129278 21215584 21346428 
3440.697 21494202 21625028 21710662 21736154 21700776 21618400 21506258 
3444.073 21384134 21265696 21159502 21068220 20992896 20933418 20890950 
3447.448 20866536 20859378 20866234 20883054 20902318 20917524 20922766 
3450.823 20913054 20885014 20838528 20774870 20699246 20620360 20550848 
3454.198 20504410 20491840 20516516 20573006 20646342 20716334 20763354 
3457.573 20775658 20753348 20709420 20663972 20638034 20644630 20684820 
3460.949 20746758 20810348 20854182 20864532 20838354 20785292 20722212 
3464.324 20668078 20636038 20630878 20647952 20676556 20702722 20715616 
3467.699 20708944 20682818 20641070 20591506 20543906 20507136 20490870 
3471.074 20502694 20549030 20632466 20750688 20898118 21062172 21229208 
3474.450 21383816 21513604 21609800 21669572 21695598 21694516 21675436 
3477.825 21647816 21620072 21600034 21592622 21603800 21637322 21697760 
3481.200 21787820 21907284 22049970 22206408 22360910 22497196 22602128 
3484.575 22669592 22702028 22712090 22716404 22732210 22769596 22829634 
3487.951 22903066 22974290 23028050 23056116 23060120 23053210 23054516 
3491.326 23083776 23155210 23274370 23436466 23629892 23839858 24053554 
3494.701 24259568 24451902 24625592 24775918 24899804 24994990 25060522 
3498.076 25099796 25118338 25123332 25119722 25111514 25099408 25085174 
3501.452 25072356 25068376 25083508 25128964 25209246 25320834 25450522 
3504.827 25577894 25680978 25745818 25769448 25761646 25741550 25728188 
3508.202 25733260 25755124 25777464 25776628 25728602 25619408 25450694 
3511.577 25238538 25010028 24793562 24609944 24468410 24364704 24285228 
3514.953 24211652 24125162 24012854 23865968 23680948 23458624 23203966 
3518.328 22927504 22645816 22379716 22151338 21980076 21875638 21835558 
3521.703 21844228 21876578 21904790 21906720 21869340 21794754 21694924 
3525.078 21590452 21502426 21447436 21434726 21465390 21530904 21619550 
3528.454 21714518 21800854 21865508 21901478 21907316 21888476 21854436 
3531.829 21816112 21780632 21751904 21726024 21695500 21650242 21583362 
3535.204 21493178 21384688 21267974 21155512 21057410 20979718 20922686 
3538.579 20880972 20845660 20807612 20756948 20687246 20595658 20483948 
3541.955 20358544 20232044 20120264 20041176 20010118 20036158 20117534 
3545.330 20242258 20388690 20526958 20626930 20663204 20619788 20495832 
3548.705 20304416 20072472 19836084 19631956 19491178 19430676 19447850 
3552.080 19523790 19625022 19715678 19765812 19760502 19703902 19614122 
3555.456 19516336 19435464 19385954 19370566 19381784 19408884 19441478 
3558.831 19474678 19508608 19545648 19585806 19625616 19657668 19674436 
3562.206 19671240 19649036 19612122 19566468 19514586 19453122 19375016 
3565.581 19272854 19143632 18993816 18837986 18697326 18591098 18534500 
3568.957 18532340 18582236 18676202 18806600 18962310 19132094 19299066 
3572.332 19440088 19526862 19532132 19438488 19246026 18974642 18662950 
3575.707 18356030 18095722 17905754 17790196 17731210 17702782 17677346 
3579.082 17639430 17588908 17538616 17509184 17515862 17564424 17645524 
3582.458 17736498 17810688 17842506 17818366 17736916 17612806 17470414 
3585.833 17336286 17234572 17181496 17180080 17225296 17302500 17395120 
3589.208 17487286 17565408 17617814 17637384 17616650 17550778 17437354 
3592.583 17278534 17081772 16862118 16637862 16431030 16260998 16143532 
3595.958 16087798 16098261 16171221 16299604 16467901 16656505 16837950 
3599.334 16983658 17065634 17063096 16967328 16787720 16544892 16273089 
3602.709 16007895 15783554 15622857 15539316 15532951 15594743 15707353 
3606.084 15849691 15997993 16130045 16227726 16282316 16294157 16275914 
3609.459 16243530 16216576 16208712 16225986 16266959 16325962 16399011 
3612.835 16487444 16597442 16737364 16909414 17105982 17305048 17478148 
3616.210 17594124 17633308 17591060 17483472 17339258 17195020 17080696 
3619.585 17016176 17004862 17038048 17098288 17168616 17230956 17274382 
3622.960 17289790 17274614 17228842 17158416 17073524 16990192 16925788 
3626.336 16897676 16916806 16987204 17105254 17261018 17441758 17635696 
3629.711 17833602 18031096 18225506 18416092 18603340 18788958 18972816 
3633.086 19155770 19336720 19515176 19686874 19846800 19989222 20109242 
3636.461 20203552 20272016 20315840 20337700 20339788 20323066 20286554 
3639.837 20230366 20152906 20056010 19941620 19815480 19684552 19560194 
3643.212 19455124 19381682 19348802 19360164 19412482 19493920 19590182 
3646.587 19687208 19777658 19863726 19955334 20065086 20202546 20367858 
3649.962 20546456 20717404 20854464 20938734 20961362 20928324 20855302 
3653.338 20763868 20674254 20604124 20564890 20565274 20608600 20693540 
3656.713 20810794 20942448 21062358 21142264 21160282 21111842 21010432 
3660.088 20890694 20794038 20755730 20790792 20886830 21004416 21095852 
3663.463 21114860 21038422 20868966 20635394 20375968 20125736 19901186 
3666.839 19696536 19487182 19246808 18956714 18621220 18269106 17949438 
3670.214 17714224 17608212 17649756 17830440 18112334 18441004 18755294 
3673.589 19001488 19140604 19156174 19051974 18852870 18593112 18310784 
3676.964 18038778 17800262 17605084 17452508 17334040 17236494 17145588 
3680.340 17051824 16947810 16834658 16717538 16606186 16509734 16433850 
3683.715 16375337 16322972 16257402 16159505 16014837 15821798 15594193 
3687.090 15358421 15146554 14985100 14887145 14846778 14843041 14848931 
3690.465 14838777 14799988 14734894 14655221 14577755 14514839 14468701 
3693.841 14433790 14397634 14349986 14285893 14207703 14122457 14037932 
3697.216 13957593 13879581 13796363 13703118 13595266 13478620 13363556 
3700.591 13266890 13204947 13191829 13234854 13334413 13481017 13658116 
3703.966 13838371 13989476 14076984 14072252 13957164 13734795 13428431 
3707.342 13081059 12744071 12469719 12295382 12238283 12292635 12433835 
3710.717 12627376 12838215 13036118 13203097 13330693 13419135 13473977 
3714.092 13505507 13524263 13542030 13568243 13609239 13665144 13732621 
3717.467 13801728 13865763 13921367 13972263 14028520 14100953 14196537 
3720.843 14311554 14429219 14524776 14569215 14541980 14434831 14256961 
3724.218 14031397 13789374 13560145 13367855 13224326 13133549 13091926 
3727.593 13094616 13134664 13203987 13291021 13381819 13457691 13500934 
3730.968 13497442 13441593 13338608 13202936 13054900 12916187 12805007 
3734.344 12734084 12708291 12727271 12783428 12864058 12950951 13026263 
3737.719 13073009 13082687 13056902 13010008 12964100 12944662 12970067 
3741.094 13046580 13164733 13302172 13429655 13523294 13567307 13562175 
3744.469 13519512 13458573 13397746 13349418 13315844 13295906 13283097 
3747.844 13274165 13267359 13265934 13275156 13300160 13345967 13414838 
3751.220 13505285 13611178 13718858 13812780 13873121 13886317 13847583 
3754.595 13769071 13676868 13606477 13592789 13657788 13800507 13997267 
3757.970 14207162 14381962 14484072 14494726 14417783 14275974 14099827 
3761.345 13918250 13749843 13602652 13477057 13372306 13289159 13233528 
3764.721 13211457 13226480 13275717 13349249 13430854 13505436 13558643 
3768.096 13584044 13581626 13557428 13523271 13494019 13485291 13511327 
3771.471 13578571 13683009 13809159 13931570 14021359 14056193 14027969 
3774.846 13946638 13835643 13724628 13636049 13575334 13530001 13476833 
3778.222 13393489 13273275 13129308 12995920 12913255 12914396 13010365 
3781.597 13185930 13403372 13619636 13794649 13909170 13961645 13966457 
3784.972 13941553 13901209 13849724 13785198 13703830 13608276 13509411 
3788.347 13426852 13378951 13381665 13436789 13534975 13655480 13775139 
3791.723 13870129 13923337 13927261 13884419 13805446 13708708 13615754 
3795.098 13547883 13518034 13529008 13568393 13613496 13637045 13616572 
3798.473 13542930 13426506 13291281 13171514 13095637 13080164 13121431 
3801.848 13198386 13280192 13338015 13353681 13324501 13261008 13183272 
3805.224 13112506 13066128 13054310 13080115 13141657 13233224 13347080 
3808.599 13472673 13598816 13713548 13804384 13863802 13886947 13876605 
3811.974 13841046 13790192 13734740 13683992 13643550 13618008 13610170 
3815.349 13624253 13663962 13733257 13834198 13964247 14115131 14273725 
3818.725 14421779 14541802 14617684 14638938 14605285 14523600 14407801 
3822.100 14277289 14148030 14032932 13938887 13867821 13817950 13788128 
3825.475 13775938 13782530 13806253 13845839 13895405 13948698 13997652 
3828.850 14037409 14064000 14079333 14083540 14078911 14064297 14039438 
3832.226 14004072 13962425 13922174 13894594 13887634 13905393 13940968 
3835.601 13979371 14000224 13985578 13924134 13818831 13683381 13539445 
3838.976 13408692 13308817 13246368 13223536 13235456 13277529 13345016 
3842.351 13433183 13533573 13636045 13724811 13786504 13810966 13799212 
3845.727 13762658 13721469 13698904 13713471 13774573 13878627 14012673 
3849.102 14157310 14292603 14402339 14474143 14502468 14484462 14421009 
3852.477 14316605 14180251 14025594 13869625 13730626 13623280 13555959 
3855.852 13530609 13540417 13576890 13628964 13689171 13751714 13814532 
3859.228 13877109 13937382 13992644 14037988 14068767 14079813 14067119 
3862.603 14031193 13974608 13903168 13824354 13746816 13679461 13629520 
3865.978 13601522 13596374 13612404 13643555 13682463 13720866 13750750 
3869.353 13766164 13763356 13742187 13704851 13654836 13596013 13530714 
3872.729 13458284 13377820 13287251 13187348 13082511 12984252 12906158 
3876.104 12863637 12868602 12925734 13030522 13171212 13331767 13497298 
3879.479 13655108 13799756 13927209 14036811 14123102 14179588 14199381 
3882.854 14178181 14118314 14031832 13937289 13855317 13801489 13784771 
3886.229 13802058 13843628 13896897 13951998 14004126 14055748 14109983 
3889.605 14170991 14238644 14309694 14377646 14437295 14485383 14520217 
3892.980 14539837 14541508 14518325 14464685 14375371 14253891 14112087 
3896.355 13970649 13853790 13783122 13769334 13808409 13882395 13961744 
3899.730 14016753 14023176 13971223 13867263 13733437 13600895 13501433 
3903.106 13460348 13488996 13582712 13722233 13880713 14028808 14146808 
3906.481 14224642 14268300 14292125 14313866 14345929 14390144 14437903 
3909.856 14472998 14477918 14442983 14371968 14282119 14199702 14152693 
3913.231 14159014 14222996 14329632 14451603 14554119 14608774 14599450 
3916.607 14530311 14422939 14312536 14236018 14222190 14282076 14407195 
3919.982 14569030 14729741 14852372 14911864 14900461 14829927 14723460 
3923.357 14609630 14508497 14430163 14370301 14316591 14255523 14179356 
3926.732 14088355 13991822 13902226 13830326 13781371 13755374 13748398 
3930.108 13758618 13785250 13832500 13904192 14000201 14114367 14234877 
3933.483 14345434 14433551 14492373 14523731 14536953 14543862 14554195 
3936.858 14571500 14592624 14610202 14615281 14601144 14564496 14506380 
3940.233 14428769 14334946 14228598 14115383 14004780 13910489 13848181 
3943.609 13833672 13876203 13975398 14118772 14285390 14448636 14584511 
3946.984 14677296 14722622 14727716 14706160 14675233 14647065 14625757 
3950.359 14608797 14586420 14548329 14486987 14402659 14304049 14206345 
3953.734 14126060 14079039 14073357 14110880 14186597 14293531 14423891 
3957.110 14572407 14735257 14908476 15083609 15247419 15380838 15464128 
3960.485 15480707 15424197 15298946 15122952 14920453 14720044 14545435 
3963.860 14413706 14333871 14308861 14336564 14411576 14527028 14671012 
3967.235 14828964 14981265 15106294 15186393 15209862 15176682 15097315 
3970.611 14991790 14884388 14798068 14748632 14744846 14783940 14857174 
3973.986 14950478 15048728 15138501 15211292 15261114 15287552 15292596 
3977.361 15279428 15250033 15206140 15147207 15073100 14985813 14891856 
3980.736 14801874 14729965 14689573 14689889 14731457 14804450 14891571 
3984.112 14972328 15027407 15046804 15030512 14989033 14939022 14897927 
3987.487 14879340 14889135 14924791 14978983 15041724 15104480 15162586 
3990.862 15214839 15263502 15311647 15360201 15408503 15452678 15488586 
3994.237 15511288 15518902 15512628 15498204 15484711 15484845 15509828 
3997.613 15569430 15666340 15796032 15945286 16096462 16228152 16324030 
##END=
