##TITLE=3D-Fillies_PLA-Rainbow_Purple_Filament_r4_ATR-Corrected
##JCAMP-DX=5.01  $$ Nicolet v. 1
##DATATYPE=INFRARED SPECTRUM
##ORIGIN=Curtin University
##OWNER=Nicolet
##LONGDATE=2024/07/18
##TIME=14:00:25
##SPECTROMETER/DATA SYSTEM=Nicolet iS50
##DATA PROCESSING=
Ratio against background
%Transmittance->Absorbance
ATR Correction
Truncated
ElementMultiply or ElementDivide
##COMMENTS=
Number of sample scans: 32
Collection length: 47.28 sec
Sample gain: 1.0
Background collected on: Thu Jul 18 13:58:06 2024 (GMT+08:00);
Number of background scans: 32
Background gain: 1.0
Sample spacing:  1.000
Number of scan points: 16672
Resolution points: 8192
Number of FFT points: 65536
Apodization: N-B strong;
Phase correction: Mertz;
Laser frequency: 15798.3 cm-1
Number of rejected sample scans: 0
Number of rejected background scans: 0
Bench serial number: AUP1200105;
##RESOLUTION=4.000
##XUNITS=1/CM
##YUNITS=ABSORBANCE
##FIRSTX=400.163452
##LASTX=4000.187744
##FIRSTY=0.052028
##MAXX=4000.187744
##MINX=400.163452
##MAXY=0.961443
##MINY=-0.032160
##XFACTOR=1.000000
##YFACTOR=1.000000E-009
##NPOINTS=7468
##DELTAX=0.482125
##ZPD=8192
##XYDATA=(X++(Y..Y))
400.163 52027820 50955104 50085756 49477860 49123932 48972840 48938600 
403.538 48927200 48864992 48716860 48488376 48213808 47933748 47673432 
406.913 47430592 47178236 46878292 46501476 46040908 45513940 44951956 
410.288 44383408 43820616 43253700 42658532 42011868 41305996 40556768 
413.663 39798412 39068704 38389988 37757436 37140748 36498012 35798924 
417.038 35044240 34273364 33555312 32965164 32556374 32337890 32268892 
420.412 32269568 32247092 32122280 31851582 31435836 30915916 30357534 
423.787 29834372 29411190 29133738 29024958 29086380 29300126 29633194 
427.162 30039556 30464440 30849348 31139002 31289630 31275868 31095584 
430.537 30769488 30336356 29845594 29348264 28888980 28503540 28212800 
433.912 28023048 27928152 27912826 27957604 28042756 28151854 28272082 
437.286 28393030 28503590 28589750 28634552 28621478 28539480 28389868 
440.661 28189722 27972288 27781658 27663568 27653566 27768218 28000142 
444.036 28318698 28676786 29020058 29296416 29463564 29493796 29376276 
447.411 29116868 28737242 28272736 27769508 27280066 26856784 26544408 
450.786 26372788 26349528 26457760 26657792 26894762 27109720 27253802 
454.161 27297820 27238938 27098340 26913936 26727894 26574976 26473646 
457.535 26422838 26405710 26397720 26375236 26322658 26234520 26113958 
460.910 25969026 25808340 25639744 25469906 25305746 25153202 25024658 
464.285 24927952 24866710 24837694 24831538 24835134 24835646 24824728 
467.660 24800042 24764892 24725410 24687884 24656272 24631394 24611462 
471.035 24592218 24566812 24525256 24455064 24342380 24176076 23952564 
474.409 23679574 23376886 23072644 22796280 22569908 22402198 22287462 
477.784 22210192 22152900 22104634 22064600 22040610 22043158 22077504 
481.159 22138658 22211398 22275152 22311692 22311362 22275598 22214456 
484.534 22141406 22067300 21998316 21935978 21880506 21833718 21799992 
487.909 21783498 21784976 21798728 21813022 21814814 21795986 21759276 
491.284 21719708 21701500 21730596 21826200 21995318 22231806 22517882 
494.658 22835636 23166494 23495602 23810624 24099580 24348652 24542692 
498.033 24668360 24718034 24693284 24604982 24470438 24308460 24134192 
501.408 23956328 23776626 23592128 23398068 23190766 22969196 22735340 
504.783 22494924 22257584 22035928 21844378 21695504 21595496 21539822 
508.158 21512236 21487458 21439138 21348660 21212940 21046560 20877310 
511.532 20736514 20648090 20620322 20643730 20695780 20749596 20782290 
514.907 20780348 20739894 20662180 20549672 20403348 20224162 20017136 
518.282 19794344 19575626 19384278 19239724 19149912 19108008 19093890 
521.657 19080444 19042188 18962086 18834272 18662004 18454398 18222410 
525.032 17976926 17734596 17515928 17346274 17250824 17246928 17335034 
528.406 17494084 17683638 17853254 17956490 17964052 17871884 17700074 
531.781 17485002 17266518 17076306 16931354 16833054 16772170 16734790 
535.156 16707692 16680585 16645566 16595917 16526153 16432732 16316712 
538.531 16184486 16047288 15917512 15804352 15710143 15629537 15552506 
541.906 15469097 15374351 15271058 15168152 15076537 15003892 14950967 
545.281 14911548 14875724 14835279 14788419 14741844 14708920 14704731 
548.655 14740425 14818408 14930961 15061676 15190030 15296391 15366900 
552.030 15395431 15384652 15343748 15286271 15226306 15175375 15140560 
555.405 15123067 15118488 15120723 15122473 15119684 15112382 15105914 
558.780 15107571 15123427 15154600 15194721 15230344 15244609 15222661 
562.155 15157448 15053693 14928002 14804948 14710059 14661995 14666587 
565.529 14714989 14786178 14853998 14895736 14899356 14868258 14819896 
568.904 14780463 14776386 14825603 14932350 15085517 15262897 15437519 
572.279 15585984 15693961 15758464 15786219 15789025 15778428 15762102 
575.654 15742751 15720159 15694926 15671631 15660217 15674841 15729863 
579.029 15834901 15991053 16189506 16413098 16640402 16851540 17032398 
582.404 17177608 17290424 17380340 17458962 17536900 17620288 17710676 
585.778 17805106 17898128 17983500 18055350 18109276 18141604 18149062 
589.153 18128890 18079058 17999330 17892516 17765382 17629142 17498162 
592.528 17387964 17312574 17281814 17298568 17358380 17449866 17556750 
595.903 17661406 17747850 17805110 17828716 17821522 17792478 17754552 
599.278 17722254 17708838 17723968 17772650 17853798 17960822 18082506 
602.652 18204636 18312434 18393674 18441156 18455334 18444418 18423476 
606.027 18410838 18423328 18471944 18558948 18677222 18813452 18952680 
609.402 19083702 19202566 19313658 19426764 19552884 19698938 19865592 
612.777 20046516 20232488 20415438 20592886 20769210 20954326 21159088 
616.152 21390814 21649358 21927126 22210580 22485490 22740954 22972110 
619.527 23180344 23371252 23551332 23725490 23896062 24063536 24228550 
622.901 24393756 24563670 24744396 24940912 25155282 25385434 25625788 
626.276 25869322 26109752 26343874 26572052 26797492 27024624 27256846 
629.651 27495014 27737082 27978368 28212382 28432264 28631248 28803286 
633.026 28943154 29046508 29110426 29134158 29120098 29074584 29008584 
636.401 28937350 28879338 28854648 28882012 28975968 29143762 29383038 
639.775 29680998 30015614 30358748 30681192 30958502 31176472 31334408 
643.150 31444930 31531114 31620320 31736880 31896234 32100636 32340720 
646.525 32598522 32854576 33095162 33316388 33526398 33742212 33984592 
649.900 34271248 34611364 35002892 35432800 35880644 36322588 36736136 
653.275 37102552 37408428 37645532 37810060 37902932 37929540 37900152 
656.650 37829928 37736944 37640428 37557016 37498420 37469908 37470120 
660.024 37492572 37528248 37567688 37603408 37631444 37652300 37670940 
663.399 37696132 37739080 37810108 37916596 38059476 38232860 38424736 
666.774 38620688 38808764 38983624 39149152 39317428 39504592 39725396 
670.149 39987524 40289420 40620468 40964844 41305964 41631136 41932960 
673.524 42209424 42461380 42690632 42898588 43086300 43255716 43410836 
676.898 43557496 43702284 43850180 44002648 44157428 44309528 44453128 
680.273 44584420 44703012 44811480 44914064 45014736 45116312 45220232 
683.648 45327288 45438564 45555684 45680208 45812172 45949640 46089372 
687.023 46228412 46366832 46509716 46667212 46852376 47077204 47348652 
690.398 47665548 48018600 48393052 48771744 49139840 49486996 49808472 
693.773 50104316 50378856 50639764 50897744 51166704 51462308 51799796 
697.147 52190332 52637624 53135540 53669468 54219284 54765264 55293184 
700.522 55797932 56283836 56761912 57244828 57742388 58257360 58785104 
703.897 59314304 59829796 60316136 60759980 61152668 61491024 61777552 
707.272 62019136 62226016 62408368 62573856 62725788 62861844 62976836 
710.647 63064680 63123336 63157572 63179688 63207144 63258520 63348188 
714.021 63483568 63665024 63889036 64154176 64467600 64849488 65335876 
717.396 65978384 66842676 68007056 69561568 71608392 74261168 77642080 
720.771 81873936 87067920 93305224 100617872 108968808 118237992 128215056 
724.146 138604544 149041568 159120784 168432992 176606288 183344320 
727.039 188454208 191858912 193591584 193775200 192592384 190253488 
729.931 186968560 182927360 178287856 173173520 167677216 161868576 
732.824 155803600 149533328 143109968 136589776 130033584 123504744 
735.717 117067416 110784288 104716512 98922480 93457432 88370856 83704352 
739.091 79487384 75735440 72448816 69614344 67208176 65200888 63560440 
742.466 62255228 61254732 60529592 60050292 59786368 59706984 59781364 
745.841 59980804 60280196 60659644 61105432 61610072 62171944 62793368 
749.216 63477768 64225876 65032340 65882316 66751176 67606448 68413416 
752.591 69140656 69766416 70280504 70683896 70982952 71184472 71289432 
755.966 71291696 71179664 70941272 70569504 70066360 69443168 68717432 
759.340 67908152 67030860 66094876 65103680 64056508 62951944 61790412 
762.715 60575164 59313060 58014168 56691056 55359540 54037392 52743608 
766.090 51495628 50306460 49181776 48119152 47109808 46142132 45206064 
769.465 44296992 43416556 42571364 41768700 41012916 40301296 39625528 
772.840 38972420 38328108 37681844 37028464 36369312 35710852 35062944 
776.214 34436296 33840812 33284512 32772344 32306030 31883120 31497222 
779.589 31137786 30791836 30444724 30082708 29694534 29273234 28817088 
782.964 28330052 27821592 27305646 26798398 26315608 25869758 25467602 
786.339 25109462 24790296 24502828 24241564 24005698 23800674 23636032 
789.714 23522012 23463868 23458268 23491658 23542008 23583552 23592620 
793.089 23552014 23454038 23300074 23097946 22858222 22591644 22307006 
796.463 22011888 21713352 21419856 21141750 20891354 20681210 20522836 
799.838 20424288 20389072 20415222 20495544 20618350 20768690 20929986 
803.213 21087254 21227348 21341014 21423452 21474782 21498800 21502236 
806.588 21492900 21477622 21460868 21443142 21421084 21388274 21337118 
809.963 21261920 21160598 21036532 20897182 20752438 20611256 20479066 
813.337 20356670 20242012 20131908 20025906 19927572 19844496 19785834 
816.712 19758956 19766664 19806402 19871886 19955892 20053406 20162618 
820.087 20284548 20420550 20569764 20728338 20890148 21050174 21206434 
823.462 21361304 21519472 21683936 21851954 22012222 22147022 22237306 
826.837 22269288 22241328 22165562 22066254 21972660 21911642 21901184 
830.212 21947442 22046286 22187714 22360382 22555582 22768414 22996622 
833.586 23239108 23495096 23763696 24045088 24341776 24658918 25003002 
836.961 25380480 25795254 26249010 26741070 27270236 27836724 28442412 
840.336 29089590 29779514 30509304 31271402 32053060 32838356 33610180 
843.711 34352860 35053380 35702384 36293792 36825200 37297072 37713344 
847.086 38080252 38405884 38699276 38969920 39228000 39485968 39759856 
850.460 40070660 40443756 40906708 41485776 42202616 43071440 44099304 
853.835 45288012 46637184 48147260 49819692 51655596 53651812 55796936 
857.210 58068928 60435120 62855928 65289544 67697688 70049760 72324368 
860.585 74508432 76595808 78582952 80468624 82251248 83929472 85502288 
863.960 86970184 88335384 89602456 90778392 91872584 92895648 93858080 
867.335 94768592 95632392 96449144 97213024 97911312 98525152 99029096 
870.709 99392400 99579888 99554016 99278648 98723216 97866904 96701984 
874.084 95234952 93485784 91484680 89268624 86877368 84351424 81730416 
877.459 79052544 76353832 73667840 71024384 68449344 65963672 63584508 
880.834 61325444 59197776 57210420 55370292 53681840 52146776 50764712 
884.209 49534524 48455324 47526856 46749064 46120232 45634996 45282376 
887.583 45045960 44905004 44837604 44823388 44845672 44892180 44954204 
890.958 45025440 45100740 45176604 45250932 45324552 45400168 45480376 
894.333 45565548 45650592 45724508 45771200 45773144 45716528 45594176 
897.708 45408448 45169704 44894280 44601056 44308512 44032952 43788008 
901.083 43584172 43428384 43322492 43262476 43238348 43235968 43240244 
904.458 43240156 43231444 43218608 43212568 43226920 43272584 43354420 
907.832 43469376 43608572 43759584 43911228 44055344 44188524 44310848 
911.207 44425236 44535596 44646796 44764368 44894224 45042124 45212528 
914.582 45406964 45624048 45859000 46106460 46361508 46621928 46887556 
917.957 47159024 47435520 47712420 47981012 48229820 48448012 48628008 
921.332 48768452 48873988 48954172 49020568 49083872 49153028 49234764 
924.706 49335064 49460028 49616496 49810800 50046820 50323788 50635016 
928.081 50968124 51307628 51638120 51947744 52231140 52490036 52732324 
931.456 52968868 53210672 53465080 53733440 54010840 54286528 54546940 
934.831 54778548 54971480 55121424 55230660 55306960 55360852 55402612 
938.206 55439576 55474588 55506720 55532716 55550504 55561232 55571028 
941.581 55590532 55632836 55710652 55832892 56002808 56217204 56467696 
944.955 56743300 57033708 57332724 57639812 57961056 58307460 58692800 
948.330 59129620 59626408 60184328 60796908 61450196 62125608 62802552 
951.705 63461968 64088420 64670496 65200404 65671200 66073908 66396356 
955.080 66621548 66729328 66698864 66511884 66155760 65625116 64922996 
958.455 64061120 63058360 61939884 60737092 59486324 58227788 57003192 
961.829 55852080 54807580 53892028 53114984 52472772 51951024 51529240 
965.204 51185208 50899868 50659404 50455800 50286592 50153004 50059032 
968.579 50010400 50013344 50072804 50190860 50363240 50578464 50817788 
971.954 51057748 51275496 51454644 51589380 51686428 51762476 51838352 
975.329 51933060 52057432 52212472 52390864 52580960 52772536 52960964 
978.703 53148016 53340964 53548428 53777076 54029148 54302428 54591468 
982.078 54889872 55192252 55493964 55791960 56083328 56365380 56635848 
985.453 56895412 57147520 57399704 57662028 57945308 58258344 58604640 
988.828 58983144 59388056 59811228 60244960 60683780 61126148 61575180 
992.203 62036804 62519552 63031936 63580880 64170444 64801252 65470992 
995.578 66175988 66913544 67684488 68495048 69356048 70281232 71282496 
998.952 72365536 73524984 74744032 75995488 77247552 78471144 79647232 
1002.327 80772256 81860696 82942112 84056848 85248008 86555264 88010016 
1005.702 89633136 91436944 93428400 95613936 98003288 100612480 103464008 
1009.077 106586872 110014472 113784936 117939896 122524832 127587632 
1011.970 133174104 139319504 146035552 153294880 161014832 169047248 
1014.862 177175856 185127600 192596928 199280576 204919184 209334816 
1017.755 212456864 214331008 215108960 215022624 214349952 213378976 
1020.648 212376480 211565632 211113392 211128480 211665424 212734864 
1023.540 214314896 216362496 218822176 221634064 224738496 228081760 
1026.433 231619008 235319280 239167568 243165632 247328640 251680992 
1029.326 256248592 261053440 266109376 271421504 276987904 282802976 
1032.219 288858048 295142464 301640096 308326528 315166912 322116064 
1035.113 329121056 336125440 343072032 349904928 356567392 362999808 
1038.006 369137632 374913152 380259136 385114848 389433216 393183072 
1040.899 396350400 398933664 400938400 402373088 403244704 403558752 
1043.792 403319456 402532320 401206912 399359392 397015712 394213600 
1046.685 391003008 387446240 383614432 379582880 375427552 371220800 
1049.578 367029504 362913536 358924928 355106080 351485312 348074368 
1052.471 344865856 341833952 338941376 336147936 333422016 330748640 
1055.364 328135008 325608512 323212864 320999872 319024160 317341024 
1058.257 316006720 315080736 314629152 314725024 315445088 316866944 
1061.150 319061536 322090048 325999840 330823616 336580064 343274592 
1064.043 350900416 359439264 368863776 379138816 390225024 402081952 
1066.936 414669664 427949120 441879904 456417248 471508512 487093952 
1069.829 503107840 519483104 536155872 553067008 570162880 587391808 
1072.722 604701632 622037504 639343872 656565760 673652224 690556032 
1075.615 707231232 723629696 739699200 755383872 770627520 785379904 
1078.509 799596864 813237248 826253312 838579904 850128256 860783680 
1081.402 870415232 878885952 886065728 891838336 896106368 898794560 
1084.295 899855168 899281984 897118656 893466496 888476416 882331584 
1087.188 875221248 867315136 858749440 849625984 840021760 830003264 
1090.081 819639872 809005760 798179328 787232960 776227648 765209600 
1092.974 754209920 743250112 732343744 721497984 710712576 699979392 
1095.867 689282944 678604288 667926144 657236416 646531200 635812288 
1098.760 625085056 614353856 603620928 592886528 582151104 571415808 
1101.653 560683776 549958976 539246016 528550400 517883552 507267712 
1104.546 496740992 486360192 476198560 466339648 456869888 447871552 
1107.439 439418304 431573920 424393248 417923360 412202240 407256160 
1110.332 403095296 399710976 397074368 395140640 393854240 393154624 
1113.225 392981504 393275744 393977120 395022080 396340864 397860096 
1116.118 399507776 401220128 402949312 404668256 406370176 408065216 
1119.011 409774880 411525312 413341408 415243424 417242400 419337248 
1121.905 421511808 423734880 425960608 428133024 430191648 432077248 
1124.798 433735104 435115776 436172192 436857056 437122144 436921568 
1127.691 436218272 434990816 433238848 430982048 428255808 425100256 
1130.584 421550592 417630592 413349952 408706144 403689024 398286240 
1133.477 392485856 386279104 379660928 372630592 365194016 357366080 
1136.370 349171392 340645664 331834496 322790624 313571936 304240320 
1139.263 294859680 285496160 276217248 267089792 258177632 249538384 
1142.156 241220240 233262560 225694976 218540528 211818464 205546304 
1145.049 199740432 194416080 189584304 185251008 181414896 178067600 
1147.942 175193936 172774176 170785360 169203040 168001888 167156992 
1150.835 166644000 166439840 166522112 166869328 167459072 168268128 
1153.728 169271488 170443472 171758752 173195424 174735968 176369360 
1156.621 178089280 179893472 181781072 183751040 185801712 187931488 
1159.514 190140464 192430608 194807712 197279648 199856800 202551152 
1162.407 205376864 208351024 211494400 214832128 218392704 222207584 
1165.301 226309600 230732816 235513280 240691360 246312880 252431280 
1168.194 259107088 266406416 274398432 283154080 292742592 303232192 
1171.087 314688448 327172640 340738432 355426880 371258880 388229920 
1173.980 406301472 425396192 445391968 466118272 487351552 508813248 
1176.873 530171872 551049088 571034176 589703232 606644160 621481280 
1179.766 633898304 643658560 650619136 654739328 656082432 654808576 
1182.659 651157056 645421696 637922176 628978048 618889792 607930112 
1185.552 596342336 584344256 572132032 559882368 547749824 535863744 
1188.445 524324192 513201408 502539584 492361536 482676896 473488704 
1191.338 464796384 456598656 448891616 441669056 434921984 428640128 
1194.231 422813760 417434368 412494464 407986240 403898048 400211392 
1197.124 396900736 393934816 391279776 388904832 386785312 384905280 
1200.017 383256480 381835296 380638464 379659360 378885088 378296992 
1202.910 377870240 377576800 377386080 377267232 377187648 377112960 
1205.803 377005888 376828384 376541888 376112224 375511840 374723072 
1208.697 373739008 372561888 371199008 369658432 367944448 366056160 
1211.590 363988096 361733568 359288320 356654976 353843744 350872608 
1214.483 347764000 344542560 341231552 337852832 334425952 330969280 
1217.376 327499872 324034336 320587424 317172096 313798880 310475712 
1220.269 307209824 304007840 300876384 297821792 294849440 291962976 
1223.162 289163872 286449984 283817312 281260320 278772096 276346048 
1226.055 273977056 271662304 269402688 267203536 265074128 263026560 
1228.948 261072672 259221168 257475344 255832528 254286176 252830176 
1231.841 251462576 250189872 249027200 247996432 247120880 246420864 
1234.734 245908672 245589152 245459712 245514960 245749696 246161344 
1237.627 246749280 247512016 248443216 249529440 250749296 252075552 
1240.520 253478384 254929216 256402816 257877408 259334032 260754400 
1243.413 262120016 263412240 264613504 265709632 266689952 267547936 
1246.306 268280720 268887904 269371936 269738112 269997376 270167168 
1249.199 270271520 270340608 270406688 270500832 270648416 270867008 
1252.093 271165696 271546272 272005984 272540704 273145984 273818912 
1254.986 274557600 275360704 276226880 277154880 278143904 279194112 
1257.879 280306752 281483360 282723456 284022976 285371200 286751168 
1260.772 288139360 289509408 290834880 292093600 293268992 294350880 
1263.665 295332704 296208608 296968832 297597152 298069216 298354880 
1266.558 298420096 298230784 297756512 296973536 295865920 294427200 
1269.451 292658496 290568224 288169536 285478560 282512064 279287104 
1272.344 275820512 272130432 268237824 264167632 259947920 255608464 
1275.237 251176800 246675808 242121872 237526224 232897280 228245008 
1278.130 223583088 218931472 214313296 209753056 205272960 200890272 
1281.023 196617088 192460976 188427664 184521520 180748336 177113712 
1283.916 173623376 170282656 167095520 164064944 161192400 158477792 
1286.809 155918816 153510800 151246880 149119120 147121056 145249440 
1289.702 143504512 141890592 140413344 139076080 137877104 136807744 
1292.595 135852544 134991728 134204952 133474888 132789392 132142544 
1295.489 131533056 130962864 130433608 129947168 129503072 129099680 
1298.382 128734320 128404216 128106264 127838176 127597120 127381120 
1301.275 127188000 127015696 126860720 126717912 126579064 126433280 
1304.168 126268104 126070960 125831816 125544264 125206920 124822720 
1307.061 124396736 123934656 123440176 122914240 122354464 121755944 
1309.954 121111160 120412200 119650880 118820224 117915560 116936712 
1312.847 115888288 114780976 113631096 112458752 111286080 110134912 
1315.740 109024640 107970752 106983896 106069560 105227472 104452000 
1318.633 103732368 103054520 102402912 101763328 101125880 100486536 
1321.526 99847808 99217352 98605256 98021984 97475008 96969032 96505680 
1324.901 96085056 95707352 95374152 95088880 94856456 94682488 94573392 
1328.277 94535536 94574888 94697112 94907400 95209472 95605216 96094280 
1331.652 96674744 97343536 98097472 98933584 99848816 100838496 101895128 
1335.027 103007000 104158472 105331520 106507992 107672208 108812768 
1337.920 109922504 110997320 112034280 113030664 113982832 114888072 
1340.813 115745608 116559384 117338128 118096392 118852080 119625376 
1343.706 120436344 121303288 122241936 123264376 124379352 125591488 
1346.599 126901656 128307704 129804120 131383792 133037760 134755808 
1349.492 136525520 138332816 140161008 141992080 143808016 145592064 
1352.385 147330656 149013088 150630048 152172160 153628688 154986512 
1355.279 156232032 157354336 158346720 159209504 159949280 160576960 
1358.172 161103792 161540112 161892816 162167184 162368704 162506272 
1361.065 162593104 162647104 162687152 162729600 162783504 162846976 
1363.958 162907456 162942016 162920704 162811056 162580736 162200928 
1366.851 161646992 160898848 159941696 158765712 157368368 155756624 
1369.744 153950896 151988704 149926400 147840176 145822512 143978400 
1372.637 142417728 141247504 140563200 140440512 140927760 142040640 
1375.530 143759488 146029296 148763328 151849024 155156752 158549248 
1378.423 161891120 165057584 167940096 170449536 172515072 174082480 
1381.316 175112080 175576784 175463216 174772208 173518960 171732464 
1384.209 169451856 166723264 163597184 160126896 156367792 152377312 
1387.102 148212544 143927552 139569504 135175680 130772040 126375408 
1389.995 121996712 117644208 113327920 109061504 104861832 100750184 
1392.888 96750448 92889384 89194592 85693568 82410856 79365664 76569120 
1396.264 74024256 71725384 69661904 67819888 66185676 64746908 63493200 
1399.639 62416968 61511836 60773768 60200920 59794660 59560112 59504964 
1403.014 59638808 59969808 60501176 61228032 62133312 63186676 64342172 
1406.389 65539928 66708632 67770384 68646240 69264096 69565456 69511320 
1409.765 69086816 68301880 67189064 65800316 64199932 62458276 60646840 
1413.140 58832084 57072816 55415748 53894052 52525552 51313376 50248320 
1416.515 49313172 48487596 47753892 47099912 46520708 46016792 45591152 
1419.890 45245100 44976256 44777476 44638280 44548452 44499796 44488028 
1423.266 44512080 44571964 44666388 44790964 44937932 45098068 45264032 
1426.641 45432820 45608624 45802156 46030004 46311412 46666204 47112412 
1430.016 47665768 48339368 49144380 50089504 51181080 52423048 53816192 
1433.391 55360240 57054420 58899728 60899960 63061832 65395364 67913064 
1436.767 70630024 73564104 76737128 80173768 83900672 87943168 92320656 
1440.142 97042704 102105664 107491872 113170568 119099144 125225840 
1443.035 131490320 137825360 144157744 150411152 156510304 162384528 
1445.928 167971280 173217824 178080656 182525856 186529232 190077008 
1448.821 193165712 195802048 197997648 199766480 201119136 202061712 
1451.714 202596432 202725008 202451280 201782256 200725488 199286064 
1454.607 197463056 195249984 192638832 189626464 186219360 182436720 
1457.500 178307456 173865440 169144592 164176800 158994704 153634320 
1460.393 148137920 142553616 136930368 131312488 125735568 120225448 
1463.286 114801664 109482328 104287976 99243840 94376816 89711704 85267432 
1466.662 81056376 77085216 73357888 69878056 66648872 63671364 60942072 
1470.037 58450712 56180384 54108936 52213072 50470320 48862200 47373644 
1473.412 45992644 44708496 43510924 42389308 41332564 40329712 39370404 
1476.787 38445020 37545620 36667340 35808524 34971212 34160468 33381842 
1480.163 32638862 31931066 31253644 30598236 29956198 29321644 28693276 
1483.538 28075038 27474030 26896798 26347750 25827612 25334400 24865506 
1486.913 24419430 23997564 23602550 23236670 22900554 22591890 22306882 
1490.288 22042102 21796514 21572166 21373292 21203264 21063470 20951454 
1493.664 20862032 20790088 20732832 20692160 20673872 20685806 20735368 
1497.039 20826910 20962172 21142252 21370206 21653516 22003564 22432556 
1500.414 22948910 23550642 24222014 24932434 25638372 26289094 26832130 
1503.789 27220610 27418926 27407488 27185808 26773540 26208282 25539754 
1507.165 24822264 24105270 23426630 22808868 22260050 21777576 21353304 
1510.540 20978856 20647888 20357218 20104506 19887226 19700656 19538404 
1513.915 19393450 19260210 19135906 19020790 18917150 18827984 18755216 
1517.290 18698904 18657716 18628560 18608436 18593586 18579648 18561920 
1520.666 18535160 18495476 18440782 18372626 18296030 18218768 18148574 
1524.041 18092038 18052446 18029128 18019298 18017564 18019100 18019488 
1527.416 18015508 18004080 17982494 17948562 17900032 17836054 17757360 
1530.791 17666278 17566292 17461666 17356424 17254202 17158080 17070930 
1534.167 16994424 16928936 16873058 16823410 16775038 16722301 16661339 
1537.542 16589891 16509583 16424159 16338589 16257469 16183205 16116168 
1540.917 16054794 15997728 15944446 15896156 15854958 15823105 15801808 
1544.292 15789928 15784537 15781598 15777715 15770258 15758175 15741728 
1547.667 15721070 15696090 15665999 15629796 15587419 15540130 15491706 
1551.043 15447672 15414552 15397456 15399660 15420343 15454778 15495186 
1554.418 15532509 15558732 15569199 15563370 15545080 15521184 15499802 
1557.793 15487333 15488058 15502626 15529516 15565993 15609633 15659012 
1561.168 15713926 15773593 15836101 15897803 15953872 15999265 16031045 
1564.544 16049044 16056377 16058616 16061170 16068825 16084673 16110199 
1567.919 16147390 16199399 16271455 16369496 16498888 16660955 16852812 
1571.294 17067258 17293754 17522222 17746188 17963512 18177176 18393550 
1574.669 18619126 18857298 19106430 19357620 19597386 19808438 19973286 
1578.045 20078016 20114152 20079672 19980566 19828282 19639402 19431492 
1581.420 19221040 19020922 18838522 18676700 18535402 18412590 18306920 
1584.795 18218502 18147412 18093868 18056362 18031198 18012334 17992478 
1588.170 17964994 17924798 17869234 17799312 17718436 17632382 17547960 
1591.546 17471878 17409658 17364772 17338262 17329108 17335004 17353082 
1594.921 17382172 17421846 17473854 17540430 17623386 17723930 17841712 
1598.296 17976154 18127336 18296970 18488626 18706694 18954824 19235144 
1601.671 19545752 19882464 20239320 20610242 20991374 21380886 21779338 
1605.047 22187192 22603984 23026048 23446298 23854032 24236990 24582240 
1608.422 24878262 25115996 25290200 25399326 25446214 25437066 25381180 
1611.797 25288714 25169960 25032596 24882162 24720866 24549212 24367912 
1615.172 24178798 23986294 23797220 23619384 23460650 23326682 23220030 
1618.548 23139876 23082354 23041598 23010800 22983086 22953744 22920056 
1621.923 22883182 22847506 22819748 22806362 22811410 22834580 22870498 
1625.298 22910214 22943778 22963162 22965070 22951434 22928320 22903570 
1628.673 22883768 22872586 22870044 22873912 22882404 22894642 22913022 
1632.049 22941464 22984668 23045338 23122982 23213262 23308862 23400664 
1635.424 23479700 23538948 23575314 23589096 23584324 23567318 23545078 
1638.799 23523722 23507284 23496736 23490164 23484542 23476888 23466696 
1642.174 23455930 23449034 23451474 23466236 23492934 23526686 23559328 
1645.550 23581784 23587564 23575078 23548764 23517300 23492188 23483822 
1648.925 23499670 23542738 23612442 23704798 23814568 23935732 24062866 
1652.300 24192240 24321648 24451832 24585224 24725354 24875740 25038338 
1655.675 25212702 25396530 25586642 25780894 25979460 26184962 26401986 
1659.051 26634986 26885764 27152708 27430120 27710992 27988004 28257546 
1662.426 28519938 28780048 29045098 29322556 29618770 29937284 30279870 
1665.801 30646128 31035418 31446408 31878292 32329902 32798692 33282462 
1669.176 33777820 34281216 34789000 35297768 35803668 36303964 36796664 
1672.552 37281324 37759736 38235040 38711368 39192544 39681088 40178612 
1675.927 40686432 41206568 41743012 42300152 42881536 43487788 44114240 
1679.302 44751444 45386996 46009256 46612272 47197244 47773188 48353876 
1682.677 48953752 49583500 50247752 50944496 51668008 52411092 53168416 
1686.052 53937496 54718752 55514376 56327540 57162744 58025384 58923684 
1689.428 59866548 60862816 61918952 63038752 64222672 65472104 66791660 
1692.803 68192600 69693024 71315360 73081920 75009288 77106456 79374552 
1696.178 81813872 84430120 87241184 90280344 93593288 97231256 101242640 
1699.553 105667168 110533040 115860808 121672480 127998840 134887536 
1702.447 142401808 150614672 159599696 169421936 180131696 191765024 
1705.340 204344720 217886752 232399056 247879840 264309168 281642272 
1708.233 299805536 318699616 338207232 358201696 378550304 399110560 
1711.126 419719040 440181280 460267136 479718496 498267264 515660416 
1714.019 531683968 546182144 559068736 570333952 580043712 588333568 
1716.912 595388416 601415552 606609600 611121408 615045632 618422720 
1719.805 621260992 623561152 625335616 626614400 627438272 627845824 
1722.698 627865216 627514112 626810368 625785024 624491008 623000896 
1725.591 621393728 619739456 618085952 616456320 614855424 613281792 
1728.484 611737280 610230080 608771712 607370944 606032384 604761600 
1731.377 603574720 602509184 601626368 601006336 600732992 600876480 
1734.270 601484608 602585088 604199616 606363200 609139456 612622336 
1737.163 616925376 622161536 628424576 635774464 644238912 653823360 
1740.056 664524672 676340608 689269632 703297344 718380480 734432896 
1742.949 751323712 768884480 786922560 805233152 823601664 841796160 
1745.843 859560704 876613696 892662208 907428288 920677248 932233984 
1748.736 941981568 949841472 955748992 959638272 961443136 961112640 
1751.629 958631936 954031936 947384832 938787392 928342848 916151232 
1754.522 902313920 886944512 870181056 852188288 833149440 813251712 
1757.415 792670848 771562752 750066752 728312064 706425408 684537472 
1760.308 662779200 641278400 620152256 599506048 579430016 559999744 
1763.201 541275072 523296352 506082176 489626688 473904256 458875936 
1766.094 444500160 430742912 417583840 405014624 393032512 381629024 
1768.987 370781440 360448992 350573888 341090880 331936064 323056192 
1771.880 314412608 305980352 297741792 289680832 281776864 274003360 
1774.773 266330064 258726384 251167712 243635136 236117200 228607264 
1777.666 221100160 213591552 206078864 198565040 191061680 183591024 
1780.559 176185296 168882112 161718912 154727648 147932944 141351424 
1783.452 134996656 128880512 123016416 117416560 112089608 107036912 
1786.345 102252120 97722800 93435288 89378280 85547072 81940848 78561760 
1789.721 75408720 72475016 69748424 67212328 64850376 62649740 60602260 
1793.096 58702296 56945044 55322512 53822936 52431840 51134424 49918312 
1796.471 48775448 47700392 46689028 45736208 44834472 43974984 43150032 
1799.846 42355808 41593996 40871132 40196512 39578064 39019032 38517208 
1803.222 38064424 37649352 37260236 36887152 36522900 36163000 35805140 
1806.597 35447700 35089800 34730616 34370412 34008936 33647184 33284470 
1809.972 32920238 32552854 32180820 31802964 31419150 31029830 30635316 
1813.347 30235610 29829532 29416898 28999152 28582470 28178324 27803032 
1816.723 27475030 27209682 27015386 26888850 26815126 26768550 26718582 
1820.098 26635030 26494616 26284408 26004540 25667940 25296890 24918708 
1823.473 24560402 24242754 23974778 23753050 23561858 23378396 23180050 
1826.848 22951122 22688186 22399716 22103978 21820836 21564988 21342340 
1830.224 21147600 20968996 20793452 20612558 20424390 20232114 20039658 
1833.599 19846900 19646424 19425716 19171882 18877702 18547364 18197940 
1836.974 17853032 17538216 17269218 17049330 16867280 16704282 16541230 
1840.349 16366800 16183043 16002655 15843624 15720336 15636595 15582707 
1843.725 15536768 15472428 15366813 15208442 15000421 14760009 14512004 
1847.100 14284320 14100067 13973266 13907486 13894410 13917859 13954791 
1850.475 13980077 13969366 13905098 13778563 13593680 13367794 13127499 
1853.850 12905250 12729574 12618326 12572089 12572921 12588806 12581204 
1857.226 12515472 12371891 12150506 11872194 11572525 11290933 11060151 
1860.601 10897545 10800813 10753794 10732320 10715276 10691404 10662391 
1863.976 10639430 10636549 10661963 10714195 10780740 10843249 10884980 
1867.351 10897198 10882950 10855960 10834288 10833003 10857143 10899257 
1870.727 10941455 10961369 10938798 10864163 10741525 10589918 10438952 
1874.102 10322082 10268569 10294487 10395882 10548152 10709220 10829750 
1877.477 10865310 10791177 10610569 10354754 10075749 9829162 9657794 
1880.852 9579052 9580814 9629008 9682843 9710385 9698980 9657759 9610011 
1884.710 9580627 9584152 9619096 9670814 9718071 9741876 9730947 9680069 
1888.567 9586876 9447741 9256132 9009704 8715488 8395974 8089712 7838973 
1892.425 7678427 7620625 7651756 7738070 7838568 7925056 7991748 8055497 
1896.282 8143645 8276410 8450096 8635533 8786269 8858127 8829909 8712303 
1900.139 8545354 8381978 8265632 8214847 8218330 8243715 8256249 8235154 
1903.997 8181426 8113718 8056244 8023667 8014156 8010251 7991099 7944561 
1907.854 7877711 7811659 7775072 7788978 7857247 7965429 8088128 8201439 
1911.712 8291853 8359795 8412282 8455257 8482753 8476177 8412754 8275795 
1915.569 8067073 7810747 7545849 7315695 7151617 7062661 7035718 7042359 
1919.427 7052658 7042305 7000249 6925893 6821532 6686769 6518454 6310416 
1923.284 6063684 5788982 5508905 5255414 5058729 4943050 4919315 4987907 
1927.141 5143585 5379778 5692112 6077508 6526269 7017009 7514667 7973023 
1930.999 8344939 8596679 8716469 8721038 8649575 8549996 8464099 8411894 
1934.856 8385759 8354754 8277743 8120115 7868768 7536997 7162001 6789834 
1938.714 6457261 6178504 5936783 5692165 5393525 4999669 4493778 3892586 
1942.571 3239512 2595790 2022208 1569974 1277117 1164884 1251670 1554931 
1946.428 2086503 2846856 3807028 4898840 6012885 7007319 7734507 8073348 
1950.286 7960470 7411760 6527745 5477909 4462667 3669363 3228748 3181853 
1954.143 3473708 3970218 4495328 4888916 5044816 4945249 4654723 4292772 
1958.001 3982809 3801722 3745092 3726647 3608542 3259742 2611084 1685563 
1961.858 601018 -468515 -1336423 -1851303 -1918172 -1503868 -622946 675098 
1965.716 2317371 4198541 6180606 8092643 9748208 10974845 11649046 11722139 
1969.573 11225863 10255657 8945514 7438962 5866648 4347017 2988489 1894252 
1973.430 1155601 838321 960198 1490210 2344621 3413288 4580510 5743360 
1977.288 6806191 7669242 8224949 8361531 8006133 7158550 5919229 4483562 
1981.145 3107498 2042358 1467051 1449445 1921621 2715227 3621108 4453628 
1985.003 5099908 5530990 5785145 5933060 6033538 6121209 6202429 6267969 
1988.860 6313364 6342714 6371482 6420327 6500830 6619273 6778026 6973149 
1992.718 7195437 7421485 7606050 7686413 7594194 7283132 6754968 6070346 
1996.575 5333219 4659162 4127199 3754262 3488402 3242571 2950491 2608189 
2000.432 2295893 2147299 2285830 2756076 3466959 4205703 4692069 4677579 
2004.290 4043001 2853685 1354546 -93031 -1122103 -1476418 -1075352 -21086 
2008.147 1448600 3051358 4529956 5706510 6489931 6868134 6885429 6623863 
2012.005 6182107 5663114 5147133 4696736 4333795 4057458 3864085 3758912 
2015.862 3761555 3895110 4153149 4482798 4765740 4852876 4602999 3941154 
2019.719 2887583 1560685 129959 -1226831 -2385470 -3281655 -3895852 -4211839 
2023.577 -4186019 -3744731 -2828146 -1444485 281033 2110347 3744936 4926959 
2027.434 5532311 5612399 5374472 5085719 4959595 5059119 5288149 5433597 
2031.292 5277120 4689528 3686725 2424878 1118773 -47030 -982512 -1699743 
2035.149 -2272412 -2755295 -3139668 -3332288 -3207465 -2662066 -1680726 
2038.524 -358436 1117018 2517633 3636719 4342758 4598781 4455471 4018955 
2042.382 3419264 2778821 2197176 1741422 1454874 1350448 1421759 1650775 
2046.239 2019382 2520304 3158078 3939295 4859726 5875758 6903416 7824562 
2050.097 8519865 8904844 8957525 8727661 8328428 7907095 7612948 7562792 
2053.954 7812157 8343092 9071618 9871245 10604611 11149249 11420332 11375922 
2057.812 11016820 10383267 9546459 8601267 7655598 6814346 6168030 5775745 
2061.669 5657205 5790001 6113455 6537013 6962896 7297889 7475189 7459964 
2065.526 7256087 6898874 6443984 5952986 5483326 5076669 4759084 4543974 
2069.384 4436368 4435678 4536190 4725316 4979779 5264812 5542674 5777275 
2073.241 5946560 6046229 6090393 6103642 6112399 6133552 6172722 6228401 
2077.099 6296858 6380534 6488527 6631963 6815879 7028803 7242846 7418048 
2080.956 7516330 7515498 7419866 7258474 7079716 6932697 6854018 6858804 
2084.813 6937510 7065767 7212418 7349546 7458173 7526487 7548383 7518663 
2088.671 7431715 7284374 7074679 6806324 6489996 6141407 5781772 5439059 
2092.528 5146308 4941575 4861748 4935062 5170034 5545531 6009545 6486318 
2096.386 6893289 7157420 7234992 7115668 6823139 6403950 5915171 5414884 
2100.243 4958580 4595048 4367402 4309213 4436383 4738472 5172536 5663457 
2104.101 6117386 6441617 6567705 6471968 6184462 5781087 5364155 5039053 
2107.958 4885649 4944639 5208269 5629034 6136108 6652004 7109993 7464668 
2111.815 7694814 7798487 7784875 7665346 7450245 7145927 6760894 6311558 
2115.673 5825839 5343541 4909219 4562807 4325764 4196036 4146998 4135600 
2119.530 4115097 4048090 3915579 3716772 3465423 3180377 2878218 2572002 
2123.388 2271812 1989991 1741622 1541160 1397842 1305052 1239881 1163327 
2127.245 1032835 814311 491955 73352 -419291 -957220 -1523335 -2115351 
2131.103 -2745342 -3431412 -4183459 -4992515 -5825812 -6627856 -7329127 
2134.478 -7857837 -8150153 -8161601 -7876214 -7314090 -6536548 -5644189 
2137.853 -4766917 -4032894 -3545279 -3351881 -3436271 -3728149 -4130654 
2141.228 -4560699 -4975495 -5381753 -5822448 -6343323 -6965375 -7668889 
2144.604 -8397679 -9090336 -9708364 -10246794 -10736649 -11212762 -11687230 
2147.979 -12138774 -12518032 -12789160 -12961377 -13113973 -13380259 
2150.872 -13902819 -14779283 -16017864 -17529260 -19163796 -20778840 
2153.765 -22293738 -23722190 -25149324 -26673212 -28316808 -29966780 
2156.658 -31365254 -32159868 -32016392 -30746036 -28406982 -25318558 
2159.551 -21964320 -18828084 -16255552 -14388314 -13174390 -12450805 
2162.444 -12001823 -11628585 -11176623 -10557796 -9757536 -8840492 -7927331 
2165.819 -7171903 -6704765 -6599473 -6832297 -7287409 -7789740 -8169871 
2169.195 -8310756 -8193885 -7895998 -7554650 -7313244 -7260321 -7408749 
2172.570 -7689887 -7997765 -8236579 -8364569 -8408199 -8448847 -8577652 
2175.945 -8857209 -9291411 -9819619 -10342845 -10753943 -10972726 -10956959 
2179.320 -10708040 -10256851 -9651020 -8943544 -8182276 -7409509 -6658097 
2182.696 -5948154 -5284046 -4661079 -4073525 -3521476 -3030999 -2650611 
2186.071 -2448432 -2491676 -2815224 -3410743 -4206814 -5088039 -5912188 
2189.446 -6549270 -6905105 -6945674 -6691136 -6206627 -5585936 -4914705 
2192.821 -4266209 -3684670 -3185542 -2757989 -2369299 -1973528 -1518443 
2196.197 -957251 -265249 550139 1440815 2325049 3107731 3704129 4068616 
2200.054 4217684 4223295 4192944 4233058 4402252 4691805 5011506 5221635 
2203.911 5177919 4782671 4028027 3005119 1884946 870436 137322 -216081 
2207.769 -186948 134778 607295 1081864 1449231 1660786 1733862 1732185 
2211.626 1735793 1814225 2010743 2330495 2747646 3214324 3668248 4042618 
2215.484 4279556 4333071 4184277 3845529 3361723 2806978 2264467 1812985 
2219.341 1511526 1392306 1464734 1728019 2177057 2814148 3634686 4615579 
2223.198 5701993 6797369 7778122 8517105 8921708 8962938 8692606 8233309 
2227.056 7743238 7372928 7221901 7311766 7587891 7943525 8251377 8405666 
2230.913 8348582 8080329 7653562 7153851 6678839 6320557 6147172 6196105 
2234.771 6468349 6929853 7511953 8119679 8647740 9000410 9107191 8939927 
2238.628 8516687 7895086 7158639 6397035 5693643 5114279 4705446 4492556 
2242.486 4480833 4652329 4965567 5355214 5742341 6054791 6245576 6311697 
2246.343 6302790 6305266 6413941 6699177 7171221 7772787 8387906 8878878 
2250.200 9129766 9084227 8764018 8262518 7714280 7260025 7003280 6991919 
2254.058 7215332 7618042 8122410 8652434 9148864 9574488 9911561 10154422 
2257.915 10304983 10369720 10353555 10263926 10106184 9887423 9617103 
2261.291 9312482 9002907 8732775 8553574 8516517 8653687 8966627 9417586 
2265.148 9938460 10446399 10869709 11166679 11337039 11413780 11448212 
2268.523 11484561 11542981 11614594 11668583 11669843 11597938 11460756 
2271.898 11293459 11147593 11075323 11110656 11261897 11510878 11820893 
2275.274 12151204 12465422 12742360 12974243 13167128 13334736 13494942 
2278.649 13664580 13857517 14081981 14336788 14611701 14887420 15140837 
2282.024 15349733 15499148 15585096 15617440 15613127 15592817 15573499 
2285.399 15564401 15564685 15567121 15561938 15542355 15504825 15451493 
2288.775 15387512 15318038 15246538 15173160 15095442 15011607 14919420 
2292.150 14817491 14706662 14586777 14458068 14320527 14176087 14031528 
2295.525 13896416 13784402 13709305 13681322 13702638 13765027 13850763 
2298.900 13936698 13999339 14021902 13998640 13935326 13847632 13754187 
2302.276 13672546 13614305 13582115 13571186 13572014 13574236 13569642 
2305.651 13554981 13532336 13509911 13499720 13514707 13567061 13664176 
2309.026 13804307 13976871 14161643 14334410 14472011 14560265 14596335 
2312.401 14591137 14565488 14541619 14537648 14563785 14619188 14696724 
2315.777 14787690 14885705 14987903 15094047 15204531 15318270 15434562 
2319.152 15557237 15697461 15875319 16113438 16426429 16809332 17228064 
2322.527 17619182 17902100 17997890 17851532 17446914 16810582 16005849 
2325.902 15117332 14231110 13419592 12730515 12182750 11770689 11472948 
2329.278 11261320 11109740 10997300 10909179 10834223 10764551 10693525 
2332.653 10617866 10537809 10457331 10383393 10323256 10282089 10262013 
2336.028 10261941 10278528 10308025 10347159 10393273 10444026 10495898 
2339.403 10544111 10583729 10610044 10619282 10610887 10585004 10544369 
2342.779 10493680 10438577 10385965 10343534 10318587 10314588 10330682 
2346.154 10359269 10389046 10406734 10401016 10367862 10310017 10237210 
2349.529 10161784 10093648 10036810 9988369 9941091 9887498 9824050 9753888 
2353.386 9686143 9631522 9598139 9586873 9591121 9597574 9591975 9563749 
2357.244 9508475 9430868 9340381 9248449 9164842 9093516 9033049 8977611 
2361.101 8920102 8853732 8775340 8683504 8578688 8462787 8336585 8200634 
2364.959 8055643 7902952 7747378 7595792 7456647 7339347 7251875 7199776 
2368.816 7185988 7209189 7266639 7354089 7465635 7594806 7734100 7875292 
2372.674 8010298 8132776 8239700 8332958 8417618 8501284 8589515 8683822 
2376.531 8779682 8865741 8929433 8959376 8951259 8909583 8847618 8784199 
2380.388 8737538 8721968 8743308 8797525 8872705 8952140 9018470 9058536 
2384.246 9065786 9042434 9001055 8959899 8940737 8961926 9032826 9148689 
2388.103 9290319 9428669 9532182 9576854 9553529 9471929 9356966 9240851 
2391.961 9153085 9110628 9116703 9160300 9226319 9302217 9383351 9474936 
2395.818 9586111 9723468 9883904 10052688 10203838 10309407 10347357 
2399.193 10309217 10203375 10051652 9884315 9730104 9608459 9525570 9475910 
2403.051 9445434 9419686 9389508 9355861 9329275 9325036 9356019 9426116 
2406.908 9526663 9638208 9735473 9798716 9818563 9802963 9770994 9747720 
2410.766 9752412 9791052 9852859 9915741 9952666 9943919 9881726 9773896 
2414.623 9638743 9498141 9370101 9265524 9188378 9136732 9107691 9096255 
2418.480 9098149 9106187 9110590 9102377 9075718 9033191 8986845 8953593 
2422.338 8949951 8984118 9050041 9130738 9203449 9250178 9266123 9261317 
2426.195 9257156 9275380 9328821 9414504 9515812 9607587 9668542 9688171 
2430.053 9669210 9625457 9572664 9522943 9480031 9440276 9397010 9346242 
2433.910 9288706 9228951 9172839 9124112 9081799 9043053 9005431 8970401 
2437.768 8943830 8934029 8948428 8990377 9056721 9138263 9223429 9299580 
2441.625 9355852 9383412 9375141 9327914 9242529 9127306 8997917 8875357 
2445.482 8781926 8733896 8736515 8784259 8861622 8952923 9046721 9140730 
2449.340 9240510 9354671 9486577 9631003 9772887 9892621 9970917 9995928 
2453.197 9964007 9880218 9752251 9589868 9402823 9203099 9005141 8825853 
2457.055 8679926 8574838 8505674 8455453 8401189 8324239 8219095 8098885 
2460.912 7991541 7927706 7926547 7986621 8084045 8180861 8240784 8243712 
2464.770 8193647 8115086 8042097 8003412 8010328 8054887 8113878 8161852 
2468.627 8181991 8170152 8135142 8092283 8053203 8024009 8002226 7982500 
2472.484 7959049 7929895 7896356 7861316 7825108 7788556 7752650 7721856 
2476.342 7707741 7724782 7786222 7899292 8058248 8245673 8435437 8601127 
2480.199 8721422 8786093 8795259 8757676 8687664 8600797 8511831 8435274 
2484.057 8383080 8363304 8376709 8417342 8472517 8528131 8572061 8600054 
2487.914 8614187 8619595 8619851 8612211 8586604 8533045 8447447 8339111 
2491.771 8231411 8155877 8138232 8188830 8295393 8426912 8544249 8616894 
2495.629 8634979 8611721 8577535 8565681 8596526 8669517 8763734 8846895 
2499.486 8890765 8880119 8818607 8726916 8631607 8557156 8518862 8520755 
2503.344 8558007 8619105 8690350 8757024 8802474 8811867 8773883 8685321 
2507.201 8554447 8400935 8251401 8135074 8074998 8084088 8164150 8309034 
2511.059 8507069 8744722 9005845 9270067 9514045 9712378 9841649 9888929 
2514.916 9858035 9765909 9640117 9508574 9387087 9277089 9164792 9030082 
2518.773 8857901 8647146 8413468 8187071 8001435 7885338 7854531 7908722 
2522.631 8034415 8209186 8405115 8595085 8751938 8853040 8883495 8839799 
2526.488 8732467 8584936 8430621 8302004 8223319 8203025 8233802 8296516 
2530.346 8369223 8434611 8484139 8520075 8549601 8580490 8618074 8664473 
2534.203 8720284 8787885 8870418 8970859 9087868 9213829 9333920 9431511 
2538.061 9494455 9520014 9517750 9506741 9507528 9535991 9595037 9674918 
2541.918 9757553 9822634 9855099 9849912 9810960 9749118 9675349 9600024 
2545.775 9527992 9461726 9402585 9354404 9324168 9320226 9353840 9433377 
2549.633 9563988 9744524 9966169 10211403 10456696 10674387 10837629 
2553.008 10927831 10937670 10873593 10754973 10608371 10460536 10332498 
2556.383 10234598 10165994 10118403 10080286 10042928 10003246 9964318 
2559.759 9934020 9921941 9936136 9979191 10048212 10132597 10219418 10293679 
2563.616 10346622 10377380 10395285 10419114 10469466 10562062 10700717 
2566.991 10873107 11052546 11206210 11306223 11338697 11308663 11236816 
2570.366 11151527 11075334 11018645 10975190 10928018 10858966 10759764 
2573.742 10636686 10511339 10411528 10362410 10375635 10447876 10561169 
2577.117 10693479 10824214 10942594 11046012 11139296 11225372 11305351 
2580.492 11374054 11424469 11451054 11454751 11442021 11424102 11409977 
2583.867 11405360 11409133 11414808 11414863 11405651 11389080 11373544 
2587.243 11370728 11391468 11440716 11517017 11611036 11710554 11804048 
2590.618 11884053 11949427 12006151 12062464 12128435 12210330 12308675 
2593.993 12416279 12521061 12605806 12654848 12655545 12603789 12503464 
2597.368 12368829 12220940 12084322 11982482 11933004 11944618 12014750 
2600.744 12130547 12272187 12417124 12544604 12639882 12696125 12714876 
2604.119 12703969 12674206 12637888 12605481 12585985 12586134 12610557 
2607.494 12661203 12736331 12828623 12927079 13018229 13089915 13134591 
2610.869 13153818 13157651 13159378 13172751 13204349 13249971 13297713 
2614.245 13330927 13337417 13314455 13272715 13231317 13213491 13235928 
2617.620 13303563 13408524 13532676 13656531 13764282 13849499 13913919 
2620.995 13963423 14001691 14028274 14036662 14020061 13976617 13911423 
2624.370 13838990 13777186 13740451 13734431 13751751 13775680 13785788 
2627.746 13768577 13723157 13661419 13606622 13583286 13609938 13692612 
2631.121 13823234 13983128 14148842 14298654 14418588 14501288 14546986 
2634.496 14559461 14544531 14508280 14457427 14399742 14343276 14297148 
2637.871 14266842 14255731 14261788 14278825 14300830 14322926 14343352 
2641.247 14365641 14394409 14433739 14484428 14541170 14594387 14631740 
2644.622 14642485 14619147 14561978 14477181 14377439 14277761 14194570 
2647.997 14141375 14127340 14154167 14215399 14296654 14378120 14437479 
2651.372 14455670 14421824 14336264 14211438 14068516 13931608 13820301 
2654.748 13745459 13706466 13692663 13688469 13678572 13652282 13606735 
2658.123 13543885 13467736 13382117 13287292 13181564 13060831 12924640 
2661.498 12775219 12619168 12464505 12319173 12187983 12073259 11974026 
2664.873 11888233 11814103 11750748 11696920 11651286 11610279 11570327 
2668.249 11527953 11483419 11439766 11403688 11381625 11377515 11388327 
2671.624 11405044 11413986 11401469 11357556 11281068 11179424 11065941 
2674.999 10956453 10864653 10798956 10761878 10751286 10763429 10793934 
2678.374 10839318 10896276 10961054 11027650 11087550 11132226 11154409 
2681.750 11150315 11121545 11075447 11023589 10979255 10954656 10958687 
2685.125 10993975 11056580 11136281 11218444 11286614 11327750 11333200 
2688.500 11301865 11240114 11158820 11071565 10989055 10919298 10864821 
2691.875 10824999 10798037 10782412 10777588 10784023 10800907 10826179 
2695.250 10854525 10879453 10894114 10893266 10874919 10840327 10791920 
2698.626 10733751 10668707 10598857 10526369 10453408 10382862 10318437 
2702.001 10263382 10220774 10191431 10176443 10176271 10192637 10227451 
2705.376 10282894 10358616 10450564 10549970 10644895 10722205 10770929 
2708.751 10785799 10767519 10724042 10666781 10608411 10560176 10528333 
2712.127 10514700 10516026 10525332 10533735 10532158 10513701 10475093 
2715.502 10417770 10347812 10276017 10213642 10172500 10160498 10180471 
2718.877 10230797 10305228 10395780 10493736 10591096 10680858 10756731 
2722.252 10812522 10842840 10844395 10816537 10761978 10688458 10606258 
2725.628 10527042 10460925 10415839 10394803 10397279 10419905 10456313 
2729.003 10499483 10541940 10577112 10600520 10610700 10609834 10603760 
2732.378 10600153 10606591 10626738 10659594 10698494 10734394 10757411 
2735.753 10762510 10750318 10727873 10705606 10693304 10696012 10712178 
2739.129 10733751 10750389 10752830 10738230 10709878 10677759 10653238 
2742.504 10644018 10652765 10674083 10698248 10715360 10720361 10715084 
2745.879 10707604 10709208 10728446 10766241 10814798 10858137 10878054 
2749.254 10860476 10800232 10704665 10591695 10483200 10401623 10360306 
2752.630 10363684 10404882 10470666 10545956 10618334 10679685 10727613 
2756.005 10763303 10788777 10804767 10810344 10803291 10780741 10742504 
2759.380 10690789 10631028 10570974 10519298 10482280 10464358 10463507 
2762.755 10474199 10487755 10493740 10484487 10456746 10414487 10365746 
2766.131 10322535 10296045 10293215 10313967 10352766 10399812 10446970 
2769.506 10488775 10526799 10566042 10613170 10671899 10739912 10808603 
2772.881 10866198 10901837 10907443 10885128 10842120 10790193 10742238 
2776.256 10707540 10690278 10690278 10704576 10729373 10763187 10804726 
2779.632 10854641 10911456 10973682 11036769 11096998 11149807 11193519 
2783.007 11228030 11255106 11278098 11299141 11320190 11341155 11361099 
2786.382 11377789 11388519 11390863 11383138 11365801 11340813 11312736 
2789.757 11285956 11265234 11253553 11252140 11259683 11274793 11295886 
2793.133 11323055 11356496 11397329 11445467 11498206 11552271 11603176 
2796.508 11647646 11685397 11718669 11750920 11785898 11824731 11866852 
2799.883 11910021 11951611 11992841 12036432 12087160 12149352 12224507 
2803.258 12309451 12397996 12482541 12556884 12618767 12669496 12712822 
2806.634 12751372 12786360 12816571 12840115 12856519 12868414 12882757 
2810.009 12906327 12944114 12995847 13055035 13110478 13150780 13168200 
2813.384 13162544 13140770 13115875 13102381 13112827 13155152 13232482 
2816.759 13342959 13481702 13640803 13811307 13982463 14143302 14285788 
2820.135 14406022 14506357 14595951 14685863 14787073 14903848 15031278 
2823.510 15156683 15263285 15336106 15367913 15361909 15331159 15293667 
2826.885 15267162 15262653 15282803 15322131 15370199 15416197 15451010 
2830.260 15470546 15473656 15462519 15441874 15416093 15391919 15375909 
2833.635 15375389 15394928 15437586 15500898 15579076 15663089 15743898 
2837.011 15813123 15866091 15901744 15921688 15931252 15936913 15947243 
2840.386 15971590 16019119 16098324 16211815 16357314 16525788 16703989 
2843.761 16877590 17036656 17178114 17308352 17441234 17593394 17778060 
2847.136 18001672 18259674 18538702 18819320 19083032 19314760 19509674 
2850.512 19670908 19809754 19941074 20079178 20234726 20412162 20609380 
2853.887 20819290 21032390 21239430 21433196 21609918 21770252 21916308 
2857.262 22052112 22180558 22304620 22425742 22545956 22667666 22795988 
2860.637 22934890 23090460 23265810 23462400 23678318 23908860 24149182 
2864.013 24394088 24642018 24893954 25155812 25435636 25745868 26096820 
2867.388 26498738 26956558 27469284 28028476 28619612 29223874 29822980 
2870.763 30401322 30951550 31473894 31976030 32469838 32966148 33472202 
2874.138 33989008 34512056 35032668 35539336 36022352 36472544 36882000 
2877.514 37243400 37550580 37796292 37977444 38091688 38140372 38128060 
2880.889 38061132 37945676 37786492 37587128 37351900 37085940 36797816 
2884.264 36500304 36207688 35935020 35693988 35491884 35330168 35205808 
2887.639 35113588 35046732 35001008 34973192 34962584 34968720 34991980 
2891.015 35032196 35089064 35162604 35252444 35357492 35475896 35603908 
2894.390 35735828 35865036 35983632 36085300 36167252 36228484 36272660 
2897.765 36305868 36334936 36365892 36401800 36442964 36486508 36527592 
2901.140 36561968 36587440 36604216 36615440 36626272 36642264 36667164 
2904.516 36702980 36748904 36803272 36863904 36929308 36999108 37073488 
2907.891 37151764 37232460 37313176 37390844 37464176 37534840 37608820 
2911.266 37693852 37800480 37936284 38105760 38308148 38537088 38783772 
2914.641 39039848 39299732 39562052 39830980 40113916 40418456 40751216 
2918.017 41113328 41500236 41902476 42308676 42706524 43087704 43448388 
2921.392 43790548 44122096 44452312 44792752 45152268 45536896 45949380 
2924.767 46391172 46861312 47360156 47886720 48440880 49020644 49622744 
2928.142 50244288 50882384 51537480 52213952 52921344 53671492 54476736 
2931.518 55347560 56290128 57307156 58399076 59564776 60806440 62127888 
2934.893 63534720 65033720 66629828 68326560 70123440 72019880 74012368 
2938.268 76096496 78263776 80500440 82785456 85088920 87374296 89600376 
2941.643 91725376 93709992 95519680 97125944 98506520 99644352 100528936 
2945.019 101157120 101533488 101670880 101589248 101311920 100863512 
2947.912 100265432 99536728 98693280 97752584 96734600 95662880 94563176 
2951.287 93460728 92373720 91313432 90281840 89275400 88288928 87320536 
2954.662 86375800 85464664 84600840 83795552 83054280 82373792 81745040 
2958.037 81153352 80585536 80029296 79478104 78927816 78377504 77824632 
2961.413 77268504 76706912 76137576 75559160 74970512 74370208 73756152 
2964.788 73126072 72478240 71814424 71140984 70469040 69813200 69186960 
2968.163 68598072 68046176 67521384 67007640 66488868 65953664 65402344 
2971.538 64846560 64306036 63801892 63350132 62955892 62611624 62301648 
2974.914 62007996 61719796 61437252 61172988 60950560 60795928 60729972 
2978.289 60764620 60899112 61123580 61423928 61786988 62205372 62677420 
2981.664 63207136 63801056 64465032 65203428 66019556 66917748 67903312 
2985.039 68982672 70161792 71442608 72821144 74285192 75816928 77394328 
2988.415 78996968 80606696 82207296 83782272 85312624 86771944 88128120 
2991.790 89345408 90390984 91239176 91877536 92305976 92535240 92582216 
2995.165 92463720 92193888 91783008 91235792 90558232 89755680 88835632 
2998.540 87805864 86674752 85449200 84134272 82735216 81257680 79710192 
3001.916 78101784 76444016 74747280 73020784 71272488 69510240 67741880 
3005.291 65977976 64230152 62510984 60829648 59192716 57600952 56052580 
3008.666 54544624 53075108 51645084 50257524 48915332 47618988 46364056 
3012.041 45142480 43940856 42749148 41560004 40375072 39201656 38053800 
3015.417 36946672 35892928 34898908 33965448 33086084 32253146 31458992 
3018.792 30698654 29971270 29280474 28629204 28019974 27450692 26915410 
3022.167 26403570 25904638 25408294 24909016 24406610 23905254 23412708 
3025.542 22938148 22488386 22069126 21682602 21329906 21010330 20721814 
3028.917 20461296 20221854 19993584 19765082 19524620 19263640 18981334 
3032.293 18685036 18389118 18112124 17871780 17679492 17537912 17440020 
3035.668 17372670 17319168 17265242 17200696 17121656 17028422 16926292 
3039.043 16821182 16720122 16630156 16557513 16506778 16479809 16473643 
3042.418 16480846 16490197 16489951 16469896 16425524 16358670 16276581 
3045.794 16189562 16107840 16037432 15981823 15938977 15906131 15880024 
3049.169 15858611 15841279 15828343 15819082 15813293 15808938 15804581 
3052.544 15798276 15788998 15775008 15755281 15728479 15692759 15648523 
3055.919 15597926 15545573 15496993 15457113 15427776 15407654 15391939 
3059.295 15374163 15350640 15319315 15284388 15252839 15231640 15225314 
3062.670 15235001 15255774 15280047 15300729 15313203 15317051 15317198 
3066.045 15321974 15341030 15381888 15447332 15534599 15633730 15729498 
3069.420 15803797 15840145 15827809 15763989 15658148 15527874 15395102 
3072.796 15280013 15195382 15143381 15115573 15098883 15080640 15054869 
3076.171 15024556 15000418 14996480 15022444 15079769 15161357 15252261 
3079.546 15334738 15394325 15421409 15412362 15367267 15286732 15170335 
3082.921 15019203 14836329 14629870 14415113 14213340 14045211 13927668 
3086.297 13868265 13862474 13895955 13947743 13995724 14022520 14016951 
3089.672 13977970 13911667 13830759 13751381 13688847 13655277 13656165 
3093.047 13687797 13739324 13793144 13832896 13845204 13827569 13785783 
3096.422 13734552 13688284 13657655 13643397 13636812 13623479 13591578 
3099.798 13536945 13467874 13401797 13360192 13359881 13405142 13484680 
3103.173 13574948 13646754 13675574 13649229 13569978 13453814 13323384 
3106.548 13198538 13091545 13001262 12918962 12829363 12721857 12593322 
3109.923 12452174 12314119 12198707 12121335 12088989 12098560 12139353 
3113.299 12196711 12258770 12318040 12372435 12421952 12465756 12496340 
3116.674 12502756 12470606 12391640 12265951 12107705 11941195 11796026 
3120.049 11697537 11660135 11683735 11753765 11848861 11947122 12032583 
3123.424 12098130 12143439 12172261 12187197 12190541 12181658 12163365 
3126.800 12141202 12125197 12125290 12148177 12192513 12248061 12298391 
3130.175 12325612 12318823 12276229 12206511 12125568 12048690 11986558 
3133.550 11942212 11910426 11883553 11855413 11822867 11789574 11760468 
3136.925 11740888 11733151 11734432 11739590 11742339 11738582 11726953 
3140.301 11707977 11685004 11660976 11639984 11624444 11616673 11619190 
3143.676 11632633 11656060 11686534 11718702 11747302 11767607 11778138 
3147.051 11779416 11774386 11766404 11758736 11752962 11750655 11752772 
3150.426 11759202 11769003 11777125 11775345 11751233 11693081 11594875 
3153.802 11459874 11303135 11148054 11022028 10945402 10926627 10959395 
3157.177 11024652 11097947 11160085 11202727 11229657 11254379 11292621 
3160.552 11354737 11441481 11544733 11650771 11746599 11826393 11890466 
3163.927 11945253 11997732 12051287 12102743 12144798 12167180 12163951 
3167.302 12132244 12075961 12001345 11914532 11818163 11712243 11592101 
3170.678 11454986 11301213 11138404 10980016 10845220 10753519 10721245 
3174.053 10755939 10855524 11006251 11187588 11373778 11542005 11675700 
3177.428 11767504 11818986 11838093 11833621 11812573 11775370 11719450 
3180.803 11639817 11536036 11413311 11284820 11167568 11078468 11027617 
3184.179 11015038 11029364 11053371 11068132 11061081 11030828 10986517 
3187.554 10945918 10931286 10961475 11045989 11183798 11361726 11557637 
3190.929 11745212 11899378 12002192 12046359 12037935 11993223 11935797 
3194.304 11889243 11869151 11880019 11912888 11948865 11966052 11947234 
3197.680 11887486 11795449 11691848 11602438 11549776 11545209 11585549 
3201.055 11652852 11721462 11764204 11762231 11705570 11599017 11456801 
3204.430 11299785 11149804 11025913 10941817 10906524 10922301 10988203 
3207.805 11098268 11242982 11408764 11581155 11744394 11884745 11991996 
3211.181 12062049 12095845 12098197 12075855 12036006 11982827 11921150 
3214.556 11853441 11784747 11720980 11670303 11639814 11633713 11649645 
3217.931 11679881 11711309 11728658 11721271 11684084 11620958 11542645 
3221.306 11464636 11400811 11360218 11346741 11358235 11390837 11441221 
3224.682 11509932 11600647 11717150 11859244 12020479 12184476 12328476 
3228.057 12426996 12458205 12409228 12281223 12087239 11851558 11601058 
3231.432 11362726 11154584 10988722 10868056 10791515 10756956 10762664 
3234.807 10808331 10892147 11007974 11143730 11280188 11397235 11475826 
3238.183 11506522 11491251 11442868 11381593 11327446 11292873 11281348 
3241.558 11284109 11289143 11285190 11268673 11245001 11226305 11225264 
3244.933 11247957 11291358 11341059 11378310 11387807 11361841 11306904 
3248.308 11239151 11179087 11143743 11140188 11163007 11197012 11222995 
3251.684 11226287 11200041 11150106 11088207 11032377 10995874 10987506 
3255.059 11004024 11038265 11075671 11103517 11112882 11100932 11072222 
3258.434 11035562 11002918 10984302 10986255 11011720 11058426 11122135 
3261.809 11198283 11283611 11373978 11465904 11553284 11627063 11676877 
3265.185 11693653 11673451 11620951 11548684 11475421 11419161 11393338 
3268.560 11399606 11429784 11468054 11498906 11510104 11500331 11476675 
3271.935 11450937 11435245 11435837 11451517 11475947 11500823 11519908 
3275.310 11533309 11547044 11569973 11612720 11682193 11781252 11906305 
3278.686 12049589 12197531 12331942 12431320 12473389 12439252 12320439 
3282.061 12122201 11866793 11589644 11331658 11128249 11000806 10949665 
3285.436 10955880 10989084 11017469 11019306 10989201 10936695 10883847 
3288.811 10853712 10863650 10918728 11012603 11130686 11254855 11369729 
3292.187 11465291 11536912 11586781 11618949 11641228 11661308 11686567 
3295.562 11723616 11776089 11843776 11921619 12001030 12070993 12121029 
3298.937 12145839 12142873 12116641 12073973 12023019 11969074 11913793 
3302.312 11853310 11781340 11690262 11574334 11433334 11274869 11112845 
3305.688 10967454 10860334 10809266 10822322 10896888 11016317 11155676 
3309.063 11287796 11392223 11459324 11492503 11508109 11524496 11556813 
3312.438 11607948 11667843 11716133 11730127 11694303 11606100 11479789 
3315.813 11342599 11226092 11155738 11144954 11189667 11271399 11363580 
3319.188 11440049 11482620 11487170 11462223 11425400 11397776 11395992 
3322.564 11427494 11486081 11554124 11607313 11620098 11575477 11467539 
3325.939 11307822 11120089 10936659 10787739 10694883 10665438 10690983 
3329.314 10753873 10833346 10913733 10989479 11065250 11152059 11257255 
3332.689 11382187 11514178 11634195 11718171 11748713 11719556 11638918 
3336.065 11526178 11407060 11303740 11232826 11200456 11204639 11238697 
3339.440 11293619 11360381 11429616 11491068 11534012 11547841 11526179 
3342.815 11469235 11385480 11290654 11204069 11141473 11114040 11122121 
3346.190 11159362 11214492 11278358 11343807 11409055 11474437 11539616 
3349.566 11602914 11658511 11699690 11720737 11719065 11695338 11652568 
3352.941 11593552 11519403 11430004 11324342 11204435 11075765 10948638 
3356.316 10835038 10747072 10691358 10669471 10676719 10703698 10738869 
3359.691 10771361 10791300 10792288 10770502 10727615 10669570 10609491 
3363.067 10563537 10549785 10580037 10656673 10770845 10902582 11027964 
3366.442 11125970 11186239 11211450 11216203 11220058 11238986 11278505 
3369.817 11330525 11376146 11392969 11363304 11280384 11150946 10992210 
3373.192 10828042 10680171 10565266 10490761 10457571 10459177 10487371 
3376.568 10532136 10584016 10635910 10683312 10724640 10762482 10802707 
3379.943 10852982 10921328 11011589 11122764 11248206 11374708 11487252 
3383.318 11568425 11604425 11585285 11507816 11376979 11205309 11012473 
3386.693 10824016 10665937 10561300 10524024 10558087 10654141 10794234 
3390.069 10956216 11118378 11264636 11388192 11488459 11569954 11637543 
3393.444 11693818 11736170 11759490 11756737 11724390 11662547 11579028 
3396.819 11486301 11399679 11333232 11298760 11298887 11330679 11384045 
3400.194 11447079 11506499 11553670 11582230 11593299 11588922 11574427 
3403.570 11555040 11537696 11529554 11540964 11582285 11662857 11785550 
3406.945 11945153 12123031 12292552 12421941 12484748 12466920 12372757 
3410.320 12224346 12056082 11906021 11804241 11768075 11798345 11882770 
3413.695 12001772 12134956 12267048 12388353 12496231 12590222 12672029 
3417.071 12742671 12804315 12858895 12909723 12958963 13008447 13057035 
3420.446 13101405 13137097 13159650 13168024 13165305 13156289 13148300 
3423.821 13147293 13157155 13176181 13201392 13224205 13237407 13232167 
3427.196 13203442 13150189 13076182 12990472 12907605 12841682 12805547 
3430.572 12804938 12837010 12890876 12951298 13004168 13041104 13061642 
3433.947 13071739 13080002 13089877 13099750 13100212 13079768 13033013 
3437.322 12963157 12888918 12837298 12836799 12907097 13052032 13254169 
3440.697 13481352 13692754 13850262 13926451 13909979 13806691 13635681 
3444.073 13425492 13207218 13010672 12861190 12774553 12755725 12796672 
3447.448 12878643 12974814 13060184 13115725 13135777 13128618 13112348 
3450.823 13108067 13131239 13185913 13264607 13350365 13425765 13479017 
3454.198 13507920 13519853 13527054 13539687 13564453 13599397 13639436 
3457.573 13677983 13711688 13741584 13770794 13801864 13833754 13860213 
3460.949 13874988 13872524 13855239 13832508 13820077 13833119 13881722 
3464.324 13964632 14071666 14185230 14289211 14373519 14439994 14498021 
3467.699 14563027 14646271 14751823 14871690 14989042 15083442 15138153 
3471.074 15143276 15101117 15024088 14933331 14852085 14803823 14807506 
3474.450 14875475 15010327 15205127 15440723 15691319 15924562 16110977 
3477.825 16227348 16266175 16234294 16153583 16054096 15966123 15913559 
3481.200 15910052 15958071 16052859 16184416 16343899 16522694 16714167 
3484.575 16909450 17098270 17268830 17411878 17523312 17608600 17680238 
3487.951 17756228 17853408 17980212 18134790 18306512 18476426 18629428 
3491.326 18755318 18854892 18936928 19014536 19098616 19195850 19303554 
3494.701 19416920 19529038 19637320 19745168 19860098 19990444 20140566 
3498.076 20307304 20480210 20642140 20776742 20871302 20921916 20933732 
3501.452 20920386 20896214 20876974 20870788 20880954 20903836 20931080 
3504.827 20953976 20965452 20962094 20942952 20909552 20864716 20809150 
3508.202 20742960 20665564 20577896 20481722 20382938 20286840 20200154 
3511.577 20123706 20054192 19982542 19898022 19792138 19662644 19516376 
3514.953 19368082 19235564 19134044 19069190 19035464 19015184 18985926 
3518.328 18925502 18821042 18671586 18488702 18291624 18102424 17939168 
3521.703 17812708 17725778 17675782 17656356 17660308 17680322 17709442 
3525.078 17738566 17758598 17759846 17735208 17682308 17605750 17514986 
3528.454 17426098 17355634 17317912 17321226 17365822 17440016 17524050 
3531.829 17590004 17609216 17556564 17419480 17202686 16929506 16639492 
3535.204 16380111 16194340 16109999 16130902 16238390 16394123 16555250 
3538.579 16683487 16756998 16770665 16734529 16664473 16574716 16471297 
3541.955 16353747 16218733 16067088 15908897 15763486 15654588 15601903 
3545.330 15614348 15686020 15794506 15912415 16012190 16076839 16102310 
3548.705 16099863 16086604 16081184 16097391 16139047 16199971 16268879 
3552.080 16329845 16370721 16382225 16361481 16310744 16236909 16149724 
3555.456 16059903 15977202 15910795 15864374 15839612 15831757 15834736 
3558.831 15838549 15833786 15811501 15766455 15696485 15604806 15497498 
3562.206 15384561 15276968 15185329 15115725 15071983 15053388 15056258 
3565.581 15077264 15113542 15162124 15220863 15284273 15342572 15381661 
3568.957 15387204 15348312 15261037 15133607 14984289 14836859 14715804 
3572.332 14637139 14605300 14612887 14642588 14674451 14692451 14687499 
3575.707 14659819 14614670 14561019 14506277 14454633 14405727 14355493 
3579.082 14297469 14226144 14137449 14032333 13916782 13803722 13711591 
3582.458 13661711 13670853 13748511 13888489 14071537 14265921 14436523 
3585.833 14552384 14595360 14565174 14476798 14353973 14224283 14108970 
3589.208 14020269 13961430 13929702 13919089 13926601 13948881 13985457 
3592.583 14033214 14086748 14137176 14174160 14186516 14165824 14108220 
3595.958 14014419 13891385 13751857 13611461 13489556 13403220 13366412 
3599.334 13384560 13457089 13575721 13725683 13890387 14052622 14196008 
3602.709 14303789 14358592 14344730 14249520 14070296 13818139 13520287 
3606.084 13216028 12951504 12766833 12686963 12714207 12831740 13008508 
3609.459 13209824 13407360 13584218 13733626 13853994 13943374 13995832 
3612.835 14003134 13958260 13862519 13729188 13580733 13444454 13343791 
3616.210 13291921 13287651 13318672 13367107 13419545 13468614 13518906 
3619.585 13580825 13666474 13783976 13932745 14103843 14283845 14456646 
3622.960 14613034 14748757 14870709 14990764 15124679 15281685 15464227 
3626.336 15660668 15847111 15992833 16066961 16048938 15937515 15753923 
3629.711 15538364 15339416 15204933 15165530 15230716 15389124 15612252 
3633.086 15864531 16114479 16338134 16524645 16673492 16789892 16881610 
3636.461 16954478 17011172 17053140 17079278 17092880 17097946 17104234 
3639.837 17124542 17174482 17266266 17407600 17592784 17807324 18024878 
3643.212 18216882 18360590 18446938 18482850 18493116 18507294 18552032 
3646.587 18639812 18765278 18906318 19034686 19125414 19167952 19165470 
3649.962 19135074 19097208 19068024 19052662 19050160 19053652 19060458 
3653.338 19075222 19109594 19177190 19287576 19439068 19619430 19803294 
3656.713 19961954 20069252 20106508 20066692 19953456 19778456 19559238 
3660.088 19316790 19070638 18839798 18636922 18470836 18341918 18244404 
3663.463 18167738 18098794 18024796 17933344 17816212 17668348 17491232 
3666.839 17291856 17085332 16891188 16732873 16626982 16581260 16588105 
3670.214 16627273 16670747 16694568 16685454 16647933 16598109 16559217 
3673.589 16547246 16565042 16598459 16622048 16607862 16536694 16403241 
3676.964 16215611 15989929 15742803 15483961 15220420 14957712 14708885 
3680.340 14493742 14337883 14262356 14273700 14357673 14479720 14594539 
3683.715 14662716 14660569 14590413 14473799 14342619 14224109 14128002 
3687.090 14040994 13937209 13786689 13572550 13297993 12991122 12692983 
3690.465 12446078 12280601 12205672 12208128 12259033 12322402 12367169 
3693.841 12375691 12344127 12283566 12212628 12149940 12107722 12087088 
3697.216 12079409 12068763 12039597 11980672 11894198 11792643 11700573 
3700.591 11644299 11648041 11722689 11865196 12055086 12260746 12445344 
3703.966 12575216 12625837 12588882 12470876 12295319 12093750 11902177 
3707.342 11748685 11652085 11613877 11621698 11655516 11693431 11721944 
3710.717 11740061 11757936 11794149 11862956 11969455 12104126 12246650 
3714.092 12370004 12453713 12486338 12470590 12417991 12343414 12257285 
3717.467 12163317 12058161 11936106 11795657 11641657 11486636 11346860 
3720.843 11235983 11161458 11121808 11109713 11113760 11126255 11143098 
3724.218 11164421 11193079 11232930 11285596 11352572 11434489 11533843 
3727.593 11652882 11794358 11957282 12135080 12315931 12483024 12617666 
3730.968 12704261 12731321 12695457 12600011 12455441 12276696 12080600 
3734.344 11884604 11704408 11550360 11429192 11340539 11280790 11243219 
3737.719 11223845 11220305 11235222 11272349 11336060 11425996 11539550 
3741.094 11667622 11799731 11924392 12030105 12107367 12147913 12146355 
3744.469 12102921 12023980 11925397 11828294 11757424 11729429 11749822 
3747.844 11806366 11873310 11914372 11899387 11813818 11667660 11494445 
3751.220 11344231 11266460 11294696 11435622 11666390 11937714 12191984 
3754.595 12374159 12447456 12400156 12247271 12024524 11781814 11568039 
3757.970 11424325 11370742 11406564 11509501 11644338 11771566 11861685 
3761.345 11899735 11891718 11859591 11833612 11840025 11894047 11993310 
3764.721 12121378 12251377 12356653 12416573 12422564 12373472 12275949 
3768.096 12137907 11967893 11771190 11556725 11334059 11118031 10924113 
3771.471 10767398 10657703 10599562 10590097 10622781 10687567 10776161 
3774.846 10879514 10991964 11105457 11214453 11312647 11396758 11466273 
3778.222 11524209 11576365 11628785 11683868 11740987 11794335 11836469 
3781.597 11859559 11859303 11835065 11792135 11737456 11681122 11634118 
3784.972 11604914 11600581 11625933 11681110 11761573 11858745 11961256 
3788.347 12054949 12130333 12179811 12203371 12203658 12186484 12156653 
3791.723 12115549 12062287 11996101 11917621 11833557 11755044 11697154 
3795.098 11671034 11681508 11722259 11776575 11821404 11834690 11801846 
3798.473 11720705 11600885 11462410 11326827 11212897 11130644 11081971 
3801.848 11062198 11064745 11084666 11121592 11175910 11249151 11337011 
3805.224 11430609 11514841 11574714 11598913 11584887 11540620 11485417 
3808.599 11440621 11427962 11461057 11542079 11658725 11789143 11903577 
3811.974 11971869 11969311 11883282 11714656 11481873 11214838 10952486 
3815.349 10732220 10582290 10516948 10532913 10612139 10731745 10868072 
3818.725 11006862 11141497 11273243 11403502 11529091 11638781 11714079 
3822.100 11734813 11687443 11571186 11401588 11206071 11020350 10875932 
3825.475 10795402 10784897 10837425 10933616 11050642 11166815 11266037 
3828.850 11338468 11380390 11391660 11374952 11334085 11275572 11207207 
3832.226 11136908 11071325 11012887 10960189 10907607 10848108 10779516 
3835.601 10707583 10648426 10624565 10661211 10776694 10974644 11240009 
3838.976 11540193 11830511 12066487 12214758 12260259 12208209 12084985 
3842.351 11925070 11765901 11636709 11552122 11512916 11507689 11518113 
3845.727 11526741 11519076 11486771 11428788 11349746 11257851 11164396 
3849.102 11082093 11024293 10999995 11015370 11068251 11150179 11245878 
3852.477 11337369 11406261 11440854 11435471 11394215 11326333 11246861 
3855.852 11169687 11106904 11065972 11049989 11056903 11081317 11114748 
3859.228 11149473 11179574 11201571 11216233 11226520 11234619 11242205 
3862.603 11247345 11246429 11234690 11210186 11174721 11133834 11094226 
3865.978 11061701 11039224 11026028 11020310 11022328 11036732 11071913 
3869.353 11135752 11233943 11360950 11503623 11639628 11748677 11816548 
3872.729 11842182 11835256 11813466 11792056 11781244 11778830 11776417 
3876.104 11763268 11735631 11697769 11664165 11650737 11670171 11724034 
3879.479 11801339 11882292 11944234 11967992 11945260 11874986 11766618 
3882.854 11632710 11490100 11355756 11248726 11185468 11178693 11229976 
3886.229 11328973 11453022 11572702 11659605 11698669 11690648 11653563 
3889.605 11613356 11596887 11617793 11674791 11753095 11832074 11894968 
3892.980 11936189 11960922 11982021 12009885 12048152 12091237 12129265 
3896.355 12151960 12155935 12145084 12127466 12110365 12094820 12072635 
3899.730 12033398 11967993 11876808 11770376 11668479 11590386 11548596 
3903.106 11543774 11565774 11599630 11631282 11656167 11677931 11705174 
3906.481 11744933 11797348 11853688 11900003 11924292 11920415 11893451 
3909.856 11854609 11817062 11788512 11765693 11738042 11689241 11608578 
3913.231 11496967 11369277 11252531 11177932 11172518 11248855 11403710 
3916.607 11614406 11847526 12064655 12232051 12325485 12335635 12267958 
3919.982 12139574 11974934 11802681 11647671 11532277 11470500 11470864 
3923.357 11532735 11650250 11809045 11989498 12167787 12319674 12423128 
3926.732 12465411 12442300 12361904 12239411 12093957 11942975 11800226 
3930.108 11672271 11562779 11472279 11402481 11355881 11334844 11337153 
3933.483 11358220 11385725 11408246 11415156 11404611 11382117 11359749 
3936.858 11352604 11371854 11419609 11489445 11565870 11633250 11679093 
3940.233 11699583 11698253 11686143 11676265 11679665 11701480 11742636 
3943.609 11798142 11861953 11926307 11984495 12030321 12057332 12058676 
3946.984 12029069 11964161 11865651 11741438 11608775 11489261 11411357 
3950.359 11397596 11463423 11608349 11814095 12046157 12261555 12418321 
3953.734 12486734 12457509 12345925 12184699 12018302 11885140 11810690 
3957.110 11798796 11833769 11886047 11925135 11926850 11883787 11804120 
3960.485 11710830 11631395 11593037 11613609 11698293 11838787 12016352 
3963.860 12206411 12384099 12529697 12631666 12687470 12701721 12681022 
3967.235 12631984 12556318 12451502 12314091 12145135 11954039 11760268 
3970.611 11590709 11475164 11433639 11473313 11583089 11738753 11906400 
3973.986 12054214 12160304 12216289 12226393 12204262 12166071 12127342 
3977.361 12097892 12083830 12085429 12100565 12124470 12151302 12173755 
3980.736 12187849 12189325 12180041 12163977 12149769 12144596 12153908 
3984.112 12177445 12214018 12259374 12310996 12369279 12439018 12521685 
3987.487 12618212 12723021 12826664 12917155 12985035 13026027 13042520 
3990.862 13042897 13036611 13030859 13030565 13033738 13039712 13043819 
3994.237 13045395 13043635 13037607 13023842 12999001 12959348 12905940 
3997.613 12844385 12789221 12754462 12753997 12791444 12860141 12942343 
##END=
