##TITLE=3D-Fillies_PLA+_Blue_Filament_r6_ATR-Corrected
##JCAMP-DX=5.01  $$ Nicolet v. 1
##DATATYPE=INFRARED SPECTRUM
##ORIGIN=Curtin University
##OWNER=Nicolet
##LONGDATE=2024/07/18
##TIME=09:52:13
##SPECTROMETER/DATA SYSTEM=Nicolet iS50
##DATA PROCESSING=
Ratio against background
%Transmittance->Absorbance
ATR Correction
Truncated
ElementMultiply or ElementDivide
##COMMENTS=
Number of sample scans: 32
Collection length: 47.28 sec
Sample gain: 1.0
Background collected on: Thu Jul 18 09:50:37 2024 (GMT+08:00);
Number of background scans: 32
Background gain: 1.0
Sample spacing:  1.000
Number of scan points: 16672
Resolution points: 8192
Number of FFT points: 65536
Apodization: N-B strong;
Phase correction: Mertz;
Laser frequency: 15798.3 cm-1
Number of rejected sample scans: 0
Number of rejected background scans: 0
Bench serial number: AUP1200105;
##RESOLUTION=4.000
##XUNITS=1/CM
##YUNITS=ABSORBANCE
##FIRSTX=400.163452
##LASTX=4000.187744
##FIRSTY=0.061361
##MAXX=4000.187744
##MINX=400.163452
##MAXY=1.219488
##MINY=-0.040233
##XFACTOR=1.000000
##YFACTOR=1.000000E-008
##NPOINTS=7468
##DELTAX=0.482125
##ZPD=8192
##XYDATA=(X++(Y..Y))
400.163 6136136 5980342 5854966 5764397 5703003 5659704 5621256 5576353 
404.020 5518688 5447513 5366418 5280463 5193912 5108730 5025061 4942532 
407.877 4861716 4784655 4714309 4652700 4599377 4550360 4498832 4437263 
411.734 4360114 4266169 4159487 4048163 3942148 3850241 3778324 3728555 
415.591 3700040 3689882 3694427 3709483 3729998 3749430 3759533 3751346 
419.448 3717339 3653977 3563879 3456257 3345327 3246750 3173349 3131513 
423.305 3119318 3127243 3141195 3146523 3132253 3093786 3033577 2959738 
427.162 2883263 2814895 2762875 2731572 2721614 2730408 2753348 2784779 
431.019 2818912 2850478 2875383 2890938 2896486 2892867 2882231 2867444 
434.876 2851518 2837040 2826001 2819694 2818726 2822996 2831597 2842761 
438.733 2853929 2862100 2864536 2859437 2846597 2827467 2804875 2782245 
442.590 2762644 2748054 2739194 2735614 2736281 2740042 2745899 2752938 
446.447 2760075 2765840 2768478 2766279 2758131 2744025 2725120 2703584 
450.304 2681970 2662631 2647263 2636793 2631471 2631013 2634734 2641360 
454.161 2648987 2654951 2656220 2649877 2634022 2608377 2574586 2535891 
458.017 2496385 2459977 2429614 2406820 2391747 2383418 2380182 2379948 
461.874 2380394 2379114 2373963 2363086 2346466 2325192 2301704 2279217 
465.731 2260862 2248725 2243278 2243421 2247100 2252148 2257062 2261269 
469.588 2264848 2267800 2269502 2268369 2262318 2249555 2229589 2203771 
473.445 2175190 2147816 2125296 2109776 2101309 2097981 2096732 2094488 
477.302 2089191 2080260 2068571 2055810 2043703 2033346 2024905 2017691 
481.159 2010559 2002350 1992294 1980237 1966626 1952418 1938888 1927487 
485.016 1919601 1916381 1918517 1925984 1937869 1952281 1966494 1977321 
488.873 1981705 1977361 1963447 1940865 1912240 1881397 1852513 1829166 
492.730 1813500 1805843 1804857 1807788 1812045 1815255 1816009 1813983 
496.587 1809757 1804344 1798861 1794298 1791443 1790912 1793198 1798569 
500.444 1806900 1817514 1829220 1840468 1849782 1856115 1859164 1859296 
504.301 1857334 1854048 1849890 1844774 1838365 1830332 1820852 1810703 
508.158 1801153 1793510 1788657 1786606 1786462 1786664 1785501 1781677 
512.015 1774734 1765129 1754101 1743238 1734023 1727416 1723644 1722154 
515.871 1721864 1721450 1719833 1716508 1711780 1706714 1702790 1701359 
519.728 1703083 1707529 1713166 1717810 1719320 1716361 1708930 1698379 
523.585 1686927 1676869 1669799 1665944 1664763 1664930 1665229 1665111 
527.442 1664869 1665266 1666952 1669806 1672720 1673711 1670586 1661720 
531.299 1646650 1626245 1602464 1577678 1554046 1533047 1515353 1501082 
535.156 1490115 1482357 1477836 1476458 1477766 1480658 1483488 1484331 
539.013 1481582 1474467 1463464 1450238 1437329 1427404 1422544 1423688 
542.870 1430438 1441199 1453811 1466118 1476611 1484642 1490370 1494393 
546.727 1497288 1499222 1499956 1498997 1496090 1491587 1486587 1482733 
550.584 1481688 1484421 1490790 1499347 1507790 1513596 1514950 1511309 
554.441 1503620 1493944 1484850 1478450 1476131 1478001 1483207 1490353 
558.298 1498106 1505520 1512279 1518525 1524574 1530683 1536786 1542503 
562.155 1547284 1550521 1551822 1551101 1548645 1545060 1541235 1538183 
566.012 1536958 1538445 1543312 1551791 1563697 1578307 1594489 1610821 
569.869 1625816 1638187 1647109 1652372 1654497 1654585 1654074 1654456 
573.725 1656949 1662229 1670406 1681057 1693480 1706813 1720263 1733096 
577.582 1744699 1754465 1761908 1766713 1768940 1769148 1768388 1768022 
581.439 1769427 1773580 1780772 1790501 1801575 1812415 1821491 1827615 
585.296 1830285 1829682 1826755 1823023 1820331 1820554 1825147 1834777 
589.153 1849010 1866214 1883903 1899269 1910098 1915426 1915909 1913707 
593.010 1911744 1912716 1918239 1928283 1941348 1955028 1966954 1975585 
596.867 1980636 1982917 1983916 1985071 1987345 1990995 1995817 2001402 
600.724 2007575 2014408 2022209 2031279 2041745 2053468 2066167 2079584 
604.581 2093586 2108147 2123214 2138543 2153669 2168036 2181271 2193509 
608.438 2205485 2218388 2233486 2251585 2272693 2295947 2319876 2343031 
612.295 2364479 2384156 2402827 2421687 2441820 2463726 2487176 2511415 
616.152 2535580 2559212 2582527 2606378 2631938 2660149 2691307 2724808 
620.009 2759259 2792761 2823426 2849787 2871069 2887264 2899024 2907499 
623.866 2914098 2920324 2927639 2937298 2950259 2967031 2987591 3011383 
627.723 3037417 3064476 3091384 3117213 3141529 3164318 3185900 3206719 
631.579 3227075 3246995 3266207 3284289 3300862 3315835 3329547 3342670 
635.436 3356128 3370727 3386947 3404788 3423842 3443369 3462674 3481234 
639.293 3498839 3515529 3531538 3547085 3562361 3577489 3592664 3608207 
643.150 3624593 3642305 3661661 3682603 3704637 3726884 3748426 3768599 
647.007 3787330 3805176 3823226 3842626 3864167 3887875 3912947 3937882 
650.864 3961049 3981134 3997646 4011087 4022745 4034307 4047314 4062697 
654.721 4080603 4100423 4121149 4141749 4161544 4180358 4198471 4216441 
658.578 4234860 4254154 4274530 4296015 4318548 4341959 4365990 4390118 
662.435 4413523 4435055 4453511 4467981 4478234 4484978 4489840 4495008 
666.292 4502633 4514205 4530081 4549416 4570439 4591052 4609486 4624797 
670.149 4637019 4646950 4655786 4664624 4674209 4684792 4696304 4708526 
674.006 4721294 4734511 4748110 4761917 4775550 4788513 4800376 4811042 
677.863 4820900 4830875 4842257 4856407 4874234 4896003 4921143 4948334 
681.720 4975813 5001751 5024703 5043934 5059568 5072503 5084138 5096015 
685.577 5109384 5124897 5142507 5161543 5180971 5199773 5217211 5233027 
689.433 5247464 5261054 5274452 5288172 5302495 5317417 5332733 5348114 
693.290 5363208 5377708 5391454 5404465 5417045 5429807 5443588 5459289 
697.147 5477646 5498884 5522583 5547644 5572537 5595657 5615724 5632081 
701.004 5644771 5654359 5661673 5667401 5671939 5675288 5677134 5677040 
704.861 5674579 5669432 5661463 5650715 5637467 5622271 5605945 5589435 
708.718 5573581 5558816 5544901 5530803 5514872 5495259 5470430 5439621 
712.575 5403062 5361807 5317382 5271258 5224399 5177047 5128735 5078497 
716.432 5025138 4967423 4904246 4834654 4757936 4673759 4582321 4484500 
720.289 4381889 4276589 4170929 4067076 3966735 3871033 3780648 3696058 
724.146 3617742 3546383 3482819 3427906 3382349 3346619 3320947 3305534 
728.003 3300678 3306835 3324620 3354569 3397037 3452045 3519319 3598488 
731.860 3689213 3791299 3904628 4028920 4163476 4307021 4457675 4613133 
735.717 4770946 4928805 5084679 5236833 5383713 5523867 5655981 5779104 
739.574 5892835 5997622 6094807 6186435 6274967 6362732 6451523 6542322 
743.431 6635260 6729728 6824659 6918836 7011177 7100969 7188009 7272673 
747.287 7355875 7438840 7522908 7609228 7698425 7790500 7884783 7980069 
751.144 8074771 8167111 8255182 8336942 8410234 8472797 8522406 8557171 
755.001 8575800 8577756 8563310 8533268 8488669 8430362 8358828 8274195 
758.858 8176505 8066037 7943646 7810838 7669694 7522528 7371533 7218504 
762.715 7064716 6910984 6757887 6605840 6455271 6306594 6160154 6016186 
766.572 5874847 5736290 5600818 5468920 5341310 5218703 5101711 4990627 
770.429 4885376 4785500 4690322 4599086 4511134 4425871 4342762 4261316 
774.286 4181053 4101558 4022605 3944240 3866794 3790808 3716824 3645165 
778.143 3575728 3507948 3440883 3373444 3304682 3234006 3161311 3086932 
782.000 3011539 2935945 2860954 2787270 2715474 2645994 2579152 2515060 
785.857 2453620 2394431 2336921 2280376 2224199 2168078 2112134 2056892 
789.714 2003232 1952069 1904218 1860185 1820168 1784106 1751783 1722961 
793.571 1697346 1674519 1653881 1634623 1615819 1596676 1576772 1556297 
797.428 1535969 1516820 1499793 1485309 1473008 1461818 1450278 1437111 
801.285 1421718 1404430 1386510 1369675 1355728 1345896 1340531 1339179 
805.141 1340719 1343760 1346949 1349193 1349752 1348261 1344735 1339589 
808.998 1333691 1328190 1324349 1323202 1325198 1329947 1336314 1342685 
812.855 1347581 1350128 1350396 1349348 1348462 1349080 1351897 1356640 
816.712 1362180 1366940 1369512 1369184 1366155 1361457 1356644 1353306 
820.569 1352693 1355497 1361844 1371408 1383553 1397456 1412152 1426599 
824.426 1439754 1450667 1458710 1463701 1466007 1466514 1466455 1467161 
828.283 1469825 1475241 1483706 1494984 1508391 1522928 1537566 1551464 
832.140 1564250 1576191 1588279 1601971 1619046 1641010 1668760 1702319 
835.997 1740833 1782883 1826890 1871681 1916838 1962814 2010843 2062543 
839.854 2119554 2183134 2253951 2332063 2416929 2507522 2602441 2699950 
843.711 2798002 2894343 2986662 3072823 3151084 3220311 3280038 3330484 
847.568 3372366 3406801 3435189 3459202 3480905 3502775 3527750 3559142 
851.425 3600443 3655049 3726021 3815938 3926788 4060027 4216523 4396584 
855.282 4599818 4824991 5069879 5331368 5605507 5888016 6174567 6461230 
859.139 6744596 7021669 7289684 7545858 7787380 8011554 8216273 8400409 
862.995 8564040 8708285 8834891 8945539 9041214 9122059 9187401 9236339 
866.852 9268305 9283432 9282605 9266999 9237555 9194383 9136607 9062672 
870.709 8971016 8860750 8732249 8587127 8427842 8256892 8076148 7886462 
874.566 7687808 7479839 7262605 7037158 6805700 6571261 6337076 6105895 
878.423 5879445 5658415 5442757 5232194 5026832 4827443 4635597 4453484 
882.280 4283611 4128452 3990250 3870776 3771221 3692035 3632853 3592392 
886.137 3568609 3558860 3560272 3570062 3585824 3605649 3628106 3652082 
889.994 3676707 3701176 3724796 3747006 3767435 3785858 3802154 3816215 
893.851 3827814 3836643 3842386 3844761 3843726 3839425 3832263 3822763 
897.708 3811600 3799495 3787220 3775562 3765192 3756491 3749399 3743330 
901.565 3737267 3730053 3720805 3709323 3696268 3683091 3671611 3663509 
905.422 3659784 3660493 3664851 3671500 3679106 3686679 3693791 3700502 
909.279 3707077 3713632 3720017 3725781 3730388 3733482 3735029 3735325 
913.136 3734815 3733830 3732353 3729984 3726015 3719730 3710679 3698932 
916.993 3685084 3670134 3655248 3641444 3629294 3618852 3609592 3600581 
920.849 3590723 3579057 3565036 3548682 3530574 3511717 3493217 3476001 
924.706 3460528 3446767 3434299 3422537 3411163 3400180 3389987 3381173 
928.563 3374197 3369182 3365742 3363123 3360524 3357361 3353554 3349533 
932.420 3346044 3343769 3343086 3343804 3345339 3346873 3347765 3347834 
936.277 3347450 3347458 3348951 3352941 3360124 3370795 3384886 3402117 
940.134 3422124 3444639 3469487 3496609 3525984 3557586 3591324 3627070 
943.991 3664659 3703968 3744897 3787476 3831901 3878524 3927805 3980296 
947.848 4036490 4096692 4160940 4228976 4300242 4374007 4449488 4525863 
951.705 4602359 4678145 4752242 4823415 4890126 4950525 5002494 5043792 
955.562 5072148 5085351 5081424 5058693 5015963 4952710 4869266 4766958 
959.419 4648134 4516067 4374725 4228416 4081402 3937544 3800039 3671289 
963.276 3552832 3445486 3349483 3264568 3190187 3125606 3070002 3022598 
967.133 2982738 2949943 2924000 2904867 2892594 2887169 2888343 2895517 
970.990 2907719 2923646 2941871 2961095 2980350 2999215 3017838 3036883 
974.847 3057332 3080233 3106420 3136295 3169743 3206135 3244432 3283467 
978.703 3322163 3359795 3396172 3431650 3467043 3503449 3541933 3583204 
982.560 3627487 3674392 3723025 3772235 3820878 3868149 3913775 3958018 
986.417 4001656 4045724 4091322 4139379 4190439 4244743 4302228 4362635 
990.274 4425708 4491218 4559062 4629298 4702045 4777426 4855511 4936213 
994.131 5019331 5104560 5191592 5280222 5370415 5462347 5556387 5652975 
997.988 5752532 5855394 5961760 6071695 6185250 6302523 6423706 6549179 
1001.845 6679430 6815079 6956773 7105218 7261120 7425139 7597905 7779913 
1005.702 7971510 8172809 8383801 8604372 8834509 9074416 9324612 9586070 
1009.559 9860092 10148229 10452127 10773362 11113182 11472435 11851406 
1012.934 12249714 12666342 13099727 13547963 14009105 14481477 14963937 
1016.309 15455952 15957542 16468959 16990388 17521482 18061306 18608034 
1019.683 19159220 19712008 20263264 20809882 21349014 21878276 22396088 
1023.058 22901902 23396378 23881378 24359766 24834954 25310486 25789684 
1026.433 26275566 26770886 27278584 27801832 28344200 28909400 29500904 
1029.809 30121600 30773594 31458190 32176060 32927442 33712100 34529072 
1033.184 35376128 36249452 37143308 38050344 38962144 39869892 40765044 
1036.559 41639416 42485128 43294148 44058180 44768856 45418456 46000680 
1039.934 46511620 46949808 47316000 47612228 47840820 48003624 48101856 
1043.310 48136248 48107596 48017456 47868540 47665008 47412544 47118116 
1046.685 46789820 46436324 46066244 45687364 45305984 44926496 44551568 
1050.060 44182372 43819608 43464076 43117172 42780820 42457032 42147356 
1053.435 41852420 41571952 41305284 41051912 40812476 40589216 40386168 
1056.811 40208976 40064504 39960360 39904656 39905696 39972036 40112280 
1060.186 40334896 40647828 41058328 41572348 42194472 42927704 43773428 
1063.561 44731276 45799036 46972584 48245884 49611244 51059788 52582156 
1066.936 54169156 55812180 57503288 59235020 60999940 62790520 64599128 
1070.312 66418468 68242104 70064912 71883104 73693808 75494392 77281656 
1073.687 79051272 80797472 82513152 84190176 85819768 87392976 88901224 
1077.062 90336344 91690504 92955680 94122768 95180392 96114560 96909000 
1080.437 97546952 98013264 98297304 98393984 98304120 98033056 97589136 
1083.813 96982456 96224752 95330024 94315240 93199656 92003568 90745648 
1087.188 89440944 88099632 86727712 85328760 83906440 82466208 81015944 
1090.563 79565032 78122816 76696936 75292512 73912024 72556152 71224640 
1093.938 69917032 68632784 67371168 66131068 64910852 63708668 62522916 
1097.313 61352508 60197164 59057112 57932936 56825064 55733848 54659532 
1100.689 53602564 52563564 51543444 50543088 49563276 48604432 47667028 
1104.064 46751684 45859740 44993336 44155340 43348996 42577480 41843600 
1107.439 41149776 40498112 39890768 39330048 38818500 38358348 37951152 
1110.814 37597348 37295916 37044624 36840320 36679428 36558460 36474408 
1114.190 36424744 36407444 36420904 36463784 36535088 36634044 36760272 
1117.565 36913612 37094108 37301896 37537180 37800096 38090696 38408716 
1120.940 38753344 39122708 39513556 39920908 40338028 40756632 41167216 
1124.315 41559564 41923148 42247440 42522256 42738208 42887308 42963720 
1127.691 42964520 42889928 42743100 42529248 42254492 41924428 41543396 
1131.066 41114108 40637960 40115460 39546916 38932692 38273336 37569456 
1134.441 36821720 36030900 35198232 34325804 33416710 32475188 31506350 
1137.816 30515746 29508994 28491494 27468448 26444992 25426396 24418248 
1141.192 23426452 22456940 21515280 20606480 19734476 18902106 18111238 
1144.567 17362984 16658109 15997200 15380885 14809698 14283982 13803633 
1147.942 13367984 12975790 12625392 12314892 12042379 11805966 11603792 
1151.317 11433852 11293850 11181171 11093026 11026734 10980159 10951953 
1154.693 10941654 10949598 10976508 11023107 11089765 11176386 11282634 
1158.068 11408225 11553354 11718870 11906294 12117631 12354979 12620293 
1161.443 12915404 13242131 13602760 14000289 14438768 14923167 15459098 
1164.818 16052473 16709167 17434884 18235406 19116808 20085890 21150300 
1168.194 22318542 23599708 25003016 26537452 28211230 30031466 32003728 
1171.569 34131360 36414820 38850612 41430436 44140552 46961148 49866168 
1174.944 52823252 55793780 58732808 61589484 64307944 66829492 69096080 
1178.319 71054696 72662296 73889592 74723272 75166256 75235848 74960840 
1181.695 74378312 73530224 72460672 71213296 69829432 68346824 66798740 
1185.070 65213712 63615648 62024028 60454424 58918988 57427044 55985636 
1188.445 54600132 53274600 52012092 50814492 49682488 48615484 47611576 
1191.820 46667956 45781372 44948676 44167296 43435360 42751616 42115004 
1195.196 41524368 40978200 40474544 40011252 39586108 39197020 38841888 
1198.571 38518544 38224488 37956852 37712512 37488476 37282196 37091796 
1201.946 36916116 36754364 36605604 36468368 36340312 36218440 36099340 
1205.321 35979520 35855880 35725920 35587624 35439388 35279788 35107420 
1208.697 34920940 34719012 34500404 34263940 34008484 33733056 33436880 
1212.072 33119568 32781320 32422962 32045888 31651834 31242546 30819678 
1215.447 30384600 29938620 29483094 29019582 28549972 28076304 27600602 
1218.822 27124682 26650054 26177884 25709200 25244894 24785834 24332864 
1222.198 23886726 23448030 23017232 22594666 22180678 21775646 21380032 
1225.573 20994260 20618712 20253686 19899366 19555928 19223598 18902608 
1228.948 18593204 18295532 18009538 17734992 17471498 17218680 16976266 
1232.323 16744159 16522354 16310748 16109096 15916848 15733197 15557404 
1235.698 15388836 15227169 15072383 14924663 14784157 14650859 14524551 
1239.074 14404862 14291479 14184254 14083262 13988686 13900664 13819075 
1242.449 13743506 13673328 13607928 13546850 13490027 13437676 13390167 
1245.824 13347848 13310829 13279054 13252357 13230680 13214171 13203223 
1249.199 13198288 13199711 13207488 13221282 13240464 13264430 13292809 
1252.575 13325624 13363357 13406740 13456574 13513516 13577843 13649502 
1255.950 13728087 13812885 13902868 13996844 14093390 14191023 14288372 
1259.325 14384195 14477670 14568307 14655885 14740324 14821517 14899261 
1262.700 14973231 15042973 15107945 15167567 15221061 15267494 15305673 
1266.076 15334365 15352313 15358491 15352182 15333031 15300892 15255722 
1269.451 15197369 15125635 15040314 14941314 14828761 14703079 14564724 
1272.826 14414109 14251405 14076431 13888858 13688332 13474774 13248567 
1276.201 13010551 12761997 12504381 12239221 11967989 11692008 11412594 
1279.577 11131042 10848674 10566905 10287104 10010660 9738909 9473237 
1282.952 9215057 8965871 8727199 8500510 8287085 8087939 7903851 7735397 
1286.809 7583124 7447741 7330124 7231276 7152193 7093549 7055493 7037435 
1290.667 7038066 7055482 7087347 7131153 7184502 7245211 7311377 7381473 
1294.524 7454236 7528592 7603577 7678275 7751692 7822829 7890705 7954418 
1298.382 8013242 8066721 8114580 8156757 8193240 8224080 8249361 8269260 
1302.239 8284159 8294813 8302168 8307475 8311975 8316724 8322377 8329013 
1306.096 8336199 8343037 8348404 8351233 8350723 8346564 8338975 8328659 
1309.954 8316713 8304328 8292593 8282300 8273779 8266911 8261258 8256159 
1313.811 8250920 8244986 8237976 8229772 8220452 8210347 8199950 8189902 
1317.669 8180910 8173728 8168936 8166908 8167688 8170996 8176352 8183158 
1321.526 8190896 8199225 8208085 8217560 8227922 8239419 8252269 8266675 
1325.384 8282798 8300787 8320909 8343524 8369110 8398288 8431833 8470579 
1329.241 8515295 8566614 8624827 8689783 8760852 8837023 8917113 9000044 
1333.098 9085049 9171762 9260236 9350733 9443639 9539244 9637846 9739702 
1336.956 9845264 9955094 10069875 10190158 10316204 10447805 10584318 
1340.331 10724904 10868794 11015684 11165838 11320192 11480130 11647162 
1343.706 11822611 12007297 12201447 12404636 12615827 12833679 13056712 
1347.082 13283563 13513251 13745244 13979480 14216040 14454846 14695273 
1350.457 14935938 15174699 15408972 15636167 15854150 16061509 16257498 
1353.832 16441716 16613814 16773073 16918402 17048564 17162484 17259664 
1357.207 17340294 17405310 17456074 17494132 17520998 17538034 17546516 
1360.583 17547738 17543062 17533772 17521010 17505608 17487888 17467638 
1363.958 17444132 17416140 17381870 17338932 17284320 17214550 17125892 
1367.333 17014886 16878870 16716528 16528235 16316254 16084695 15839382 
1370.708 15587826 15338954 15103166 14891960 14717515 14591920 14526086 
1374.083 14528625 14604662 14755110 14976400 15260720 15596731 15970522 
1377.459 16366683 16769277 17162782 17532834 17866824 18154200 18386596 
1380.834 18557652 18662910 18699644 18666840 18565244 18397194 18166506 
1384.209 17878044 17537230 17149768 16721368 16257852 15765150 15249370 
1387.584 14716578 14172508 13622189 13069607 12517603 11968019 11421981 
1390.960 10880458 10344613 9816172 9297514 8791706 8302254 7832794 7386715 
1394.817 6966866 6575376 6213530 5881840 5580144 5307758 5063424 4845419 
1398.675 4651515 4479144 4325508 4187927 4063987 3951839 3850034 3757596 
1402.532 3673748 3597810 3529091 3466854 3410426 3359138 3312446 3269842 
1406.389 3230891 3195189 3162352 3132083 3104224 3078695 3055516 3034710 
1410.247 3016253 3000057 2985950 2973722 2963226 2954325 2946932 2940911 
1414.104 2936149 2932410 2929446 2927090 2925292 2924147 2923995 2925251 
1417.962 2928438 2933929 2942007 2952696 2965841 2981165 2998361 3017243 
1421.819 3037840 3060402 3085325 3113151 3144335 3179227 3218033 3260880 
1425.677 3307969 3359603 3416297 3478545 3546749 3620960 3700883 3785996 
1429.534 3875777 3970102 4069417 4174814 4287788 4409910 4542604 4686945 
1433.391 4843866 5014476 5200444 5404238 5629032 5878533 6156479 6466316 
1437.249 6811063 7193323 7615448 8079594 8587579 9140428 9737927 10378211 
1441.106 11057573 11770651 12510677 13269897 14039664 14810765 15573581 
1444.481 16318509 17036566 17720022 18362910 18960946 19511454 20012832 
1447.857 20464168 20865106 21215764 21516780 21769224 21974296 22133024 
1451.232 22246016 22313434 22335220 22311368 22242118 22127836 21968840 
1454.607 21765080 21516092 21221346 20880592 20494560 20065030 19594804 
1457.982 19087326 18546268 17975410 17378792 16760975 16127247 15483382 
1461.358 14835237 14188075 13546163 12912713 12290163 11680737 11086826 
1464.733 10511024 9955931 9423734 8915817 8432771 7974525 7540811 7131444 
1468.590 6746422 6385829 6049481 5736717 5446231 5176211 4924598 4689416 
1472.448 4469051 4262349 4068711 3887884 3719877 3564797 3422663 3293428 
1476.305 3176784 3072125 2978583 2895045 2820288 2753170 2692631 2637848 
1480.163 2588146 2542962 2501786 2464161 2429674 2398034 2369061 2342610 
1484.020 2318559 2296596 2276211 2256778 2237598 2218136 2198199 2177999 
1487.877 2158144 2139471 2122804 2108746 2097446 2088654 2081703 2075810 
1491.735 2070178 2064252 2057711 2050526 2042858 2034904 2026869 2018866 
1495.592 2010945 2003122 1995442 1987979 1980849 1974180 1968060 1962586 
1499.450 1957816 1953862 1950807 1948728 1947627 1947386 1947663 1947995 
1503.307 1947896 1946930 1944853 1941671 1937556 1932791 1927596 1922106 
1507.165 1916298 1910148 1903680 1897095 1890624 1884613 1879232 1874491 
1511.022 1870206 1866098 1861988 1857777 1853605 1849616 1845876 1842248 
1514.879 1838437 1834086 1828974 1823197 1817143 1811406 1806482 1802563 
1518.737 1799479 1796776 1793988 1790893 1787734 1785018 1783366 1783066 
1522.594 1783885 1785046 1785497 1784350 1781194 1776292 1770437 1764578 
1526.452 1759443 1755256 1751720 1748219 1744206 1739452 1734139 1728796 
1530.309 1723970 1719985 1716794 1714100 1711468 1708593 1705388 1701973 
1534.167 1698503 1694974 1691218 1686948 1681971 1676349 1670483 1664995 
1538.024 1660517 1657291 1655145 1653384 1651093 1647545 1642482 1636261 
1541.881 1629695 1623796 1619396 1616822 1615907 1615998 1616308 1616131 
1545.739 1615003 1612815 1609770 1606192 1602402 1598714 1595255 1592094 
1549.596 1589104 1586091 1582734 1578639 1573404 1566708 1558477 1548910 
1553.454 1538616 1528485 1519530 1512699 1508594 1507390 1508727 1511721 
1557.311 1515297 1518332 1519979 1519816 1517956 1514921 1511356 1507794 
1561.168 1504447 1501171 1497624 1493492 1488749 1483807 1479418 1476568 
1565.026 1476080 1478295 1483008 1489432 1496429 1502809 1507690 1510641 
1568.883 1511711 1511362 1510268 1509094 1508333 1508328 1509195 1510931 
1572.741 1513413 1516526 1520083 1523903 1527795 1531572 1535143 1538432 
1576.598 1541451 1544237 1546885 1549497 1552206 1555132 1558390 1562031 
1580.456 1565958 1569876 1573314 1575676 1576408 1575193 1572050 1567476 
1584.313 1562336 1557693 1554508 1553369 1554368 1557056 1560638 1564255 
1588.170 1567254 1569469 1571233 1573299 1576568 1581781 1589272 1598890 
1592.028 1610026 1621802 1633306 1643850 1653007 1660730 1667203 1672737 
1595.885 1677701 1682380 1687003 1691748 1696658 1701701 1706742 1711569 
1599.743 1715997 1719960 1723664 1727598 1732504 1739224 1748405 1760299 
1603.600 1774676 1790799 1807665 1824229 1839730 1853795 1866421 1877903 
1607.458 1888540 1898571 1908067 1916983 1925319 1933172 1940859 1948827 
1611.315 1957464 1967079 1977695 1989094 2000941 2012895 2024775 2036565 
1615.172 2048396 2060402 2072609 2084824 2096673 2107697 2117485 2125849 
1619.030 2132863 2138803 2144087 2149054 2153858 2158481 2162720 2166334 
1622.887 2169184 2171371 2173186 2175114 2177575 2180815 2184762 2189072 
1626.745 2193218 2196682 2199108 2200433 2200823 2200611 2200071 2199323 
1630.602 2198346 2196950 2194985 2192398 2189347 2186166 2183245 2180885 
1634.459 2179228 2178207 2177580 2177032 2176220 2174887 2172754 2169595 
1638.317 2165152 2159257 2151881 2143202 2133696 2124079 2115163 2107598 
1642.174 2101818 2097827 2095258 2093422 2091529 2088882 2085016 2079840 
1646.032 2073622 2066991 2060727 2055617 2052324 2051137 2052018 2054564 
1649.889 2058203 2062304 2066403 2070245 2073886 2077551 2081483 2085891 
1653.747 2090837 2096294 2102313 2109098 2117000 2126506 2137902 2151122 
1657.604 2165607 2180279 2193812 2204962 2212917 2217570 2219564 2220106 
1661.461 2220620 2222395 2226198 2232242 2240143 2249265 2258952 2268814 
1665.319 2278861 2289455 2301111 2314177 2328696 2344316 2360198 2375436 
1669.176 2389222 2401256 2411794 2421658 2431976 2443817 2457828 2474136 
1673.034 2492258 2511353 2530480 2548899 2566222 2582437 2597807 2612739 
1676.891 2627590 2642619 2657970 2673754 2690011 2706799 2724139 2742057 
1680.749 2760615 2779915 2800268 2822143 2846030 2872345 2901237 2932422 
1684.606 2965257 2998893 3032563 3065846 3098714 3131549 3164809 3198947 
1688.463 3234138 3270329 3307278 3344804 3382809 3421440 3460906 3501396 
1692.321 3543030 3585881 3630107 3676140 3724747 3777036 3834123 3896859 
1696.178 3965499 4039601 4118129 4199806 4283520 4368555 4454755 4542545 
1700.036 4632753 4726367 4824433 4927797 5037125 5152883 5275420 5405024 
1703.893 5541993 5686592 5839135 5999803 6168673 6345579 6530162 6721933 
1707.750 6920455 7125593 7337802 7558018 7787596 8027991 8280181 8544517 
1711.608 8820576 9107349 9403742 9708884 10022578 10345159 10677252 11019451 
1715.465 11371860 11734091 12105302 12484495 12870914 13264218 13664559 
1718.841 14072542 14489070 14915329 15352869 15803693 16270253 16755491 
1722.216 17262616 17795024 18356168 18949680 19579386 20249528 20964728 
1725.591 21729908 22550154 23430582 24376394 25392848 26485420 27659612 
1728.966 28920954 30274498 31724858 33276456 34934284 36704428 38594632 
1732.342 40613584 42769548 45067964 47509404 50088656 52795760 55618764 
1735.717 58547164 61574572 64698940 67920464 71237568 74643144 78121808 
1739.092 81650088 85198816 88736936 92234144 95661928 98992296 102195896 
1742.467 105241040 108095096 110727480 113112864 115232800 117075048 
1745.360 118630992 119893576 120856808 121517680 121878552 121948752 
1748.253 121743608 121281384 120579592 119653216 118515064 117178096 
1751.146 115658120 113974520 112148424 110199544 108142984 105988048 
1754.040 103739776 101401912 98980560 96486240 93933784 91340712 88724664 
1757.415 86101440 83484200 80884184 78311528 75776224 73288272 70857176 
1760.790 68491152 66196752 63978960 61841500 59787320 57818760 55937236 
1764.165 54142852 52433868 50806920 49257468 47780736 46372432 45029360 
1767.541 43749084 42529452 41367752 40260188 39201760 38186688 37209004 
1770.916 36263268 35344852 34450056 33575648 32718732 31876218 31044948 
1774.291 30221718 29403528 28587740 27772232 26955392 26136082 25313690 
1777.666 24488034 23659592 22829328 21998858 21170362 20346330 19529662 
1781.042 18723382 17930584 17154356 16397731 15663473 14954025 14271267 
1784.417 13616450 12990041 12391781 11821073 11277114 10759251 10267202 
1787.792 9801024 9361048 8947570 8560808 8200709 7867019 7559221 7276425 
1791.649 7017210 6779416 6560212 6356223 6164191 5981495 5806669 5639620 
1795.507 5481224 5332836 5195489 5069350 4953578 4846647 4746811 4652750 
1799.364 4563811 4479960 4401344 4327924 4259048 4193598 4130327 4068252 
1803.222 4007150 3947585 3890585 3837220 3788145 3743134 3701232 3661023 
1807.079 3620990 3580027 3537737 3494464 3451067 3408648 3368127 3329883 
1810.937 3293420 3257494 3220246 3179669 3134260 3083619 3028774 2972352 
1814.794 2918051 2870003 2831793 2805640 2791879 2788839 2793248 2800979 
1818.651 2807841 2810353 2806144 2794104 2774325 2747843 2716452 2682304 
1822.509 2647504 2613767 2582094 2552620 2524726 2497396 2469618 2440793 
1826.366 2410921 2380497 2350374 2321213 2293325 2266574 2240335 2213748 
1830.224 2185854 2155792 2122902 2086901 2047919 2006670 1964518 1923263 
1834.081 1884845 1850985 1822621 1799664 1781187 1765671 1751619 1738047 
1837.938 1724470 1710931 1697506 1683821 1668985 1651705 1630896 1606222 
1841.796 1578555 1549894 1522870 1499849 1482162 1469641 1460452 1451943 
1845.653 1441370 1426951 1408324 1386659 1364222 1343580 1326724 1314502 
1849.511 1306324 1300522 1294904 1287626 1277876 1266166 1254288 1244570 
1853.368 1239150 1239117 1244237 1252875 1262528 1270745 1275505 1275730 
1857.226 1271192 1262156 1249108 1232559 1213067 1191699 1170007 1150117 
1861.083 1134286 1124147 1120303 1121888 1126854 1132693 1137170 1138955 
1864.940 1137796 1134279 1129131 1122807 1115302 1106226 1095420 1083218 
1868.798 1070584 1058881 1049414 1042768 1038736 1036354 1034397 1031742 
1872.655 1027540 1021306 1012744 1001456 987102 969700 949897 929266 910031 
1876.995 894387 883901 878649 877182 876961 875172 869793 860106 846888 
1881.334 831984 817466 805109 795873 789782 786254 784186 782407 779700 
1885.674 775018 767841 758308 747516 737288 729510 725435 725109 726734 
1890.014 727532 724659 716501 703586 688618 675726 669005 671004 681924 
1894.353 699693 720800 741625 759385 772730 781428 785796 786250 783059 
1898.693 776697 768047 758554 749998 743929 740940 740511 741386 742299 
1903.032 742760 743330 745346 749972 757353 766204 774219 779145 780152 
1907.372 778270 776150 776781 781861 790571 799759 805004 802688 791568 
1911.712 773711 753464 735865 724470 719894 719826 720206 717347 709487 
1916.051 697758 685473 676700 674487 679513 689707 701074 708921 709330 
1920.391 700134 681443 655419 625624 596416 571917 555367 548346 550287 
1924.730 558565 568890 576253 576211 565493 543042 509622 467694 421019 
1929.070 374058 331965 300198 283989 287546 312851 358296 418142 483129 
1933.410 542055 584293 602273 593622 561817 515358 465734 424743 401880 
1937.749 402425 426074 467508 517530 565341 601141 618712 616877 599782 
1942.089 575068 551425 535169 527980 526451 523276 510321 482068 437749 
1946.428 381907 322913 269796 229672 205834 197808 202654 216751 237654 
1950.768 264389 296711 334249 375369 416373 452160 476294 482187 463720 
1955.108 416086 337459 230268 102693 -30761 -151346 -238742 -276523 -256624 
1959.447 -182266 -67073 68923 205531 326623 423447 492815 533945 545192 
1963.787 522593 461584 360656 224505 66509 -93906 -236005 -343715 -410237 
1968.126 -439529 -442882 -434228 -424107 -416255 -407279 -388821 -350998 
1971.984 -286296 -191021 -67499 77463 232637 384588 519929 628402 706275 
1976.323 758481 797304 838671 895569 971610 1059077 1141983 1202557 1229334 
1980.663 1221159 1187501 1144612 1108747 1090494 1091790 1106034 1123264 
1984.521 1133816 1133046 1120984 1100600 1073261 1037328 987858 920296 
1988.378 834207 736990 642485 567360 524608 517787 538948 571417 595040 
1992.718 594347 562964 505157 432817 360038 297771 250425 215923 188458 
1997.057 161539 130432 92715 47999 -3821 -61813 -123433 -182817 -230123 
2001.397 -252953 -240421 -187383 -98447 12067 122969 213028 267557 283530 
2005.736 270378 244763 223289 214122 212847 204988 172737 104352 532 -124011 
2010.558 -244977 -336462 -380375 -371539 -319253 -243894 -169240 -115693 
2014.416 -94262 -105301 -140740 -187966 -234809 -272671 -297706 -309642 
2018.273 -310196 -300792 -282460 -255028 -217520 -168939 -107615 -32299 
2022.130 57402 159524 267185 367731 443093 472233 437505 330552 157840 
2026.470 -58669 -285795 -486155 -628549 -695867 -689063 -625285 -531968 
2030.327 -436673 -359808 -308971 -279657 -259189 -232762 -189564 -126270 
2034.185 -47765 33652 102943 145065 148978 110671 34374 -66727 -172635 
2038.524 -260581 -310144 -309039 -257080 -166098 -57040 46979 128728 182182 
2042.864 214224 241329 281566 347165 438589 543663 642766 716407 753526 
2047.204 756440 740232 726961 736754 779662 851477 935306 1008855 1051702 
2051.543 1051832 1007992 928290 827261 720928 622546 539736 473678 420562 
2055.883 374559 330876 287912 247881 215627 196908 196680 217092 256802 
2060.222 311219 372893 433074 483255 516931 531337 528373 514440 499031 
2064.562 491904 500310 525742 563597 603920 634720 646272 634464 602510 
2068.902 560034 519103 490175 478117 480719 490221 496706 492714 476354 
2073.241 452202 429888 420549 432713 469533 527883 599183 672097 735043 
2077.581 778543 796733 787810 753818 700498 636323 571372 515425 476303 
2081.920 457956 459685 476648 501299 526169 545964 558523 565076 568392 
2086.260 570902 573142 573268 567825 553065 526238 486461 434390 371436 
2090.600 299169 219210 133809 47159 -34228 -101362 -144692 -156472 -133541 
2094.939 -78552 -41 90215 179886 259849 325251 375801 414409 445001 471017 
2099.761 494597 516402 536311 553557 566779 573826 571764 557234 527802 
2104.101 483416 427808 368734 317057 284373 280217 309233 369725 453779 
2108.440 548800 640536 716259 767030 789348 785134 760438 723213 681367 
2112.780 640375 602807 568148 533655 496265 453716 405430 352889 298835 
2117.119 246152 196977 152094 111013 72807 36594 2697 -27396 -51298 -66694 
2121.941 -72097 -67932 -56484 -42187 -31076 -29577 -43722 -77932 -133739 
2126.281 -209382 -299207 -395120 -487646 -568363 -631949 -677328 -707785 
2130.138 -729347 -748455 -769676 -794032 -819344 -841566 -857576 -867301 
2133.996 -874810 -887364 -913155 -957544 -1020838 -1097494 -1177198 -1247829 
2137.853 -1299016 -1324309 -1323211 -1300558 -1265204 -1227980 -1199386 
2141.228 -1187672 -1197432 -1228939 -1278925 -1341134 -1408359 -1474078 
2144.604 -1533748 -1585422 -1628533 -1663157 -1688999 -1704502 -1707965 
2147.979 -1700019 -1685274 -1673092 -1676867 -1710952 -1787128 -1910878 
2151.354 -2079947 -2285467 -2514575 -2754318 -2994806 -3228860 -3451693 
2154.729 -3656669 -3832790 -3962433 -4023335 -3991790 -3850474 -3594444 
2158.104 -3238874 -2818992 -2385681 -1992544 -1681016 -1470699 -1355805 
2161.480 -1310454 -1298285 -1281847 -1231186 -1130531 -980730 -798978 
2164.855 -613964 -457478 -355565 -321180 -350487 -425052 -516999 -597591 
2168.712 -645307 -650853 -619530 -568531 -521444 -501520 -525353 -598654 
2172.570 -715167 -858562 -1006805 -1136878 -1230932 -1279504 -1283457 
2175.945 -1254164 -1208768 -1166379 -1143005 -1147258 -1179002 -1230125 
2179.320 -1286786 -1333149 -1354575 -1340706 -1287669 -1197903 -1079524 
2182.696 -943946 -804148 -671969 -556742 -463994 -395666 -350254 -323151 
2186.553 -308420 -299452 -290436 -278206 -261818 -244335 -230684 -227419 
2190.410 -240196 -271321 -318971 -375617 -429325 -466277 -473936 -444665 
2194.268 -378303 -282870 -173063 -66920 18709 72087 89625 76090 42716 4079 
2199.090 -25905 -37589 -26951 3769 47631 95402 137885 168554 184517 186950 
2203.911 180567 171233 164889 164984 171734 182119 190826 192494 183851 
2208.251 164643 138344 110634 87359 72633 66946 67782 70422 70056 64077 
2213.073 52697 38621 26221 19306 20433 30386 48998 76153 112652 160072 
2217.895 219680 290895 369846 449590 520554 573209 600450 599721 573649 
2222.234 529210 476143 424281 381847 353991 342979 348247 367188 395731 
2226.574 428823 460724 485736 499285 499341 487194 467799 448733 437998 
2230.913 441605 461027 492501 527576 555937 568427 560338 533130 494137 
2235.253 453877 423147 409435 414882 436360 467134 499847 529117 552946 
2239.593 572933 592387 614326 639111 663929 683437 691426 683162 657286 
2243.932 616426 566866 516719 474038 444780 431927 434981 450834 474726 
2248.272 501652 527315 549196 566818 582059 598103 619148 648745 688703 
2252.611 738357 794069 850154 900054 937917 960547 967846 962988 951137 
2256.951 937901 927908 923816 925887 932975 943430 955758 969476 984784 
2261.291 1002129 1021589 1042280 1062523 1080458 1094331 1103553 1108736 
2265.148 1111613 1114644 1120090 1129679 1144175 1163460 1186673 1212497 
2269.005 1239388 1265651 1289569 1309562 1324564 1334098 1338807 1340175 
2272.863 1340589 1342316 1347168 1355841 1367920 1381747 1395177 1405937 
2276.720 1412111 1412624 1406960 1395729 1380405 1363715 1349493 1342458 
2280.578 1347529 1368938 1408615 1465611 1535405 1610550 1681990 1740988 
2284.435 1780887 1798607 1795000 1774358 1743219 1708747 1677317 1653389 
2288.292 1638938 1633478 1634462 1638015 1639779 1635842 1623439 1601656 
2292.150 1571344 1535242 1496986 1460704 1430001 1407430 1394184 1390212 
2296.007 1394191 1404129 1417461 1431541 1443714 1451983 1455139 1453148 
2299.865 1447314 1439931 1433706 1430874 1432636 1438577 1446913 1455013 
2303.722 1460468 1461742 1458770 1452891 1446398 1441732 1440808 1444715 
2307.580 1453402 1466121 1481617 1498373 1514850 1529721 1541941 1551065 
2311.437 1557299 1561763 1565956 1571583 1579884 1591194 1604919 1619819 
2315.294 1634423 1647835 1659771 1670589 1680952 1691383 1702179 1713831 
2319.152 1727569 1745983 1772794 1812021 1866163 1934171 2010265 2083879 
2323.009 2141435 2169562 2158416 2104260 2010412 1886426 1745996 1603919 
2326.867 1473458 1364220 1280954 1223774 1188921 1170670 1162916 1160330 
2330.724 1159281 1157810 1155314 1152122 1149030 1146821 1145994 1146528 
2334.582 1147923 1149060 1148749 1145941 1140173 1131811 1122005 1112400 
2338.439 1104639 1099963 1098921 1101349 1106531 1113470 1121104 1128426 
2342.296 1134497 1138491 1139447 1136847 1130499 1120874 1109187 1096994 
2346.154 1085835 1076786 1070036 1064825 1059847 1053665 1045279 1034475 
2350.011 1021892 1008706 996170 985306 976656 970365 966275 964355 964600 
2354.351 967121 971911 978578 986265 993719 999623 1002880 1002966 999992 
2358.690 994507 987449 979465 970966 961824 951440 939109 924067 905728 
2363.030 883822 858588 830673 801310 772148 745374 723247 707746 700278 
2367.370 701242 709861 724292 742035 760484 777472 791676 802706 811001 
2371.709 817304 822374 826606 829992 832302 833359 833425 833213 833843 
2376.049 836552 842032 850278 860395 870747 879563 885536 888220 888321 
2380.388 887466 887599 890436 896849 906554 918469 931044 942844 953032 
2384.728 961406 968373 974306 979418 983392 985635 985610 983190 979026 
2389.068 974365 970766 969539 971294 975664 981435 986938 990634 991514 
2393.407 989120 983802 976296 967547 958578 950343 943885 940164 939969 
2397.747 943693 951107 961332 972886 984213 993965 1001496 1006757 1010334 
2402.086 1012763 1014429 1015075 1014185 1011212 1006089 999453 992733 
2405.944 987613 985622 987558 993167 1001420 1010877 1020138 1028299 1034898 
2410.283 1039864 1043089 1044363 1043377 1039970 1034445 1027773 1021389 
2414.141 1016682 1014526 1014810 1016515 1018117 1018587 1018005 1017877 
2417.998 1020709 1029109 1044377 1065500 1089033 1109534 1121266 1119811 
2421.856 1103393 1073755 1035398 994430 956873 927135 907367 897466 895755 
2426.195 899995 908316 919569 933359 949519 967644 986722 1005072 1020448 
2430.535 1030392 1032687 1025773 1009120 983546 951396 916389 883241 856742 
2434.875 840892 837723 846781 864973 887466 908759 924288 931284 929675 
2439.214 921519 910498 900559 895142 896330 904805 919682 939212 960795 
2443.554 981648 999055 1010887 1016026 1014844 1009203 1002029 996694 995835 
2447.893 1000624 1010189 1021889 1032062 1037396 1035706 1026899 1012736 
2451.751 996354 981322 970689 966286 968453 976300 988016 1001330 1014003 
2456.090 1024061 1030006 1031087 1027138 1018830 1007287 994120 980942 
2459.948 969274 960317 954862 953346 955721 961473 969525 978231 985639 
2464.287 989688 988868 982409 970606 954628 936188 916954 898375 881490 
2468.627 867273 856697 851074 851768 859682 874673 895196 918325 940574 
2472.967 958836 971460 978729 982626 985888 990781 998020 1006587 1013849 
2477.306 1016888 1013655 1003741 988693 971411 955253 943119 936604 936172 
2481.646 941214 950556 962874 976741 990807 1003675 1014115 1021418 1025665 
2485.985 1027760 1029406 1032260 1037386 1044462 1051732 1056482 1055862 
2489.843 1047961 1032519 1011117 986804 963028 942664 927284 916975 910628 
2494.182 906629 903762 901736 901177 903427 909766 920838 936164 954161 
2498.522 972469 988815 1001768 1011074 1017934 1024570 1033067 1044766 
2502.379 1059550 1075657 1090332 1100757 1105109 1103335 1097032 1088950 
2506.237 1081896 1077483 1075651 1074541 1071365 1063505 1049574 1030107 
2510.094 1007497 985269 967192 956120 953499 959157 971421 987732 1005077 
2514.434 1020590 1031863 1037328 1036500 1030167 1020171 1009171 999951 
2518.291 994661 994187 997881 1003826 1009361 1012041 1010329 1004055 994304 
2522.631 983143 972678 964597 959736 957962 958508 960185 961998 963389 
2526.970 964333 965277 967185 970775 976684 984869 994842 1005641 1016258 
2531.310 1025958 1034562 1042568 1050874 1060243 1070964 1082376 1093133 
2535.167 1101528 1106074 1106131 1102131 1095285 1087121 1078784 1070564 
2539.025 1062019 1052154 1040426 1027097 1013638 1002468 996140 996814 
2542.882 1005352 1021284 1042993 1068161 1094443 1119923 1143279 1163623 
2546.740 1180481 1193594 1202805 1208179 1210073 1209081 1205868 1201048 
2550.597 1195081 1188199 1180546 1172411 1164265 1156895 1151129 1147738 
2554.455 1147066 1149113 1153539 1159789 1167377 1175876 1184824 1193793 
2558.312 1201969 1208503 1212349 1212809 1209615 1203256 1194914 1186157 
2562.169 1178847 1174581 1174373 1178585 1186792 1197862 1210003 1221265 
2566.027 1229901 1234620 1235007 1231609 1225681 1218839 1212502 1207532 
2569.884 1203963 1201520 1199809 1198931 1199794 1203645 1211815 1224739 
2573.742 1241643 1260385 1277851 1291174 1298331 1299075 1294836 1288038 
2577.599 1281489 1277176 1276015 1277843 1282025 1287893 1295485 1305218 
2581.457 1317654 1332875 1349906 1366832 1381141 1390439 1393394 1389995 
2585.314 1381800 1371294 1361211 1353883 1350569 1351524 1355976 1362636 
2589.171 1369914 1376553 1381579 1384634 1386048 1386758 1388059 1391387 
2593.029 1397752 1407443 1419698 1432924 1444902 1453699 1458003 1457847 
2596.886 1454378 1449653 1445860 1444680 1446745 1451681 1458171 1464682 
2600.744 1469833 1472917 1473924 1473367 1471954 1470295 1468470 1466330 
2604.601 1463542 1459887 1455680 1451821 1449535 1450302 1455165 1464379 
2608.458 1477345 1492463 1507649 1520801 1530462 1535996 1537833 1537020 
2612.316 1534944 1532700 1530780 1529281 1527930 1526613 1525622 1525771 
2616.173 1528161 1533706 1542760 1554808 1568637 1582676 1595436 1606072 
2620.031 1614389 1620824 1625870 1629799 1632320 1632629 1629887 1623680 
2623.888 1614605 1604249 1595098 1589834 1590585 1598306 1612475 1631171 
2627.746 1651617 1671031 1687115 1698714 1705818 1709262 1710283 1710065 
2631.603 1709432 1708638 1707712 1706643 1705681 1705364 1706367 1709311 
2635.460 1714428 1721329 1729092 1736433 1742198 1745472 1746093 1744326 
2639.318 1740826 1736385 1731613 1726858 1722367 1718230 1714705 1712067 
2643.175 1710655 1710674 1712044 1714420 1717214 1719751 1721426 1721713 
2647.033 1720433 1717399 1712805 1706980 1700521 1694355 1689459 1686737 
2650.890 1686518 1688438 1691188 1692967 1691821 1686437 1676546 1663110 
2654.748 1648083 1633765 1622077 1613947 1609179 1606578 1604441 1601241 
2658.605 1595958 1588146 1578027 1565841 1551820 1536054 1518560 1499472 
2662.462 1479299 1458773 1438905 1420651 1404617 1390966 1379510 1369803 
2666.320 1361264 1353500 1346297 1339610 1333565 1328368 1324207 1321288 
2670.177 1319603 1318920 1318576 1317614 1314996 1309922 1302160 1292363 
2674.035 1281971 1272876 1266815 1264812 1266878 1272028 1278632 1285051 
2677.892 1290190 1293662 1295743 1297009 1297889 1298526 1298562 1297601 
2681.750 1295391 1292038 1287948 1283720 1279636 1275658 1271337 1266196 
2685.607 1259866 1252536 1244763 1237419 1231206 1226405 1222782 1219697 
2689.464 1216503 1212876 1208878 1205149 1202446 1201580 1203012 1206950 
2693.322 1213225 1221397 1230817 1240619 1249659 1256662 1260499 1260463 
2697.179 1256659 1250009 1242155 1234913 1229703 1226958 1226192 1226022 
2701.037 1224884 1221729 1216230 1209128 1201699 1195352 1191068 1189216 
2704.894 1189537 1191452 1194435 1198135 1202453 1207416 1212825 1218263 
2708.751 1223096 1226606 1228230 1227596 1224647 1219464 1212301 1203475 
2712.609 1193538 1183444 1174392 1167762 1164836 1166251 1171792 1180334 
2716.466 1190180 1199403 1206410 1210409 1211415 1210065 1207394 1204504 
2720.324 1202286 1201424 1202366 1205312 1210209 1216603 1223674 1230273 
2724.181 1235325 1238098 1238545 1237276 1235378 1233980 1233706 1234353 
2728.039 1235092 1234680 1232258 1227696 1221891 1216476 1213245 1213496 
2731.896 1217578 1224726 1233322 1241474 1247560 1250655 1250619 1247872 
2735.753 1243128 1237181 1230619 1223964 1217774 1212636 1209165 1207975 
2739.611 1209251 1212949 1218492 1225120 1232026 1238485 1244175 1248838 
2743.468 1252411 1254679 1255304 1253788 1249633 1242507 1232519 1220176 
2747.326 1206560 1193070 1181149 1172094 1166771 1165384 1167512 1172226 
2751.183 1178231 1184330 1189529 1193357 1195851 1197323 1198233 1198821 
2755.041 1199086 1198669 1197034 1193766 1188928 1182945 1176766 1171453 
2758.898 1168021 1167053 1168410 1171533 1175433 1179084 1181767 1183313 
2762.755 1184065 1184835 1186540 1190022 1195697 1203428 1212570 1222076 
2766.613 1230856 1237933 1242707 1245148 1245633 1244970 1244009 1243604 
2770.470 1244210 1245967 1248614 1251606 1254172 1255653 1255490 1253434 
2774.328 1249686 1244868 1239937 1236009 1234216 1235239 1239191 1245459 
2778.185 1252846 1259798 1264809 1266871 1265685 1261837 1256525 1251267 
2782.042 1247461 1246094 1247446 1251240 1256713 1262841 1268701 1273574 
2785.900 1277004 1278830 1279144 1278273 1276674 1274766 1273091 1271929 
2789.757 1271430 1271556 1272178 1273229 1274851 1277437 1281678 1288231 
2793.615 1297650 1310057 1325025 1341564 1358419 1374205 1387825 1398553 
2797.472 1406145 1410748 1412802 1412867 1411525 1409440 1407224 1405570 
2801.330 1405070 1406185 1409095 1413668 1419399 1425649 1431694 1437017 
2805.187 1441308 1444679 1447411 1450078 1453235 1457430 1462981 1470013 
2809.044 1478329 1487562 1497176 1506624 1515586 1524004 1532114 1540436 
2812.902 1549411 1559278 1569734 1580034 1589299 1596564 1601498 1604504 
2816.759 1606774 1610009 1615837 1625348 1638630 1654853 1672466 1689632 
2820.617 1704997 1717904 1728522 1737666 1746338 1755450 1765307 1775898 
2824.474 1786703 1797274 1807128 1816150 1824367 1831999 1839053 1845539 
2828.332 1851409 1856625 1861348 1866053 1871455 1878411 1887695 1899925 
2832.189 1915231 1933393 1953758 1975440 1997552 2019371 2040675 2061751 
2836.046 2083507 2107405 2135218 2168701 2209384 2258311 2315900 2381917 
2839.904 2455842 2536742 2623809 2716461 2814222 2917097 3025409 3139796 
2843.761 3261359 3391431 3531681 3683732 3849044 4028270 4220999 4425226 
2847.619 4637253 4851628 5061400 5258821 5436072 5586216 5703814 5785756 
2851.476 5831150 5841418 5819354 5768833 5693854 5598218 5485199 5357834 
2855.333 5219013 5071777 4919399 4765329 4612766 4464335 4321906 4186519 
2859.191 4058577 3938195 3825534 3720788 3624480 3536926 3458101 3387506 
2863.048 3324079 3266429 3213383 3164158 3118586 3077259 3041136 3011366 
2866.906 2988870 2974319 2967921 2969665 2979208 2996116 3019626 3048723 
2870.763 3082164 3118689 3157225 3197222 3238837 3282873 3330410 3382305 
2874.621 3438625 3498476 3559923 3620469 3677708 3729952 3776536 3817862 
2878.478 3854859 3888474 3919017 3945895 3967851 3983383 3991393 3991755 
2882.335 3985591 3974899 3962074 3949356 3938083 3928632 3920382 3912228 
2886.193 3903096 3892589 3880994 3869525 3859928 3853999 3853123 3857921 
2890.050 3868016 3882291 3899073 3916692 3933923 3950333 3966392 3983182 
2893.908 4002116 4024347 4050383 4079998 4112178 4145666 4179163 4211768 
2897.765 4243139 4273335 4302694 4331492 4359938 4388160 4416427 4445377 
2901.623 4476016 4509662 4547454 4590187 4637860 4689808 4744792 4801647 
2905.480 4859626 4918771 4979926 5044447 5113867 5189409 5271763 5361143 
2909.337 5457479 5560880 5671800 5791444 5921428 6063679 6219981 6391586 
2913.195 6578810 6780994 6996422 7222631 7456566 7694889 7934238 8171332 
2917.052 8402912 8625933 8837453 9034646 9214980 9376307 9516954 9635814 
2920.910 9732249 9806038 9857325 9886602 9894785 9883666 9855592 9813899 
2924.767 9762198 9704165 9642699 9579685 9515629 9450088 9382161 9311431 
2928.625 9238265 9164367 9092336 9025230 8965839 8915973 8876621 8847661 
2932.482 8828485 8818533 8817504 8825579 8843140 8870755 8908700 8957081 
2936.339 9015580 9083705 9160835 9246274 9339188 9438635 9543511 9652545 
2940.197 9764274 9877039 9988747 10096695 10197563 10287150 10360710 
2943.572 10413542 10441591 10442104 10414150 10358826 10278682 10177273 
2946.947 10058442 9925511 9781102 9627058 9464610 9295124 9120098 8941475 
2950.805 8761400 8582047 8404990 8231092 8060243 7891753 7724742 7558665 
2954.662 7393664 7230855 7072112 6919665 6775459 6640923 6516537 6401853 
2958.520 6295934 6197590 6105881 6020015 5939562 5864001 5792628 5724463 
2962.377 5658270 5593015 5527914 5463114 5399421 5338308 5281578 5230758 
2966.234 5186746 5149671 5118568 5091769 5067156 5042570 5016519 4988244 
2970.092 4958189 4927834 4899305 4874947 4856729 4845839 4842423 4845785 
2973.949 4854878 4868518 4886032 4907158 4932042 4960885 4993812 5030624 
2977.807 5070967 5114752 5162275 5214391 5272344 5337595 5411238 5493965 
2981.664 5585948 5687181 5797785 5918334 6049866 6193571 6350344 6520471 
2985.521 6703341 6897573 7101186 7312184 7528732 7749258 7972207 8195974 
2989.379 8418431 8636934 8848306 9048995 9235539 9404758 9554049 9681643 
2993.236 9786644 9869181 9930109 9970888 9993110 9998115 9986520 9958424 
2997.094 9913523 9851556 9772895 9678698 9570917 9451822 9323414 9187049 
3000.951 9043071 8891244 8731147 8562986 8387774 8207363 8024172 7840484 
3004.809 7657993 7477576 7299281 7122933 6948259 6775331 6604453 6436114 
3008.666 6270595 6107909 5947839 5789948 5633928 5479731 5327590 5177999 
3012.523 5031634 4889315 4752013 4620657 4496184 4379102 4269313 4165854 
3016.381 4067042 3970695 3874955 3778514 3681374 3584552 3489560 3398056 
3020.238 3311000 3228601 3150401 3075769 3004301 2936157 2871856 2811752 
3024.096 2755812 2702914 2651321 2599149 2545120 2489217 2432809 2378471 
3027.953 2328917 2286512 2252121 2225058 2203361 2184264 2165112 2143946 
3031.811 2119724 2092600 2063473 2033659 2004516 1977187 1952395 1930305 
3035.668 1910660 1892941 1876474 1860717 1845315 1830298 1815828 1802101 
3039.525 1789320 1777333 1765812 1754411 1742926 1731285 1719784 1708925 
3043.383 1699093 1690629 1683674 1678178 1673958 1670779 1668213 1665808 
3047.240 1662882 1658626 1652405 1643911 1633340 1621528 1609703 1599175 
3051.098 1590935 1585252 1581829 1579970 1578828 1577941 1577125 1576636 
3054.955 1576691 1577185 1577711 1577560 1576097 1573076 1568906 1564570 
3058.813 1561289 1560048 1561207 1564521 1569005 1573491 1576890 1578370 
3062.670 1577530 1574092 1567828 1558614 1546388 1531602 1515353 1499421 
3066.527 1486012 1477070 1473880 1476362 1483174 1491920 1499919 1505010 
3070.385 1506008 1503096 1497507 1490929 1484873 1480289 1477175 1474873 
3074.242 1472448 1469033 1464462 1459129 1453979 1450075 1448313 1448973 
3078.100 1451726 1455655 1459534 1462155 1462580 1460426 1455856 1449426 
3081.957 1442015 1434581 1427878 1422309 1417977 1414491 1411314 1407764 
3085.814 1403469 1398388 1393119 1388634 1386236 1387083 1391870 1400485 
3089.672 1412031 1425009 1437568 1448217 1455908 1460309 1461759 1460723 
3093.529 1457645 1452650 1445383 1435326 1422241 1406437 1389054 1372073 
3097.387 1357783 1348394 1345358 1349011 1358359 1371393 1385481 1397987 
3101.244 1406988 1411360 1411175 1407363 1401276 1394262 1387205 1380364 
3105.102 1373345 1365450 1356026 1345092 1333355 1322363 1314177 1310647 
3108.959 1313056 1321519 1334919 1350926 1366804 1379887 1388329 1391649 
3112.816 1390531 1386703 1382321 1379189 1378277 1379314 1381061 1381639 
3116.674 1379266 1372729 1361871 1347504 1331235 1314849 1299878 1287315 
3120.531 1277568 1270542 1266114 1264221 1265137 1269019 1276005 1285657 
3124.389 1297122 1309186 1320481 1330055 1337363 1342445 1345634 1347317 
3128.246 1347661 1346508 1343742 1339268 1333421 1326839 1320349 1314549 
3132.104 1309534 1304905 1299897 1293829 1286606 1278952 1272470 1269153 
3135.961 1270754 1278250 1291424 1308854 1328256 1346982 1362640 1373513 
3139.818 1378831 1378769 1374283 1366925 1358555 1350941 1345554 1343089 
3143.676 1343400 1345426 1347568 1347975 1345203 1338567 1328434 1315930 
3147.533 1302834 1290915 1281561 1275692 1273549 1274892 1279175 1285588 
3151.391 1293247 1301215 1308584 1314764 1319617 1323501 1327343 1332148 
3155.248 1338696 1347073 1356340 1364923 1370826 1372293 1368561 1360029 
3159.105 1348218 1335368 1323879 1315687 1311944 1312704 1317315 1324350 
3162.963 1332212 1339221 1344082 1345907 1344556 1340683 1335708 1331420 
3166.820 1329652 1331635 1337751 1347325 1358917 1370726 1381234 1389560 
3170.678 1395566 1399726 1402614 1404611 1405802 1405941 1404880 1402756 
3174.535 1400207 1398156 1397401 1398336 1400557 1402940 1404184 1403120 
3178.393 1399344 1393322 1386276 1379687 1374862 1372442 1372362 1374050 
3182.250 1376644 1379472 1382121 1384429 1386397 1387982 1388906 1388882 
3186.107 1387652 1385143 1381524 1377178 1372607 1368259 1364550 1361662 
3189.965 1359925 1359554 1360870 1364065 1369088 1375619 1383124 1390909 
3193.822 1398409 1405141 1410914 1415533 1418827 1420336 1419641 1416323 
3197.680 1410500 1402910 1394996 1388623 1385523 1386749 1392271 1400783 
3201.537 1410123 1417698 1421320 1419787 1413406 1403646 1393187 1385074 
3205.395 1382022 1385834 1396923 1414091 1434829 1455739 1473413 1485089 
3209.252 1489449 1486825 1479126 1469113 1459765 1453210 1450374 1450775 
3213.109 1452864 1454717 1454613 1451667 1445911 1438174 1429885 1422455 
3216.967 1417242 1415150 1416654 1421811 1430104 1440632 1452014 1462690 
3220.824 1471223 1476448 1477996 1476080 1471424 1464975 1457574 1449805 
3224.682 1442087 1434778 1428515 1424150 1422613 1424543 1429866 1437524 
3228.539 1445693 1452211 1455206 1453791 1448362 1440456 1432224 1425860 
3232.396 1422730 1423191 1426434 1431019 1435249 1437682 1437691 1435327 
3236.254 1431512 1427576 1424971 1424923 1428062 1434193 1442419 1451071 
3240.111 1458391 1462796 1463502 1460670 1455341 1449154 1443844 1440671 
3243.969 1440147 1442055 1445745 1450262 1454910 1459170 1462864 1465800 
3247.826 1467844 1468877 1468671 1467236 1464581 1460860 1456147 1450203 
3251.684 1442679 1433216 1421737 1408960 1396224 1385401 1378463 1376642 
3255.541 1380244 1388336 1399034 1410140 1419789 1426770 1430918 1432701 
3259.398 1432967 1432481 1431678 1430646 1429384 1427663 1425505 1422953 
3263.256 1420094 1417169 1414386 1412224 1411274 1412368 1416019 1422437 
3267.113 1430903 1439896 1447338 1451304 1450479 1444926 1436044 1426218 
3270.971 1418110 1413841 1414236 1418770 1425857 1433363 1439546 1443418 
3274.828 1445033 1445279 1445350 1446308 1448824 1452843 1457884 1463267 
3278.686 1468279 1472479 1475649 1478007 1479916 1482078 1485163 1489798 
3282.543 1496380 1504735 1514169 1523420 1530694 1534307 1532937 1526075 
3286.400 1514270 1498931 1482202 1466350 1453269 1444137 1439241 1438031 
3290.258 1439343 1441889 1444446 1446156 1446566 1445731 1444091 1442263 
3294.115 1440986 1440867 1442279 1445137 1449033 1453162 1456597 1458565 
3297.973 1458557 1456618 1453198 1449082 1445041 1441795 1439774 1439145 
3301.830 1439985 1442306 1446176 1451505 1457976 1464780 1470724 1474302 
3305.688 1474152 1469442 1460138 1447246 1432580 1418420 1407114 1400676 
3309.545 1400482 1407131 1420318 1438872 1460616 1482690 1501879 1515164 
3313.402 1520421 1517036 1506160 1490487 1473536 1458567 1447925 1442253 
3317.260 1440775 1441873 1443836 1445746 1447477 1449632 1452831 1457243 
3321.117 1462212 1466371 1468441 1467587 1464118 1459314 1455131 1453451 
3324.975 1455587 1461830 1471526 1483431 1495885 1507263 1516027 1520727 
3328.832 1520323 1514245 1502893 1487737 1471174 1456034 1444883 1439015 
3332.689 1438220 1440904 1444593 1447122 1447354 1445287 1442270 1439788 
3336.547 1439013 1440148 1442411 1444530 1445498 1444936 1443289 1441352 
3340.404 1439827 1438794 1437515 1434849 1429822 1422065 1412180 1401667 
3344.262 1392394 1386083 1383978 1386606 1393969 1405534 1420461 1437478 
3348.119 1454973 1471006 1483705 1491689 1494539 1493082 1489203 1485200 
3351.977 1482979 1483461 1486233 1489893 1492645 1493140 1490962 1486639 
3355.834 1481248 1475844 1470877 1465965 1460377 1453170 1444095 1433557 
3359.691 1422668 1412710 1404840 1399701 1397271 1397258 1399460 1403778 
3363.549 1410427 1419733 1431655 1445776 1461052 1476006 1488972 1498461 
3367.406 1503398 1503320 1498372 1489306 1477363 1463962 1450615 1438551 
3371.264 1428391 1420305 1413750 1407984 1402555 1397383 1393250 1391360 
3375.121 1393038 1399187 1409754 1423533 1438470 1452112 1462266 1467529 
3378.979 1467727 1463650 1456858 1449295 1442748 1438553 1437559 1439982 
3382.836 1445518 1453377 1462450 1471345 1478634 1482991 1483610 1480319 
3386.693 1473775 1465348 1456850 1450086 1446494 1446541 1449695 1454371 
3390.551 1458481 1460038 1457851 1451748 1442987 1433509 1425505 1420610 
3394.408 1419404 1421422 1425418 1430074 1434606 1438832 1443072 1447562 
3398.266 1451872 1454603 1453649 1446689 1432458 1411138 1384799 1356966 
3402.123 1331770 1312974 1303082 1303119 1312736 1330449 1354237 1381600 
3405.980 1409534 1434894 1454372 1465307 1466369 1458068 1443174 1425882 
3409.838 1410856 1401714 1400201 1405670 1415717 1427183 1437626 1445936 
3413.695 1452628 1459047 1466543 1475446 1484913 1493057 1497921 1498327 
3417.553 1494329 1487334 1479421 1472571 1468076 1466040 1465869 1466453 
3421.410 1466969 1467141 1467325 1468253 1470774 1475472 1482601 1491944 
3425.268 1502999 1514917 1526667 1536964 1544558 1548321 1547827 1543236 
3429.125 1535647 1526701 1518271 1511698 1507524 1505290 1503767 1501370 
3432.982 1496905 1489969 1481054 1471562 1463253 1457596 1455525 1457017 
3436.840 1461200 1466787 1472583 1477886 1482754 1487933 1494565 1503570 
3440.697 1515193 1528650 1542298 1553933 1561562 1563993 1561250 1554561 
3444.555 1546085 1537940 1531743 1528036 1526231 1524806 1522284 1517547 
3448.412 1510396 1501696 1493007 1486300 1483160 1484695 1491035 1501674 
3452.270 1515355 1530613 1545900 1559839 1571251 1579336 1583629 1584035 
3456.127 1580819 1574593 1566502 1557958 1550651 1546283 1546244 1551091 
3459.984 1560365 1572492 1585087 1595577 1602094 1603986 1602436 1599957 
3463.842 1599936 1605286 1617565 1636406 1659341 1682715 1702580 1715992 
3467.699 1721565 1719817 1712791 1703253 1693886 1686611 1682450 1681428 
3471.557 1683104 1686909 1692413 1699444 1708141 1718518 1730785 1744814 
3475.414 1760282 1776920 1794334 1812315 1830792 1849813 1869483 1889756 
3479.271 1910155 1929744 1946935 1959914 1966776 1966277 1958275 1944052 
3483.129 1926297 1908797 1895676 1890620 1895956 1912239 1938262 1971142 
3486.986 2007234 2042723 2074705 2101486 2122829 2139713 2153788 2166555 
3490.844 2178962 2191045 2202123 2211220 2217632 2221579 2224188 2227478 
3494.701 2233696 2244711 2261383 2283306 2309061 2336356 2362770 2385981 
3498.559 2404208 2416047 2421080 2419340 2412038 2401222 2389886 2381364 
3502.416 2378662 2383540 2396142 2414729 2436272 2457247 2474770 2487117 
3506.273 2494202 2496801 2496187 2493116 2487575 2478819 2465913 2448420 
3510.131 2426729 2402472 2377940 2355791 2338284 2326930 2322333 2324176 
3513.988 2331162 2341272 2351988 2360449 2363920 2360162 2348250 2328574 
3517.846 2302954 2274067 2244763 2217338 2193139 2172499 2155086 2140332 
3521.703 2127763 2117157 2108287 2100576 2093147 2085017 2075430 2064361 
3525.561 2052840 2042478 2034918 2030898 2029755 2029368 2027016 2020185 
3529.418 2007748 1990569 1971077 1952507 1937618 1927940 1923333 1922339 
3533.275 1923111 1924239 1925082 1925736 1926485 1926950 1925896 1921317 
3537.133 1911339 1895009 1873243 1848697 1825512 1807997 1799556 1801736 
3540.990 1813721 1832847 1854914 1875350 1889829 1895138 1889357 1872377 
3544.848 1845850 1813294 1779440 1749816 1729529 1722110 1728739 1747712 
3548.705 1774790 1804118 1829651 1846528 1852137 1846280 1831050 1809971 
3552.563 1786959 1765446 1747942 1735842 1729647 1728952 1733094 1740942 
3556.420 1750926 1761367 1770368 1776344 1778325 1776085 1770362 1762477 
3560.277 1753828 1745642 1738515 1732414 1727194 1722725 1719401 1718380 
3564.135 1720989 1728316 1740649 1756907 1774759 1791208 1803286 1808959 
3567.992 1807876 1801254 1791270 1780494 1770816 1763051 1756803 1750950 
3571.850 1744328 1736424 1727622 1719211 1712703 1709414 1709585 1712307 
3575.707 1715580 1716901 1714030 1705585 1691567 1673315 1653444 1634827 
3579.564 1620331 1611872 1610243 1614907 1624369 1636341 1648508 1658940 
3583.422 1666219 1669804 1669620 1666111 1659900 1651622 1641902 1631434 
3587.279 1620748 1610445 1601064 1592750 1585564 1579037 1572604 1565641 
3591.137 1557475 1547829 1536835 1524877 1512640 1500905 1490419 1481746 
3594.994 1475356 1471453 1470171 1471643 1475846 1482890 1492572 1504448 
3598.852 1517821 1531427 1543749 1553147 1558175 1558167 1553217 1544445 
3602.709 1533610 1522701 1513441 1506831 1503258 1502326 1503612 1506624 
3606.566 1511265 1517669 1525705 1534938 1544090 1551566 1555735 1555628 
3610.424 1551391 1544409 1536833 1531166 1529315 1531961 1538779 1548439 
3614.281 1559421 1570432 1580864 1590707 1600300 1609811 1618973 1627061 
3618.139 1632837 1635308 1633587 1627480 1617299 1604026 1589017 1573946 
3621.996 1560568 1550522 1545176 1545212 1550450 1559776 1571567 1584030 
3625.854 1595818 1606529 1616855 1628277 1642508 1660887 1683648 1709894 
3629.711 1737781 1764999 1789491 1809709 1825030 1835609 1842111 1845485 
3633.568 1846790 1846950 1846634 1846209 1845845 1845468 1845006 1844738 
3637.426 1845385 1848264 1854912 1866832 1884638 1907857 1934565 1961969 
3641.283 1987015 2007403 2022249 2032284 2039743 2047265 2057223 2070866 
3645.141 2088015 2107397 2127227 2145731 2161803 2175149 2185901 2194721 
3648.998 2202071 2208333 2213604 2217919 2221365 2223890 2225461 2225730 
3652.855 2224121 2220106 2213206 2203517 2191677 2178963 2166886 2156906 
3656.713 2150031 2146507 2146004 2147576 2150071 2152136 2152813 2151142 
3660.570 2146545 2138800 2128238 2115693 2102556 2090585 2081662 2077188 
3664.428 2077880 2083517 2092896 2104051 2114840 2122960 2126638 2124541 
3668.285 2115977 2100945 2079912 2054245 2025904 1997621 1972378 1953080 
3672.143 1941969 1940032 1946692 1959651 1975313 1989205 1997172 1996188 
3676.000 1985068 1964671 1937589 1907051 1876339 1847658 1821861 1798612 
3679.857 1776890 1755769 1734916 1714887 1696815 1681946 1670786 1662631 
3683.715 1655647 1647206 1634755 1616616 1592566 1564062 1533779 1504826 
3687.572 1480100 1461426 1449420 1443616 1442731 1445412 1450116 1455624 
3691.430 1460862 1464423 1465256 1462151 1454439 1442033 1425697 1406802 
3695.287 1387176 1368511 1352066 1338495 1327850 1319698 1313520 1309145 
3699.145 1306758 1306916 1310374 1317788 1329359 1344359 1361307 1378013 
3703.002 1391978 1400910 1403345 1399071 1389051 1375462 1361103 1348760 
3706.859 1340675 1338125 1341433 1350008 1362810 1378629 1396028 1413818 
3710.717 1430634 1445174 1455983 1462043 1462841 1458512 1450060 1439025 
3714.574 1427142 1415804 1406115 1398436 1392768 1389011 1387104 1387259 
3718.432 1389837 1395237 1403747 1415292 1429303 1445048 1461371 1476866 
3722.289 1490300 1500327 1506025 1506917 1503277 1496048 1486849 1477450 
3726.146 1469319 1463142 1458596 1454660 1449876 1443133 1434121 1423623 
3730.004 1413285 1405039 1400483 1400352 1404150 1410543 1417800 1424272 
3733.861 1428973 1431617 1432613 1432798 1433070 1434254 1436988 1441595 
3737.719 1448141 1456326 1465400 1474215 1481381 1485524 1485703 1481529 
3741.576 1473489 1462594 1450096 1437259 1424994 1413891 1404312 1396671 
3745.434 1391406 1389207 1390475 1395299 1403155 1412880 1423071 1432426 
3749.291 1440104 1446005 1450579 1454476 1458162 1461522 1463955 1464583 
3753.148 1462826 1458660 1452961 1447073 1442615 1440691 1441856 1445795 
3757.006 1451770 1458702 1465836 1472683 1479206 1485404 1491126 1495869 
3760.863 1498777 1498931 1495689 1489138 1479906 1469427 1459109 1450476 
3764.721 1444256 1440703 1439277 1439134 1439456 1439553 1439271 1438750 
3768.578 1438140 1437506 1436568 1434723 1431265 1425852 1418509 1410182 
3772.436 1402281 1396472 1394066 1395543 1400388 1407101 1413765 1418513 
3776.293 1420209 1418863 1415447 1411600 1409053 1409044 1411951 1417335 
3780.150 1424098 1430850 1436125 1438710 1437629 1432161 1421977 1407339 
3784.008 1389374 1370117 1352375 1339105 1332662 1333983 1342096 1354337 
3787.865 1366910 1376412 1380498 1379053 1373987 1368578 1366130 1368926 
3791.723 1377334 1389723 1403257 1414881 1422427 1425207 1424145 1421130 
3795.580 1418304 1417254 1418614 1421979 1426386 1430717 1433984 1435677 
3799.438 1435795 1434568 1432629 1430778 1429842 1430747 1434144 1440286 
3803.295 1448719 1458387 1467969 1476003 1481557 1484264 1484491 1482935 
3807.152 1480489 1477481 1474142 1470344 1465984 1461433 1457313 1454518 
3811.010 1453555 1454236 1455592 1455891 1453450 1447235 1437208 1424745 
3814.867 1412113 1401710 1395525 1394184 1397153 1402699 1408821 1413643 
3818.725 1416208 1416349 1414970 1413412 1413348 1416144 1422427 1432007 
3822.582 1443558 1454831 1463193 1465972 1461491 1449466 1431265 1409736 
3826.439 1388589 1371223 1360145 1356084 1358147 1364227 1371793 1378670 
3830.297 1383476 1385812 1386115 1385368 1384697 1385268 1388004 1393660 
3834.154 1402585 1414472 1428195 1441654 1452361 1457763 1456278 1447727 
3838.012 1433762 1417370 1402181 1391184 1385945 1386273 1390335 1395579 
3841.869 1399759 1401514 1401099 1399682 1398998 1400201 1403318 1407001 
3845.727 1409041 1407020 1399575 1386846 1370915 1355212 1343671 1339623 
3849.584 1344805 1358785 1379264 1402453 1424442 1441817 1452723 1456767 
3853.441 1455031 1449378 1441792 1433857 1426358 1419540 1413301 1407421 
3857.299 1401914 1396908 1392726 1389767 1388291 1388361 1389772 1392074 
3861.156 1394660 1396731 1397757 1397454 1396157 1394653 1393975 1395001 
3865.014 1397900 1402013 1405869 1407685 1406129 1401085 1393777 1386714 
3868.871 1382842 1384526 1392585 1406128 1422754 1439476 1453629 1463736 
3872.729 1469510 1471453 1470290 1466096 1458716 1447683 1433293 1416894 
3876.586 1400984 1388776 1383107 1385209 1394386 1407895 1421848 1432292 
3880.443 1436723 1434386 1426627 1415909 1405164 1396790 1392202 1391817 
3884.301 1395351 1402065 1411130 1421626 1432502 1442551 1450510 1455237 
3888.158 1455964 1452480 1445304 1435423 1424293 1413394 1404015 1397026 
3892.016 1392830 1391182 1391380 1392346 1393117 1393029 1392148 1391305 
3895.873 1392024 1395880 1404046 1416719 1432809 1450245 1466307 1478504 
3899.730 1485164 1485921 1481490 1473563 1464305 1455749 1449578 1446757 
3903.588 1447418 1450728 1454965 1457650 1456212 1448534 1433924 1413241 
3907.445 1389176 1365343 1345514 1332183 1325964 1325370 1327557 1329562 
3911.303 1329217 1326259 1322216 1319583 1320987 1327906 1340317 1356470 
3915.160 1373767 1389448 1401288 1408329 1410623 1409160 1405473 1401208 
3919.018 1397950 1397088 1399433 1405211 1414081 1424880 1435984 1445544 
3922.875 1452118 1454840 1453668 1449376 1443350 1437075 1432018 1429374 
3926.732 1429956 1433937 1441002 1450144 1459852 1468291 1473697 1474903 
3930.590 1471760 1465477 1458195 1452514 1450892 1454592 1463537 1475982 
3934.447 1489128 1499634 1504632 1502370 1492607 1476660 1457052 1436876 
3938.305 1418920 1405147 1396252 1391488 1389487 1388630 1387826 1386890 
3942.162 1386625 1387967 1391693 1397540 1404193 1409780 1412562 1411970 
3946.020 1408926 1405697 1405065 1409034 1418042 1430457 1443376 1453634 
3949.877 1459117 1459599 1456622 1452707 1450230 1450064 1451614 1452967 
3953.734 1452074 1447904 1440906 1433140 1427130 1425176 1428020 1434910 
3957.592 1443944 1452729 1459374 1462964 1463698 1462262 1459463 1455723 
3961.449 1451175 1445805 1439918 1434201 1429781 1427770 1428924 1433349 
3965.307 1440280 1448458 1456267 1462448 1466033 1466688 1464639 1460454 
3969.164 1455035 1449336 1444260 1440376 1438255 1438005 1439786 1443862 
3973.021 1450675 1460781 1474384 1491045 1509386 1527002 1541049 1549012 
3976.879 1549532 1543019 1531478 1517861 1505039 1494702 1487050 1480859 
3980.736 1474387 1466398 1456824 1446928 1438654 1433852 1433200 1436036 
3984.594 1440536 1444571 1446637 1446212 1443937 1440835 1437878 1435281 
3988.451 1432510 1428806 1423701 1417662 1412075 1408940 1410070 1416414 
3992.309 1427827 1443219 1460924 1479436 1497727 1515197 1531671 1546748 
3996.166 1559719 1569688 1575650 1577137 1574266 1567905 1559498 1550434 
4000.023 1541916 1534761 
##END=
