##TITLE=3D-Fillies_PLA-Rainbow_Turquoise_Filament_r3_ATR-Corrected
##JCAMP-DX=5.01  $$ Nicolet v. 1
##DATATYPE=INFRARED SPECTRUM
##ORIGIN=Curtin University
##OWNER=Nicolet
##LONGDATE=2024/07/18
##TIME=14:31:50
##SPECTROMETER/DATA SYSTEM=Nicolet iS50
##DATA PROCESSING=
Ratio against background
%Transmittance->Absorbance
ATR Correction
Truncated
ElementMultiply or ElementDivide
##COMMENTS=
Number of sample scans: 32
Collection length: 47.28 sec
Sample gain: 1.0
Background collected on: Thu Jul 18 14:28:34 2024 (GMT+08:00);
Number of background scans: 32
Background gain: 1.0
Sample spacing:  1.000
Number of scan points: 16672
Resolution points: 8192
Number of FFT points: 65536
Apodization: N-B strong;
Phase correction: Mertz;
Laser frequency: 15798.3 cm-1
Number of rejected sample scans: 0
Number of rejected background scans: 0
Bench serial number: AUP1200105;
##RESOLUTION=4.000
##XUNITS=1/CM
##YUNITS=ABSORBANCE
##FIRSTX=400.163452
##LASTX=4000.187744
##FIRSTY=0.058452
##MAXX=4000.187744
##MINX=400.163452
##MAXY=0.841027
##MINY=-0.027247
##XFACTOR=1.000000
##YFACTOR=1.000000E-009
##NPOINTS=7468
##DELTAX=0.482125
##ZPD=8192
##XYDATA=(X++(Y..Y))
400.163 58451596 58527788 58468584 58275992 57955156 57510624 56921644 
403.538 56146724 55144200 53904740 52472300 50947504 49461904 48141824 
406.913 47066504 46244832 45617020 45081244 44532472 43900800 43171664 
410.288 42384440 41608924 40914396 40340688 39886884 39512072 39152152 
413.663 38739164 38219616 37562700 36764932 35847616 34854940 33850852 
417.038 32914254 32129072 31568672 31277072 31254612 31451602 31779856 
420.412 32132830 32415402 32565630 32567394 32445844 32251236 32034944 
423.787 31830180 31639736 31439110 31188630 30853156 30417844 29896620 
427.162 29328784 28767786 28265008 27857542 27560156 27366898 27257628 
430.537 27208672 27199800 27220208 27266134 27337122 27434284 27555156 
433.912 27694972 27849626 28017924 28202464 28406000 28627472 28855334 
437.286 29066624 29228780 29308680 29282636 29146124 28917844 28636618 
440.661 28350836 28105130 27926746 27818036 27756604 27703512 27616092 
444.036 27460874 27223158 26910540 26548890 26176070 25832434 25553512 
447.411 25363764 25274032 25279524 25362412 25494292 25642702 25775970 
450.786 25870414 25913228 25903982 25851228 25767910 25665292 25549066 
454.161 25417300 25264238 25083472 24873670 24641164 24400458 24170886 
457.535 23972762 23822524 23729954 23697042 23718282 23781848 23870730 
460.910 23963834 24038716 24073256 24050702 23962826 23810952 23612828 
464.285 23393226 23180264 22999578 22868206 22792246 22766032 22776312 
467.660 22806370 22841164 22870942 22892458 22908186 22923884 22944998 
471.035 22973208 23003452 23023666 23015608 22959518 22839396 22649838 
474.409 22398704 22108210 21809696 21536452 21313800 21152534 21046148 
477.784 20974946 20913814 20842656 20753162 20652412 20557658 20489344 
481.159 20461486 20476128 20522016 20579844 20628600 20653996 20651462 
484.534 20625758 20587068 20545530 20507686 20476354 20452606 20439412 
487.909 20443092 20472222 20533360 20626372 20741654 20861550 20966164 
491.284 21041820 21088222 21121772 21171432 21270050 21442178 21693122 
494.658 22009628 22359482 22701966 23000452 23232092 23391514 23487834 
498.033 23537364 23553982 23543150 23500728 23416512 23281418 23093194 
501.408 22859628 22596496 22322518 22053260 21796472 21552838 21318044 
504.783 21088882 20867136 20660634 20482080 20344300 20256108 20220492 
508.158 20234212 20290808 20383416 20505786 20650936 20808364 20960612 
511.532 21083684 21149574 21133990 21023622 20822736 20553666 20252974 
514.907 19961898 19716238 19537592 19430400 19383490 19377038 19389376 
518.282 19403156 19407286 19395264 19361502 19298194 19194742 19040216 
521.657 18828018 18561118 18254240 17933052 17629136 17372936 17187124 
525.032 17080020 17049074 17080064 17152836 17246568 17343426 17429120 
528.406 17491648 17519526 17500420 17423208 17280980 17075752 16821882 
531.781 16545611 16281139 16062358 15913915 15844218 15842812 15884334 
535.156 15936522 15970934 15971079 15936794 15881782 15827250 15792631 
538.531 15789028 15815908 15862953 15915098 15958268 15982995 15985239 
541.906 15963577 15916800 15841285 15732424 15587349 15409570 15210835 
545.281 15010856 14832713 14696131 14610844 14573737 14569040 14574005 
548.655 14565913 14529901 14462824 14373980 14281514 14207008 14168615 
552.030 14176539 14230545 14320352 14428414 14534634 14620243 14672506 
555.405 14686232 14663337 14613588 14548546 14479355 14414092 14356807 
558.780 14309593 14274297 14255681 14261760 14302600 14386611 14516504 
562.155 14686157 14880347 15078282 15258925 15406811 15516573 15592142 
565.529 15644705 15686162 15724014 15758386 15782753 15788076 15769236 
568.904 15729424 15681941 15648106 15650939 15707571 15823517 15988590 
572.279 16179124 16362971 16508250 16591148 16602447 16549578 16455244 
575.654 16351292 16271278 16243018 16282350 16390689 16555419 16753720 
579.029 16958034 17142088 17285906 17378854 17419916 17416436 17380904 
582.404 17327266 17267678 17210910 17161782 17122160 17093062 17076666 
585.778 17077302 17100832 17152636 17234358 17341628 17462764 17580418 
589.153 17676088 17735484 17753172 17735320 17697432 17659648 17639434 
592.528 17645578 17674856 17713662 17743714 17749252 17723530 17671852 
595.903 17610170 17559872 17540840 17565854 17636966 17746350 17878850 
599.278 18016790 18143482 18246190 18316972 18353618 18358670 18339524 
602.652 18306640 18272232 18246496 18235686 18239760 18253578 18269328 
606.027 18281226 18289524 18302182 18333440 18398784 18509368 18667548 
609.402 18865818 19089912 19324078 19557332 19785920 20012588 20242096 
612.777 20475668 20707380 20924524 21111954 21259068 21365818 21444752 
616.152 21517848 21609932 21739522 21912524 22120660 22344510 22560878 
619.527 22750874 22905894 23029812 23136516 23245090 23373880 23535600 
622.901 23734882 23967890 24223628 24486594 24740202 24969982 25167436 
626.276 25332172 25473562 25609164 25760950 25950062 26190254 26483658 
629.651 26819210 27174908 27522310 27833610 28086752 28269208 28378784 
633.026 28422696 28414622 28373130 28318842 28272800 28253952 28276582 
636.401 28347922 28466194 28621248 28797510 28978386 29151522 29312240 
639.775 29464280 29617002 29780738 29961266 30157192 30359244 30553800 
643.150 30727976 30874570 30995226 31100030 31204790 31325650 31475004 
646.525 31657864 31871590 32107684 32355640 32606806 32857240 33109408 
649.900 33370926 33652000 33961408 34302872 34671996 35056232 35435820 
653.275 35788420 36093712 36337480 36514428 36627824 36687600 36705924 
656.650 36694160 36660760 36611548 36551476 36486784 36427280 36384860 
660.024 36372400 36399772 36471412 36584908 36732024 36901276 37080800 
663.399 37261500 37437704 37606960 37768948 37923832 38071956 38214036 
666.774 38352128 38489460 38630560 38779948 38940712 39113676 39297056 
670.149 39487848 39683376 39882140 40084476 40291008 40501436 40712412 
673.524 40917636 41109140 41280100 41427924 41556288 41675640 41800700 
676.898 41946148 42122372 42330980 42564160 42805752 43036416 43237480 
680.273 43398144 43517924 43607120 43683800 43768324 43876780 44016568 
683.648 44183744 44365116 44542668 44700084 44828628 44929896 45015632 
687.023 45103060 45209212 45345112 45512488 45704500 45909208 46114860 
690.398 46315016 46510640 46709144 46921080 47155604 47416932 47702948 
693.773 48007288 48321772 48640996 48963864 49294920 49642416 50015828 
697.147 50423460 50869836 51355568 51876948 52426880 52995536 53571832 
700.522 54144108 54701936 55237444 55745908 56226532 56680836 57111208 
703.897 57518720 57901824 58256520 58577584 58861224 59107404 59320360 
707.272 59508644 59682060 59849372 60015528 60181124 60343228 60497372 
710.647 60639684 60769088 60887576 60999128 61109432 61224648 61351104 
714.021 61496172 61668608 61879616 62142728 62473644 62891708 63421024 
717.396 64094952 64959392 66078008 67533592 69428384 71879416 75011144 
720.771 78945304 83788464 89618888 96472312 104328496 113097824 122612480 
724.146 132622736 142803920 152774672 162128224 170473488 177479680 
727.039 182913200 186660672 188729632 189229568 188339136 186269968 
729.931 183234320 179423680 174998112 170084064 164779504 159159680 
732.824 153284944 147206704 140972480 134629648 128228248 121822016 
735.717 115469528 109232888 103176792 97365752 91861240 86718608 81984208 
739.091 77692864 73866472 70513784 67630856 65202028 63202524 61599588 
742.466 60354496 59424416 58764724 58330800 58080208 57975456 57985832 
745.841 58088736 58270108 58523400 58847800 59245044 59717020 60262788 
749.216 60877436 61551452 62271324 63020304 63779852 64530232 65251812 
752.591 65925220 66531940 67055948 67483992 67806952 68020784 68125800 
755.966 68125936 68026624 67832272 67544120 67159448 66671676 66072868 
759.340 65356672 64521676 63573444 62524796 61394344 60203120 58971284 
762.715 57715628 56448632 55179940 53917660 52670856 51450264 50267452 
766.090 49132860 48053680 47031956 46065020 45146388 44268732 43425288 
769.465 42611760 41825368 41063772 40324124 39602448 38894304 38197564 
772.840 37513820 36849216 36213452 35616668 35065800 34561472 34096724 
776.214 33658596 33232082 32804410 32369152 31927052 31484668 31051146 
779.589 30633484 30233554 29847356 29466360 29080914 28683628 28272002 
782.964 27848480 27419244 26992014 26573272 26167050 25774802 25396204 
786.339 25031038 24680008 24346092 24033976 23750568 23504234 23304184 
789.714 23159824 23078822 23064828 23115256 23218932 23355946 23499170 
793.089 23617834 23683140 23672976 23576358 23394950 23142438 22841736 
796.463 22521030 22209530 21933546 21713440 21561356 21480168 21463744 
799.838 21497948 21564032 21642608 21718142 21782282 21835086 21882392 
803.213 21933454 21994262 22063790 22132660 22185344 22205002 22178934 
806.588 22103542 21984984 21837556 21677936 21520020 21370640 21228664 
809.963 21087798 20940512 20782452 20615210 20445622 20282922 20135330 
813.337 20007072 19897950 19804770 19724772 19658106 19609508 19586592 
816.712 19596794 19643700 19724680 19830634 19948720 20066414 20175350 
820.087 20274192 20367690 20463634 20569098 20686644 20812406 20938070 
823.462 21054184 21154550 21239852 21318000 21402222 21506352 21640388 
826.837 21806518 21998334 22202964 22404708 22589900 22750342 22884274 
830.212 22995838 23092492 23182182 23271832 23365882 23467040 23577374 
833.586 23698282 23832216 23981900 24150266 24341034 24558904 24810478 
836.961 25103280 25445062 25840868 26291876 26793342 27335784 27907594 
840.336 28498506 29102994 29721504 30359176 31022042 31711910 32422860 
843.711 33140176 33842812 34508300 35118156 35662320 36139776 36556632 
847.086 36922100 37244316 37528752 37778876 37999844 38202012 38404032 
850.460 38633000 38921520 39303988 39811612 40469548 41295500 42299672 
853.835 43486204 44853488 46394484 48097028 49943516 51912548 53981444 
857.210 56127588 58330952 60573304 62837132 65102272 67344640 69535448 
860.585 71645144 73647472 75525072 77272928 78898208 80416824 81848048 
863.960 83208008 84506688 85746960 86927008 88043712 89095392 90083312 
867.335 91011040 91882744 92701544 93468112 94179576 94828296 95398944 
870.709 95866608 96193736 96331792 96224536 95818096 95070920 93963760 
874.084 92505568 90731968 88697552 86464904 84092976 81628568 79103880 
877.459 76539368 73949320 71349072 68759344 66208296 63728972 61355256 
880.834 59116984 57035536 55121940 53377140 51794016 50360752 49065640 
884.209 47899636 46859304 45947672 45171716 44540016 44057988 43723308 
887.583 43524200 43438788 43438880 43494428 43578812 43673060 43767048 
890.958 43857992 43947036 44035132 44120364 44197140 44257568 44294404 
894.333 44302284 44280076 44229240 44152708 44053228 43932708 43792768 
897.708 43636584 43471068 43306844 43157912 43037948 42957372 42919568 
901.083 42919520 42944820 42978760 43004456 43009540 42988240 42942440 
904.458 42879564 42809968 42743428 42686948 42643564 42613376 42594760 
907.832 42587336 42592572 42615296 42662096 42740064 42854636 43008020 
911.207 43198084 43419224 43663636 43923300 44191884 44465816 44744412 
914.582 45028500 45318868 45614532 45911324 46202032 46478020 46730832 
917.957 46955376 47151380 47324132 47483232 47640456 47806324 47986864 
921.332 48182644 48388208 48594856 48793584 48978812 49151124 49317476 
924.706 49489884 49682020 49905552 50167004 50466148 50797016 51150248 
928.081 51515916 51887552 52262648 52643000 53032076 53432056 53840928 
931.456 54250676 54647640 55015168 55337092 55602444 55807912 55959696 
934.831 56070568 56157312 56234936 56313292 56394412 56474228 56545260 
938.206 56601516 56642540 56674852 56710568 56763400 56843392 56953388 
941.581 57086872 57230724 57369724 57492476 57596128 57688372 57785600 
944.955 57909124 58080064 58314412 58620860 59000772 59449468 59958980 
948.330 60520476 61125688 61767404 62439308 63135816 63851244 64579228 
951.705 65311864 66037996 66742620 67405736 68002552 68505312 68885616 
955.080 69117744 69181896 69065520 68765176 68285648 67638728 66842160 
958.455 65918372 64892240 63790508 62640084 61467116 60296660 59152056 
961.829 58055268 57026340 56082808 55239008 54504020 53881416 53368548 
965.204 52957716 52637952 52397764 52226364 52115040 52056860 52045836 
968.579 52075388 52138456 52227588 52336084 52458604 52592060 52734620 
971.954 52885316 53042548 53203656 53366532 53529760 53694604 53864216 
975.329 54042816 54233688 54437248 54650672 54868892 55086980 55302168 
978.703 55515984 55733076 55959664 56200324 56456880 56727820 57010296 
982.078 57302572 57605652 57922752 58257024 58608420 58970640 59331444 
985.453 59676220 59992784 60277124 60536256 60787560 61053944 61355996 
988.828 61707116 62109388 62555052 63030132 63520380 64016020 64513780 
992.203 65016232 65528728 66056148 66600716 67162888 67741752 68338424 
995.578 68957304 69607184 70299744 71047728 71862776 72752184 73718256 
998.952 74756128 75853888 76993712 78153720 79311656 80449752 81557896 
1002.327 82637152 83699840 84767464 85867088 87026464 88271072 89622072 
1005.702 91097416 92713728 94488544 96441504 98594576 100970960 103594176 
1009.077 106487872 109677688 113193176 117071256 121357216 126103968 
1011.970 131365728 137188752 143596960 150576064 158057248 165904736 
1014.862 173911072 181803840 189266080 195970880 201625024 206013376 
1017.755 209033872 210714512 211206608 210756816 209666928 208250336 
1020.648 206794896 205536736 204649664 204243376 204371232 205041072 
1023.540 206227952 207885152 209955424 212379744 215104848 218088688 
1026.433 221301408 224725840 228354000 232182240 236208000 240427936 
1029.326 244837504 249434080 254218464 259197680 264383376 269789568 
1032.219 275428064 281302944 287405728 293713536 300188960 306781856 
1035.113 313433312 320079968 326657408 333104032 339363008 345383008 
1038.006 351119168 356531392 361583296 366239776 370464992 374221440 
1040.899 377471232 380177984 382311744 383852256 384792992 385141120 
1043.792 384915776 384145536 382863648 381107136 378915712 376332992 
1046.685 373408384 370197760 366762496 363166912 359475072 355746464 
1049.578 352033952 348380768 344820544 341377248 338065120 334890624 
1052.471 331853984 328951904 326179840 323534400 321014624 318621728 
1055.364 316359328 314233248 312253056 310435232 308806592 307408288 
1058.257 306297472 305544704 305230080 305435328 306236864 307700096 
1061.150 309877280 312807168 316518624 321032416 326363648 332521312 
1064.043 339506816 347311232 355915776 365290912 375400800 386206624 
1066.936 397671360 409760864 422443264 435685696 449449792 463688096 
1069.829 478342400 493344384 508619200 524089024 539677376 555311936 
1072.722 570925632 586457920 601854656 617067392 632052736 646771520 
1075.615 661186816 675263872 688968768 702268160 715126592 727505664 
1078.509 739359168 750629120 761243648 771118528 780163840 788290496 
1081.402 795422208 801497024 806470720 810310400 812991232 814495680 
1084.295 814815552 813961472 811970176 808904320 804848704 799898752 
1087.188 794149056 787686592 780592704 772948480 764844160 756381056 
1090.081 747667776 738807360 729882944 720946880 712018496 703090432 
1092.974 694141824 685153216 676116928 667039424 657938432 648836096 
1095.867 639750144 630689536 621653120 612630016 603602176 594547584 
1098.760 585442304 576262208 566987264 557603904 548107904 538505024 
1101.653 528809664 519041408 509222432 499373600 489517376 479679360 
1104.546 469893376 460206432 450679744 441387776 432413760 423845440 
1107.439 415768864 408264096 401401344 395238816 389820448 385174080 
1110.332 381309824 378219680 375877664 374242176 373259040 372864672 
1113.225 372990208 373564320 374514976 375772064 377267328 378937792 
1116.118 380726784 382585984 384477312 386373920 388259456 390128160 
1119.011 391982592 393831776 395687648 397561952 399462976 401390624 
1121.905 403335232 405275776 407181536 409013312 410726368 412272032 
1124.798 413598496 414652544 415379936 415729184 415655552 415126784 
1127.691 414127200 412658592 410738336 408393056 405652224 402541248 
1130.584 399078624 395275392 391137952 386670112 381874720 376753760 
1133.477 371306688 365529984 359417312 352962272 346162496 339024288 
1136.370 331564800 323812928 315806880 307591968 299217120 290733504 
1139.263 282192960 273649632 265159696 256781584 248575040 240599520 
1142.156 232911056 225560864 218592800 212041312 205932752 200283792 
1145.049 195103744 190395296 186155552 182378016 179053696 176171920 
1147.942 173721216 171689424 170062976 168827152 167965088 167457376 
1150.835 167282544 167416912 167834896 168509040 169410000 170507280 
1153.728 171770336 173170400 174682576 176288576 177976720 179741936 
1156.621 181583360 183500704 185491168 187548464 189662928 191824656 
1159.514 194026576 196268432 198558144 200911488 203349456 205895104 
1162.407 208570224 211393056 214377792 217536832 220882864 224432960 
1165.301 228211776 232253184 236601664 241310528 246439520 252051200 
1168.194 258207744 264969104 272392160 280532000 289443904 299184480 
1171.087 309810816 321377312 333930208 347498432 362087264 377672448 
1173.980 394194912 411559680 429633344 448242848 467170816 486154400 
1176.873 504883040 523004160 540136256 555889984 569894592 581827520 
1179.766 591438464 598568320 603157184 605242560 604948864 602469760 
1182.659 598045824 591941312 584424960 575756160 566177536 555913600 
1185.552 545171648 534141056 522992000 511871872 500902176 490176864 
1188.445 479766688 469724032 460090304 450900192 442182464 433958336 
1191.338 426235872 419007936 412252224 405936128 400024896 394490304 
1194.231 389315648 384496832 380038560 375948384 372230496 368881664 
1197.124 365892064 363247520 360933024 358934176 357236736 355823744 
1200.017 354672608 353754912 353037568 352486944 352073984 351777472 
1202.910 351582336 351477504 351449088 351477280 351533376 351581472 
1205.803 351583360 351504320 351316768 351002432 350550528 349954624 
1208.697 349209184 348307200 347239488 345996064 344568000 342949792 
1211.590 341141120 339147616 336980864 334657824 332198944 329627232 
1214.483 326965376 324234240 321451520 318631392 315784384 312918848 
1217.376 310041568 307159648 304280288 301412256 298565696 295752736 
1220.269 292986496 290280992 287649056 285100640 282640736 280267904 
1223.162 277975456 275751744 273584512 271464128 269384960 267347664 
1226.055 265356336 263417456 261535728 259713536 257949232 256239600 
1228.948 254581392 252973968 251420704 249928944 248509952 247177776 
1231.841 245948880 244841264 243874592 243068624 242441392 242006640 
1234.734 241770736 241732352 241882352 242206960 242691808 243326704 
1237.627 244108192 245039408 246127216 247376912 248787824 250348512 
1240.520 252035680 253815232 255646016 257484048 259285904 261012576 
1243.413 262630112 264110512 265432032 266578016 267537776 268306576 
1246.306 268886400 269287296 269526944 269631200 269633024 269570400 
1249.199 269483136 269409248 269381536 269424032 269550720 269765024 
1252.093 270062240 270431456 270859968 271336640 271854240 272409824 
1254.986 273005760 273647264 274340736 275091872 275904416 276779968 
1257.879 277717536 278715392 279770880 280881312 282043552 283253184 
1260.772 284503680 285784800 287082240 288376672 289644512 290858432 
1263.665 291987712 293001088 293866880 294555008 295038208 295293056 
1266.558 295299808 295041696 294503584 293671936 292533024 291075584 
1269.451 289291456 287178304 284740864 281991136 278946624 275628352 
1272.344 272058752 268260176 264255136 260068144 255726064 251257952 
1275.237 246694240 242063792 237391760 232697776 227996352 223299168 
1278.130 218617488 213964144 209355440 204809872 200346784 195984144 
1281.023 191736992 187616464 183630128 179783200 176078848 172519488 
1283.916 169106624 165841792 162726048 159760960 156948000 154289056 
1286.809 151785408 149436912 147241520 145194016 143287248 141512832 
1289.702 139862816 138331376 136914880 135612080 134421424 133340464 
1292.595 132362592 131477520 130671624 129929600 129237104 128582584 
1295.489 127958240 127361296 126791928 126253664 125751216 125290080 
1298.382 124874744 124507680 124189104 123915944 123682408 123481312 
1301.275 123305392 123149072 123009392 122884784 122773024 122668816 
1304.168 122561904 122437208 122276816 122064240 121787744 121443808 
1307.061 121036528 120575768 120072096 119533600 118963216 118358888 
1309.954 117714600 117024360 116283472 115489936 114644160 113747032 
1312.847 112800160 111805856 110768536 109696344 108602072 107502904 
1315.740 106417792 105365352 104360840 103414968 102533888 101720304 
1318.633 100974136 100293520 99673080 99104392 98574568 98068144 97569512 
1322.008 97066552 96553320 96031136 95507712 94994496 94503432 94045600 
1325.384 93629760 93263816 92955600 92713632 92545904 92458416 92453528 
1328.759 92529568 92682544 92909456 93211632 93595808 94073648 94657496 
1332.134 95355832 96169032 97087904 98095080 99168736 100287744 101433680 
1335.509 102592848 103753648 104904968 106033376 107123720 108160736 
1338.402 109131288 110028000 110849848 111602528 112296680 112945520 
1341.295 113563360 114164272 114762608 115372960 116009960 116687568 
1344.188 117418320 118212256 119076480 120015456 121032640 122131016 
1347.082 123314560 124586736 125950320 127404896 128945752 130563112 
1349.975 132241936 133962840 135703952 137442528 139156944 140827648 
1352.868 142438272 143975760 145429968 146792688 148057264 149218000 
1355.761 150271024 151213440 152044992 152767792 153386976 153908240 
1358.654 154339520 154688256 154962752 155171952 155326624 155439920 
1361.547 155527088 155603616 155682640 155772144 155871872 155972304 
1364.440 156054800 156092992 156056256 155911552 155625856 155168064 
1367.333 154509808 153627408 152504928 151136128 149530048 147713216 
1370.226 145731600 143650496 141551728 139528272 137678480 136099888 
1373.119 134883584 134109168 133839328 134116024 134956576 136350912 
1376.012 138260528 140619280 143336608 146303072 149397056 152493216 
1378.905 155471376 158223424 160659216 162707376 164315408 165446416 
1381.798 166076352 166192096 165790448 164878400 163472064 161597392 
1384.691 159287344 156581008 153522192 150158256 146539152 142716992 
1387.584 138744304 134671184 130543768 126401752 122276472 118190416 
1390.478 114157800 110186608 106281464 102446728 98690584 95027888 91479320 
1393.853 88072472 84835864 81796840 78976024 76385584 74029112 71902400 
1397.228 69996504 68299504 66799008 65482796 64339920 63361272 62540776 
1400.603 61876012 61368756 61024656 60852180 60861092 61059732 61453000 
1403.979 62040504 62814080 63754820 64832300 66002116 67206824 68377928 
1407.354 69439544 70314480 70931184 71229416 71168136 70728616 69917184 
1410.729 68765272 67326680 65671584 63879104 62028900 60192664 58428624 
1414.104 56776800 55259588 53884016 52646136 51536224 50542452 49653668 
1417.479 48861124 48157744 47538328 46999648 46540416 46159856 45858000 
1420.855 45633560 45482984 45398572 45370352 45386088 45432936 45499904 
1424.230 45578044 45660508 45742512 45820440 45892984 45962508 46037064 
1427.605 46131444 46266464 46466984 46757384 47157432 47679628 48328248 
1430.980 49101020 49992296 50997356 52114612 53347788 54704856 56197408 
1434.356 57838164 59638924 61609384 63756996 66087940 68609264 71331728 
1437.731 74271376 77450528 80895392 84632528 88682968 93057784 97753576 
1441.106 102752848 108024632 113528216 119215808 125033856 130924728 
1443.999 136825360 142668592 148385104 153906048 159166992 164110512 
1446.892 168688912 172865664 176617104 179932624 182813760 185272944 
1449.785 187327040 188994032 190287504 191215584 191780528 191982656 
1452.678 191822864 191302816 190425360 189190976 187596128 185633136 
1455.572 183293296 180571424 177471456 174007840 170205520 166095728 
1458.465 161712768 157091584 152267328 147276976 142160496 136959376 
1461.358 131715240 126466232 121245216 116080464 110996736 106017512 
1464.251 101166464 96466384 91937408 87596264 83455952 79526528 75817512 
1467.626 72338568 69097808 66099404 63340688 60810300 58490108 56358480 
1471.001 54395616 52586004 50919824 49390608 47991036 46710448 45532244 
1474.376 44436844 43404240 42417476 41464744 40539300 39637476 38756736 
1477.752 37894828 37049164 36218604 35404336 34610100 33840796 33100232 
1481.127 32389324 31705466 31042776 30394666 29756166 29125200 28503084 
1484.502 27893046 27298854 26724022 26171280 25643360 25143462 24675060 
1487.877 24241660 23845172 23484784 23157202 22858160 22583866 22333080 
1491.253 22107640 21911324 21748074 21619936 21525746 21462156 21424462 
1494.628 21410184 21419140 21454164 21519850 21620382 21757560 21931334 
1498.003 22141254 22388778 22679484 23023868 23435046 23924188 24495374 
1501.378 25140248 25834970 26540764 27207204 27778830 28202866 28436970 
1504.754 28456188 28256760 27856020 27290572 26607960 25859078 25090818 
1508.129 24339834 23632148 22983664 22403472 21896366 21464216 21105800 
1511.504 20816154 20585586 20401170 20247802 20111902 19983800 19858590 
1514.879 19736372 19619890 19512566 19416310 19331030 19255642 19188550 
1518.255 19129030 19077654 19035532 19003220 18979544 18962334 18947806 
1521.630 18932642 18914562 18893456 18870308 18846678 18823338 18799724 
1525.005 18774324 18745060 18710622 18670964 18627636 18583656 18541992 
1528.380 18505192 18474258 18448720 18425924 18401706 18370274 18326358 
1531.756 18265454 18185112 18086252 17973408 17853518 17734198 17622238 
1535.131 17521760 17433246 17355660 17286702 17225284 17171462 17126760 
1538.506 17092014 17066718 17047734 17030618 17010872 16986656 16959812 
1541.881 16935826 16920890 16920046 16933672 16957428 16982612 16999782 
1545.257 17001880 16986492 16957060 16920880 16885884 16858388 16840708 
1548.632 16830326 16822624 16811854 16793442 16766218 16731814 16694119 
1552.007 16658878 16631469 16616805 16617006 16631922 16657988 16687974 
1555.382 16712958 16723899 16714757 16683877 16635841 16580582 16530529 
1558.758 16497806 16490098 16509071 16550088 16605066 16664956 16722552 
1562.133 16774029 16818370 16856744 16891208 16923352 16954664 16986418 
1565.508 17019732 17055618 17094344 17134906 17175648 17215400 17254488 
1568.883 17296208 17347602 17417282 17513646 17642226 17803342 17993302 
1572.259 18205410 18433714 18674336 18926762 19192036 19470128 19756712 
1575.634 20041808 20310136 20544758 20730800 20858800 20925604 20933560 
1579.009 20887312 20792318 20652774 20472868 20258314 20018236 19765634 
1582.384 19516208 19285110 19084158 18919228 18789568 18689578 18610808 
1585.760 18545166 18487310 18435148 18389334 18352128 18325494 18310464 
1589.135 18305640 18307786 18311554 18310396 18297488 18267618 18218724 
1592.510 18153440 18079886 18010358 17958894 17938464 17957230 18015932 
1595.885 18108866 18225700 18355278 18489028 18624186 18763144 18912878 
1599.260 19081030 19274004 19494840 19743154 20016270 20311118 20626058 
1602.636 20960694 21316112 21692902 22090252 22505184 22931812 23362468 
1606.011 23787578 24196604 24578910 24923782 25222122 25466864 25653762 
1609.386 25782442 25855976 25879546 25859502 25801816 25711300 25591762 
1612.761 25446684 25280376 25098100 24907010 24714692 24527410 24349100 
1616.137 24180318 24018514 23859472 23699986 23538946 23379560 23227714 
1619.512 23091778 22979130 22895720 22843390 22821494 22826226 22852558 
1622.887 22894122 22943818 22994154 23036622 23063318 23068994 23053130 
1626.262 23021278 22985394 22960958 22963138 23001986 23078818 23185592 
1629.638 23306564 23423990 23522618 23595000 23641990 23672404 23697964 
1633.013 23729414 23773188 23829414 23893740 23958834 24017912 24066706 
1636.388 24103866 24130602 24149158 24162222 24171638 24178640 24184064 
1639.763 24188196 24190926 24191514 24189000 24182546 24172594 24161334 
1643.139 24152490 24150284 24158662 24178714 24209370 24247036 24287314 
1646.514 24326430 24362968 24397268 24430960 24465520 24501338 24538416 
1649.889 24577044 24619596 24670660 24736708 24824094 24936308 25071898 
1653.264 25224160 25383800 25542312 25695256 25844684 25997800 26164010 
1656.640 26352092 26566252 26804872 27061262 27325768 27588912 27844522 
1660.015 28089552 28325302 28555586 28784686 29017318 29257540 29508708 
1663.390 29774286 30057458 30361712 30689734 31043718 31423602 31827774 
1666.765 32252658 32693394 33144064 33599304 34054624 34507628 34957968 
1670.141 35406392 35854576 36303920 36755116 37208528 37664568 38124588 
1673.516 38590632 39065720 39551556 40048772 40556800 41073504 41598200 
1676.891 42132328 42680328 43247844 43840024 44458188 45098032 45750456 
1680.266 46403620 47046916 47674516 48286680 48888768 49488576 50092524 
1683.642 50704160 51324064 51951272 52587444 53237544 53910320 54616148 
1687.017 55363112 56155900 56993952 57874212 58793380 59750308 60747848 
1690.392 61791056 62886768 64041048 65260036 66551052 67925688 69400592 
1693.767 70996864 72736488 74637560 76709768 78954648 81368184 83949040 
1697.143 86706400 89665144 92867296 96365016 100214168 104465008 109156824 
1700.518 114317928 119970400 126138824 132857992 140175920 148153312 
1703.411 156857824 166357200 176713344 187979472 200197680 213397600 
1706.304 227593264 242776432 258911168 275929504 293733984 312206080 
1709.197 331218912 350647552 370372352 390272032 410208288 430011168 
1712.090 449471264 468343360 486363744 503273248 518843936 532899200 
1714.983 545331392 556109696 565286528 572989568 579405056 584746816 
1717.876 589220480 592990784 596166784 598805504 600933568 602570496 
1720.769 603745984 604500480 604875648 604899008 604577856 603905408 
1723.662 602880576 601527680 599908736 598117120 596255616 594409792 
1726.555 592626048 590905792 589218560 587525440 585800640 584044992 
1729.448 582283584 580551616 578881408 577293440 575798336 574408576 
1732.342 573147776 572058880 571200448 570636864 570427456 570620352 
1735.235 571254272 572366656 574002176 576215616 579068096 582616768 
1738.128 586906624 591965888 597812224 604461056 611937344 620277120 
1741.021 629519360 639687936 650772992 662715136 675406720 688700096 
1743.914 702424896 716403904 730459840 744411584 758070336 771234880 
1746.807 783700736 795273984 805787392 815109440 823139968 829795776 
1749.700 834994880 838651072 840682304 841027520 839665920 836621312 
1752.593 831956032 825748736 818075392 808999232 798573056 786852736 
1755.486 773908288 759832704 744736832 728741312 711966976 694531840 
1758.379 676555136 658164864 639499584 620707392 601935808 583319104 
1761.272 564969408 546974272 529399744 512298464 495714304 479685024 
1764.165 464239264 449393184 435148544 421496128 408422464 395917568 
1767.058 383977536 372602912 361789920 351521312 341759904 332450304 
1769.951 323526432 314924416 306594496 298504256 290638432 282986816 
1772.844 275534528 268253472 261101968 254032704 247001568 239979216 
1775.738 232954384 225931584 218924560 211947136 205007536 198106384 
1778.631 191240368 184407136 177610256 170859856 164172160 157565424 
1781.524 151057904 144667216 138411696 132313400 126397848 120692520 
1784.417 115223040 110007992 105055448 100363480 95923952 91726952 87765424 
1787.792 84036064 80537512 77266200 74213824 71367208 68710792 66232508 
1791.167 63924588 61785184 59814580 58008952 56356876 54837908 53425592 
1794.542 52094636 50826596 49614112 48460516 47374764 46365720 45436228 
1797.918 44581296 43788680 43042420 42327464 41632416 40951268 40283360 
1801.293 39632136 39003892 38406616 37848852 37337508 36876720 36464928 
1804.668 36096096 35759360 35441988 35131272 34817144 34492340 34152604 
1808.043 33794836 33418030 33022892 32614316 32200548 31792094 31397808 
1811.419 31020810 30654720 30285428 29895024 29469810 29008564 28527084 
1814.794 28055930 27634024 27297378 27069056 26951540 26927294 26963412 
1818.169 27022120 27069004 27078426 27034946 26931350 26766062 26541686 
1821.544 26266910 25956338 25630820 25314430 25027376 24782732 24579622 
1824.920 24405142 24238092 24056706 23844458 23595618 23314176 23011800 
1828.295 22703276 22401312 22115140 21849916 21606140 21382562 21174070 
1831.670 20975118 20777296 20573500 20358120 20128978 19888004 19639630 
1835.045 19387710 19134184 18877178 18611650 18333304 18040902 17739922 
1838.421 17442570 17164350 16920504 16720112 16563619 16440069 16331291 
1841.796 16214188 16067458 15876146 15637383 15362018 15072593 14799868 
1845.171 14574597 14418876 14339382 14324440 14347058 14371680 14364958 
1848.546 14305668 14189732 14030284 13851203 13676497 13524250 13400771 
1851.922 13301135 13215561 13134566 13053351 12970977 12888130 12803250 
1855.297 12710213 12599277 12463064 12300752 12122212 11947678 11800641 
1858.672 11702849 11666075 11689042 11758356 11853860 11952549 12036276 
1862.047 12089803 12105210 12077330 12004754 11889212 11736522 11558270 
1865.423 11370813 11193585 11046642 10945917 10901587 10914500 10977864 
1868.798 11076352 11189718 11292793 11360992 11374857 11323973 11211254 
1872.173 11053973 10880041 10722909 10612518 10570080 10601305 10698950 
1875.548 10844516 11015696 11189076 11345238 11467251 11542452 11561512 
1878.924 11520092 11423586 11287569 11137169 11004716 10918650 10896362 
1882.299 10937519 11023778 11120271 11189933 11201782 11142928 11017825 
1885.674 10849623 10670036 10510659 10392199 10321827 10290951 10280147 
1889.049 10265406 10227012 10153094 10044141 9911937 9776453 9659822 9582605 
1892.907 9558206 9592882 9682875 9816877 9976891 10140323 10281162 10375773 
1896.764 10403741 10355650 10236423 10065136 9871705 9690063 9547398 9457479 
1900.622 9415735 9407039 9411528 9418695 9431476 9467603 9548091 9685302 
1904.479 9869729 10068983 10232909 10311455 10272492 10114927 9867965 
1907.854 9582262 9308728 9083419 8915606 8792440 8691936 8599837 8518642 
1911.712 8472157 8490040 8595071 8785749 9032135 9280577 9474033 9570511 
1915.569 9558796 9461606 9327454 9212587 9161009 9188757 9280791 9397184 
1919.427 9488307 9510378 9441784 9286982 9074146 8843558 8637889 8486998 
1923.284 8403835 8382635 8406695 8455892 8512975 8567061 8610535 8631459 
1927.141 8613749 8533894 8375797 8138089 7850653 7567428 7360601 7290107 
1930.999 7382157 7604374 7874831 8080149 8117213 7931425 7544102 7048115 
1934.856 6581895 6280360 6234431 6459447 6895848 7432150 7950976 8358486 
1938.714 8617512 8740528 8784132 8815417 8897531 9067970 9337910 9684483 
1942.571 10063737 10405868 10634571 10677326 10490912 10073096 9481347 
1945.946 8819228 8217991 7790628 7604709 7653806 7866065 8128027 8331754 
1949.804 8403494 8331829 8153429 7933408 7729323 7567345 7434360 7292912 
1953.661 7096322 6819072 6456680 6034239 5585321 5144310 4730494 4350630 
1957.519 3995707 3654180 3309038 2958396 2618992 2339852 2202554 2323934 
1961.376 2814997 3751275 5111017 6757975 8436978 9832364 10644481 10694883 
1965.233 9976689 8678771 7119128 5652676 4553643 3941315 3758282 3825242 
1969.091 3929860 3931411 3804187 3652659 3636173 3893199 4459778 5249295 
1972.948 6073498 6725826 7055199 7047556 6829880 6644011 6757134 7382428 
1976.806 8586744 10267449 12159599 13927327 15248444 15912239 15851704 
1980.181 15148538 13973046 12541866 11054582 9670491 8489006 7550801 6848566 
1984.038 6347856 5995627 5738373 5515498 5279529 4990021 4631370 4225446 
1987.896 3837444 3561021 3507761 3759867 4354801 5254308 6359619 7527835 
1991.753 8618740 9519320 10173789 10566169 10714039 10633753 10330759 
1995.128 9789092 8993990 7942899 6673233 5254821 3793372 2406036 1205159 
1998.986 280070 -303425 -516897 -362074 113769 827293 1653713 2457366 
2002.843 3119619 3583990 3872960 4099112 4411212 4949521 5771080 6809161 
2006.701 7873262 8717410 9122454 8983394 8332695 7334107 6196292 5108251 
2010.558 4170630 3397900 2740202 2150445 1617183 1197185 980192 1045962 
2014.416 1420430 2052824 2829660 3633915 4380273 5057588 5708368 6396103 
2018.273 7144232 7906448 8556454 8938617 8914243 8436032 7563434 6450029 
2022.130 5279068 4207417 3296410 2514532 1749172 883256 -166377 -1386068 
2025.988 -2681681 -3890247 -4847041 -5430407 -5610708 -5454363 -5108396 
2029.363 -4757647 -4573000 -4658737 -5029426 -5597242 -6202730 -6645113 
2032.738 -6746015 -6391285 -5567527 -4356927 -2917145 -1424779 -38240 
2036.114 1149410 2108004 2861342 3452533 3924000 4295419 4573113 4744698 
2039.971 4810580 4776371 4658464 4463357 4187241 3805260 3287518 2610525 
2043.828 1789868 890592 27438 -652538 -990200 -859857 -185312 1027452 
2047.686 2692418 4642023 6650575 8469934 9880261 10728404 10965791 10648510 
2051.543 9926401 9004179 8103410 7407160 7026651 6967120 7139660 7379243 
2055.401 7509939 7399740 7001872 6362024 5596801 4849152 4243126 3848545 
2059.258 3676924 3689297 3827666 4039779 4303367 4618925 5003169 5463938 
2063.115 5990459 6539917 7049783 7447046 7671102 7682143 7478562 7086794 
2066.973 6564963 5985819 5428493 4959386 4624585 4440571 4396258 4458219 
2070.830 4588208 4754150 4945806 5173498 5464504 5844782 6326481 6891618 
2074.688 7495838 8073895 8558438 8895623 9060299 9054269 8907590 8664027 
2078.545 8374538 8085913 7838527 7663445 7582915 7605393 7729355 7934873 
2082.403 8195393 8477979 8753254 9000290 9209201 9377495 9506659 9591195 
2086.260 9620589 9576555 9442145 9203920 8862518 8428745 7923823 7372045 
2090.117 6801091 6238534 5715319 5264512 4923199 4722763 4682934 4798989 
2093.975 5039004 5344874 5645819 5877051 5999535 6009445 5942084 5855394 
2097.832 5815537 5873549 6052195 6341402 6699652 7065427 7373556 7565676 
2101.690 7607293 7494917 7255815 6946800 6642031 6416832 6331374 6414295 
2105.547 6658519 7020199 7434533 7827346 8138851 8332609 8403888 8371679 
2109.405 8274713 8151194 8033841 7937048 7860822 7789438 7705322 7594352 
2113.262 7459133 7319777 7215043 7187949 7277245 7493931 7816122 8178332 
2117.119 8487964 8646121 8575764 8245772 7687678 6984673 6253102 5604339 
2120.977 5115850 4807838 4645833 4556710 4463244 4309875 4085282 3817175 
2124.834 3562241 3372350 3274932 3252910 3249616 3181253 2963344 2533669 
2128.692 1872804 1010183 19898 -998963 -1937636 -2704509 -3236978 -3521916 
2132.549 -3589227 -3510696 -3381413 -3300737 -3347850 -3569679 -3972277 
2135.924 -4531023 -5195556 -5910076 -6618041 -7267388 -7810357 -8207866 
2139.300 -8426924 -8460579 -8327206 -8083297 -7813465 -7615223 -7571741 
2142.675 -7732714 -8092330 -8597506 -9153361 -9650272 -9987056 -10092118 
2146.050 -9931820 -9520773 -8916744 -8230521 -7606310 -7220384 -7243199 
2149.425 -7809406 -8968760 -10663039 -12714383 -14860174 -16808702 -18321520 
2152.801 -19280840 -19728690 -19857888 -19958408 -20321100 -21146924 
2155.694 -22465654 -24111874 -25744972 -26930170 -27246768 -26428634 
2158.587 -24449924 -21566828 -18218188 -14887439 -11944968 -9559273 -7695741 
2161.962 -6193278 -4848475 -3509635 -2119867 -732361 519184 1467019 1973123 
2165.819 1973994 1496539 643318 -429376 -1553529 -2581777 -3412855 -3993908 
2169.677 -4328596 -4462746 -4480200 -4477902 -4547066 -4750739 -5099160 
2173.052 -5536797 -5963836 -6246340 -6282866 -6032752 -5550464 -4972051 
2176.427 -4480013 -4235254 -4321869 -4712130 -5286946 -5867407 -6283528 
2179.802 -6418926 -6247557 -5812352 -5197805 -4482728 -3711630 -2889958 
2183.178 -2014735 -1105869 -233711 493408 947504 1039267 746244 134395 
2187.035 -666193 -1499532 -2230176 -2773202 -3106688 -3242284 -3209517 
2190.410 -3020848 -2666888 -2133071 -1421876 -576419 310133 1115250 1710651 
2194.268 2011650 1993365 1707990 1264341 799075 437950 272372 340096 632946 
2198.607 1104893 1694203 2337026 2982098 3592320 4151268 4647678 5076641 
2202.465 5423493 5659966 5744268 5632549 5289501 4714193 3945188 3068608 
2206.322 2200434 1459416 937722 684620 695166 927495 1318951 1813055 2371786 
2210.662 2973479 3599341 4223970 4798525 5266858 5580069 5720568 5715466 
2214.519 5637371 5574302 5603941 5755381 6000456 6258342 6430017 6431415 
2218.377 6226397 5837150 5339119 4829672 4405625 4131873 4042306 4135959 
2222.234 4394215 4788155 5287442 5857542 6460719 7049608 7579069 8010526 
2226.092 8323992 8517195 8604277 8601076 8521463 8364659 8126112 7804935 
2229.949 7417239 6998791 6603411 6284144 6079134 5994783 6010371 6085456 
2233.806 6181881 6280816 6395304 6558991 6815865 7191142 7680853 8240835 
2237.664 8803776 9295257 9660959 9880132 9974388 9991908 9993384 10029292 
2241.521 10125026 10272753 10440769 10582738 10656849 10636217 10517322 
2244.896 10317804 10068031 9800700 9543700 9312361 9111565 8941540 8806571 
2248.754 8716820 8691470 8749812 8905611 9151744 9464768 9799575 10108474 
2252.611 10352205 10513320 10601461 10646234 10685891 10749436 10842933 
2255.987 10949024 11032338 11055190 10989779 10829939 10589347 10298493 
2259.362 9991794 9703740 9464568 9300589 9239270 9305918 9516085 9870782 
2263.219 10343435 10880897 11407721 11845052 12129270 12231107 12157616 
2266.594 11954485 11679860 11394096 11138541 10933408 10779453 10671141 
2269.970 10604226 10584351 10621052 10724335 10892818 11113862 11364144 
2273.345 11619244 11862696 12093799 12326275 12579592 12870584 13202902 
2276.720 13561622 13916567 14231516 14473469 14620263 14668114 14627523 
2280.095 14522442 14383211 14244937 14143275 14113133 14181858 14365799 
2283.471 14662948 15047657 15471728 15872769 16185701 16360415 16373800 
2286.846 16236687 15992710 15705332 15440250 15248509 15152985 15144238 
2290.221 15187261 15233922 15240289 15178656 15045606 14859312 14649767 
2293.596 14450049 14280894 14149099 14046413 13957421 13868402 13774104 
2296.972 13682016 13608954 13572834 13587184 13651574 13751986 13862493 
2300.347 13954739 14004978 14002576 13952069 13871998 13789344 13733432 
2303.722 13726169 13779352 13891014 14047577 14227320 14405385 14561452 
2307.097 14682004 14764753 14817276 14853285 14888611 14934978 14997214 
2310.473 15072612 15152788 15227867 15289919 15335892 15366634 15384705 
2313.848 15391646 15388236 15375010 15355468 15340281 15346667 15395925 
2317.223 15506328 15686279 15929852 16219093 16531190 16848430 17166994 
2320.598 17497056 17855454 18250076 18665784 19054696 19342626 19445752 
2323.974 19294378 18857070 18151118 17241662 16225673 15209979 14288322 
2327.349 13522241 12934680 12512548 12221924 12024116 11889682 11804889 
2330.724 11767644 11779610 11837463 11927395 12027225 12112087 12163338 
2334.099 12172663 12142767 12083969 12006984 11918928 11821526 11714534 
2337.475 11598188 11477028 11360452 11257635 11176569 11118285 11078951 
2340.850 11052535 11035364 11028224 11038889 11076159 11145310 11244017 
2344.225 11359736 11473707 11565892 11622350 11639128 11621624 11582008 
2347.600 11532468 11480940 11429159 11374208 11312388 11243071 11169317 
2350.976 11099476 11041740 11002017 10981821 10977216 10981829 10987470 
2354.351 10987118 10974699 10944843 10894699 10823395 10734861 10637854 
2357.726 10546895 10478163 10443594 10448571 10485698 10537453 10580775 
2361.101 10593687 10562489 10485577 10371240 10234882 10090105 9944815 
2364.477 9800672 9655542 9506890 9359072 9221972 9110942 9039761 9016433 
2368.334 9038377 9093820 9165366 9236788 9295642 9338116 9365781 9383464 
2372.191 9396002 9406241 9415928 9426969 9443887 9473277 9522217 9594773 
2376.049 9689454 9798010 9906623 9999937 10065770 10098608 10101052 10083993 
2379.906 10062388 10053436 10070289 10121249 10205861 10315387 10434138 
2383.281 10542580 10622986 10663046 10662089 10629193 10582869 10542916 
2386.657 10524038 10529759 10551065 10569103 10563641 10521715 10443464 
2390.032 10343990 10248087 10181272 10161482 10191541 10259317 10343379 
2393.407 10420431 10474365 10499955 10504073 10501458 10509185 10541135 
2396.782 10606951 10708989 10845593 11010936 11195811 11386980 11566682 
2400.158 11714637 11811752 11844457 11810862 11720590 11594632 11461232 
2403.533 11345183 11264929 11227084 11227000 11253984 11296689 11348925 
2406.908 11412389 11494669 11606029 11752868 11932722 12132945 12331993 
2410.283 12503517 12623235 12674113 12650039 12557118 12407949 12219993 
2413.659 12008051 11782318 11548857 11310664 11072996 10846692 10648818 
2417.034 10500724 10421434 10421813 10499482 10637418 10807417 10975081 
2420.409 11110741 11193451 11215302 11180068 11099315 10988201 10859692 
2423.784 10725387 10593074 10470543 10363152 10276018 10211256 10167905 
2427.160 10139965 10119322 10098913 10074597 10047023 10021792 10006142 
2430.535 10006340 10024750 10059595 10104624 10152194 10195063 10228832 
2433.910 10252031 10267255 10279797 10297230 10328853 10383720 10467554 
2437.285 10579078 10708442 10835097 10932345 10973865 10939689 10825781 
2440.661 10644122 10423217 10199904 10010688 9884002 9834809 9864533 9963746 
2444.518 10115743 10301441 10499515 10685834 10836637 10927968 10941265 
2447.893 10869428 10719473 10515072 10291617 10088527 9940295 9869060 
2451.269 9879447 9961822 10095255 10254270 10414766 10556218 10662920 
2454.644 10725559 10739415 10705034 10629546 10524934 10405411 10286677 
2458.019 10179502 10088826 10014564 9954098 9905211 9869304 9852066 9858357 
2461.876 9889677 9939292 9993044 10032237 10038568 10004763 9934681 9844460 
2465.734 9758251 9699223 9684212 9718771 9797071 9906272 10032867 10164972 
2469.591 10294753 10417157 10525651 10611547 10660922 10657461 10586072 
2472.967 10439118 10217918 9937686 9625490 9317480 9052115 8861563 8766835 
2476.824 8769784 8852506 8980960 9115194 9220420 9278634 9295937 9300893 
2480.681 9335035 9437271 9629563 9904378 10227028 10544502 10802926 10966306 
2484.539 11028229 11013982 10970530 10949777 10990015 11103364 11271309 
2487.914 11453260 11600472 11671652 11646903 11529754 11346533 11134509 
2491.289 10930945 10761865 10638021 10553508 10492491 10436372 10371810 
2494.665 10295542 10214744 10144438 10099648 10090915 10117247 10166057 
2498.040 10219905 10258394 10269570 10255416 10229047 10215215 10236256 
2501.415 10307837 10430336 10587636 10753395 10897708 10997681 11041625 
2504.790 11032097 10980895 10901830 10804961 10692718 10561232 10404128 
2508.166 10219636 10016064 9811364 9633129 9509386 9461874 9500785 9619629 
2512.023 9797565 10005757 10211548 10391222 10531047 10629972 10699323 
2515.398 10754146 10808062 10867815 10929863 10983262 11013341 11009466 
2518.773 10967994 10897253 10812407 10731670 10670723 10635904 10625874 
2522.149 10630859 10640909 10647415 10647678 10642704 10635783 10627256 
2525.524 10613569 10588047 10545443 10485325 10415468 10350404 10307137 
2528.899 10298109 10326042 10381148 10446008 10500315 10529496 10529808 
2532.274 10508689 10481207 10462102 10460621 10476003 10499446 10520524 
2535.650 10532449 10538694 10551727 10590566 10670338 10797613 10964112 
2539.025 11147182 11317599 11444059 11505087 11492640 11415523 11295669 
2542.400 11163192 11049058 10978385 10965312 11010812 11102405 11215676 
2545.775 11321246 11389788 11400130 11343284 11226727 11072529 10911900 
2549.151 10776307 10691428 10670073 10711340 10803066 10929237 11075712 
2552.526 11234046 11400838 11576097 11756406 11933048 12090441 12210933 
2555.901 12279252 12289874 12247823 12168151 12070632 11972743 11884679 
2559.276 11808414 11742841 11685730 11640005 11614500 11619430 11661763 
2562.652 11738006 11831705 11916946 11966329 11961022 11898072 11793436 
2566.027 11678203 11587683 11550330 11579831 11670987 11802779 11946332 
2569.402 12074639 12169350 12224495 12244874 12243208 12234908 12234530 
2572.777 12254231 12302386 12384100 12499400 12642963 12804031 12965874 
2576.153 13108971 13215598 13274233 13280431 13240650 13168348 13080982 
2579.528 12994630 12922774 12873125 12848803 12848520 12869352 12906373 
2582.903 12954148 13006007 13053990 13090904 13110328 13109656 13088436 
2586.278 13052646 13011035 12975390 12959162 12974068 13026807 13118193 
2589.654 13240435 13376716 13506465 13607682 13664099 13671248 13636578 
2593.029 13579812 13525111 13494660 13500388 13541616 13605581 13674529 
2596.404 13733323 13776284 13809416 13846836 13904224 13991713 14105487 
2599.779 14231349 14347589 14433418 14477732 14481029 14456640 14423772 
2603.155 14398403 14390235 14397183 14409463 14414492 14402470 14370504 
2606.530 14324274 14274002 14232376 14211118 14217770 14256727 14328700 
2609.905 14431624 14559471 14701573 14842871 14964678 15049355 15086874 
2613.280 15075618 15027503 14963046 14905938 14876382 14882724 14922179 
2616.656 14980972 15042072 15091249 15123212 15141209 15154988 15173960 
2620.031 15202883 15238852 15271667 15290499 15289084 15269002 15241951 
2623.406 15224842 15235925 15286221 15377265 15499997 15637074 15768398 
2626.781 15876302 15949570 15984280 15984386 15957644 15914990 15866669 
2630.156 15821332 15785614 15764201 15759664 15772276 15800459 15841829 
2633.532 15891800 15944527 15994092 16034383 16061224 16071161 16065506 
2636.907 16048774 16029647 16017953 16024427 16055815 16113287 16191896 
2640.282 16281003 16366336 16435547 16479924 16497053 16491977 16473044 
2643.657 16449926 16430441 16416375 16404785 16388927 16361145 16315030 
2647.033 16249156 16167155 16077301 15991069 15919227 15869258 15843572 
2650.408 15838353 15844619 15849637 15842367 15813706 15762493 15692640 
2653.783 15614294 15538957 15477861 15436805 15415266 15407539 15403021 
2657.158 15389936 15359533 15306543 15231931 15140516 15040596 14940913 
2660.534 14848973 14769684 14703856 14649354 14600281 14548873 14487524 
2663.909 14409177 14311235 14193777 14062524 13926053 13794465 13678313 
2667.284 13584840 13517809 13475890 13452831 13439695 13426461 13404006 
2670.659 13366596 13313236 13248577 13181747 13123853 13085378 13071882 
2674.035 13081768 13106080 13129598 13136268 13114515 13060199 12980036 
2677.410 12889445 12808427 12755017 12739993 12763289 12815316 12879578 
2680.785 12938833 12980056 12997756 12994161 12977263 12957120 12942996 
2684.160 12940106 12950434 12972373 13002954 13038496 13074592 13107099 
2687.536 13130520 13140352 13132892 13106866 13065062 13013689 12960950 
2690.911 12915675 12883819 12868000 12865164 12869272 12872119 12867746 
2694.286 12851817 12825320 12790964 12754514 12720673 12692328 12670477 
2697.661 12653409 12638590 12624670 12611832 12602149 12599336 12606470 
2701.037 12625726 12656753 12696477 12740559 12783571 12821440 12851532 
2704.412 12873391 12887646 12895743 12899128 12899072 12894930 12886166 
2707.787 12871225 12848298 12816380 12774379 12722922 12664285 12602718 
2711.162 12544041 12494150 12458137 12439282 12436950 12448339 12468633 
2714.538 12492935 12518430 12544476 12571351 12600509 12631131 12660040 
2717.913 12683037 12694847 12692273 12676672 12653234 12630699 12619906 
2721.288 12629435 12664667 12725805 12807120 12899686 12990560 13067871 
2724.663 13120024 13138870 13121287 13070366 12994220 12906542 12823313 
2728.039 12759247 12724405 12722266 12749560 12797892 12857033 12918026 
2731.414 12976666 13033221 13090899 13153266 13223262 13298226 13373679 
2734.789 13442019 13496449 13530367 13540729 13527614 13493402 13442110 
2738.164 13378969 13309385 13238860 13172172 13112347 13060765 13016971 
2741.540 12980140 12948350 12921416 12899065 12883049 12874559 12874067 
2744.915 12881384 12894955 12913040 12935082 12959803 12985909 13011014 
2748.290 13031157 13042188 13041346 13029909 13014783 13008037 13023217 
2751.665 13071770 13156200 13268606 13391488 13500767 13574743 13599551 
2755.041 13574234 13510223 13427720 13349073 13291372 13262935 13261375 
2758.416 13277183 13297712 13310853 13309572 13292478 13261965 13223487 
2761.791 13182500 13144365 13112328 13088329 13073393 13066880 13066935 
2765.166 13071159 13075848 13078869 13077071 13069526 13055394 13035419 
2768.542 13010242 12981442 12951238 12922786 12899986 12886453 12884706 
2771.917 12896230 12919455 12950677 12985993 13021233 13054530 13085144 
2775.292 13115213 13147986 13186815 13234589 13293543 13363688 13443911 
2778.667 13529938 13615815 13692689 13751989 13784657 13787140 13759237 
2782.042 13707828 13642980 13578109 13523944 13488512 13474335 13479560 
2785.418 13500373 13531925 13570210 13611588 13654009 13693739 13726846 
2788.793 13749874 13760475 13760049 13752984 13746475 13748853 13766288 
2792.168 13801601 13852744 13913919 13977931 14038872 14093747 14142745 
2795.543 14189603 14240037 14299025 14370786 14455706 14550885 14650421 
2798.919 14746432 14829807 14892370 14928651 14936952 14920827 14888059 
2802.294 14848894 14815069 14797498 14803712 14837011 14896096 14975714 
2805.669 15067128 15161121 15247902 15320872 15376349 15416396 15445995 
2809.044 15472869 15504277 15544469 15593348 15646491 15696350 15735658 
2812.420 15760068 15769942 15770005 15768362 15772952 15790487 15824374 
2815.795 15876703 15947670 16038146 16148331 16276915 16418992 16564919 
2819.170 16702296 16818044 16902768 16954456 16979530 16991912 17005814 
2822.545 17033752 17080384 17141834 17208996 17271346 17321852 17361168 
2825.921 17395756 17436242 17492418 17568380 17663188 17769254 17877078 
2829.296 17977048 18062410 18129722 18177358 18205300 18212876 18202264 
2832.671 18176310 18141682 18108946 18089822 18095570 18132962 18201836 
2836.046 18296480 18405950 18518426 18623692 18716210 18795300 18865060 
2839.422 18931794 19002368 19083102 19177732 19289320 19417984 19562392 
2842.797 19720738 19889884 20067530 20252066 20444350 20647754 20866794 
2846.172 21106946 21369970 21655502 21957038 22264034 22563420 22842114 
2849.547 23089508 23300364 23474082 23615336 23731710 23831758 23923750 
2852.923 24013952 24107072 24206596 24316004 24438468 24577978 24736940 
2856.298 24916928 25117290 25333780 25558790 25784012 26000638 26201024 
2859.673 26381958 26544488 26692758 26834016 26976410 27126420 27287738 
2863.048 27460776 27645528 27840172 28045970 28268082 28515084 28797384 
2866.424 29126120 29508538 29945014 30429984 30951440 31495218 32048676 
2869.799 32604314 33162930 33731444 34319676 34936252 35582316 36249316 
2873.174 36919916 37570292 38176356 38719236 39189700 39588200 39922608 
2876.549 40204168 40441568 40638512 40793188 40901808 40959624 40967660 
2879.925 40932524 40864728 40776504 40676816 40567628 40444616 40298876 
2883.300 40122028 39910436 39669016 39411676 39157864 38928172 38738996 
2886.675 38597308 38502644 38446432 38417032 38405784 38407852 38424720 
2890.050 38460560 38519708 38603380 38707124 38822080 38937388 39044524 
2893.426 39139056 39224904 39310488 39407792 39526800 39672200 39841136 
2896.801 40022232 40199752 40356124 40476276 40552340 40583288 40577244 
2900.176 40546376 40506864 40471820 40452132 40451416 40468656 40498220 
2903.551 40533364 40567512 40598404 40626312 40655220 40689616 40734252 
2906.927 40791044 40860892 40942204 41035300 41142056 41267884 41418568 
2910.302 41600696 41817112 42067228 42343308 42636304 42933648 43227768 
2913.677 43512744 43789584 44061272 44334496 44613280 44901008 45198612 
2917.052 45505796 45821064 46143620 46472992 46807560 47144640 47479296 
2920.427 47806408 48120740 48421364 48711904 49001688 49303800 49631172 
2923.803 49994696 50397644 50837460 51304100 51786316 52274608 52763660 
2927.178 53257284 53765120 54299952 54874264 55497680 56172828 56897672 
2930.553 57666748 58474340 59318208 60199672 61125952 62105732 63149996 
2933.928 64268528 65468840 66757336 68140176 69621504 71206232 72895528 
2937.304 74686424 76569272 78527216 80538048 82576248 84616336 86637592 
2940.679 88622264 90555688 92422472 94202264 95868840 97388464 98724592 
2944.054 99844400 100723032 101351024 101734240 101891144 101850320 
2946.947 101642120 101295304 100833624 100274856 99634944 98928136 98168208 
2950.323 97369368 96543144 95698040 94838064 93965232 93082856 92196912 
2953.698 91319176 90466056 89653432 88893648 88189456 87533752 86911736 
2957.073 86305968 85701232 85091880 84479800 83874952 83289536 82732344 
2960.448 82207000 81710152 81233512 80767136 80303480 79836744 79362376 
2963.823 78875216 78368248 77830632 77253864 76629504 75955848 75236792 
2967.199 74483008 73708208 72927480 72155736 71405296 70686568 70008120 
2970.574 69374672 68787640 68242440 67729128 67234968 66747888 66259384 
2973.949 65769792 65286836 64823620 64393052 64005896 63664636 63367896 
2977.324 63111528 62895096 62724308 62612852 62576256 62630744 62784112 
2980.700 63036756 63378736 63795628 64273088 64801172 65377436 66006860 
2984.075 66699452 67468032 68324360 69279056 70339184 71506736 72777208 
2987.450 74138824 75571112 77046496 78532208 79995728 81409464 82751656 
2990.825 84006744 85164672 86216032 87149408 87949816 88601144 89087288 
2994.201 89395616 89519288 89458328 89216624 88803160 88227632 87501800 
2997.576 86639840 85656400 84567600 83389648 82137368 80822224 79452528 
3000.951 78034048 76571528 75070488 73537032 71978936 70403856 68817592 
3004.326 67224192 65627216 64029188 62435348 60851412 59287668 57750944 
3007.702 56249248 54785408 53360332 51972164 50618216 49297760 48012284 
3011.077 46764256 45558356 44398428 43286196 42222096 41203868 40227088 
3014.452 39287380 38379520 37499352 36643144 35808992 34995544 34203996 
3017.827 33434418 32687306 31962622 31258602 30574500 29909276 29263526 
3021.203 28639674 28040274 27468352 26924204 26407396 25915968 25448680 
3024.578 25005508 24589002 24202316 23847974 23524860 23227652 22945620 
3027.953 22669590 22389642 22104362 21819668 21546472 21299678 21091420 
3031.328 20925882 20799606 20699218 20607382 20507252 20387194 20242200 
3034.704 20076242 19897904 19718102 19545104 19384640 19235778 19096178 
3038.079 18960736 18826794 18692930 18561176 18436748 18324860 18230408 
3041.454 18158106 18108770 18082312 18077104 18088348 18109926 18134166 
3044.829 18152276 18156278 18140838 18106774 18060724 18015578 17988032 
3048.205 17994152 18043280 18135338 18260310 18399270 18530600 18634812 
3051.580 18699796 18721416 18704474 18658082 18592800 18518782 18443608 
3054.955 18373552 18315072 18274436 18255352 18259152 18281650 18314938 
3058.330 18346896 18367054 18368406 18351464 18321974 18290622 18267902 
3061.706 18261728 18273860 18301636 18338986 18377172 18408782 18426708 
3065.081 18426314 18405114 18362898 18303670 18234126 18164254 18103430 
3068.456 18061552 18042230 18044960 18066252 18100230 18141746 18186166 
3071.831 18229262 18266382 18289892 18292038 18266102 18211454 18135622 
3075.207 18055946 17993706 17967810 17987364 18048464 18134078 18220346 
3078.582 18283692 18310546 18298624 18257214 18200268 18138756 18077226 
3081.957 18013298 17939108 17849680 17745634 17634420 17526698 17432414 
3085.332 17354672 17289858 17228858 17164112 17091476 17015296 16944798 
3088.708 16890340 16857218 16843780 16840710 16835146 16816822 16782000 
3092.083 16733585 16681727 16637428 16609825 16602866 16614899 16641576 
3095.458 16675420 16708553 16734006 16742328 16725501 16674692 16586766 
3098.833 16464721 16321141 16175864 16052179 15971297 15945915 15975120 
3102.208 16045105 16130721 16202945 16235020 16209124 16119722 15975326 
3105.584 15793215 15599205 15419318 15276051 15183771 15148430 15166715 
3108.959 15228235 15318017 15418980 15514666 15591411 15638875 15649227 
3112.334 15621818 15559761 15472336 15371635 15272163 15186235 15122827 
3115.709 15084354 15068731 15070646 15084048 15104971 15129874 15156663 
3119.085 15181474 15198038 15198397 15177328 15135127 15080156 15029039 
3122.460 15001023 15012759 15072104 15172914 15298892 15425542 15532659 
3125.835 15605454 15641494 15647471 15636573 15620745 15609417 15607104 
3129.210 15615382 15632788 15657123 15684087 15706019 15709806 15681570 
3132.586 15609233 15487949 15324849 15139565 14956976 14802497 14691779 
3135.961 14628292 14600923 14593817 14589544 14580755 14568700 14563268 
3139.336 14576541 14615371 14678089 14755760 14833149 14896775 14937266 
3142.711 14951981 14943641 14917712 14879559 14835181 14787947 14743648 
3146.087 14707132 14682306 14670009 14666040 14661433 14646702 14614042 
3149.462 14564073 14503123 14445845 14407121 14399093 14425250 14481501 
3152.837 14557720 14643577 14730313 14814962 14897003 14978437 15056939 
3156.212 15127754 15181457 15208526 15201541 15157731 15080055 14977911 
3159.588 14862305 14747204 14645305 14568048 14523054 14513622 14537226 
3162.963 14587314 14651298 14717313 14773707 14816026 14843725 14862846 
3166.338 14879744 14900886 14926708 14956565 14984947 15008137 15022945 
3169.713 15030541 15030383 15022899 15005959 14977538 14936044 14884866 
3173.089 14832078 14790121 14770470 14780795 14819722 14877593 14937505 
3176.464 14983817 15004715 14997626 14967968 14928938 14892448 14869365 
3179.839 14864380 14877283 14905001 14943804 14989333 15036692 15079904 
3183.214 15112579 15127024 15118541 15086271 15035424 14976032 14918754 
3186.590 14871494 14837136 14812479 14791662 14768378 14742418 14716773 
3189.965 14701692 14705196 14734880 14789259 14862362 14944255 15025644 
3193.340 15102034 15173101 15242588 15314987 15391157 15467461 15535973 
3196.715 15586944 15612969 15611038 15582425 15533225 15469437 15396838 
3200.091 15317469 15233152 15143448 15052547 14965270 14890624 14836555 
3203.466 14811005 14816023 14849801 14906450 14978467 15058454 15141691 
3206.841 15225388 15308575 15390289 15469018 15539606 15598069 15639450 
3210.216 15662991 15672119 15675440 15683282 15706947 15751716 15816852 
3213.592 15891053 15957525 15996115 15990432 15931195 15822686 15679132 
3216.967 15524659 15385250 15284615 15236991 15247147 15308307 15405513 
3220.342 15520235 15633486 15727567 15791453 15817137 15803091 15751887 
3223.717 15672261 15575225 15475898 15388108 15325687 15295990 15302385 
3227.093 15341314 15404151 15479336 15553572 15614204 15650293 15653389 
3230.468 15619790 15550465 15453303 15342044 15236066 15155723 15119432 
3233.843 15136959 15207241 15316228 15441186 15555352 15636167 15669836 
3237.218 15657743 15612890 15556960 15512409 15497031 15516917 15567421 
3240.594 15632814 15694534 15734229 15741022 15711643 15652265 15574945 
3243.969 15494998 15427961 15385256 15374606 15397003 15447355 15516753 
3247.344 15593140 15664438 15721284 15760519 15784957 15804175 15828626 
3250.719 15866699 15919056 15976656 16021201 16030880 15986051 15879294 
3254.094 15718652 15527567 15340810 15194142 15114943 15114453 15186059 
3257.470 15310058 15458874 15608951 15744563 15861118 15960021 16044317 
3260.845 16111597 16153762 16157024 16110765 16012119 15872892 15715921 
3264.220 15571713 15467614 15421666 15435318 15496565 15583324 15673839 
3267.595 15752120 15813017 15858939 15896982 15933944 15970696 16004391 
3270.971 16031194 16046820 16054995 16062077 16079467 16114306 16169118 
3274.346 16237119 16306784 16362093 16390745 16386347 16351417 16294405 
3277.721 16230896 16175061 16141182 16138392 16171208 16238326 16332956 
3281.096 16444443 16558057 16657965 16729845 16761798 16749179 16691860 
3284.472 16596988 16475555 16340666 16205857 16083246 15981754 15907221 
3287.847 15860867 15841272 15842160 15856056 15875902 15897738 15919914 
3291.222 15945733 15978290 16020117 16070671 16124668 16173158 16208202 
3294.597 16223490 16219569 16201183 16178261 16159533 16153278 16163925 
3297.973 16192369 16238172 16302122 16384445 16485266 16601503 16725080 
3301.348 16842174 16935732 16988798 16989510 16933406 16825122 16675062 
3304.723 16497724 16306184 16111951 15921894 15743000 15582792 15450582 
3308.098 15357891 15316809 15336882 15422682 15570815 15770014 15999358 
3311.474 16232802 16440261 16593967 16672000 16664986 16577112 16427681 
3314.849 16245456 16064536 15913017 15809685 15758766 15752722 15775906 
3318.224 15811097 15844414 15869062 15884155 15891135 15892329 15888406 
3321.599 15879365 15866201 15852701 15845982 15853180 15880758 15927717 
3324.975 15988728 16051430 16103899 16135655 16145239 16135652 16116805 
3328.350 16096616 16081437 16070940 16059771 16041679 16011195 15967423 
3331.725 15914936 15860200 15812930 15779939 15766924 15776685 15810801 
3335.100 15869614 15953025 16057702 16176835 16297575 16403040 16474536 
3338.476 16497053 16464636 16383087 16270971 16156029 16067481 16028382 
3341.851 16047038 16114410 16207337 16295366 16351942 16365955 16344555 
3345.226 16312612 16302856 16341420 16436961 16572803 16712174 16807832 
3348.601 16820690 16732192 16554659 16326247 16100274 15927590 15839960 
3351.977 15843477 15917508 16024923 16127322 16196044 16221184 16210703 
3355.352 16183695 16162748 16162934 16189883 16235963 16286330 16322199 
3358.727 16326230 16288394 16207326 16091231 15955640 15820809 15708014 
3362.102 15630327 15593605 15590323 15604611 15616310 15608972 15574475 
3365.478 15518102 15455970 15410503 15402904 15447165 15545684 15689697 
3368.853 15860843 16037136 16195437 16316308 16387308 16404109 16370645 
3372.228 16301809 16217927 16142387 16094403 16083933 16106805 16147885 
3375.603 16183779 16192649 16162496 16095687 16005894 15915627 15844349 
3378.979 15802927 15788998 15791478 15795203 15789757 15772868 15752127 
3382.354 15738742 15743820 15770309 15814485 15864797 15910020 15942559 
3385.729 15962407 15976703 15996672 16033212 16092796 16176917 16280927 
3389.104 16396331 16512455 16617374 16700633 16753230 16769253 16747652 
3392.479 16693305 16616436 16530905 16449220 16381960 16332196 16297096 
3395.855 16268125 16234370 16185584 16114937 16020034 15905419 15780423 
3399.230 15660981 15564734 15510133 15511080 15573177 15691111 15847705 
3402.605 16018152 16177379 16303713 16387902 16431967 16446501 16445978 
3405.980 16442372 16441505 16443374 16445475 16446317 16449669 16464332 
3409.356 16500585 16567577 16668418 16800150 16953538 17117844 17282100 
3412.731 17436012 17571324 17681282 17758876 17800882 17808782 17790908 
3416.106 17761576 17737848 17731874 17749046 17783064 17821568 17848386 
3419.481 17855946 17843786 17822790 17806832 17805328 17816214 17827562 
3422.857 17817332 17768072 17671622 17536460 17384856 17245968 17145516 
3426.232 17096486 17096824 17132886 17184810 17236978 17282154 17322170 
3429.607 17363806 17414884 17478740 17552856 17631940 17710130 17784662 
3432.982 17856454 17929080 18005866 18086252 18165282 18232468 18275476 
3436.358 18280806 18238646 18145408 18005226 17831820 17648466 17484336 
3439.733 17368260 17320532 17348448 17439120 17563162 17682176 17758752 
3443.108 17769088 17708540 17592784 17452184 17317674 17214316 17151936 
3446.483 17128346 17130514 17147582 17170318 17199646 17238578 17290354 
3449.859 17351740 17413262 17460690 17479556 17461636 17407028 17323356 
3453.234 17223234 17120078 17024770 16944842 16887468 16857638 16862190 
3456.609 16905538 16987828 17101424 17232678 17360614 17465062 17529884 
3459.984 17548102 17522362 17463896 17388014 17311420 17248268 17209122 
3463.360 17201540 17230982 17298166 17401602 17533066 17678986 17821704 
3466.735 17944250 18033822 18084932 18103262 18101942 18097830 18107208 
3470.110 18139046 18195102 18268636 18347896 18421124 18480402 18521994 
3473.485 18549612 18570014 18592056 18622726 18664946 18718254 18777760 
3476.861 18837400 18890526 18930484 18954578 18961758 18955166 18940746 
3480.236 18928894 18931164 18962284 19034884 19156574 19329146 19544686 
3483.611 19785572 20028904 20249404 20424352 20541192 20595896 20596640 
3486.986 20559318 20503600 20450444 20417658 20419192 20463966 20556682 
3490.362 20696444 20878586 21092584 21325674 21563206 21791568 22000646 
3493.737 22183972 22338818 22464930 22560056 22622414 22649634 22643120 
3497.112 22609312 22561268 22518034 22499372 22519416 22584298 22686986 
3500.487 22813016 22941680 23054726 23139420 23191148 23211074 23202836 
3503.863 23168664 23109612 23026022 22919302 22795702 22667126 22547602 
3507.238 22451760 22388566 22360740 22362870 22385292 22416804 22447856 
3510.613 22471596 22484130 22482374 22465148 22431152 22381432 22321308 
3513.988 22259042 22204438 22164356 22140334 22124462 22101726 22052858 
3517.364 21963314 21825978 21647472 21445534 21243798 21065326 20924426 
3520.739 20822994 20750044 20687006 20612484 20511208 20377972 20217742 
3524.114 20044350 19875310 19728010 19614992 19543842 19518820 19541020 
3527.489 19612348 19731648 19896116 20097362 20318124 20533884 20716766 
3530.865 20840192 20887394 20856792 20761774 20628650 20488620 20368734 
3534.240 20285248 20240670 20225984 20227204 20230196 20227372 20219208 
3537.615 20209494 20201796 20195046 20182114 20151002 20091242 19995694 
3540.990 19867208 19713026 19544912 19371184 19193624 19007360 18802764 
3544.365 18573300 18318606 18048438 17785494 17556510 17388466 17301094 
3547.741 17299640 17374870 17506130 17664442 17822092 17958500 18065442 
3551.116 18147176 18219292 18299294 18401592 18529420 18670518 18800224 
3554.491 18887298 18905122 18838404 18692486 18491448 18273810 18081420 
3557.866 17949466 17898226 17927968 18021786 18150952 18281722 18382326 
3561.242 18429352 18410352 18325300 18184814 18010262 17827560 17665016 
3564.617 17543296 17474466 17455448 17472504 17505342 17533286 17544620 
3567.992 17538504 17524254 17515620 17523846 17550494 17586488 17615784 
3571.367 17620796 17589542 17521408 17425850 17318296 17215270 17128030 
3574.743 17060766 17010854 16973620 16944886 16925608 16919502 16932928 
3578.118 16971522 17036502 17123200 17221316 17314910 17386456 17418194 
3581.493 17398702 17323876 17201034 17049238 16894900 16766099 16683366 
3584.868 16653916 16668044 16701506 16722368 16703594 16630759 16505526 
3588.244 16345190 16175818 16022515 15903670 15826380 15788123 15781472 
3591.619 15795849 15820814 15844943 15852239 15826341 15750160 15615016 
3594.994 15424154 15197415 14965959 14766834 14631191 14575766 14598534 
3598.369 14683167 14806342 14946535 15091116 15237550 15389821 15551306 
3601.745 15722491 15896877 16064813 16217494 16349237 16458457 16542729 
3605.120 16598299 16614523 16578348 16479127 16315881 16100563 15860220 
3608.495 15629027 15439949 15315327 15261334 15269412 15321829 15398545 
3611.870 15484592 15571635 15657736 15742293 15824696 15903983 15978938 
3615.246 16053310 16135814 16237834 16371004 16540555 16739845 16952056 
3618.621 17152234 17314422 17416520 17448430 17412060 17321342 17197608 
3621.996 17068024 16959164 16895904 16896210 16967272 17102936 17284180 
3625.371 17478730 17651976 17772790 17823154 17804498 17737576 17654472 
3628.747 17592140 17578060 17622472 17718712 17843572 17969326 18072116 
3632.122 18139032 18173458 18191700 18218228 18276794 18382528 18536182 
3635.497 18721340 18911318 19073322 19181962 19225860 19213766 19171168 
3638.872 19134168 19135240 19191240 19296820 19423810 19531420 19580058 
3642.248 19547222 19435076 19272812 19105392 18979856 18929696 18964098 
3645.623 19069662 19214262 19363680 19490890 19586696 19658916 19726260 
3648.998 19809902 19922472 20062386 20216436 20362574 20479230 20553148 
3652.373 20583688 20581870 20566930 20558972 20572358 20609050 20659374 
3655.749 20701980 20713176 20675160 20583854 20450922 20304212 20178344 
3659.124 20104394 20098078 20157216 20259122 20368796 20449632 20473954 
3662.499 20430186 20325318 20179124 20018768 19870066 19751822 19674996 
3665.874 19643398 19652500 19694074 19752390 19806790 19831910 19802396 
3669.250 19698656 19515130 19264258 18976190 18690188 18445760 18270588 
3672.625 18172556 18139984 18149134 18171218 18184930 18182022 18166916 
3676.000 18152422 18150124 18162484 18179656 18179080 18136470 18030490 
3679.375 17853232 17611728 17326556 17026076 16736671 16478296 16258841 
3682.750 16076952 15925353 15797768 15691604 15611058 15563417 15555589 
3686.126 15589936 15661785 15757341 15860086 15951138 16017534 16051725 
3689.501 16053451 16026901 15976509 15908444 15826775 15736194 15642263 
3692.876 15552264 15471388 15400874 15334669 15258690 15154757 15006433 
3696.251 14806545 14563247 14300889 14055436 13864458 13757870 13748908 
3699.627 13830815 13981002 14167609 14358493 14528285 14662120 14754524 
3703.002 14806096 14819791 14798683 14748212 14677294 14601153 14538379 
3706.377 14509046 14527909 14597351 14705860 14829909 14937872 15000097 
3709.752 14996341 14920372 14780862 14596656 14390214 14182382 13985068 
3713.128 13804106 13637509 13482800 13340349 13215992 13122514 13076307 
3716.503 13093769 13185854 13352477 13581767 13847805 14116812 14352241 
3719.878 14522099 14608309 14610576 14545410 14443655 14342375 14272930 
3723.253 14254369 14288451 14360637 14444547 14512418 14542944 14525766 
3726.629 14464235 14372041 14268116 14168533 14085377 14023889 13983325 
3730.004 13961076 13955152 13965308 13994048 14042377 14113047 14205074 
3733.379 14316844 14445375 14586683 14736406 14887180 15031133 15156643 
3736.754 15252203 15308541 15320641 15292113 15230691 15152124 15071538 
3740.130 15002944 14956471 14935383 14938184 14959503 14991464 15024811 
3743.505 15050782 15062487 15055661 15030675 14993410 14954381 14924486 
3746.880 14913504 14922313 14944786 14964508 14960038 14914701 14819954 
3750.255 14681809 14522573 14373470 14268731 14233444 14279046 14399803 
3753.631 14575308 14774348 14965427 15122171 15226217 15272009 15264926 
3757.006 15219893 15156128 15093606 15047786 15025333 15022232 15026169 
3760.381 15020803 14990284 14928193 14837157 14731261 14628491 14545953 
3763.756 14492461 14468146 14464209 14468201 14469928 14465110 14456386 
3767.132 14449295 14447997 14452239 14455725 14451529 14433594 14404065 
3770.507 14372132 14351408 14355261 14390127 14452617 14531645 14610696 
3773.882 14677786 14726094 14757128 14778955 14800281 14828557 14866816 
3777.257 14914177 14969889 15032687 15103215 15179827 15257850 15325155 
3780.633 15365796 15360676 15298011 15175764 15005183 14809660 14618536 
3784.008 14460145 14356113 14314934 14335101 14404245 14504288 14616006 
3787.383 14720039 14799030 14839289 14833705 14783272 14697863 14596346 
3790.758 14502663 14440517 14425751 14463709 14545032 14650722 14756069 
3794.134 14838232 14880841 14877656 14833356 14756816 14662617 14565482 
3797.509 14477972 14412277 14377546 14383052 14432879 14529076 14665954 
3800.884 14832993 15012543 15185676 15333820 15444242 15509291 15529956 
3804.259 15510803 15461237 15389643 15303909 15208736 15106671 14997971 
3807.635 14884411 14767905 14653665 14549079 14465103 14410395 14393499 
3811.010 14416463 14476884 14564718 14667740 14771559 14864960 14941172 
3814.385 14998791 15040352 15070697 15092123 15103088 15095809 15058790 
3817.760 14980149 14853504 14681133 14476191 14262284 14068007 13919789 
3821.135 13835117 13816692 13854825 13926814 14010066 14084270 14139713 
3824.511 14177151 14205140 14234671 14275204 14330836 14401704 14484360 
3827.886 14575871 14673548 14775605 14875522 14963943 15024220 15039430 
3831.261 14997644 14898209 14754300 14594230 14452196 14359845 14335770 
3834.636 14379861 14474206 14589092 14690935 14756390 14773634 14747784 
3838.012 14692549 14628191 14570881 14531774 14514349 14517969 14539431 
3841.387 14578490 14633479 14704794 14788462 14877420 14959597 15021361 
3844.762 15048051 15029242 14961315 14847990 14700187 14536414 14376347 
3848.137 14241070 14146278 14100979 14104288 14148765 14219498 14302220 
3851.513 14382780 14455508 14518731 14576047 14631319 14686734 14738299 
3854.888 14779959 14801909 14798219 14764881 14704462 14623274 14528791 
3858.263 14428488 14328294 14232978 14146416 14073508 14019543 13989432 
3861.638 13986791 14011118 14059455 14124195 14199025 14276972 14354038 
3865.014 14427125 14493770 14548551 14585511 14596765 14578034 14529567 
3868.389 14459113 14381276 14314540 14277144 14280862 14329462 14417403 
3871.764 14531895 14657551 14779882 14886974 14970534 15025753 15052363 
3875.139 15053069 15033306 15003302 14975363 14962971 14976885 15023990 
3878.515 15102484 15204473 15315312 15419700 15502840 15554341 15569640 
3881.890 15549767 15499251 15426524 15342226 15258821 15189551 15147541 
3885.265 15141108 15171306 15230612 15302541 15365784 15401226 15395596 
3888.640 15347579 15267176 15171023 15077971 15003499 14953073 14924488 
3892.016 14909165 14898132 14885142 14870849 14859545 14858914 14872470 
3895.391 14900870 14938656 14977492 15009045 15028489 15034517 15032728 
3898.766 15030418 15037751 15061771 15108612 15178808 15268717 15370130 
3902.141 15471314 15560132 15627962 15671663 15695792 15710395 15726438 
3905.517 15750844 15781917 15806856 15806064 15759928 15658114 15506228 
3908.892 15327138 15154555 15023638 14958699 14965643 15026974 15112772 
3912.267 15186957 15223751 15212024 15161695 15094610 15039287 15016666 
3915.642 15038803 15101916 15192412 15290789 15375967 15430913 15442112 
3919.018 15403135 15313697 15180998 15021415 14859579 14724714 14643170 
3922.393 14632910 14695668 14815741 14963262 15102175 15196391 15225421 
3925.768 15183459 15081248 14942403 14796445 14670547 14588075 14562690 
3929.143 14599141 14694297 14836899 15009105 15188860 15352513 15479277 
3932.519 15556512 15582880 15566771 15526593 15482717 15454882 15452567 
3935.894 15478934 15526367 15583421 15636800 15677165 15698308 15699968 
3939.269 15684502 15657308 15623524 15587357 15551315 15516317 15480126 
3942.644 15440369 15393613 15339728 15283592 15234695 15207414 15216789 
3946.020 15274708 15383965 15536931 15715953 15897144 16058195 16183112 
3949.395 16266325 16312044 16331077 16333202 16324360 16303221 16261455 
3952.770 16190592 16086530 15952570 15801795 15652051 15522917 15428668 
3956.145 15376591 15364973 15386818 15432222 15492985 15562898 15638255 
3959.521 15715353 15791681 15862996 15926385 15980517 16027641 16070141 
3962.896 16110795 16148809 16179673 16193308 16182151 16141681 16077597 
3966.271 16002355 15934926 15892688 15886128 15911013 15952097 15986022 
3969.646 15989689 15949281 15864782 15749600 15627755 15524480 15457836 
3973.021 15435672 15454948 15502257 15561142 15617247 15661007 15689494 
3976.397 15705621 15716035 15729245 15752830 15793180 15852034 15926603 
3979.772 16007451 16082196 16136063 16157854 16143166 16097181 16034668 
3983.147 15976274 15942242 15947102 15995266 16081154 16190529 16307667 
3986.522 16417639 16511509 16585795 16641561 16679598 16698560 16694307 
3989.898 16661489 16595960 16498782 16378222 16250703 16135573 16056208 
3993.273 16028771 16062088 16151384 16280113 16421311 16543441 16617218 
3996.648 16623501 16556380 16426539 16256029 16075997 15915466 15797568 
4000.023 15734076 15725674 
##END=
