##TITLE=3D-Fillies_PLA-Rainbow_Turquoise_Filament_r4_ATR-Corrected
##JCAMP-DX=5.01  $$ Nicolet v. 1
##DATATYPE=INFRARED SPECTRUM
##ORIGIN=Curtin University
##OWNER=Nicolet
##LONGDATE=2024/07/18
##TIME=14:36:09
##SPECTROMETER/DATA SYSTEM=Nicolet iS50
##DATA PROCESSING=
Ratio against background
%Transmittance->Absorbance
ATR Correction
Truncated
ElementMultiply or ElementDivide
##COMMENTS=
Number of sample scans: 32
Collection length: 47.28 sec
Sample gain: 1.0
Background collected on: Thu Jul 18 14:34:26 2024 (GMT+08:00);
Number of background scans: 32
Background gain: 1.0
Sample spacing:  1.000
Number of scan points: 16672
Resolution points: 8192
Number of FFT points: 65536
Apodization: N-B strong;
Phase correction: Mertz;
Laser frequency: 15798.3 cm-1
Number of rejected sample scans: 0
Number of rejected background scans: 0
Bench serial number: AUP1200105;
##RESOLUTION=4.000
##XUNITS=1/CM
##YUNITS=ABSORBANCE
##FIRSTX=400.163452
##LASTX=4000.187744
##FIRSTY=0.061019
##MAXX=4000.187744
##MINX=400.163452
##MAXY=0.899414
##MINY=-0.024338
##XFACTOR=1.000000
##YFACTOR=1.000000E-009
##NPOINTS=7468
##DELTAX=0.482125
##ZPD=8192
##XYDATA=(X++(Y..Y))
400.163 61019184 60978196 60663756 60045740 59114824 57907820 56500836 
403.538 54996880 53503560 52108872 50864292 49776448 48814228 47921748 
406.913 47038404 46116940 45136352 44106508 43063912 42062012 41157568 
410.288 40395828 39800780 39367044 39062696 38835736 38629220 38395784 
413.663 38108020 37762432 37375440 36974728 36589192 36241856 35946500 
417.038 35707712 35522312 35379908 35262888 35145524 34996516 34783332 
420.412 34482116 34085180 33606780 33080210 32549742 32057568 31633216 
423.787 31287048 31012858 30795828 30623594 30491796 30403980 30362664 
427.162 30357834 30358888 30316442 30174360 29889934 29454250 28903064 
430.537 28312786 27782510 27405960 27244882 27309362 27560510 27919134 
433.912 28291890 28598970 28795478 28879108 28884078 28863078 28865646 
437.286 28919862 29024752 29152994 29263550 29317518 29292016 29187382 
440.661 29025728 28842896 28677054 28558382 28501964 28507048 28561026 
444.036 28645700 28743386 28841146 28931058 29008782 29071348 29115304 
447.411 29136174 29129338 29091404 29020224 28915846 28780214 28618148 
450.786 28438362 28255210 28089104 27965084 27907368 27931622 28037320 
454.161 28201830 28380184 28511990 28534346 28398064 28082448 27604244 
457.535 27016678 26398328 25835080 25400722 25139736 25060112 25133500 
460.910 25305926 25512836 25696514 25819382 25870984 25862914 25828884 
464.285 25802320 25805698 25842388 25894106 25926902 25901570 25786194 
467.660 25567040 25252712 24872356 24468260 24085196 23760316 23515916 
471.035 23356688 23271046 23235962 23222598 23203760 23158728 23077274 
474.409 22960706 22821326 22678478 22554432 22468614 22433146 22449452 
477.784 22508122 22591146 22676712 22743880 22777580 22770380 22722784 
481.159 22640778 22533444 22410390 22280034 22149848 22026684 21917288 
484.534 21828224 21765338 21732508 21730634 21757508 21808174 21876380 
487.909 21955446 22039418 22123366 22203500 22276542 22340252 22393558 
491.284 22437802 22477380 22520240 22577174 22659532 22776622 22931088 
494.658 23122432 23341450 23574008 23804418 24019542 24211602 24379764 
498.033 24528838 24666122 24797092 24921482 25031352 25111584 25142614 
501.408 25105598 24987330 24784642 24506046 24171188 23808162 23448092 
504.783 23119966 22844970 22632586 22478500 22366258 22270594 22164522 
508.158 22026184 21845578 21627858 21392828 21170090 20990818 20878778 
511.532 20843292 20876438 20955234 21048148 21124166 21160516 21147276 
514.907 21087100 20991422 20873846 20745066 20609330 20465450 20309666 
518.282 20140876 19963392 19789134 19634726 19517466 19449820 19434786 
521.657 19463832 19517624 19570168 19594538 19569444 19484642 19343446 
525.032 19161118 18964236 18780316 18631456 18528132 18466618 18430340 
528.406 18395454 18338792 18245460 18113556 17953546 17784248 17624854 
531.781 17488350 17377146 17283774 17195926 17103200 17002740 16901410 
535.156 16812282 16748626 16716631 16711377 16716931 16712299 16679244 
538.531 16610211 16511463 16401907 16305277 16242217 16222743 16243316 
541.906 16288972 16339539 16376238 16386729 16366536 16316786 16239984 
545.281 16137041 16005756 15843134 15649207 15430897 15203699 14989783 
548.655 14814739 14700756 14661464 14698419 14800193 14944269 15100890 
552.030 15238375 15328600 15352772 15305522 15197192 15052884 14907447 
555.405 14798169 14754306 14792359 14909124 15083518 15282294 15469527 
558.780 15615322 15702125 15727112 15699768 15636798 15556439 15474426 
562.155 15401670 15344374 15305574 15286097 15285866 15303590 15337206 
565.529 15384225 15441827 15507971 15581283 15660403 15743243 15826359 
568.904 15904946 15974468 16032230 16079007 16118938 16158514 16203616 
572.279 16256908 16316235 16375426 16426377 16462537 16481241 16485149 
575.654 16482199 16484078 16504321 16556786 16653925 16804534 17010816 
579.029 17265816 17550622 17835322 18083458 18260216 18342072 18324992 
582.404 18227370 18085942 17945844 17847654 17815536 17852386 17940934 
585.778 18052190 18156570 18233058 18274858 18287890 18285704 18282800 
589.153 18289200 18308428 18338268 18373644 18408812 18438552 18458636 
592.528 18465422 18456592 18432054 18396150 18357714 18328434 18319230 
595.903 18336182 18377198 18431610 18483988 18519346 18529128 18514934 
599.278 18488464 18467902 18472178 18515130 18601878 18727460 18879472 
602.652 19040750 19194024 19324328 19422262 19485158 19517564 19530612 
606.027 19540106 19563228 19614584 19702010 19825460 19976896 20143590 
609.402 20312442 20473780 20623214 20761368 20891206 21016266 21138618 
612.777 21260390 21385488 21521518 21679536 21871096 22103208 22373530 
616.152 22667596 22961242 23225796 23437380 23584062 23670520 23716276 
619.527 23751276 23806440 23907104 24066560 24285712 24554024 24854108 
622.901 25165362 25468324 25746904 25990546 26195222 26364238 26507716 
626.276 26641382 26783268 26950582 27155518 27403364 27691680 28011646 
629.651 28350164 28692148 29022756 29328540 29598218 29824252 30002924 
633.026 30136192 30230994 30298014 30349268 30395418 30443596 30497310 
636.401 30557314 30624824 30703502 30799446 30919280 31066534 31238074 
639.775 31422376 31601314 31755514 31870182 31940732 31975080 31991732 
643.150 32014198 32064966 32159510 32303832 32494992 32723810 32978370 
646.525 33246900 33519234 33786912 34043296 34284636 34510664 34726780 
649.900 34943236 35174280 35434160 35732444 36070220 36438068 36817400 
653.275 37183944 37512880 37783840 37983964 38109020 38162132 38152280 
656.650 38091800 37995272 37878576 37758464 37652236 37576264 37543856 
660.024 37563352 37636252 37756196 37909456 38077280 38239004 38376836 
663.399 38479804 38547120 38588640 38623268 38674088 38762520 38901992 
666.774 39094596 39330860 39592808 39861000 40120588 40365956 40601452 
670.149 40838416 41088956 41360360 41651700 41953316 42250788 42529620 
673.524 42780148 42999504 43190860 43360764 43515692 43659704 43795128 
676.898 43923924 44050352 44181432 44325908 44491280 44679920 44886172 
680.273 45097148 45295828 45466164 45598172 45691444 45755116 45805040 
683.648 45858696 45930220 46026508 46146100 46280908 46419324 46550064 
687.023 46666324 46767700 46861052 46959204 47078376 47234196 47438252 
690.398 47694732 47998884 48337696 48692884 49044692 49376964 49680220 
693.773 49953852 50204856 50446004 50692100 50956852 51251420 51582668 
697.147 51954260 52366940 52819096 53307776 53828488 54376068 54944048 
700.522 55526436 56116724 56708092 57293292 57864196 58411588 58926488 
703.897 59401220 59831584 60217176 60561900 60872236 61155388 61417068 
707.272 61660268 61885444 62092124 62280588 62453748 62616528 62775768 
710.647 62937120 63104004 63275992 63449264 63617936 63776472 63921392 
714.021 64053588 64179188 64310520 64466372 64672924 64963744 65380416 
717.396 65973416 66802540 67938224 69462720 71470688 74068352 77368984 
720.771 81484984 86515008 92528872 99549976 107540744 116390192 125909672 
724.146 135836144 145844640 155570976 164641648 172708608 179482848 
727.039 184761472 188442464 190524880 191095520 190304784 188338624 
729.931 185391360 181644544 177254352 172347744 167025984 161371680 
732.824 155455504 149340992 143085408 136739056 130345104 123941384 
735.717 117566272 111266608 105103480 99154352 93508640 88256656 83476096 
739.091 79219464 75506768 72325552 69638352 67393552 65537760 64023436 
742.466 62811932 61872472 61177408 60699120 60407680 60273068 60268076 
745.841 60371700 60570088 60855412 61221812 61662104 62164644 62714504 
749.216 63295612 63895092 64505352 65124588 65753384 66390432 67028052 
752.591 67649848 68232568 68750504 69181384 69511424 69736704 69861728 
755.966 69893760 69838168 69693728 69452272 69100776 68626632 68022880 
759.340 67290992 66441260 65490976 64459644 63366020 62225484 61050380 
762.715 59851244 58638988 57425324 56222612 55041692 53890160 52770756 
766.090 51682696 50623228 49591240 48589224 47623420 46702324 45833084 
769.465 45017792 44251732 43523632 42818404 42121308 41421196 40713796 
772.840 40000856 39288156 38583860 37896000 37232040 36598460 36001700 
776.214 35447280 34938876 34476164 34053788 33660900 33283188 32906320 
779.589 32519478 32117724 31701948 31276230 30844680 30407634 29960736 
782.964 29496360 29008044 28494074 27961260 27424092 26902566 26416740 
786.339 25982314 25607326 25292722 25034702 24828758 24672492 24566750 
789.714 24513456 24512478 24557684 24635090 24723570 24798482 24835790 
793.089 24817286 24733486 24584278 24377516 24125904 23844800 23549336 
796.463 23253238 22968752 22706386 22475254 22282444 22133292 22030644 
799.838 21975546 21966814 22001498 22074994 22180592 22308688 22447172 
803.213 22582130 22698974 22783968 22826830 22822196 22770304 22676652 
806.588 22550722 22404152 22248944 22095954 21954082 21829290 21724502 
809.963 21639192 21570262 21512024 21458348 21403716 21345702 21285244 
813.337 21227516 21180338 21151606 21146820 21166390 21203728 21247238 
816.712 21281316 21292004 21270364 21217346 21144428 21072754 21028364 
820.087 21036238 21112932 21262358 21473456 21723072 21980782 22216938 
823.462 22408650 22544452 22624506 22658700 22661486 22648606 22633212 
826.837 22625644 22633522 22663510 22721084 22810226 22931702 23082304 
830.212 23254714 23439504 23628222 23816642 24005994 24202652 24415092 
833.586 24649870 24910138 25193594 25494206 25806150 26126376 26456784 
836.961 26803954 27176804 27583546 28029156 28514952 29039012 29598296 
840.336 30189916 30811750 31462256 32139008 32838218 33554144 34280172 
843.711 35009120 35734084 36447300 37139124 37797020 38405792 38949332 
847.086 39414728 39795096 40094004 40325476 40513820 40689704 40887028 
850.460 41138648 41473648 41915888 42483084 43187920 44038136 45039284 
853.835 46195972 47512908 48995512 50647928 52469920 54452504 56575544 
857.210 58806940 61106196 63429876 65740184 68009024 70221128 72370328 
860.585 74454248 76467568 78398312 80229000 81941016 83521608 84969392 
863.960 86294504 87516520 88656512 89731544 90749704 91711440 92612128 
867.335 93447976 94218280 94926096 95574584 96163072 96681984 97112992 
870.709 97429512 97600952 97596168 97386552 96947632 96260224 95311664 
874.084 94098304 92626784 90915888 88993832 86894944 84653544 82299352 
877.459 79855896 77342976 74781104 72197344 69626968 67112144 64695268 
880.834 62411528 60282812 58315988 56506704 54846244 53328488 51954864 
884.209 50733696 49676344 48790788 48077476 47526988 47122256 46841832 
887.583 46664324 46569900 46540604 46558048 46603044 46654464 46692408 
890.958 46700508 46669528 46598560 46494676 46370452 46241828 46124700 
894.333 46033064 45977112 45961516 45984000 46034140 46094056 46141660 
897.708 46154704 46117084 46022820 45877928 45698544 45506416 45322760 
901.083 45164424 45040560 44954008 44902428 44881096 44883072 44900004 
904.458 44920996 44933952 44927356 44894568 44836304 44762412 44689656 
907.832 44637704 44622808 44653988 44730980 44846908 44991680 45157284 
911.207 45339236 45537036 45751288 45980772 46221152 46465552 46707316 
914.582 46942668 47172544 47402164 47638000 47885052 48144504 48413568 
917.957 48686684 48958276 49222848 49475776 49711132 49921032 50096144 
921.332 50229132 50318436 50372408 50410460 50459528 50547528 50695924 
924.706 50912956 51192632 51517468 51865916 52219288 52567628 52910212 
928.081 53252944 53603004 53964292 54334724 54707352 55073036 55424156 
931.456 55756404 56069296 56364748 56645008 56912020 57167716 57414296 
934.831 57655008 57893548 58131544 58366180 58589192 58788080 58949368 
938.206 59063944 59131256 59160516 59169152 59177220 59201172 59249764 
941.581 59322536 59412568 59511844 59616236 59729168 59861120 60026620 
944.955 60238308 60503584 60821668 61185304 61583872 62008284 62453584 
948.330 62920584 63413972 63940600 64505912 65113060 65761396 66447528 
951.705 67164544 67901352 68641144 69359904 70025848 70601832 71049752 
955.080 71336920 71441192 71355184 71085632 70650544 70071880 69371000 
958.455 68563544 67659632 66666440 65593140 64455732 63280052 62100204 
961.829 60954996 59880568 58904592 58041824 57292824 56647196 56089304 
965.204 55603836 55181800 54822236 54532020 54321700 54200668 54171952 
968.579 54229784 54358520 54535672 54736392 54938528 55126900 55295384 
971.954 55445796 55585984 55725848 55873780 56034720 56209592 56395540 
975.329 56587872 56780724 56968296 57145056 57306516 57450196 57576992 
978.703 57692260 57805528 57929352 58076440 58255940 58470728 58716436 
982.078 58982920 59257384 59529192 59792644 60048800 60303764 60566148 
985.453 60843664 61141048 61459152 61797032 62153104 62527872 62922284 
988.828 63337496 63773684 64227716 64693636 65164468 65634348 66101172 
992.203 66567792 67041324 67531568 68048632 68600232 69191720 69825592 
995.578 70502664 71224320 71992736 72811176 73684248 74615616 75607440 
998.952 76657440 77758712 78897888 80057448 81217200 82360048 83475280 
1002.327 84563936 85639768 86728448 87862688 89076192 90398392 91850360 
1005.702 93445896 95193904 97103088 99186864 101464984 103962768 106708976 
1009.077 109733816 113067808 116744824 120804512 125295608 130274448 
1011.970 135799024 141915344 148641456 155949024 163747552 171876368 
1014.862 180106800 188154176 195704560 202447488 208115600 212521248 
1017.755 215582560 217336208 217931152 217604080 216647280 215369136 
1020.648 214058896 212959424 212252032 212051968 212414960 213347680 
1023.540 214822832 216792304 219199296 221986448 225101968 228502480 
1026.433 232154400 236033648 240125136 244419680 248912928 253603104 
1029.326 258490928 263578928 268872960 274380832 280111616 286072224 
1032.219 292262592 298672768 305279456 312046336 318928160 325873568 
1035.113 332829984 339745472 346568928 353248896 359730368 365955872 
1038.006 371866368 377406528 382528608 387195168 391378944 395058816 
1040.899 398216704 400833600 402890176 404370080 405264928 405577664 
1043.792 405323968 404529568 403226144 401447552 399229312 396609184 
1046.685 393631264 390347424 386817856 383107360 379282240 375404576 
1049.578 371532224 367716800 364005088 360439136 357053408 353871360 
1052.471 350902144 348139136 345562976 343147264 340866944 338705984 
1055.364 336661408 334744608 332980000 331400800 330047680 328968000 
1058.257 328217312 327859136 327965536 328613536 329881216 331841824 
1061.150 334560544 338089312 342467552 347719744 353857216 360876416 
1064.043 368760256 377479008 386993792 397260704 408236512 419882688 
1066.936 432167456 445063328 458542976 472572032 487104544 502080992 
1069.829 517430976 533077952 548946176 564965248 581072576 597212928 
1072.722 613337408 629402624 645370816 661209088 676887936 692376064 
1075.615 707633408 722605888 737223296 751404736 765067008 778136000 
1078.509 790552896 802269504 813240320 823406400 832688640 840986432 
1081.402 848191232 854201792 858942656 862370240 864472256 865257792 
1084.295 864748096 862973696 859977280 855819328 850583680 844374720 
1087.188 837311296 829513408 821095936 812163264 802811648 793130176 
1090.081 783203648 773108544 762908288 752650112 742364800 732072576 
1092.974 721789376 711534208 701331200 691204672 681173056 671242112 
1095.867 661403328 651637120 641920896 632235456 622570112 612918656 
1098.760 603276032 593629568 583958528 574235712 564436864 554548224 
1101.653 544574336 534538560 524478496 514437088 504456704 494574560 
1104.546 484824160 475240640 465866784 456757024 447978496 439608224 
1107.439 431728064 424417792 417749568 411783296 406563168 402114560 
1110.332 398443552 395535424 393356992 391858144 390975840 390637696 
1113.225 390766496 391282720 392107200 393164128 394383104 395702688 
1116.118 397074176 398462304 399846944 401220128 402582272 403937568 
1119.011 405291872 406650272 408018752 409404896 410818208 412267008 
1121.905 413754528 415273312 416801120 418298976 419714400 420985760 
1124.798 422049280 422845408 423322176 423437760 423160896 422470048 
1127.691 421354080 419810976 417847296 415477184 412719200 409592992 
1130.584 406117152 402306912 398173376 393722560 388955488 383867328 
1133.477 378446368 372676032 366537888 360016480 353106272 345816608 
1136.370 338175264 330226240 322025568 313633664 305109024 296503936 
1139.263 287863936 279230944 270647968 262163168 253831712 245714560 
1142.156 237874240 230369568 223250864 216555872 210310784 204531408 
1145.049 199226640 194401248 190057152 186193392 182805376 179883120 
1147.942 177411472 175370768 173739056 172493904 171614784 171082032 
1150.835 170877136 170980032 171368384 172016976 172898592 173985792 
1153.728 175253424 176679072 178244256 179932112 181726832 183612064 
1156.621 185571136 187588304 189651904 191756416 193904288 196104944 
1159.514 198373648 200726464 203178448 205740720 208421568 211228272 
1162.407 214169824 217259424 220516000 223963168 227627680 231538592 
1165.301 235726880 240226848 245078656 250330384 256039200 262269552 
1168.194 269090176 276569888 284774528 293765600 303600384 314333216 
1171.087 326017088 338700896 352425856 367216448 383071968 399958176 
1173.980 417799424 436475360 455820096 475622208 495626560 515536608 
1176.873 535017440 553704640 571217472 587177728 601234368 613087616 
1179.766 622509440 629358848 633586880 635233792 634421440 631339072 
1182.659 626228096 619363456 611036672 601538624 591146304 580112640 
1185.552 568660608 556980352 545230272 533539072 522010816 510729120 
1188.445 499762656 489169088 478998208 469291200 460080320 451385792 
1191.338 443214784 435560160 428403872 421720736 415483904 409669856 
1194.231 404261696 399248800 394624672 390383648 386517024 383011296 
1197.124 379848704 377008864 374472640 372223648 370250144 368544000 
1200.017 367097664 365901920 364942496 364198112 363640480 363236288 
1202.910 362949120 362742752 362583520 362443680 362301376 362139776 
1205.803 361944992 361704736 361404256 361025728 360547008 359943584 
1208.697 359191072 358268448 357160768 355861088 354370304 352695872 
1211.590 350849792 348845696 346696960 344415488 342011680 339495104 
1214.483 336874848 334162336 331371008 328517120 325619264 322696576 
1217.376 319767648 316848576 313951488 311084608 308252480 305456768 
1220.269 302697632 299974720 297287424 294636384 292023360 289451584 
1223.162 286926880 284454944 282042432 279694592 277413440 275197440 
1226.055 273041280 270936928 268876288 266852640 264863312 262910016 
1228.948 260998880 259140192 257345968 255629872 254005936 252488112 
1231.841 251090224 249825232 248705104 247741200 246944048 246323312 
1234.734 245888032 245646112 245603024 245759376 246110368 246644784 
1237.627 247346320 248195936 249174288 250264736 251454176 252732016 
1240.520 254088368 255510032 256978752 258470096 259954688 261399840 
1243.413 262773104 264043696 265184736 266173120 266991712 267628912 
1246.306 268082256 268358912 268477184 268464512 268355456 268186864 
1249.199 267994400 267809488 267658768 267564320 267544480 267613744 
1252.093 267781264 268048816 268410480 268851744 269353120 269894432 
1254.986 270460064 271043200 271646464 272280096 272958496 273694560 
1257.879 274497760 275370144 276308448 277303520 278342528 279410592 
1260.772 280491744 281569888 282630912 283663200 284659168 285613248 
1263.665 286519040 287365920 288134560 288795200 289308320 289629568 
1266.558 289714784 289525792 289033792 288221312 287079680 285607456 
1269.451 283807296 281685760 279252544 276521536 273511328 270244256 
1272.344 266745504 263041408 259158112 255121024 250953344 246676304 
1275.237 242308960 237868128 233368864 228826000 224256448 219680608 
1278.130 215122512 210608192 206162576 201805680 197549824 193399120 
1281.023 189351936 185404704 181555952 177809872 174175776 170666176 
1283.916 167293104 164064800 160984256 158049984 155258496 152607328 
1286.809 150097776 147734384 145524608 143474384 141587712 139863328 
1289.702 138295776 136875376 135591072 134430512 133380920 132429736 
1292.595 131563840 130770816 130038528 129357352 128719808 128121288 
1295.489 127559616 127033096 126540392 126079472 125648216 125244960 
1298.382 124869328 124523256 124210032 123934288 123700056 123510384 
1301.275 123365152 123261272 123192248 123147936 123114600 123076136 
1304.168 123014632 122913536 122759160 122543648 122265184 121928064 
1307.061 121540432 121111320 120647896 120153520 119627400 119065456 
1309.954 118461840 117810976 117108328 116350984 115536928 114665624 
1312.847 113738296 112758856 111735176 110679808 109610640 108548184 
1315.740 107513928 106526872 105600440 104741040 103947776 103213568 
1318.633 102527984 101879032 101256056 100651184 100059648 99480528 98914856 
1322.008 98366200 97839112 97338112 96868176 96433312 96037280 95683776 
1325.384 95375920 95117168 94910864 94760176 94667728 94635392 94665120 
1328.759 94759088 94920856 95156712 95476080 95890208 96411232 97049136 
1332.134 97809376 98690664 99684088 100773920 101939944 103159512 104410496 
1335.509 105673368 106931152 108170248 109378832 110546248 111662280 
1338.402 112717200 113702712 114612784 115445976 116205272 116899584 
1341.295 117541760 118148488 118737864 119328312 119938040 120584176 
1344.188 121283608 122051976 122903432 123849552 124898048 126051696 
1347.082 127308232 128660632 130098600 131610824 133185816 134812912 
1349.975 136482160 138182368 139900480 141620224 143322304 144986384 
1352.868 146592160 148122656 149564960 150911168 152157248 153302096 
1355.761 154345488 155286960 156125328 156859808 157491072 158022304 
1358.654 158461040 158818176 159107424 159343904 159541808 159714016 
1361.547 159871680 160024496 160180816 160346864 160524672 160709904 
1364.440 160888720 161036720 161119056 161093488 160914656 160540160 
1367.333 159933728 159069920 157935600 156530832 154870336 152985536 
1370.226 150925856 148760992 146579504 144485648 142592464 141012320 
1373.119 139847776 139182352 139073872 139551072 140612112 142226528 
1376.012 144337776 146867536 149719280 152783760 155943936 159082048 
1378.905 162085216 164851984 167295744 169345680 170946064 172053840 
1381.798 172637040 172674976 172158672 171092016 169493296 167394512 
1384.691 164839504 161882560 158584688 155010928 151225744 147288768 
1387.584 143250160 139147264 135004192 130834136 126643224 122437064 
1390.478 118224672 114021344 109849312 105735040 101708064 97797472 94031752 
1393.853 90436872 87035344 83846080 80882168 78150680 75652176 73381736 
1397.228 71331296 69491480 67852976 66408544 65151604 64077640 63182228 
1400.603 62462340 61915868 61542436 61343932 61323760 61485928 61833220 
1403.979 62365048 63074164 63944660 64948624 66044936 67179304 68285088 
1407.354 69287856 70111048 70683224 70945768 70858952 70407144 69598824 
1410.729 68466800 67062712 65451928 63707256 61902040 60104764 58373504 
1414.104 56752800 55270304 53937552 52752016 51700836 50766532 49932180 
1417.479 49184936 48517436 47927384 47414744 46979536 46619136 46328416 
1420.855 46100904 45929460 45809464 45737656 45712496 45732204 45792600 
1424.230 45886568 46003900 46133212 46264660 46392140 46515276 46639772 
1427.605 46777072 46942396 47153664 47430032 47790056 48251884 48832056 
1430.980 49544144 50398292 51400112 52551168 53849844 55293852 56882260 
1434.356 58617812 60507184 62561252 64793296 67217848 69850640 72708424 
1437.731 75809600 79174520 82823816 86775832 91042704 95628320 100525400 
1441.106 105717656 111180144 116881792 122785160 128845904 135009728 
1443.999 141211392 147375504 153420032 159262336 164824848 170040688 
1446.892 174856160 179232864 183148736 186596800 189584672 192131328 
1449.785 194261104 195998240 197362336 198364832 199010752 199298880 
1452.678 199225872 198786240 197972192 196771856 195169680 193148768 
1455.572 190697424 187814976 184516000 180830224 176796816 172457552 
1458.465 167850224 163007504 157960176 152741872 147393504 141962080 
1461.358 136496736 131041584 125631512 120290456 115035208 109880864 
1464.251 104845440 99951200 95223480 90685504 86355336 82244456 78359528 
1467.626 74705376 71287840 68113120 65186576 62509088 60074212 57866868 
1471.001 55866036 54046920 52385476 50859268 49449756 48140208 46915980 
1474.376 45763328 44669932 43625456 42622328 41655060 40720040 39812992 
1477.752 38930272 38066672 37218128 36381792 35557372 34746592 33952972 
1481.127 33179630 32429296 31702578 30999472 30318990 29659956 29021700 
1484.502 28402852 27801926 27217354 26648180 26094736 25559212 25046222 
1487.877 24560966 24109348 23695626 23323034 22993022 22706952 22464900 
1491.253 22266710 22109878 21990112 21900166 21831760 21777190 21732460 
1494.628 21697892 21679640 21686532 21728272 21812388 21942380 22119186 
1498.003 22342226 22612814 22934712 23315044 23760566 24274824 24854016 
1501.378 25484098 26141222 26791582 27395414 27909872 28293496 28510536 
1504.754 28536338 28361650 27995922 27467814 26821320 26108590 25380298 
1508.129 24677380 24026778 23440470 22919004 22456652 22046200 21681694 
1511.504 21359222 21076070 20829798 20616562 20432796 20274674 20140082 
1514.879 20027940 19937216 19864978 19806314 19753680 19699144 19637168 
1518.255 19566760 19492162 19421056 19362504 19323316 19306100 19308432 
1521.630 19323686 19344092 19362582 19373908 19375678 19367196 19348568 
1525.005 19321076 19286180 19247042 19206996 19169054 19134842 19103316 
1528.380 19070774 19032324 18983212 18921706 18849110 18770212 18690696 
1531.756 18615886 18547980 18486142 18426674 18365134 18298330 18224542 
1535.131 18144594 18060738 17975740 17892790 17814552 17743754 17682496 
1538.506 17632294 17593008 17562334 17536510 17511874 17486328 17460454 
1541.881 17438016 17424064 17422218 17433122 17452582 17473682 17487916 
1545.257 17489430 17476120 17450654 17417808 17381570 17343258 17299922 
1548.632 17247190 17180946 17101708 17015740 16933888 16868488 16829458 
1552.007 16820768 16839126 16875484 16918090 16956226 16982296 16993006 
1555.382 16988288 16969926 16940338 16901476 16856662 16809974 16767435 
1558.758 16735565 16719401 16720599 16736791 16761996 16788330 16809374 
1562.133 16821832 16826068 16825472 16825088 16829372 16841042 16860904 
1565.508 16888802 16924376 16968804 17024438 17094536 17182262 17289240 
1568.883 17414852 17556988 17711356 17873970 18041254 18211356 18384268 
1572.259 18561126 18744824 18938058 19142828 19360172 19589306 19827246 
1575.634 20069010 20307232 20532918 20735434 20903366 21025068 21089686 
1579.009 21089652 21021458 20888084 20698796 20468426 20215170 19956996 
1582.384 19709340 19482714 19282892 19112146 18970744 18858964 18776554 
1585.760 18722226 18692704 18681534 18679160 18674888 18658770 18624742 
1589.135 18571058 18502030 18424796 18348766 18282602 18232752 18203070 
1592.510 18194554 18205754 18234464 18277452 18331420 18393938 18463882 
1595.885 18541690 18629928 18731870 18851010 18990046 19149706 19329320 
1599.260 19527780 19744894 19982712 20245160 20537144 20861620 21218234 
1602.636 21601254 22000822 22404574 22801826 23185290 23553340 23909026 
1606.011 24257160 24600870 24938652 25263320 25563506 25825662 26038930 
1609.386 26197078 26300290 26353930 26366256 26345266 26296920 26223038 
1612.761 26123098 25995378 25839640 25658766 25459470 25251232 25044376 
1616.137 24847778 24666538 24501602 24351030 24212446 24085456 23972956 
1619.512 23881666 23818702 23789634 23794266 23825738 23871570 23916428 
1622.887 23945952 23952066 23934074 23898420 23856400 23819588 23796902 
1626.262 23792146 23804384 23829112 23860884 23895630 23931286 23968910 
1629.638 24011140 24061214 24121820 24194266 24277830 24370070 24466454 
1633.013 24561562 24650340 24729028 24796834 24855592 24909948 24964616 
1636.388 25023812 25088036 25153650 25213852 25260474 25286756 25288622 
1639.763 25266898 25226074 25173400 25116352 25061586 25013606 24974106 
1643.139 24943662 24922110 24909564 24907108 24917120 24943168 24988596 
1646.514 25055406 25143338 25248518 25363612 25479350 25586448 25679172 
1649.889 25757566 25827560 25899808 25986400 26095858 26230092 26382598 
1653.264 26540848 26691370 26825446 26942428 27050836 27164042 27296252 
1656.640 27457236 27648866 27866054 28098500 28335788 28571040 28802038 
1660.015 29031742 29265142 29506764 29758750 30020436 30289880 30565720 
1663.390 30848774 31142798 31453342 31785910 32144540 32530270 32940746 
1666.765 33370982 33815312 34268904 34728356 35193808 35668228 36155720 
1670.141 36660448 37183448 37721400 38266400 38807248 39332236 39833472 
1673.516 40308704 40763500 41209188 41660028 42128336 42622564 43144256 
1676.891 43689496 44252560 44827756 45411648 46002892 46600916 47205096 
1680.266 47813288 48422624 49031760 49641672 50256648 50884060 51531664 
1683.642 52204500 52904000 53627332 54369084 55123416 55887296 56660888 
1687.017 57447652 58253540 59085032 59948924 60853620 61806904 62817788 
1690.392 63894784 65044692 66271016 67575536 68958672 70423752 71978000 
1693.767 73634904 75412672 77331408 79409480 81661360 84098144 86731208 
1697.143 89576048 92656832 96007544 99669088 103684672 108094464 112931904 
1700.518 118225016 124000776 130292248 137143920 144613856 152768928 
1703.411 161679376 171410256 182016544 193539056 206007248 219438272 
1706.304 233838592 249199040 265490384 282658656 300624416 319288000 
1709.197 338537280 358254464 378315840 398584992 418900416 439065600 
1712.090 458846880 477984608 496213024 513284384 528989920 543173568 
1714.983 555740288 566661632 575979904 583808768 590323392 595737600 
1717.876 600269760 604106048 607375680 610146112 612435968 614242560 
1720.769 615566976 616427584 616861312 616912256 616622272 616023744 
1723.662 615145216 614019840 612694592 611230400 609692992 608139392 
1726.555 606604352 605096832 603605824 602112896 600606656 599089792 
1729.448 597577920 596093696 594659264 593294720 592023104 590877184 
1732.342 589906240 589174784 588754752 588711104 589090688 589921152 
1735.235 591219264 593006656 595325440 598245120 601855936 606254144 
1738.128 611523072 617719040 624868288 632974720 642035776 652052864 
1741.021 663035712 674991680 687908416 701735104 716371584 731671552 
1743.914 747452096 763508928 779625792 795577984 811131008 826039616 
1746.807 840055744 852944128 864501248 874568000 883029632 889806016 
1749.700 894832960 898052800 899413632 898878016 896437824 892120704 
1752.593 885986240 878114176 868589376 857495424 844914368 830938944 
1755.486 815681088 799280384 781898944 763711616 744892864 725605120 
1758.379 705995968 686195520 666322560 646486592 626791168 607331904 
1761.272 588197312 569468608 551219008 533512640 516402240 499926560 
1764.165 484105632 468940384 454413600 440496672 427157696 414369248 
1767.058 402114560 390389216 379194752 368532384 358392288 348747456 
1769.951 339552352 330746752 322264192 314042208 306029760 298191360 
1772.844 290504896 282955808 275529376 268204992 260953808 253741744 
1775.738 246535696 239308992 232046560 224745248 217411824 210059728 
1778.631 202704288 195363536 188056368 180804960 173634848 166572624 
1781.524 159642592 152863680 146247856 139802560 133534224 127453624 
1784.417 121577896 115930088 110534920 105413464 100577816 96029568 91763368 
1787.792 87769192 84036616 80556984 77322192 74321968 71541976 68963496 
1791.167 66564476 64323924 62225492 60259044 58422204 56715688 55141488 
1794.542 53697756 52378092 51170248 50058336 49024252 48050212 47121356 
1797.918 46227520 45363296 44528788 43727604 42964184 42240652 41554920 
1801.293 40899252 40263580 39637332 39016036 38401748 37804188 37236480 
1804.668 36709928 36229888 35791828 35384084 34991056 34599896 34204524 
1808.043 33807472 33417658 33046026 32701310 32386440 32098584 31830672 
1811.419 31574208 31320818 31063498 30795510 30509676 30199002 29859314 
1814.794 29492378 29108386 28726940 28373924 28075768 27851350 27706586 
1818.169 27631210 27600532 27582822 27546498 27467690 27334210 27146534 
1821.544 26914972 26655386 26384198 26114202 25851720 25596424 25342318 
1824.920 25079242 24798578 24495468 24173096 23841274 23516088 23213624 
1828.295 22944790 22712254 22507036 22312610 22108712 21878452 21612724 
1831.670 21313220 20990302 20659306 20335438 20028980 19743658 19476044 
1835.045 19218716 18961650 18696812 18421582 18138458 17858342 17597474 
1838.421 17374528 17207368 17106710 17073140 17093812 17144152 17192336 
1841.796 17204508 17152822 17019280 16799492 16501885 16144689 15753871 
1845.171 15358303 14986215 14663444 14409090 14232240 14129722 14083868 
1848.546 14066597 14044271 13987756 13880138 13724206 13541277 13365718 
1851.922 13235137 13177441 13202712 13299537 13438455 13581901 13693629 
1855.297 13749333 13741149 13676907 13574658 13454786 13333618 13218849 
1858.672 13110670 13004266 12894563 12781187 12669271 12568144 12487461 
1862.047 12432553 12401493 12384459 12366662 12332550 12271013 12178712 
1865.423 12058830 11920209 11773382 11626945 11487675 11360908 11253552 
1868.798 11174779 11134775 11142169 11197628 11291640 11404824 11511727 
1872.173 11589501 11624963 11618198 11581140 11530143 11476291 11419450 
1875.548 11346451 11237940 11078397 10867122 10623965 10385171 10192262 
1878.924 10077260 10050784 10096873 10179890 10257401 10296958 10286969 
1882.299 10239335 10183972 10153663 10171050 10238952 10337374 10431807 
1885.674 10482315 10456637 10337761 10128628 9849368 9532467 9215971 8936767 
1889.531 8724773 8598468 8562746 8608172 8715120 8859583 9018850 9178798 
1893.389 9336698 9498643 9675115 9872745 10089147 10309784 10510606 10664975 
1897.246 10751046 10756390 10682601 10540918 10351012 10134164 9911976 
1900.622 9706044 9537719 9426759 9387525 9425865 9532277 9682531 9840800 
1904.479 9969864 10039339 10037919 9973793 9871606 9761196 9665257 9590704 
1908.336 9524626 9440669 9311832 9121594 8873919 8595295 8327115 8114084 
1912.194 7990488 7970171 8043798 8184954 8357272 8530159 8687587 8831844 
1916.051 8981328 9162309 9397504 9694196 10039443 10398584 10721153 10953789 
1919.909 11052001 10992107 10779764 10447396 10050545 9654267 9319304 
1923.284 9089373 8979863 8975733 9035676 9101970 9116505 9036531 8846649 
1927.141 8562271 8226570 7895867 7623549 7444619 7363857 7357826 7382766 
1930.999 7393582 7360758 7283818 7190249 7127387 7143702 7270601 7510933 
1934.856 7836991 8201991 8555602 8858963 9093235 9256946 9356495 9394603 
1938.714 9364073 9248622 9034643 8722077 8335829 7924507 7549400 7269548 
1942.571 7120493 7111418 7222418 7416784 7659593 7924706 8203701 8499140 
1946.428 8815809 9153618 9501839 9845675 10168188 10460715 10718882 10936744 
1950.286 11098985 11176188 11128316 10920377 10540456 10013141 9405014 
1953.661 8808733 8319211 8001913 7869583 7874794 7922068 7896082 7697128 
1957.519 7272938 6636561 5864498 5080353 4418963 3994300 3870647 4052533 
1961.376 4489292 5097141 5786495 6488014 7165460 7814354 8446970 9069704 
1965.233 9657237 10143231 10429369 10408971 10009428 9226314 8141046 6915509 
1969.091 5753853 4859946 4383704 4393505 4870740 5723939 6821523 8018209 
1972.948 9174601 10165040 10888867 11275284 11311850 11068410 10702680 
1976.323 10446421 10550877 11201864 12441579 14129330 15965333 17578614 
1979.699 18640852 18956074 18496638 17388014 15853036 14145730 12492437 
1983.074 11053067 9907871 9070639 8510878 8180441 8021993 7982034 8003169 
1986.931 8027039 8000941 7890476 7690898 7433310 7179661 7002660 6971318 
1990.789 7130411 7498619 8063636 8790582 9631641 10527798 11412193 12210595 
1994.646 12847978 13261445 13415459 13311707 12992274 12530209 12008240 
1998.021 11492775 11019148 10579142 10131973 9621907 9000450 8243468 7357103 
2001.879 6371191 5332921 4292992 3302311 2415866 1693829 1209538 1040390 
2005.736 1248052 1865307 2863034 4155276 5598732 7023808 8264836 9186406 
2009.594 9710109 9815346 9544163 8988999 8275058 7546635 6946029 6590926 
2013.451 6560175 6876569 7506601 8363550 9324525 10250587 11005473 11475336 
2017.309 11584408 11305811 10668481 9754575 8688742 7628626 6732163 6138923 
2021.166 5935406 6147924 6732851 7594465 8597707 9603315 10488177 11157132 
2025.023 11551136 11635488 11394576 10822392 9915611 8691040 7192523 5508838 
2028.881 3788952 2221843 1027090 407075 503776 1357844 2880704 4854742 
2032.738 6968878 8876826 10281853 11011939 11057962 10570205 9808633 9054514 
2036.596 8533388 8364783 8537020 8942689 9431398 9868818 10183410 10380286 
2040.453 10521194 10684365 10920155 11216132 11491914 11627936 11500291 
2043.828 11030884 10227629 9189005 8092160 7152545 6577725 6519431 7037882 
2047.686 8088073 9516959 11093128 12550458 13650823 14236368 14260154 
2051.061 13786888 12969639 12006242 11095903 10395532 9987677 9864642 
2054.436 9939434 10081812 10163524 10105006 9896268 9594138 9292381 9081912 
2058.294 9017492 9104014 9298886 9534238 9748919 9905347 9994326 10027197 
2062.151 10016967 9963539 9850238 9653889 9359565 8979034 8549931 8131949 
2066.009 7784463 7549215 7438549 7434896 7508206 7632007 7798129 8019976 
2069.866 8322544 8727028 9232732 9811246 10406509 10951075 11381529 11653365 
2073.723 11749138 11678140 11469532 11161884 10797331 10412439 10034144 
2077.099 9676212 9338010 9007150 8665481 8299590 7912131 7529871 7204988 
2080.956 7003606 6988896 7199707 7631761 8233015 8911273 9555604 10061502 
2084.813 10353740 10401702 10221322 9865345 9410134 8935666 8514013 8195962 
2088.671 8008702 7954057 8011701 8144065 8305797 8451900 8548141 8574461 
2092.528 8527307 8416018 8254853 8058995 7842369 7618628 7407644 7237142 
2096.386 7140233 7146427 7270925 7500610 7794544 8092215 8330240 8463032 
2100.243 8478320 8399691 8277264 8165055 8102557 8099988 8140372 8190410 
2104.101 8221689 8227444 8227147 8259722 8363716 8554556 8812833 9081948 
2107.958 9286633 9357142 9258272 9004289 8661621 8327815 8104892 8063905 
2111.815 8222323 8534539 8906653 9221095 9372189 9297051 8993107 8516446 
2115.673 7965288 7451603 7070821 6879550 6885074 7048994 7302937 7566480 
2119.530 7768601 7856367 7802956 7601992 7264661 6812558 6276213 5691670 
2123.388 5098674 4536197 4040470 3635462 3332066 3124743 2999777 2936623 
2127.245 2917209 2926781 2951566 2973177 2959980 2866013 2634623 2209777 
2131.103 1551364 653152 -443020 -1644829 -2818639 -3814460 -4496043 -4779162 
2134.960 -4652928 -4190433 -3528499 -2836436 -2264605 -1908934 -1783464 
2138.335 -1830394 -1941766 -2011023 -1967403 -1807132 -1592100 -1422682 
2141.710 -1396433 -1570573 -1939742 -2441448 -2984525 -3483299 -3889693 
2145.086 -4200937 -4449112 -4676672 -4916378 -5182870 -5480741 -5826817 
2148.461 -6260742 -6845007 -7640958 -8676847 -9923706 -11290711 -12646494 
2151.836 -13873580 -14908521 -15778206 -16586564 -17485644 -18596938 
2154.729 -19956444 -21473586 -22927776 -23998590 -24337924 -23636554 
2157.622 -21714932 -18581936 -14470086 -9803074 -5113225 -903882 2464536 
2160.998 4832521 6237194 6862818 6957455 6768068 6476287 6169311 5831848 
2164.855 5387367 4730168 3781227 2517122 981097 -736517 -2506065 -4188474 
2168.712 -5640171 -6732559 -7360085 -7467160 -7074167 -6299125 -5353270 
2172.088 -4512050 -4037609 -4108687 -4744444 -5785127 -6920397 -7776971 
2175.463 -8033511 -7527335 -6300259 -4587887 -2737426 -1104164 43449 575455 
2179.320 508826 -24410 -823729 -1678627 -2402520 -2868574 -3006373 -2815551 
2183.178 -2343170 -1673632 -900885 -109941 641658 1327615 1945346 2496270 
2187.035 2969104 3329204 3532708 3540255 3349310 2996100 2561234 2135467 
2190.893 1786427 1534876 1348803 1166031 927868 618032 279951 -145 -121647 
2195.232 -20219 310688 813130 1394263 1962874 2467756 2904385 3310190 
2199.090 3723293 4160398 4595330 4977146 5253978 5413122 5492304 5578720 
2202.947 5765406 6119861 6637673 7246135 7818792 8225831 8381929 8276618 
2206.804 7980004 7619734 7336391 7243335 7395273 7783852 8345626 8990090 
2210.662 9621209 10158760 10547548 10759504 10790463 10661799 10408383 
2214.037 10084424 9744205 9435081 9181799 8980350 8797158 8586280 8303323 
2217.895 7936525 7512595 7100812 6795732 6689815 6840987 7253168 7864902 
2221.752 8568116 9231406 9737867 10011303 10036477 9848646 9524392 9150016 
2225.609 8803083 8531274 8354666 8267687 8252877 8291743 8369202 8471956 
2229.467 8591457 8715570 8833042 8932373 9009744 9067895 9114349 9159035 
2233.324 9208148 9258554 9299790 9315626 9291017 9213676 9080962 8895183 
2237.182 8666804 8409739 8146124 7900337 7700871 7572772 7533564 7584562 
2241.039 7711769 7887264 8083460 8281204 8480645 8697760 8958009 9276393 
2244.896 9645417 10029171 10372247 10614838 10716461 10668097 10497681 
2248.272 10254573 9991101 9741737 9515285 9296996 9068346 8822947 8583600 
2252.129 8399748 8334779 8441672 8744022 9223742 9824992 10468020 11072970 
2255.987 11575756 11941042 12157907 12237296 12198929 12068124 11872286 
2259.362 11641098 11406460 11198138 11038175 10936884 10887083 10868714 
2262.737 10856477 10828083 10775034 10705053 10638762 10606509 10635779 
2266.112 10745367 10940817 11213423 11543682 11903928 12261640 12584453 
2269.488 12840467 13003904 13055831 12992122 12825685 12586928 12322893 
2272.863 12089997 11944649 11930101 12065195 12339936 12711763 13116129 
2276.238 13478320 13734393 13843648 13801735 13638422 13411091 13185244 
2279.613 13021341 12958267 13010311 13167680 13406890 13698848 14018547 
2282.989 14346229 14668322 14973980 15254570 15502367 15713170 15888011 
2286.364 16031157 16148891 16245039 16318196 16361713 16365469 16322114 
2289.739 16230237 16095912 15930545 15746240 15550939 15346729 15129360 
2293.114 14896138 14647837 14394169 14151719 13940456 13776341 13667248 
2296.490 13610415 13595915 13609727 13640446 13679978 13725395 13777089 
2299.865 13835682 13900639 13970732 14044641 14121448 14199608 14275016 
2303.240 14339859 14381265 14386289 14346385 14261219 14144493 14019593 
2306.615 13915346 13857026 13859456 13923298 14036266 14178622 14329902 
2309.990 14473503 14600249 14705696 14789821 14852301 14894665 14919392 
2313.366 14932461 14943119 14962811 15000881 15062405 15145534 15243503 
2316.741 15347369 15451208 15555800 15670195 15810637 15997684 16251223 
2320.116 16585730 17004230 17494742 18024218 18539614 18971734 19245580 
2323.491 19295084 19077940 18587418 17855646 16949766 15958514 14976203 
2326.867 14085200 13342515 12773455 12371348 12106504 11938134 11826186 
2330.242 11739276 11657650 11571774 11480638 11386888 11297801 11224159 
2333.617 11178242 11171875 11211720 11295472 11409629 11532218 11638115 
2336.992 11706388 11726980 11702365 11647172 11582086 11525832 11491435 
2340.368 11482745 11494678 11518074 11541398 11555862 11555416 11537455 
2343.743 11503308 11455953 11401352 11347282 11300498 11266901 11248541 
2347.118 11243146 11245379 11249731 11251257 11249552 11245878 11242126 
2350.493 11237659 11228231 11206510 11165002 11100397 11017245 10926897 
2353.869 10844401 10781818 10743737 10724408 10708619 10679414 10623923 
2357.244 10539372 10434669 10326459 10233612 10169150 10135619 10125055 
2360.619 10121435 10106280 10063540 9983010 9861276 9701094 9510521 9302517 
2364.477 9093601 8904324 8756498 8669583 8655220 8713213 8831437 8985805 
2368.334 9148099 9292583 9401971 9470525 9502808 9510132 9504929 9497106 
2372.191 9493089 9496367 9510358 9539993 9591312 9669180 9774490 9901787 
2376.049 10038528 10167469 10271422 10337075 10359782 10344213 10303717 
2379.424 10256678 10223796 10220689 10257656 10333923 10440836 10560720 
2382.799 10673487 10759901 10808842 10820368 10806829 10789448 10792508 
2386.175 10834794 10922725 11047631 11187232 11313070 11399044 11429035 
2389.550 11403807 11338376 11257713 11188071 11149561 11149567 11184023 
2392.925 11238531 11295305 11337111 11353510 11339271 11295021 11225237 
2396.300 11135045 11029656 10914683 10795583 10680302 10576867 10494119 
2399.676 10438164 10412310 10412876 10432805 10459010 10478234 10479533 
2403.051 10457672 10415611 10366134 10327581 10320880 10362953 10460115 
2406.426 10605408 10779380 10954174 11101329 11199525 11240650 11230312 
2409.801 11185994 11129231 11080360 11052540 11050228 11070288 11107320 
2413.177 11155600 11211417 11271544 11331939 11385405 11422225 11431546 
2416.552 11406632 11346328 11258237 11155136 11052409 10962932 10895700 
2419.927 10855584 10846647 10873606 10943377 11061347 11226500 11426643 
2423.302 11637208 11824589 11953341 11998783 11953625 11832942 11666868 
2426.677 11492058 11341022 11229864 11159161 11114457 11076649 11028332 
2430.053 10960879 10874447 10773990 10666016 10556138 10446797 10341413 
2433.428 10246010 10169549 10120993 10107114 10126142 10169213 10220618 
2436.803 10266336 10298129 10318191 10335974 10365272 10414411 10483246 
2440.178 10561748 10632932 10681191 10698256 10685328 10652534 10614002 
2443.554 10580690 10557096 10541428 10526734 10506144 10475313 10433829 
2446.929 10381116 10316019 10234112 10131868 10009038 9875112 9749919 
2450.304 9663190 9644277 9715677 9881551 10126012 10414772 10704376 10952448 
2454.162 11130091 11225968 11247245 11213851 11149115 11072926 10995395 
2457.537 10917017 10830140 10725792 10597303 10444420 10275126 10101676 
2460.912 9939626 9804282 9706025 9650713 9639509 9666762 9723350 9795452 
2464.770 9866518 9917002 9930652 9895070 9808665 9680909 9534887 9401201 
2468.627 9311951 9290498 9343651 9459984 9610071 9756519 9864694 9913904 
2472.484 9903103 9850292 9784894 9736178 9724676 9753297 9811227 9877297 
2476.342 9931802 9961732 9969718 9968756 9978903 10019056 10098943 10216108 
2480.199 10355894 10495340 10610694 10683421 10705930 10681923 10626088 
2483.574 10556519 10490003 10435935 10394149 10357254 10314275 10260882 
2486.950 10202982 10159370 10158012 10224814 10374648 10600270 10872769 
2490.325 11145939 11369998 11505584 11534430 11464055 11321797 11145619 
2493.700 10969566 10818349 10703069 10625907 10584126 10576565 10603001 
2497.075 10660941 10742307 10831235 10906487 10949491 10950849 10915979 
2500.451 10863109 10815990 10795057 10807017 10845024 10891340 10926779 
2503.826 10940196 10932498 10914651 10902417 10907616 10935548 10983963 
2507.201 11050100 11134315 11243249 11383312 11555712 11745513 11922894 
2510.576 12048474 12088053 12024664 11871386 11666579 11461311 11301018 
2513.952 11208764 11175815 11171898 11156443 11102160 11005752 10890783 
2517.327 10795746 10758976 10798953 10910003 11063258 11219546 11346386 
2520.702 11425604 11458094 11456907 11436213 11404787 11360000 11294926 
2524.077 11203637 11090099 10967657 10858024 10782675 10755571 10778505 
2527.453 10843060 10935809 11044254 11159692 11278318 11396915 11508790 
2530.828 11601907 11660229 11667706 11616595 11508224 11357166 11186651 
2534.203 11022881 10889098 10799643 10756986 10752414 10769309 10787483 
2537.578 10788092 10761779 10710743 10650514 10607086 10609270 10678339 
2540.954 10820549 11021851 11249894 11461985 11619788 11698808 11696764 
2544.329 11631167 11531043 11426798 11339738 11278475 11241399 11222386 
2547.704 11219990 11237805 11284462 11364159 11473252 11595630 11707390 
2551.079 11785374 11818020 11811879 11793167 11797447 11857822 11993919 
2554.455 12202133 12456773 12717390 12939353 13085335 13132806 13076813 
2557.830 12927939 12709496 12452004 12190442 11958509 11785687 11690933 
2561.205 11679841 11742338 11854709 11985841 12104848 12190503 12235311 
2564.580 12245431 12237936 12231988 12243397 12279226 12338721 12413894 
2567.956 12496065 12576642 12650793 12716195 12772840 12821235 12863103 
2571.331 12899644 12932751 12965092 12996498 13023172 13039589 13036855 
2574.706 13007363 12947995 12863662 12766782 12674711 12605926 12574859 
2578.081 12586629 12637625 12716470 12808666 12900465 12983312 13054514 
2581.457 13115535 13170611 13223543 13277102 13331896 13389309 13451080 
2584.832 13521716 13606951 13711036 13834341 13970378 14105435 14221370 
2588.207 14298968 14324304 14293437 14213027 14099133 13972265 13849530 
2591.582 13740673 13646562 13560071 13472689 13379887 13286623 13204900 
2594.958 13152985 13145860 13190680 13281826 13404003 13534947 13654459 
2598.333 13749448 13818243 13868233 13912400 13962693 14027658 14109056 
2601.708 14203412 14304006 14402724 14494060 14573811 14639616 14689881 
2605.083 14724170 14743511 14748337 14741269 14722905 14694386 14654997 
2608.458 14604390 14543086 14473615 14401497 14333647 14277687 14238184 
2611.834 14216714 14212150 14219948 14236686 14258781 14284041 14308782 
2615.209 14327831 14334947 14324425 14294931 14251025 14205177 14174592 
2618.584 14175886 14219792 14305109 14420093 14544622 14657601 14743881 
2621.959 14798867 14828966 14846658 14866645 14898006 14944349 15001642 
2625.335 15062037 15118666 15166503 15203947 15232500 15255499 15277182 
2628.710 15302055 15335760 15383699 15448700 15529366 15616961 15698049 
2632.085 15754681 15771894 15742144 15669307 15568486 15461182 15369598 
2635.460 15310726 15291580 15311196 15362073 15436356 15527410 15631532 
2638.836 15745003 15862694 15975386 16070381 16135430 16162604 16152594 
2642.211 16115414 16066764 16023604 15998373 15994893 16009184 16030764 
2645.586 16047997 16052790 16041752 16016930 15983202 15945634 15905831 
2648.961 15863523 15816394 15762126 15700454 15633954 15566986 15504007 
2652.337 15448844 15402303 15362251 15325123 15286200 15242809 15193784 
2655.712 15140467 15084634 15028514 14973181 14917827 14859783 14796452 
2659.087 14724356 14643048 14552790 14455366 14352287 14244182 14129801 
2662.462 14006812 13872992 13728151 13575151 13419527 13269847 13133979 
2665.838 13018264 12925475 12854997 12803708 12768307 12744695 12729654 
2669.213 12720510 12714043 12706322 12694304 12675837 12651637 12624742 
2672.588 12599718 12580235 12566833 12556385 12542613 12519252 12483427 
2675.963 12438091 12392111 12357323 12344846 12360520 12402567 12462571 
2679.339 12527537 12585706 12629715 12657306 12671796 12678208 12680487 
2682.714 12680789 12676777 12666740 12648249 12622287 12590742 12557114 
2686.089 12523205 12490544 12458593 12427168 12396994 12370769 12351559 
2689.464 12341526 12340585 12345321 12349335 12346052 12329424 12296565 
2692.840 12248098 12187261 12118288 12045776 11973423 11905381 11845164 
2696.215 11795848 11760503 11739407 11732028 11735569 11746606 11763339 
2699.590 11786670 11819500 11865717 11926415 12000070 12079182 12152807 
2702.965 12209359 12239955 12240871 12214988 12169354 12113832 12056571 
2706.341 12003735 11958034 11919751 11887889 11861997 11841355 11824966 
2709.716 11811381 11798881 11784015 11764792 11740205 11711253 11679841 
2713.091 11649325 11622796 11602430 11589594 11585478 11590078 11603495 
2716.466 11624097 11650159 11678507 11706315 11731315 11753504 11775151 
2719.842 11799174 11828667 11864088 11903534 11942260 11974989 11997705 
2723.217 12009582 12013077 12013288 12016146 12026024 12044024 12068694 
2726.592 12095559 12120063 12138002 12146355 12144393 12133203 12115155 
2729.967 12094360 12076205 12066638 12071786 12096044 12141075 12204690 
2733.343 12280593 12359818 12431571 12486139 12516272 12518480 12494485 
2736.718 12450870 12397623 12346646 12309955 12295620 12307044 12340579 
2740.093 12386781 12432452 12464190 12472255 12453886 12412646 12357525 
2743.468 12299359 12247602 12207405 12179503 12161884 12151431 12145841 
2746.844 12145125 12149188 12158033 12170747 12184196 12196274 12206512 
2750.219 12215924 12228840 12249032 12277246 12309614 12338676 12354387 
2753.594 12348806 12320083 12273556 12220833 12175567 12149653 12147718 
2756.969 12166178 12194609 12220652 12232112 12223722 12196489 12156405 
2760.344 12114092 12078140 12055019 12047420 12054422 12073264 12100153 
2763.720 12132139 12165158 12195872 12219285 12229840 12221788 12191232 
2767.095 12136584 12061359 11973144 11884625 11809518 11761351 11749125 
2770.470 11776476 11838046 11924403 12020809 12113453 12191289 12249751 
2773.845 12290413 12319850 12347345 12381636 12429595 12492906 12570746 
2777.221 12658565 12749956 12838405 12917305 12981441 13026606 13050564 
2780.596 13052918 13034970 12998757 12947716 12885853 12817538 12748551 
2783.971 12685605 12636713 12610277 12613301 12650926 12723085 12825224 
2787.346 12948877 13081734 13211194 13325392 13414127 13469811 13489808 
2790.722 13475121 13432753 13374751 13318415 13283297 13285963 13336358 
2794.097 13434599 13568367 13716340 13853416 13956348 14010682 14012066 
2797.472 13967414 13891429 13801355 13713041 13638768 13586146 13559586 
2800.847 13560702 13590162 13647510 13729296 13829895 13940872 14052367 
2804.223 14154413 14238359 14299390 14335801 14349932 14347222 14336322 
2807.598 14327962 14332682 14359905 14414635 14496232 14597178 14706081 
2810.973 14810035 14899320 14969213 15022060 15065205 15106009 15150696 
2814.348 15199551 15249749 15296564 15338577 15378620 15425009 15487392 
2817.724 15573055 15682681 15808530 15936516 16051685 16141716 16202522 
2821.099 16238917 16261302 16283222 16314717 16362052 16426474 16505521 
2824.474 16597027 16699478 16812504 16935074 17063772 17190818 17306326 
2827.849 17398220 17457264 17479444 17465496 17422734 17361504 17293406 
2831.225 17230904 17184554 17164358 17178794 17233028 17327172 17454210 
2834.600 17598362 17737808 17847578 17906482 17903422 17841232 17736868 
2837.975 17617314 17514036 17452232 17446420 17498244 17597434 17727600 
2841.350 17874348 18029476 18192218 18370620 18573110 18805642 19067964 
2844.726 19352924 19648674 19944020 20231288 20509324 20780218 21048096 
2848.101 21314008 21574398 21820616 22041972 22229694 22381830 22501712 
2851.476 22600188 22690046 22782630 22885846 23001522 23127940 23259812 
2854.851 23393470 23524108 23649008 23765566 23871472 23965348 24047970 
2858.227 24124152 24201812 24291868 24405726 24551722 24732974 24946514 
2861.602 25183870 25435086 25690308 25944894 26198348 26454950 26721864 
2864.977 27007252 27318330 27659384 28032508 28437638 28873656 29338774 
2868.352 29830780 30348662 30892068 31460262 32052324 32665168 33294342 
2871.728 33932436 34570772 35201328 35817704 36416352 36996164 37556400 
2875.103 38096060 38608700 39084556 39510480 39872120 40160348 40370328 
2878.478 40506620 40578736 40599916 40582180 40533372 40455168 40344120 
2881.853 40193792 39998772 39757176 39473248 39158740 38830592 38508140 
2885.229 38210020 37951472 37740996 37579748 37462624 37381648 37327848 
2888.604 37295928 37285880 37300384 37345184 37423832 37536068 37674800 
2891.979 37831064 37993136 38153192 38308392 38461568 38618180 38783568 
2895.354 38957332 39133648 39301340 39447808 39561752 39638380 39679460 
2898.729 39691912 39686020 39670716 39652520 39634308 39617200 39601164 
2902.105 39587308 39576912 39571276 39569316 39568436 39564284 39553372 
2905.480 39536096 39517032 39507188 39519604 39566612 39655488 39785672 
2908.855 39948524 40129760 40314464 40491380 40657032 40816972 40984052 
2912.230 41173844 41399112 41666696 41975224 42314072 42668904 43024040 
2915.606 43367600 43693948 44005580 44309184 44616152 44936812 45278104 
2918.981 45642044 46025772 46421564 46819516 47209984 47585616 47944696 
2922.356 48290704 48631676 48979504 49343640 49731072 50142120 50570176 
2925.731 51005772 51440436 51871160 52304268 52754952 53243468 53790824 
2929.107 54410904 55108316 55877516 56707340 57587016 58510904 59482580 
2932.482 60514076 61622612 62823212 64125916 65531684 67033416 68618872 
2935.857 70275640 71993976 73768664 75599320 77486984 79434880 81441464 
2939.232 83502448 85605936 87730952 89848664 91921528 93907672 95764248 
2942.608 97453312 98946504 100226056 101283640 102117944 102730328 103121464 
2945.983 103293672 103252272 103011136 102594536 102037600 101380360 
2948.876 100661744 99910576 99141336 98355024 97543824 96698200 95814952 
2952.251 94900112 93969000 93039984 92129200 91246232 90391528 89560136 
2955.626 88746960 87950504 87175384 86430664 85726592 85067688 84452376 
2959.002 83870448 83309200 82756704 82206480 81659552 81121056 80595144 
2962.377 80082128 79573136 79051744 78499424 77900512 77249328 76551464 
2965.752 75823528 75089128 74370632 73684048 73036544 72426088 71843192 
2969.127 71276584 70716504 70155760 69590824 69020336 68444752 67866640 
2972.503 67292136 66729432 66192500 65695764 65252736 64872436 64556056 
2975.878 64297884 64086944 63911824 63763300 63639924 63545332 63487724 
2979.253 63477680 63523220 63630252 63804656 64051904 64380848 64804092 
2982.628 65334856 65986112 66764960 67671288 68696944 69826248 71040544 
2986.004 72318808 73643216 74999888 76378880 77774984 79186704 80611856 
2989.379 82046816 83481056 84895088 86258568 87532384 88674424 89645840 
2992.754 90420520 90986456 91349880 91529976 91550888 91435312 91196200 
2996.129 90837112 90351976 89731984 88970656 88068056 87032296 85879440 
2999.505 84629376 83302664 81918872 80492368 79034120 77547496 76032176 
3002.880 74483488 72894712 71261440 69584888 67875056 66150060 64433740 
3006.255 62751740 61124728 59564224 58070100 56633952 55241356 53878384 
3009.630 52535524 51210732 49908220 48636628 47405388 46222600 45090916 
3013.006 44008284 42966036 41951300 40948688 39943744 38927628 37898924 
3016.381 36865868 35845740 34860172 33929104 33065998 32274316 31546820 
3019.756 30869474 30224930 29598218 28979580 28364018 27750072 27138170 
3023.131 26529936 25929660 25343874 24785936 24270938 23815394 23431296 
3026.507 23121078 22875634 22675366 22495882 22314630 22114362 21889166 
3029.882 21642090 21382742 21123358 20874760 20645114 20437876 20254180 
3033.257 20090142 19940870 19797488 19651520 19494096 19319796 19129440 
3036.632 18929154 18730158 18544296 18381572 18246374 18136772 18048476 
3040.008 17976190 17917060 17871390 17841438 17829350 17832788 17845528 
3043.383 17858778 17864268 17858202 17843646 17828782 17824850 17841896 
3046.758 17884112 17949262 18029282 18112808 18189096 18249948 18291350 
3050.133 18312482 18314658 18299204 18268066 18223178 18166384 18102288 
3053.509 18035718 17971692 17914828 17868208 17831422 17802014 17774856 
3056.884 17744094 17703264 17648254 17578850 17499778 17420274 17351942 
3060.259 17307632 17295152 17316580 17364526 17425336 17481234 17515864 
3063.634 17518106 17484448 17419714 17334282 17241418 17153372 17079192 
3067.010 17024958 16991918 16979762 16985932 17007034 17038752 17076354 
3070.385 17113142 17143138 17160158 17159346 17138224 17097396 17041910 
3073.760 16979914 16923262 16883204 16870890 16890974 16941930 17016026 
3077.135 17099960 17179790 17244152 17288288 17312180 17320476 17317296 
3080.510 17304392 17276804 17227488 17147746 17033750 16889316 16727269 
3083.886 16565705 16424384 16318938 16256509 16235041 16243787 16269201 
3087.261 16295142 16310217 16307587 16286099 16248342 16199695 16146058 
3090.636 16091580 16038533 15986407 15934888 15883770 15837092 15802329 
3094.011 15789857 15808918 15863881 15949894 16052650 16149424 16217573 
3097.387 16240764 16213894 16147537 16061105 15978914 15918422 15886700 
3100.762 15877945 15876776 15866555 15836472 15784638 15718751 15651073 
3104.137 15592742 15549070 15518805 15494780 15469182 15435351 15391725 
3107.512 15338712 15278709 15212335 15138233 15055154 14962467 14862780 
3110.888 14762024 14668851 14590873 14534554 14501987 14493392 14505645 
3114.263 14535426 14576586 14622765 14662180 14682608 14671310 14618560 
3117.638 14522466 14390329 14238319 14087851 13960429 13873288 13835324 
3121.013 13847072 13901455 13986788 14089295 14195607 14293381 14372258 
3124.389 14424487 14446175 14436160 14396624 14332474 14249258 14153453 
3127.764 14052289 13954239 13870197 13813789 13798737 13834179 13922970 
3131.139 14056025 14213354 14367810 14491805 14564540 14577589 14535544 
3134.514 14454964 14357775 14264244 14188217 14135065 14101426 14078910 
3137.890 14055551 14021675 13968670 13892635 13794093 13679661 13560575 
3141.265 13450085 13363113 13309337 13292561 13307954 13344809 13389671 
3144.640 13431600 13464285 13488661 13509993 13534280 13564680 13599833 
3148.015 13634149 13660469 13673417 13671294 13656523 13633206 13605978 
3151.391 13576319 13543803 13505795 13459649 13404945 13341998 13273861 
3154.766 13202543 13130149 13058368 12989318 12926264 12874386 12839603 
3158.141 12825930 12835708 12867249 12915073 12972427 13032757 13090997 
3161.516 13145022 13194201 13239165 13280227 13316753 13346832 13367074 
3164.892 13374617 13365747 13338448 13292174 13230423 13160286 13092355 
3168.267 13040090 13015262 13025191 13070324 13143251 13230628 13317719 
3171.642 13392108 13448800 13488844 13519770 13551132 13591847 13647133 
3175.017 13717093 13798130 13884830 13969752 14046306 14107144 14147578 
3178.393 14163238 14153255 14119856 14067185 14000874 13924858 13841155 
3181.768 13749981 13652716 13554362 13465252 13401040 13377718 13407018 
3185.143 13490672 13617420 13766176 13912113 14033791 14118276 14164378 
3188.518 14178793 14171222 14149345 14115715 14068620 14006882 13933271 
3191.894 13858255 13795714 13760083 13759278 13791172 13844348 13902566 
3195.269 13950966 13981950 13997642 14006497 14020271 14046144 14084871 
3198.644 14128532 14165569 14183768 14175837 14140372 14081647 14007262 
3202.019 13926432 13846866 13775105 13715758 13672046 13646121 13637451 
3205.395 13642935 13656785 13671500 13679885 13677434 13662963 13640005 
3208.770 13617042 13604055 13610717 13643803 13704612 13787683 13881748 
3212.145 13971436 14041912 14083486 14094203 14081043 14057981 14039323 
3215.520 14034864 14044826 14059634 14064540 14047912 14006080 13947973 
3218.896 13893190 13864136 13876340 13931545 14015223 14101194 14161638 
3222.271 14176374 14140530 14065624 13972898 13886303 13823639 13792253 
3225.646 13789673 13807601 13836442 13871226 13909805 13951632 13994445 
3229.021 14033168 14060553 14070544 14060101 14033872 14001688 13977928 
3232.396 13975580 14004494 14066850 14157585 14263722 14367298 14445248 
3235.772 14476645 14443488 14339897 14171602 13960266 13736764 13536091 
3239.147 13387282 13305405 13289073 13321939 13380836 13444521 13499768 
3242.522 13544293 13583193 13622864 13665477 13707018 13738802 13752894 
3245.897 13745598 13721684 13689721 13660249 13639024 13626922 13620144 
3249.273 13614773 13612770 13621966 13654109 13720200 13822537 13951791 
3252.648 14086973 14202607 14274294 14288169 14243451 14151770 14032721 
3256.023 13909074 13798581 13715195 13664484 13643836 13644766 13652999 
3259.398 13652618 13629667 13577914 13503024 13421570 13359951 13342506 
3262.774 13383981 13480808 13611075 13740519 13835717 13874137 13855861 
3266.149 13799557 13736568 13695755 13694933 13731390 13788967 13844481 
3269.524 13878576 13884560 13867456 13840065 13814741 13796967 13782905 
3272.899 13766430 13741194 13709812 13682698 13673755 13695052 13747916 
3276.275 13822717 13899077 13956167 13978618 13962249 13915377 13854120 
3279.650 13795154 13751643 13728973 13725830 13736739 13755996 13778112 
3283.025 13799246 13815773 13824502 13823236 13813176 13800697 13796895 
3286.400 13813541 13859774 13935714 14030380 14122221 14187238 14204290 
3289.776 14165750 14078649 13963894 13851315 13768445 13734226 13754742 
3293.151 13821755 13919309 14027703 14132163 14224421 14304033 14375173 
3296.526 14442590 14508151 14568544 14617370 14644788 14644278 14613619 
3299.901 14557325 14485336 14409238 14341517 14288478 14250781 14223134 
3303.277 14196360 14159741 14107082 14035389 13948976 13856124 13767896 
3306.652 13696020 13650007 13635625 13655758 13707217 13784373 13877605 
3310.027 13975967 14068934 14146646 14202890 14235432 14244820 14233702 
3313.402 14204619 14159673 14098745 14022830 13934254 13837558 13741397 
3316.778 13655862 13590056 13550310 13535521 13540708 13556218 13570954 
3320.153 13575814 13565568 13538879 13498857 13449598 13396996 13345267 
3323.528 13299748 13264667 13243245 13239275 13254204 13287264 13335796 
3326.903 13394133 13457831 13522882 13587955 13654721 13725515 13803686 
3330.279 13890347 13982722 14077134 14165560 14240078 14292429 14317026 
3333.654 14310397 14272304 14205304 14114968 14008987 13895399 13784125 
3337.029 13682873 13599460 13540138 13508600 13508318 13540085 13603029 
3340.404 13692020 13797138 13904076 13994620 14050757 14059157 14013203 
3343.780 13920035 13797316 13670095 13565112 13502620 13491140 13523860 
3347.155 13581441 13640045 13676387 13678133 13646164 13594472 13542204 
3350.530 13507513 13499148 13513306 13534308 13541410 13515663 13448979 
3353.905 13344822 13219669 13094602 12989140 12915849 12877093 12865701 
3357.281 12871590 12885896 12907729 12943037 13003847 13101853 13243257 
3360.656 13424157 13629297 13834183 14009919 14130264 14178531 14150743 
3364.031 14057228 13920814 13772556 13641939 13551143 13509969 13512918 
3367.406 13542215 13572760 13580110 13549271 13476626 13373315 13258711 
3370.781 13155468 13080712 13043248 13040829 13063775 13100150 13141156 
3374.157 13182629 13226594 13277003 13332735 13387917 13428327 13436683 
3377.532 13397604 13304761 13166375 13001872 12840280 12710285 12633924 
3380.907 12617875 12656059 12729744 12817923 12902514 12975823 13038750 
3384.282 13099662 13165910 13239423 13312280 13371235 13400314 13390217 
3387.658 13342740 13271918 13200058 13151859 13142286 13175320 13240783 
3391.033 13319074 13387869 13431847 13444418 13431469 13405352 13380365 
3394.408 13367739 13372475 13393106 13425321 13464701 13509092 13559853 
3397.783 13622110 13699724 13795208 13906076 14024827 14138501 14231171 
3401.159 14285641 14288919 14234947 14128268 13984343 13828097 13689013 
3404.534 13591794 13551253 13569113 13632077 13717049 13801134 13865764 
3407.909 13905222 13925085 13940625 13969733 14026564 14117293 14238515 
3411.284 14377700 14515221 14629158 14699743 14714040 14669287 14577110 
3414.660 14463893 14366422 14323657 14365907 14503155 14720720 14979670 
3418.035 15227747 15412652 15499412 15480302 15375209 15223605 15071630 
3421.410 14956269 14897338 14895430 14935100 14997122 15062832 15122372 
3424.785 15172305 15212731 15244456 15266790 15280636 15285542 15285051 
3428.161 15284217 15286138 15290125 15292503 15286847 15271770 15251752 
3431.536 15239308 15251788 15302531 15394085 15514525 15639370 15740573 
3434.911 15795806 15798483 15759401 15703045 15657149 15643235 15667299 
3438.286 15722336 15789710 15850309 15890427 15906131 15900988 15883626 
3441.662 15862226 15842898 15827939 15818743 15815999 15819252 15825043 
3445.037 15826104 15810438 15763959 15675925 15543332 15372860 15179626 
3448.412 14981401 14794339 14626986 14480951 14353012 14241092 14147731 
3451.787 14081710 14054005 14074326 14144550 14257882 14399562 14551695 
3455.163 14698338 14829887 14942053 15036675 15116405 15183660 15239713 
3458.538 15286403 15324772 15358753 15391121 15421414 15446616 15459196 
3461.913 15453469 15427689 15387992 15349678 15332917 15355808 15428342 
3465.288 15545906 15691128 15837563 15956657 16026678 16037963 15995484 
3468.664 15916519 15825227 15747389 15703687 15706567 15757440 15847966 
3472.039 15961302 16077241 16178448 16253978 16304635 16342621 16390048 
3475.414 16470082 16601954 16793270 17037902 17316436 17603140 17869572 
3478.789 18094242 18264638 18377914 18438820 18457484 18445912 18415072 
3482.165 18376516 18338884 18310816 18298282 18305606 18335950 18391078 
3485.540 18473350 18584524 18727194 18900682 19102318 19325458 19559928 
3488.915 19795552 20025420 20245890 20459070 20669406 20879712 21090100 
3492.290 21294238 21483670 21649110 21785136 21892084 21974868 22040406 
3495.666 22092214 22127934 22140978 22122280 22065836 21974220 21860236 
3499.041 21745764 21656082 21614136 21634408 21718804 21857602 22031644 
3502.416 22216118 22386882 22522130 22608062 22638396 22616760 22555278 
3505.791 22472914 22392066 22333600 22313438 22339858 22409454 22511280 
3509.167 22628476 22742292 22835252 22897068 22920998 22907730 22862562 
3512.542 22794352 22711002 22620664 22526522 22429404 22325534 22209468 
3515.917 22076596 21928216 21770826 21617902 21485044 21387742 21333098 
3519.292 21318522 21330666 21347546 21344198 21298618 21196236 21033022 
3522.667 20815354 20559798 20287304 20023766 19791556 19609118 19486628 
3526.043 19422446 19405458 19415686 19430648 19433778 19416544 19384150 
3529.418 19349846 19329992 19334406 19359084 19386016 19386172 19329208 
3532.793 19195064 18980542 18702940 18395326 18095990 17839640 17646308 
3536.168 17522738 17461836 17449878 17473474 17522688 17592792 17680230 
3539.544 17780034 17882484 17974518 18041066 18070234 18058210 18009366 
3542.919 17937710 17864140 17810620 17797244 17835904 17927812 18060998 
3546.294 18212060 18350694 18443818 18467022 18409452 18278336 18098536 
3549.669 17905972 17735750 17613454 17546466 17524924 17526710 17528136 
3553.045 17514444 17486096 17457862 17452134 17487616 17569456 17686000 
3556.420 17809972 17909552 17958122 17943980 17874850 17773142 17668674 
3559.795 17589350 17551646 17559032 17600434 17659036 17714430 17750020 
3563.170 17755884 17728430 17670510 17589164 17495016 17399416 17313350 
3566.546 17245672 17202234 17184836 17191346 17218892 17264264 17324716 
3569.921 17398820 17482880 17572108 17656820 17725396 17766336 17771252 
3573.296 17739518 17675324 17589796 17495382 17401912 17317522 17246052 
3576.671 17189308 17149802 17129102 17127576 17141872 17162166 17174310 
3580.047 17160194 17105290 17003118 16856418 16678622 16487965 16301358 
3583.422 16131636 15982045 15849460 15729807 15619135 15519476 15437799 
3586.797 15384185 15367047 15390602 15454264 15550971 15668849 15795177 
3590.172 15916022 16018635 16093997 16135473 16142929 16121404 16078824 
3593.548 16023602 15960069 15885931 15791804 15666854 15504577 15309906 
3596.923 15102089 14912898 14777945 14727815 14775288 14913427 15114599 
3600.298 15338493 15541752 15688209 15754193 15731469 15625307 15454378 
3603.673 15244722 15031421 14850883 14738321 14718828 14800036 14968124 
3607.049 15188646 15414448 15598082 15704259 15721694 15661104 15552907 
3610.424 15432003 15329802 15263462 15236861 15243368 15273443 15319849 
3613.799 15379565 15451272 15531830 15612655 15680918 15722221 15727947 
3617.174 15699178 15648367 15597302 15572137 15595526 15682267 15833486 
3620.550 16038446 16274516 16512865 16720628 16869756 16940674 16930794 
3623.925 16854282 16743287 16641129 16591024 16626131 16761426 16989684 
3627.300 17284862 17609706 17924126 18196972 18407646 18547832 18619662 
3630.675 18630658 18595028 18528224 18450326 18381298 18339776 18336242 
3634.051 18373388 18442834 18531430 18627244 18723824 18823718 18935238 
3637.426 19066794 19217792 19378488 19529596 19650358 19728424 19763642 
3640.801 19772368 19778040 19805584 19868936 19967384 20088362 20213166 
3644.176 20325170 20418006 20493622 20562042 20634030 20716446 20812352 
3647.552 20921144 21042836 21180492 21338046 21517842 21714742 21913314 
3650.927 22090496 22220138 22281360 22265278 22179360 22043714 21885582 
3654.302 21734792 21615518 21542750 21521650 21547816 21607644 21682348 
3657.677 21747862 21780834 21759862 21673998 21522358 21318950 21086882 
3661.052 20852448 20639252 20461420 20319570 20205352 20105616 20009058 
3664.428 19909774 19809606 19714464 19631224 19562236 19504052 19447820 
3667.803 19381618 19294112 19178666 19034284 18865884 18684296 18503784 
3671.178 18338996 18204204 18110486 18064992 18071794 18129684 18232656 
3674.553 18369156 18521718 18666816 18775854 18820350 18775730 18626810 
3677.929 18375674 18038972 17651724 17257320 16898890 16611537 16410772 
3681.304 16293647 16239587 16217927 16199959 16163126 16098300 16008427 
3684.679 15904605 15803354 15718851 15661217 15633415 15630525 15638493 
3688.054 15637945 15606795 15526762 15388828 15197554 14972802 14743956 
3691.430 14540995 14387252 14289399 14236577 14204116 14162756 14088663 
3694.805 13972077 13817678 13644359 13476573 13336793 13240342 13194758 
3698.180 13200060 13251452 13341288 13459709 13592010 13719165 13819401 
3701.555 13872907 13868900 13809954 13713131 13606885 13521283 13478734 
3704.931 13485440 13527924 13578224 13601908 13568627 13465479 13298889 
3708.306 13097716 12904440 12764279 12713412 12768589 12920447 13138056 
3711.681 13373855 13578244 13711996 13757081 13720150 13629104 13522774 
3715.056 13440004 13406123 13432693 13514273 13636243 13782474 13938695 
3718.432 14097831 14255405 14404459 14533913 14625099 14660832 14626030 
3721.807 14519302 14350835 14143399 13924488 13720231 13549420 13421260 
3725.182 13337751 13297163 13297140 13335336 13407037 13504907 13615891 
3728.557 13723170 13811171 13869288 13895760 13896685 13884267 13870349 
3731.933 13860296 13852981 13841799 13819260 13780495 13729244 13673739 
3735.308 13625208 13589772 13566935 13547463 13517871 13464422 13382864 
3738.683 13278309 13169114 13079504 13036597 13060765 13162410 13338453 
3742.058 13571441 13833661 14092111 14312504 14468153 14544868 14545864 
3745.434 14489769 14407114 14330701 14286210 14285041 14322581 14377420 
3748.809 14422500 14431248 14391617 14306851 14198497 14095766 14027994 
3752.184 14011991 14047276 14115180 14188373 14236494 14240581 14195850 
3755.559 14114080 14017108 13929656 13870556 13845593 13847747 13859068 
3758.935 13858083 13827577 13759500 13660630 13548296 13447751 13383000 
3762.310 13372021 13420619 13519768 13646109 13770855 13864318 13905599 
3765.685 13889009 13825099 13738773 13660987 13619185 13630495 13693680 
3769.060 13793028 13902354 13992819 14042236 14039620 13986719 13894482 
3772.436 13780170 13662307 13558413 13484630 13454453 13477735 13556010 
3775.811 13681360 13833626 13983041 14097543 14150850 14132832 14052558 
3779.186 13936277 13818837 13730804 13689231 13692872 13725192 13761563 
3782.561 13783414 13783022 13766322 13746964 13739232 13748824 13770178 
3785.937 13788124 13785957 13750894 13682295 13588496 13486202 13391860 
3789.312 13318255 13272229 13253409 13258893 13284386 13324955 13376683 
3792.687 13432478 13486132 13530301 13564339 13591162 13618118 13654591 
3796.062 13706926 13773354 13845891 13909820 13951686 13964500 13949390 
3799.438 13916885 13881578 13856800 13851068 13864509 13892052 13926084 
3802.813 13956946 13977651 13982346 13965813 13924490 13857599 13771879 
3806.188 13680036 13600891 13552635 13546846 13583291 13649642 13725555 
3809.563 13792966 13841171 13870804 13893314 13920285 13957837 13998580 
3812.938 14024428 14012060 13944381 13818068 13646490 13457936 13283887 
3816.314 13149446 13069279 13044287 13069520 13136201 13239117 13372172 
3819.689 13525555 13681796 13814991 13896522 13905810 13838225 13709458 
3823.064 13552575 13406137 13301183 13254707 13263147 13311327 13380472 
3826.439 13457432 13538510 13627152 13726308 13829584 13919588 13972264 
3829.815 13964680 13888250 13753316 13589310 13437438 13335581 13306028 
3833.190 13350971 13451242 13574215 13685310 13755571 13769218 13723918 
3836.565 13627090 13495766 13348911 13207031 13087174 13003700 12963539 
3839.940 12966705 13006164 13071537 13151684 13238139 13327954 13422934 
3843.316 13526156 13640197 13762617 13887005 14003854 14103648 14179697 
3846.691 14229033 14251899 14247901 14215996 14153093 14056611 13926412 
3850.066 13768028 13593795 13420567 13266094 13144650 13065768 13031250 
3853.441 13035840 13071317 13127908 13197004 13272169 13349160 13425013 
3856.817 13498825 13569183 13634404 13693072 13742477 13778999 13799674 
3860.192 13803591 13792547 13773763 13757422 13754237 13772857 13815226 
3863.567 13876451 13945307 14007598 14051056 14068435 14060504 14032028 
3866.942 13990499 13941209 13885316 13818169 13732528 13622572 13487264 
3870.318 13334740 13181675 13050432 12966609 12950770 13014060 13156000 
3873.693 13360470 13600597 13841079 14048897 14199295 14279159 14290260 
3877.068 14244884 14160628 14055626 13943091 13831959 13727675 13635813 
3880.443 13563631 13520340 13513592 13545739 13610440 13695003 13782186 
3883.819 13856676 13910430 13944861 13969434 13995184 14030675 14075656 
3887.194 14123246 14160977 14179491 14175403 14154941 14130317 14115042 
3890.569 14117180 14137130 14166705 14193168 14203380 14191091 14156296 
3893.944 14106011 14050251 13998382 13955999 13922850 13896198 13868500 
3897.320 13831940 13779229 13704891 13608143 13492622 13369658 13255138 
3900.695 13166905 13122031 13129383 13186902 13282096 13394524 13502424 
3904.070 13588971 13648550 13686103 13714144 13748583 13800515 13873735 
3907.445 13964466 14061360 14151883 14223365 14265611 14271550 14235682 
3910.821 14156301 14035740 13882232 13713020 13553842 13435937 13386883 
3914.196 13425654 13553072 13750228 13979632 14194861 14350759 14415872 
3917.571 14380470 14257355 14079235 13887348 13720305 13604687 13550583 
3920.946 13549500 13583251 13629193 13669383 13694647 13705634 13709808 
3924.322 13718440 13737821 13771367 13814887 13859335 13894354 13911013 
3927.697 13903801 13873886 13826380 13772565 13726612 13702963 13712127 
3931.072 13758447 13839320 13943197 14053806 14155252 14236752 14296066 
3934.447 14339618 14378975 14426102 14486128 14555116 14620042 14665777 
3937.823 14679681 14656998 14605619 14540803 14480841 14439169 14420922 
3941.198 14421371 14429851 14434513 14428113 14409983 14384205 14356317 
3944.573 14330131 14304865 14274845 14234798 14181694 14116311 14046039 
3947.948 13981421 13932352 13906620 13908184 13936271 13986001 14048809 
3951.323 14112562 14162995 14183605 14163943 14099508 13998611 13881844 
3954.699 13778794 13719579 13726271 13802730 13933258 14086034 14220486 
3958.074 14304596 14319830 14271445 14184823 14098451 14052276 14077936 
3961.449 14190277 14385381 14640267 14922002 15191534 15412140 15556219 
3964.824 15606893 15563185 15436475 15248492 15026012 14794760 14575278 
3968.200 14381095 14221223 14100835 14027633 14010637 14059819 14180779 
3971.575 14368647 14606483 14866180 15112166 15313753 15452040 15524335 
3974.950 15544157 15534611 15518023 15508871 15507161 15501063 15473155 
3978.325 15407340 15297486 15150240 14984484 14824287 14694529 14612501 
3981.701 14585668 14613779 14686610 14792870 14919261 15055014 15190544 
3985.076 15315191 15420029 15493446 15526506 15512656 15451482 15350170 
3988.451 15223911 15092297 14976528 14893402 14851598 14849526 14877995 
3991.826 14922613 14971244 15016686 15058802 15104800 15161626 15233284 
3995.202 15317648 15405108 15482708 15539088 15570893 15581992 15585342 
3998.577 15595376 15625197 15678292 15750257 15827324 
##END=
