##TITLE=3D-Fillies_PETG_White_Filament_r2_ATR-Corrected
##JCAMP-DX=5.01  $$ Nicolet v. 1
##DATATYPE=INFRARED SPECTRUM
##ORIGIN=Curtin University
##OWNER=Nicolet
##LONGDATE=2024/07/18
##TIME=12:06:42
##SPECTROMETER/DATA SYSTEM=Nicolet iS50
##DATA PROCESSING=
Ratio against background
%Transmittance->Absorbance
ATR Correction
Truncated
ElementMultiply or ElementDivide
##COMMENTS=
Number of sample scans: 32
Collection length: 47.27 sec
Sample gain: 1.0
Background collected on: Thu Jul 18 12:05:29 2024 (GMT+08:00);
Number of background scans: 32
Background gain: 1.0
Sample spacing:  1.000
Number of scan points: 16672
Resolution points: 8192
Number of FFT points: 65536
Apodization: N-B strong;
Phase correction: Mertz;
Laser frequency: 15798.3 cm-1
Number of rejected sample scans: 0
Number of rejected background scans: 0
Bench serial number: AUP1200105;
##RESOLUTION=4.000
##XUNITS=1/CM
##YUNITS=ABSORBANCE
##FIRSTX=400.163452
##LASTX=4000.187744
##FIRSTY=0.039078
##MAXX=4000.187744
##MINX=400.163452
##MAXY=1.566596
##MINY=-0.035128
##XFACTOR=1.000000
##YFACTOR=1.000000E-008
##NPOINTS=7468
##DELTAX=0.482125
##ZPD=8192
##XYDATA=(X++(Y..Y))
400.163 3907831 3900586 3916762 3949044 3988270 4025870 4056427 4078517 
404.020 4093719 4104478 4111776 4114108 4108289 4091549 4064331 4031638 
407.877 4002486 3986927 3992038 4018256 4058073 4097484 4120782 4116205 
411.734 4080758 4021699 3954519 3897509 3865886 3866828 3897607 3946993 
415.591 3999175 4038719 4055265 4046362 4018030 3982729 3955530 3949470 
419.448 3971532 4020371 4086801 4156594 4215078 4251869 4264305 4258190 
423.305 4245469 4239531 4250017 4278880 4319648 4359838 4386104 4389618 
427.162 4369610 4333424 4293393 4261858 4246739 4249237 4264474 4284375 
431.019 4301400 4311131 4313032 4308873 4300909 4289473 4272699 4247707 
434.876 4212601 4168225 4118664 4070067 4028588 3998141 3979222 3969078 
438.733 3963139 3956878 3947349 3933759 3917115 3899312 3882254 3867469 
442.590 3856160 3849431 3848394 3853770 3865340 3881359 3898514 3912589 
446.447 3919531 3916680 3903619 3882193 3855862 3828626 3803958 3784242 
450.304 3770617 3763310 3761977 3765935 3774143 3785049 3796592 3806435 
454.161 3812383 3812934 3807717 3797598 3784516 3771021 3759831 3753341 
458.017 3753290 3760474 3774575 3794049 3816303 3838074 3856153 3868289 
461.874 3873889 3874376 3872796 3872905 3877964 3889433 3906419 3925877 
465.731 3943524 3955281 3958591 3953345 3942031 3929037 3919489 3917873 
469.588 3926824 3946508 3974587 4006862 4038334 4064402 4081960 4090107 
473.445 4090102 4084879 4078149 4073429 4073434 4079820 4093405 4114514 
477.302 4143282 4179576 4222754 4271168 4321950 4371239 4414819 4449192 
481.159 4472559 4485350 4490110 4490816 4491840 4497026 4509161 4529889 
485.016 4559977 4599577 4648403 4705611 4769609 4838000 4907845 4976261 
488.873 5041280 5102411 5160933 5219541 5281612 5350265 5427660 5514713 
492.730 5611152 5715898 5827470 5944163 6064151 6185242 6304835 6419946 
496.587 6527483 6624637 6709226 6779841 6835827 6876879 6902721 6912805 
500.444 6906244 6881897 6838818 6776627 6695954 6598589 6487509 6366463 
504.301 6239440 6109902 5980205 5851310 5722962 5594245 5464492 5334081 
508.158 5204833 5079906 4963087 4857782 4766100 4688326 4623020 4567676 
512.015 4519655 4476950 4438612 4404575 4375219 4350666 4330390 4313111 
515.871 4297112 4280635 4262416 4241879 4219158 4194876 4169886 4144984 
519.728 4120789 4097608 4075432 4053915 4032432 4010174 3986411 3960779 
523.585 3933512 3905516 3878212 3853085 3831267 3813048 3797855 3784358 
527.442 3770987 3756431 3740066 3722093 3703419 3685210 3668531 3653945 
531.299 3641421 3630349 3619754 3608527 3595662 3580315 3561927 3540207 
535.156 3515176 3487204 3457083 3426078 3395890 3368470 3345742 3329195 
539.013 3319499 3316149 3317503 3320995 3323703 3322977 3317038 3305243 
542.870 3288070 3266656 3242366 3216324 3189275 3161721 3134235 3107713 
546.727 3083415 3062647 3046351 3034670 3026864 3021532 3017167 3012741 
550.584 3007943 3003055 2998455 2993994 2988660 2980708 2968199 2949835 
554.441 2925565 2896651 2865262 2833605 2803134 2774083 2745686 2716694 
558.298 2686144 2653804 2620273 2586604 2553874 2522802 2493812 2467280 
562.155 2443856 2424435 2409824 2400022 2393692 2387951 2379021 2363385 
566.012 2339096 2306749 2269538 2232347 2200261 2176960 2163727 2159277 
569.869 2160574 2163932 2166282 2165750 2161755 2154563 2144789 2133054 
573.725 2120038 2106668 2094281 2084535 2078975 2078374 2082273 2088914 
577.582 2095633 2099726 2099258 2093748 2084202 2072725 2061854 2053799 
581.439 2050003 2051008 2056661 2066403 2079667 2095891 2114588 2135197 
585.296 2157026 2179198 2200808 2221103 2239688 2256645 2272629 2288825 
589.153 2306725 2327927 2353883 2385678 2423919 2468734 2519938 2577138 
593.010 2639958 2708027 2780863 2857688 2937288 3017763 3096645 3170947 
596.867 3237361 3292431 3332784 3355335 3357643 3338340 3297578 3237327 
600.724 3161332 3074621 2982655 2890343 2801232 2717176 2638582 2565127 
604.581 2496608 2433528 2377266 2329621 2292112 2265213 2248070 2238619 
608.438 2234223 2232434 2231655 2231262 2231516 2232955 2235983 2240571 
612.295 2246315 2252666 2259206 2265787 2272495 2279387 2286355 2293012 
616.152 2298841 2303422 2306700 2309060 2311287 2314299 2318879 2325481 
620.009 2334205 2344876 2357293 2371394 2387444 2406032 2427940 2453983 
623.866 2484732 2520270 2560228 2603965 2651228 2702903 2761691 2832364 
627.723 2921154 3034091 3174731 3341656 3526767 3715049 3886423 4019433 
631.579 4096088 4106262 4050365 3939182 3790969 3626931 3466525 3324101 
635.436 3207405 3118127 3053611 3009126 2979718 2961411 2951502 2948413 
639.293 2951283 2959602 2973070 2991436 3014393 3041342 3071221 3102460 
643.150 3133157 3161497 3186225 3206954 3224226 3239110 3252761 3265850 
647.007 3278342 3289564 3298559 3304537 3307223 3306943 3304571 3301257 
650.864 3298309 3297007 3298628 3304327 3315046 3331167 3352282 3377065 
654.721 3403381 3428771 3451106 3469200 3483243 3494678 3505806 3519006 
658.578 3536029 3557476 3582752 3610339 3638461 3665661 3691309 3715719 
662.435 3739962 3765404 3793183 3823812 3856989 3891752 3926859 3961257 
666.292 3994467 4026737 4058981 4092417 4128199 4167107 4209428 4255108 
670.149 4304050 4356355 4412490 4473218 4539403 4611733 4690627 4776193 
674.006 4868389 4967091 5072104 5182934 5298478 5416734 5534768 5649014 
677.863 5755835 5852202 5936239 6007300 6065803 6112658 6148715 6174513 
681.720 6190335 6196563 6194266 6185433 6173011 6160447 6151073 6147503 
685.577 6151335 6163152 6182892 6210309 6245270 6287881 6338388 6396919 
689.433 6463340 6537223 6618049 6705450 6799455 6900539 7009610 7127738 
693.290 7255988 7395286 7546420 7710113 7887242 8078869 8286374 8511324 
697.147 8755414 9020119 9306502 9614842 9944335 10292902 10657097 11032359 
701.004 11413386 11794801 12171763 12540539 12898810 13245611 13581033 
704.379 13905771 14220718 14526583 14823909 15113162 15395053 15670756 
707.754 15942079 16211528 16482241 16758017 17043358 17343778 17666308 
711.129 18019826 18415410 18866484 19388514 19998462 20714130 21553316 
714.504 22533316 23670392 24979604 26474636 28167508 30067948 32182386 
717.878 34512480 37053620 39793356 42710628 45775072 48946624 52174396 
721.253 55394440 58525872 61466692 64092064 66258740 67820288 68652632 
724.628 68683936 67915832 66425068 64344524 61832976 59046900 56121616 
728.003 53163408 50249296 47430908 44739608 42191192 39789676 37530288 
731.378 35401988 33389712 31476510 29645652 27882270 26174522 24514068 
734.752 22896094 21318970 19783842 18294240 16855712 15475391 14161286 
738.127 12921456 11762915 10690838 9707991 8814614 8008732 7286650 6643675 
741.984 6074441 5573231 5134161 4751214 4418419 4129938 3880329 3664564 
745.841 3478102 3316778 3176809 3054730 2947488 2852548 2767997 2692443 
749.698 2624950 2564685 2510820 2462357 2418237 2377521 2339609 2304353 
753.555 2272014 2243032 2217787 2196393 2178588 2163870 2151629 2141383 
757.412 2132849 2125971 2120792 2117340 2115533 2115198 2116116 2118181 
761.269 2121495 2126407 2133525 2143588 2157355 2175435 2198183 2225652 
765.126 2257632 2293821 2334003 2378215 2426751 2480025 2538295 2601246 
768.983 2667803 2736088 2803772 2868622 2929082 2984638 3035817 3083841 
772.840 3129935 3174827 3218456 3260162 3299198 3335291 3369043 3401887 
776.697 3435631 3471870 3511506 3554597 3600733 3649606 3701604 3758068 
780.554 3821123 3893102 3975899 4070510 4177007 4294884 4423621 4563160 
784.410 4714109 4877555 5054637 5246192 5452544 5673591 5909112 6158973 
788.267 6423087 6701005 6991269 7290537 7592994 7889957 8170003 8419448 
792.124 8623277 8766406 8835292 8819824 8715212 8523527 8254409 7924644 
795.981 7556405 7174487 6803109 6462939 6168977 5929624 5746961 5617972 
799.838 5536194 5493471 5481368 5492092 5518978 5556620 5600779 5648255 
803.695 5696624 5744023 5788983 5830253 5866818 5897930 5923326 5943296 
807.552 5958730 5970885 5981115 5990467 5999461 6008057 6015844 6022416 
811.409 6027682 6032052 6036320 6041465 6048251 6056965 6067350 6078642 
815.266 6089858 6100082 6108711 6115610 6121069 6125743 6130502 6136223 
819.123 6143649 6153210 6165035 6178970 6194714 6212034 6230925 6251682 
822.980 6274763 6300635 6329460 6360998 6394605 6429523 6465274 6501978 
826.837 6540525 6582350 6629080 6681949 6741500 6807388 6878678 6954266 
830.694 7033323 7115528 7201076 7290345 7383540 7480389 7580139 7681827 
834.551 7784583 7887985 7992102 8097279 8203737 8311186 8418583 8524293 
838.408 8626412 8723221 8813630 8897264 8974325 9045298 9110592 9170394 
842.264 9224670 9273323 9316476 9354530 9388166 9418155 9445110 9469436 
846.121 9491256 9510615 9527687 9542899 9556857 9570201 9583358 9596342 
849.978 9608811 9620195 9630062 9638364 9645581 9652708 9660982 9671684 
853.835 9685898 9704525 9728348 9758217 9795067 9839856 9893361 9955952 
857.692 10027590 10107890 10196669 10294379 10402583 10524025 10662449 
861.067 10821933 11006271 11218388 11460249 11733019 12037653 12375379 
864.442 12748079 13158204 13608357 14100607 14635828 15213156 15829651 
867.817 16480243 17157518 17851632 18550006 19237014 19894080 20500158 
871.191 21032970 21470754 21794536 21990174 22049968 21973174 21765636 
874.566 21438534 21006650 20486672 19895830 19250892 18567612 17860494 
877.941 17142636 16425744 15720159 15034859 14377497 13754323 13170129 
881.316 12628144 12130023 11676018 11265172 10895668 10565176 10271081 
884.691 10010619 9780910 9579039 9402122 9247565 9113216 8997583 8899745 
888.548 8819155 8755243 8707058 8673055 8651136 8638951 8634230 8635143 
892.405 8640406 8649150 8660766 8674539 8689623 8705112 8720133 8734179 
896.262 8746993 8758481 8768391 8775923 8779619 8777317 8766466 8744459 
900.118 8709022 8658364 8591365 8507466 8406714 8289728 8157795 8012973 
903.975 7857971 7696063 7530729 7365323 7202830 7045647 6895676 6754359 
907.832 6622772 6501659 6391399 6291964 6202952 6123662 6053374 5991525 
911.689 5937847 5892377 5855288 5826692 5806458 5794155 5789154 5790798 
915.546 5798548 5812058 5831128 5855478 5884705 5918073 5954707 5993669 
919.403 6034211 6075895 6118645 6162628 6208054 6255036 6303421 6352832 
923.260 6402718 6452552 6501956 6550844 6599460 6648350 6698217 6749731 
927.117 6803354 6859103 6916527 6974725 7032538 7088896 7143062 7194905 
930.974 7244915 7294074 7343654 7394898 7448870 7506383 7568075 7634520 
934.831 7706371 7784343 7869261 7961929 8063145 8173689 8294368 8426090 
938.688 8569774 8726285 8896233 9079841 9276956 9487105 9709796 9944603 
942.545 10191341 10449881 10719933 11000604 11290254 11586334 11885680 
945.920 12184882 12480719 12770580 13052638 13325913 13590156 13845731 
949.294 14093602 14335284 14572738 14808251 15044072 15281858 15522245 
952.669 15764333 16005477 16241214 16465457 16670865 16849402 16992980 
956.044 17094388 17148138 17151490 17104798 17011944 16879900 16717935 
959.419 16536516 16346218 16156878 15977110 15814178 15673967 15560959 
962.794 15478116 15426657 15405911 15413386 15445118 15496336 15562099 
966.168 15637761 15719141 15802316 15883231 15957440 16020094 16066338 
969.543 16091959 16093914 16070795 16022533 15950043 15854469 15736771 
972.918 15597507 15437189 15256694 15057907 14843866 14618675 14387034 
976.293 14153583 13922404 13696662 13478664 13270088 13072278 12886557 
979.668 12714234 12556644 12414859 12289551 12180753 12087867 12009703 
983.043 11944588 11890515 11845410 11807190 11773928 11743878 11715478 
986.417 11687395 11658489 11627931 11595300 11560580 11524348 11487649 
989.792 11451940 11418828 11389922 11366675 11350308 11341953 11342624 
993.167 11353326 11375021 11408591 11454746 11513992 11586695 11673255 
996.542 11774223 11890318 12022385 12171073 12336639 12518676 12716182 
999.917 12927821 13152464 13389607 13639951 13905464 14189342 14495660 
1003.291 14829130 15194742 15597661 16043311 16537327 17085650 17694474 
1006.666 18370070 19118882 19947676 20864018 21876988 22997920 24240824 
1010.041 25622356 27160758 28873832 30775700 32872588 35157708 37605684 
1013.416 40167092 42764148 45289196 47607928 49569260 51022780 51841504 
1016.791 51944744 51313640 49993752 48084224 45718472 43042432 40197184 
1020.166 37307264 34474800 31778050 29272744 26994628 24962708 23182568 
1023.540 21649434 20351068 19270208 18386524 17678252 17123240 16699800 
1026.916 16387300 16166648 16020674 15934482 15895587 15893884 15921395 
1030.291 15971918 16040614 16123706 16218266 16322231 16434389 16554327 
1033.666 16682196 16818536 16963790 17118012 17280612 17450408 17625752 
1037.041 17804838 17985902 18167472 18348288 18527156 18702642 18872820 
1040.417 19035104 19186344 19323050 19441874 19540014 19615662 19668070 
1043.792 19697640 19705652 19693982 19664816 19620550 19563598 19496426 
1047.167 19421522 19341348 19258204 19174242 19091288 19011104 18935308 
1050.542 18865732 18804390 18753542 18715490 18692376 18685924 18697440 
1053.917 18727792 18777740 18848084 18939876 19054346 19192786 19356188 
1057.293 19545006 19759076 19997766 20260150 20545534 20853602 21184628 
1060.668 21539304 21918562 22323232 22753878 23210592 23693206 24201288 
1064.043 24734462 25292540 25875726 26484678 27120578 27785028 28480026 
1067.418 29207778 29970532 30770358 31609172 32488700 33410710 34377160 
1070.794 35390448 36453496 37569720 38742836 39976616 41274464 42639132 
1074.169 44072156 45573696 47142096 48773880 50463772 52205132 53990304 
1077.544 55811064 57658856 59524800 61399148 63271188 65128816 66959320 
1080.919 68749760 70488712 72167056 73778808 75320920 76792912 78196168 
1084.295 79533680 80810208 82032576 83209464 84350952 85466960 86565760 
1087.670 87652168 88727344 89788704 90831240 91848176 92831792 93772832 
1091.045 94659928 95478768 96212616 96843168 97352704 97725616 97949648 
1094.420 98015392 97915816 97645240 97199640 96577408 95780912 94816960 
1097.796 93696832 92434320 91043800 89538128 87928128 86222824 84430912 
1101.171 82561960 80627496 78641176 76618760 74577464 72536144 70515120 
1104.546 68536552 66624004 64802236 63096016 61529128 60123064 58896156 
1107.921 57862460 57031328 56406420 55985356 55758840 55710508 55816744 
1111.297 56047528 56367584 56738432 57120560 57475920 57769804 57972592 
1114.672 58060664 58017296 57832820 57504756 57037188 56439656 55725624 
1118.047 54910588 54010296 53039724 52012252 50939740 49832688 48700668 
1121.422 47552304 46395536 45237440 44084336 42941812 41814896 40708120 
1124.798 39625580 38570672 37546000 36553068 35592412 34663572 33765536 
1128.173 32896870 32056048 31241486 30451622 29684710 28938902 28212300 
1131.548 27503178 26810076 26132054 25468608 24819698 24185436 23566074 
1134.923 22961778 22372678 21798856 21240414 20697484 20170218 19658696 
1138.299 19162952 18682954 18218672 17770160 17337612 16921296 16521506 
1141.674 16138364 15771800 15421493 15087041 14768031 14464237 14175636 
1145.049 13902283 13644096 13400663 13171054 12953851 12747309 12549610 
1148.424 12359095 12174448 11994609 11818682 11645772 11474901 11304992 
1151.800 11135048 10964375 10792756 10620440 10448170 10276952 10107896 
1155.175 9941998 9780228 9623420 9472459 9328241 9191759 9063982 8945891 
1159.032 8838282 8741871 8657152 8584569 8524339 8476624 8441522 8419212 
1162.890 8410136 8415216 8436044 8474918 8534664 8618330 8728646 8867523 
1166.747 9035546 9231721 9453308 9695935 9953701 10219520 10485389 10742833 
1170.604 10983348 11198981 11382817 11529469 11635271 11698402 11718719 
1173.980 11697433 11636765 11539687 11409646 11250501 11066443 10861968 
1177.355 10641760 10410554 10172937 9933256 9695486 9463353 9240285 9029574 
1181.212 8834312 8657322 8500984 8367060 8256623 8170052 8107152 8067428 
1185.070 8050196 8054850 8080851 8127740 8194998 8281956 8387679 8510947 
1188.927 8650279 8804069 8970629 9148356 9335800 9531689 9734947 9944768 
1192.785 10160497 10381719 10608151 10839627 11076029 11317314 11563492 
1196.160 11814714 12071368 12334099 12603743 12881263 13167553 13463177 
1199.535 13768373 14083104 14407219 14740831 15084384 15438861 15805499 
1202.910 16185562 16579917 16988816 17411918 17848486 18297800 18759566 
1206.286 19234040 19722134 20225094 20744256 21280784 21835672 22409796 
1209.661 23004186 23620098 24259102 24922932 25613246 26331502 27078920 
1213.036 27856610 28665796 29507950 30384668 31297434 32247010 33232910 
1216.411 34252940 35302944 36377020 37467824 38567324 39667620 40762024 
1219.787 41845940 42917924 43980144 45038640 46102776 47184412 48296400 
1223.162 49451472 50660796 51933396 53275752 54691748 56182932 57748912 
1226.537 59387732 61096592 62872500 64713152 66617428 68585976 70620768 
1229.912 72724640 74900048 77148200 79468264 81857320 84310296 86820528 
1233.288 89379688 91977696 94601896 97236592 99862296 102455888 104990848 
1236.663 107437920 109765568 111940936 113930488 115702056 117226616 
1239.556 118481232 119451168 120130944 120523952 120641552 120500744 
1242.449 120123280 119534360 118761840 117834440 116780416 115625024 
1245.342 114389816 113091984 111746320 110367216 108970664 107574760 
1248.235 106199136 104862416 103580192 102363000 101216496 100142208 
1251.128 99139848 98208936 97350008 96564352 95853448 95217480 94654664 
1254.503 94160672 93728656 93349208 93010272 92696616 92389904 92068800 
1257.879 91710584 91293312 90798304 90212216 89527832 88743600 87862056 
1261.254 86888040 85827536 84687424 83475664 82201736 80876992 79514000 
1264.629 78125840 76725008 75322904 73929456 72553224 71201328 69879552 
1268.004 68592032 67341264 66128076 64952028 63811944 62706520 61634560 
1271.380 60594924 59586088 58605824 57650800 56716920 55799908 54896028 
1274.755 54002552 53118216 52242720 51376284 50518984 49670480 48829936 
1278.130 47996400 47168944 46347164 45531032 44720852 43917020 43119988 
1281.505 42330200 41548396 40775652 40013584 39264060 38529152 37810764 
1284.881 37110440 36429376 35768380 35127900 34508188 33909164 33330360 
1288.256 32770810 32228976 31702740 31189316 30685290 30186694 29689068 
1291.631 29187634 28677722 28155234 27617132 27061916 26489738 25902342 
1295.006 25302744 24694776 24082654 23470834 22863882 22266566 21683636 
1298.382 21119906 20579712 20066650 19583126 19130188 18707398 18313066 
1301.757 17944514 17598350 17270780 16957838 16655472 16359812 16067372 
1305.132 15775329 15481751 15185900 14888199 14590240 14294413 14003707 
1308.507 13721301 13450216 13193117 12952077 12728454 12522843 12334859 
1311.883 12163264 12005910 11859944 11721952 11588338 11455556 11320501 
1315.258 11180737 11034716 10881759 10722086 10556503 10386229 10212516 
1318.633 10036434 9858683 9679647 9499545 9318636 9137427 8956861 8778233 
1322.490 8603163 8433352 8270547 8116480 7972996 7842104 7726259 7628258 
1326.348 7551355 7498988 7474775 7482505 7526093 7609673 7737684 7914673 
1330.205 8144951 8431953 8777610 9181578 9640834 10149340 10698154 11275522 
1334.063 11867137 12456542 13025633 13555501 14027661 14425452 14735560 
1337.438 14949128 15062258 15075938 14995308 14828640 14586362 14280160 
1340.813 13922195 13524570 13098870 12655711 12204392 11752733 11306997 
1344.188 10872076 10451792 10049195 9666757 9306477 8969824 8657574 8369767 
1348.046 8105699 7864187 7643806 7443259 7261458 7097548 6950789 6820396 
1351.903 6705381 6604638 6516991 6441395 6377003 6323106 6279021 6244084 
1355.761 6217493 6198562 6186834 6182325 6185590 6197633 6219794 6253478 
1359.618 6300062 6360968 6437746 6532261 6646615 6782923 6942785 7126835 
1363.476 7334282 7562735 7808432 8066538 8331555 8597733 8859318 9110728 
1367.333 9346747 9562861 9755477 9922399 10062868 10177673 10268698 10338575 
1371.190 10389984 10425355 10446364 10453989 10448467 10429538 10396738 
1374.566 10349584 10287870 10211850 10122368 10020960 9909821 9791682 
1377.941 9669735 9547288 9427653 9314007 9209300 9116254 9037289 8974526 
1381.798 8929577 8903399 8896074 8906841 8934145 8975777 9029268 9091964 
1385.656 9161335 9235002 9310801 9386884 9461781 9534449 9604243 9670966 
1389.513 9734661 9795503 9853681 9909477 9963246 10015661 10067755 10121129 
1393.371 10177889 10240726 10312783 10397691 10499484 10622539 10771478 
1396.746 10950979 11165519 11419304 11716114 12059458 12452907 12900487 
1400.121 13407066 13978598 14621857 15343922 16150911 17046634 18030568 
1403.496 19095984 20228038 21402354 22584328 23729812 24787070 25700522 
1406.872 26415414 26883644 27068752 26950366 26526300 25813002 24843278 
1410.247 23662772 22324928 20886044 19400260 17916044 16473456 15103093 
1413.622 13825949 12654375 11593404 10642574 9797401 9050949 8394851 7820113 
1417.479 7317578 6878406 6494385 6158240 5863765 5605961 5380840 5185219 
1421.337 5016333 4871751 4749179 4646590 4562273 4494959 4443706 4407855 
1425.194 4386892 4380355 4387887 4409238 4444415 4493658 4557294 4635603 
1429.052 4728510 4835547 4955750 5087834 5230337 5381761 5540753 5706106 
1432.909 5876780 6052003 6231219 6414179 6600647 6790314 6982462 7175755 
1436.767 7368121 7557118 7740268 7915786 8082996 8242789 8397530 8550908 
1440.624 8707355 8871556 9047850 9239789 9449866 9679394 9928519 10196275 
1444.481 10480745 10779147 11088002 11403245 11720185 12033637 12337887 
1447.857 12626843 12894168 13133602 13339169 13505417 13627753 13702558 
1451.232 13727657 13702664 13629274 13511294 13354301 13164984 12950449 
1454.607 12717597 12472793 12221824 11969925 11721785 11481340 11251553 
1457.982 11034016 10828972 10635460 10451777 10275798 10105534 9939245 
1461.358 9775639 9613631 9452450 9291468 9130292 8968675 8806696 8644509 
1465.215 8482344 8320360 8158710 7997496 7837096 7678140 7521649 7368796 
1469.073 7220635 7077794 6940275 6807447 6678267 6551616 6426639 6302887 
1472.930 6180272 6058844 5938521 5818895 5699246 5578723 5456613 5332604 
1476.787 5206817 5079700 4951841 4823658 4695337 4566819 4438080 4309289 
1480.645 4181042 4054295 3930182 3809748 3693699 3582338 3475639 3373501 
1484.502 3275969 3183429 3096524 3016017 2942488 2876105 2816553 2763151 
1488.360 2715134 2671856 2633119 2599153 2570635 2548410 2533423 2526594 
1492.217 2528840 2541152 2564687 2600814 2651013 2716704 2799190 2899570 
1496.074 3018999 3159034 3322307 3513005 3737310 4003282 4320125 4696679 
1499.932 5139310 5649291 6220328 6836853 7473392 8095801 8664091 9136763 
1503.789 9476078 9653334 9653399 9477410 9142866 8680898 8131166 7535519 
1507.647 6932138 6351402 5814089 5331737 4908448 4543059 4231449 3968051 
1511.504 3746882 3562203 3408696 3281559 3176543 3089887 3018408 2959437 
1515.362 2910862 2871091 2838949 2813627 2794556 2781201 2773038 2769474 
1519.219 2769855 2773490 2779749 2788062 2797963 2809060 2821007 2833474 
1523.076 2846102 2858493 2870149 2880469 2888794 2894454 2896885 2895756 
1526.934 2891026 2882916 2871889 2858360 2842594 2824565 2803991 2780455 
1530.791 2753640 2723525 2690463 2655198 2618694 2581908 2545653 2510503 
1534.649 2476838 2444947 2415078 2387488 2362392 2339779 2319475 2301027 
1538.506 2283943 2267845 2252685 2238738 2226605 2216872 2209943 2205840 
1542.364 2204238 2204536 2206123 2208477 2211304 2214475 2217950 2221823 
1546.221 2226202 2231330 2237553 2245260 2254774 2266206 2279251 2293234 
1550.078 2307308 2320622 2332717 2343618 2353830 2364101 2375170 2387403 
1553.936 2400819 2415035 2429599 2444142 2458675 2473380 2488664 2504843 
1557.793 2522080 2540264 2559150 2578518 2598291 2618601 2639826 2662383 
1561.651 2686705 2713113 2741885 2773233 2807432 2844801 2885832 2931073 
1565.508 2981206 3036959 3099135 3168492 3245835 3331902 3427478 3533394 
1569.365 3650691 3780613 3924684 4084480 4261605 4457240 4671978 4905552 
1573.223 5156541 5422070 5697491 5976094 6248885 6504815 6731602 6916789 
1577.080 7049259 7120525 7125620 7063389 6936431 6750681 6514859 6239741 
1580.938 5937406 5620253 5300162 4987600 4691109 4416989 4169294 3949950 
1584.795 3759025 3595145 3455862 3338202 3238967 3155185 3084206 3023836 
1588.653 2972203 2927671 2888808 2854221 2822776 2793512 2765845 2739599 
1592.510 2715005 2692600 2673174 2657550 2646503 2640583 2640157 2645234 
1596.367 2655666 2671055 2690845 2714445 2741223 2770573 2802005 2835202 
1600.225 2870030 2906516 2944851 2985279 3028126 3073721 3122382 3174480 
1604.082 3230471 3290813 3355957 3426199 3501576 3581784 3666202 3753856 
1607.940 3843707 3934665 4025697 4115739 4203734 4288425 4368360 4441927 
1611.797 4507392 4563017 4607073 4637884 4653822 4653332 4635195 4598821 
1615.655 4544686 4474540 4391594 4300038 4204624 4109917 4019820 3937309 
1619.512 3864400 3802221 3751227 3711246 3681532 3660853 3647645 3640236 
1623.369 3637234 3637594 3640743 3646449 3654461 3664373 3675489 3686907 
1627.227 3697821 3707715 3716545 3724590 3732322 3740081 3747896 3755595 
1631.084 3762991 3770113 3777340 3785280 3794515 3805296 3817279 3829618 
1634.942 3841269 3851319 3859499 3866213 3872345 3878860 3886478 3895420 
1638.799 3905531 3916492 3928167 3940705 3954505 3969929 3987143 4005848 
1642.656 4025483 4045319 4064853 4084034 4103213 4123030 4144186 4167163 
1646.514 4192207 4219305 4248298 4278999 4311186 4344571 4378820 4413632 
1650.371 4448969 4485092 4522833 4563412 4608122 4657932 4713120 4773193 
1654.229 4837118 4903805 4972546 5043337 5116816 5193996 5275968 5363638 
1658.086 5457653 5558443 5666443 5782128 5906041 6038530 6179712 6329256 
1661.944 6486515 6650691 6821129 6997444 7179476 7367221 7560560 7759199 
1665.801 7962664 8170411 8381942 8596876 8814798 9035134 9257028 9479384 
1669.658 9701146 9921604 10140818 10359590 10579470 10802338 11029883 
1673.034 11263450 11503704 11750744 12004200 12263499 12527977 12796994 
1676.409 13070038 13346823 13627250 13911337 14199191 14490612 14785124 
1679.784 15081707 15379320 15677027 15974677 16273008 16573855 16879458 
1683.159 17192068 17513152 17843196 18181700 18527932 18881626 19243752 
1686.535 19616492 20003254 20408016 20834988 21288258 21771852 22289682 
1689.910 22845624 23443254 24085592 24775000 25513470 26303416 27148688 
1693.285 28055212 29031002 30085048 31225482 32457828 33784284 35204892 
1696.660 36720304 38335256 40060992 41915412 43920596 46098248 48465060 
1700.036 51029460 53791816 56748004 59895112 63236384 66783100 70552008 
1703.411 74560240 78818944 83328800 88078424 93045848 98201304 103508856 
1706.786 108925440 114397872 119859800 125231624 130424872 135349728 
1709.679 139922208 144067232 147717280 150809248 153284688 155096560 
1712.572 156219616 156659616 156453088 155658288 154340400 152560176 
1715.465 150369936 147818368 144957872 141849808 138562448 135163200 
1718.358 131708720 128238584 124774408 121324768 117892232 114480112 
1721.251 111095496 107749232 104453264 101218224 98051528 94957584 91938696 
1724.627 88996488 86132088 83346072 80637608 78004096 75441296 72944520 
1728.002 70509848 68135192 65820264 63565828 61372000 59237164 57156952 
1731.377 55124808 53133152 51175148 49246392 47345872 45475812 43640668 
1734.752 41845192 40092792 38384196 36717512 35088904 33494204 31930262 
1738.128 30396182 28893528 27426166 25999076 24617480 23285778 22007264 
1741.503 20784064 19617574 18508748 17458176 16466220 15532851 14657536 
1744.878 13839364 13077000 12368881 11713082 11107329 10548932 10034721 
1748.253 9561315 9125257 8723202 8352153 8009345 7692305 7398731 7126654 
1752.111 6874409 6640831 6425013 6226219 6043437 5875157 5719290 5573473 
1755.968 5435587 5304216 5179035 5060746 4950537 4849538 4758015 4675322 
1759.826 4599821 4529380 4461929 4395930 4330577 4265820 4202114 4140147 
1763.683 4080589 4024016 3970651 3920525 3873163 3827810 3783381 3738875 
1767.541 3693652 3647719 3601777 3557158 3515217 3477068 3442948 3412340 
1771.398 3384046 3356715 3329129 3300709 3271475 3241992 3213007 3185329 
1775.255 3159551 3135999 3114647 3095091 3076602 3058106 3038484 3016779 
1779.113 2992697 2966667 2939939 2914217 2891112 2871733 2856120 2843535 
1782.970 2832435 2821243 2808595 2793765 2776583 2757440 2736845 2715527 
1786.828 2694227 2673670 2654658 2637743 2623231 2610965 2600269 2590200 
1790.685 2579906 2568842 2556993 2544777 2532699 2520996 2509515 2497802 
1794.542 2485379 2472122 2458424 2445004 2432641 2421667 2411721 2401943 
1798.400 2391404 2379620 2366977 2354704 2344375 2337256 2333658 2332843 
1802.257 2333301 2333464 2332340 2329953 2327207 2325347 2325303 2327181 
1806.115 2330237 2333092 2334399 2333257 2329406 2323188 2315023 2305378 
1809.972 2294439 2282427 2269645 2256759 2244559 2233721 2224354 2215936 
1813.830 2207408 2197770 2186694 2175026 2164745 2158572 2159058 2167688 
1817.687 2184372 2207268 2233369 2259280 2281993 2299451 2310631 2315573 
1821.544 2315005 2310285 2303187 2295725 2289765 2286657 2286714 2289110 
1825.402 2291919 2292773 2289424 2280652 2266389 2247758 2226457 2204215 
1829.259 2182229 2160954 2140209 2119590 2098778 2077662 2056329 2034778 
1833.117 2012904 1990326 1966691 1941967 1916646 1891811 1868815 1848958 
1836.974 1833031 1821067 1812362 1805722 1799702 1793050 1784785 1774261 
1840.832 1761101 1745075 1726093 1704375 1680470 1655368 1630516 1607530 
1844.689 1587923 1572612 1561537 1553613 1546626 1537947 1524971 1506106 
1848.546 1481247 1452146 1421987 1394749 1373898 1361506 1357456 1359619 
1852.404 1364380 1367807 1366708 1359404 1345850 1327349 1305812 1283189 
1856.261 1261142 1240938 1223622 1210055 1200939 1196456 1195948 1197859 
1860.119 1199914 1199763 1195686 1187083 1174613 1159879 1144589 1129939 
1863.976 1116147 1102658 1088519 1073210 1056982 1041068 1027241 1017218 
1867.833 1012016 1011632 1014921 1020119 1025068 1027793 1026721 1020889 
1871.691 1010025 994799 976717 958284 942559 932719 931175 939031 955600 
1876.031 978716 1004972 1030872 1053353 1070612 1081936 1087898 1089723 
1879.888 1089037 1087460 1086349 1086514 1087987 1089770 1089941 1085927 
1883.745 1075270 1056508 1029962 998042 964887 935457 914202 903997 905404 
1888.085 916591 934273 954271 972783 986657 993749 992848 983594 966324 
1892.425 942504 914562 885862 860181 840899 830230 828843 835532 848211 
1896.764 864378 882024 899759 916788 932340 945458 954720 958880 957371 
1901.104 950879 941445 931836 924595 921138 921167 923288 925883 928364 
1905.443 931824 938957 952828 975320 1005588 1039914 1072446 1097291 1110370 
1909.783 1111234 1102817 1090278 1078665 1070929 1066842 1063587 1057409 
1913.640 1045867 1029364 1011616 998320 995122 1005222 1028095 1059464 
1917.498 1092791 1121053 1138938 1143691 1135049 1114528 1084448 1047274 
1921.355 1005955 964424 927955 902649 894637 907709 942025 992949 1052211 
1925.695 1109849 1157318 1189737 1207342 1214292 1216553 1218718 1222006 
1929.552 1223602 1218601 1202448 1174722 1139854 1107299 1087843 1089989 
1933.410 1116074 1161024 1213433 1259718 1288710 1296039 1284870 1264628 
1937.267 1246531 1239003 1243867 1256544 1268035 1269897 1258055 1235163 
1941.125 1209747 1192585 1191785 1209943 1242708 1281431 1317024 1344662 
1944.982 1365447 1386200 1415799 1461196 1523168 1595643 1667070 1724288 
1948.839 1756728 1759761 1735260 1691049 1637851 1587051 1548025 1526949 
1952.697 1526179 1544117 1574774 1609230 1635808 1642987 1621463 1567144 
1956.554 1482437 1376123 1261075 1151953 1060793 995130 956505 941755 943885 
1960.894 954924 966779 972756 968142 951378 924713 894998 872103 866984 
1965.233 887182 933650 998705 1067595 1122143 1147575 1137078 1095011 
1969.091 1033779 970535 919473 887664 872336 862889 845078 806564 740325 
1973.430 647893 537745 424753 326566 262233 248331 297081 412273 587753 
1977.770 805908 1041309 1265879 1456170 1598006 1687799 1729907 1733356 
1981.627 1707668 1661526 1601445 1533779 1464530 1400447 1347133 1308209 
1985.485 1283597 1270406 1263421 1258884 1255816 1256896 1266332 1287585 
1989.342 1320304 1359439 1396393 1423247 1435458 1435060 1428771 1425760 
1993.200 1432040 1447673 1465198 1472569 1457409 1412150 1336597 1238410 
1997.057 1129542 1022927 927620 848036 783577 731333 687644 651395 622568 
2001.397 602951 593760 595399 607537 630064 663384 709942 772414 852887 
2005.736 949863 1057731 1164928 1256094 1314081 1324339 1277331 1172332 
2009.594 1017499 829311 629641 441315 283347 168405 100849 79155 97611 
2013.933 150791 234781 347023 482215 630791 775720 895220 967135 976086 
2018.273 918592 805001 654384 489733 328914 182253 51666 -62646 -157317 
2022.613 -221169 -238022 -192579 -80477 85646 275334 447807 564394 601344 
2026.952 556965 452609 322934 204360 121311 81475 74615 81406 81608 64047 
2031.774 29564 -9668 -36172 -32235 13726 106275 240933 406507 585763 757738 
2036.596 899516 990644 1017378 976842 878421 743491 599825 475343 391173 
2040.935 357454 371815 422714 493322 567604 633438 684091 716947 732737 
2045.275 733641 724506 712696 709719 729771 787181 890513 1039354 1220541 
2049.615 1411468 1584894 1717553 1795591 1817412 1792155 1735725 1664986 
2053.472 1593017 1525364 1460195 1390886 1311529 1220929 1125736 1038720 
2057.329 974873 945716 954725 995518 1054020 1112836 1157542 1180474 1182757 
2061.669 1171558 1156957 1146636 1143796 1146134 1148106 1143607 1128651 
2065.526 1102313 1066598 1024917 981229 939362 903468 878284 869227 880930 
2069.866 916067 972991 1045601 1123911 1196662 1253992 1289884 1302874 
2073.723 1295697 1273454 1242041 1206708 1172251 1142855 1122476 1114313 
2077.581 1120140 1139294 1168680 1203339 1238403 1270835 1300691 1330543 
2081.438 1364395 1404888 1451622 1500282 1543780 1574173 1585415 1574704 
2085.296 1543438 1495866 1437855 1375073 1312138 1252247 1197451 1149083 
2089.153 1107802 1073680 1046077 1023787 1005800 991949 983783 983709 994844 
2093.493 1018834 1054949 1098841 1143695 1181474 1205499 1211829 1200612 
2097.350 1175289 1141777 1106663 1076543 1056748 1051375 1062444 1089823 
2101.208 1130573 1179336 1228783 1271462 1301428 1315938 1315773 1304976 
2105.065 1289089 1273586 1262098 1256372 1256376 1261421 1270377 1282186 
2108.922 1295391 1307781 1316022 1316656 1306947 1286457 1257301 1224155 
2112.780 1192445 1166965 1149827 1140350 1135212 1130164 1121203 1106378 
2116.637 1085623 1060918 1035058 1010968 991067 977078 969898 969622 975615 
2120.977 986270 998864 1010115 1016104 1013440 999196 971514 929258 872262 
2125.316 800621 715380 618257 512158 400548 287268 175488 67358 -36386 
2129.656 -135531 -229265 -315053 -388116 -441660 -468837 -464282 -426667 
2133.513 -359183 -269584 -168394 -67040 24858 99985 154437 186987 198610 
2137.853 191855 170936 139941 103733 66219 30610 -985 -26663 -44793 -53613 
2142.675 -52859 -44291 -33495 -29057 -41039 -77094 -138709 -218919 -303300 
2147.014 -374175 -417257 -427482 -412038 -388309 -378155 -399627 -461587 
2150.872 -561424 -688169 -829584 -979853 -1142626 -1331843 -1564022 -1851422 
2154.729 -2192023 -2565878 -2934963 -3249816 -3457222 -3512767 -3389819 
2158.104 -3088704 -2639017 -2095898 -1527080 -997521 -554335 -221322 1654 
2161.962 131197 194054 219580 235127 261892 313819 395038 501228 620052 
2166.302 733798 822881 869385 860808 793303 672270 511435 328308 140385 
2170.641 -39611 -204732 -353353 -484740 -596498 -681794 -731922 -739210 
2174.499 -703639 -635627 -555290 -486504 -448704 -448265 -476736 -512596 
2178.356 -530790 -511006 -445858 -341828 -216328 -90339 18155 99184 150231 
2182.696 173525 171237 143780 90304 12522 -82584 -181041 -264960 -316406 
2187.035 -323791 -284489 -205000 -97417 24494 149828 270900 382546 479102 
2191.375 554157 599673 609564 582347 523154 443106 356581 276397 210933 
2195.714 162259 127970 103914 87542 79362 82550 100615 134668 182088 237392 
2200.536 293462 345030 389566 428066 462815 495919 527235 554015 571606 
2204.876 575582 562830 532942 488104 432940 372931 314298 262242 221010 
2209.215 192523 176589 170553 170766 174077 180024 191372 213982 254132 
2213.555 315431 395378 484726 568613 631388 660529 652333 612342 554549 
2217.895 496425 454047 437321 448829 484460 536681 597873 662792 728605 
2222.234 794277 858402 918402 970175 1009710 1034407 1044744 1044068 1037637 
2226.574 1030726 1026690 1025898 1026173 1023798 1015608 999609 976432 
2230.431 948356 919000 891475 867990 849067 833923 820513 807017 791965 
2234.771 775289 758213 743424 734193 733679 743591 763940 792046 823726 
2239.110 853670 877429 892358 898844 899771 899650 902948 912524 928159 
2243.450 947083 964412 975517 977327 969940 956734 943127 934836 935938 
2247.790 947554 967601 991613 1014579 1032482 1043599 1048420 1049399 
2251.647 1049465 1051334 1056855 1067156 1083011 1105189 1134175 1169654 
2255.504 1209745 1250937 1288361 1317462 1335765 1343854 1345779 1347759 
2259.362 1355765 1373220 1399383 1429136 1454874 1469194 1467628 1450562 
2263.219 1423098 1393348 1369680 1358042 1360317 1374467 1395822 1419277 
2267.077 1441155 1460370 1477812 1495554 1515062 1536301 1557079 1574025 
2270.934 1583252 1581836 1568604 1544630 1512920 1478087 1445194 1419223 
2274.792 1404157 1402520 1414572 1438737 1471422 1508177 1544272 1576306 
2278.649 1602732 1624324 1643526 1663754 1687699 1716765 1750114 1785220 
2282.506 1818643 1847275 1868964 1883001 1889863 1890308 1884895 1873746 
2286.364 1856713 1834248 1807967 1780964 1757252 1740689 1733415 1735038 
2290.221 1742461 1750730 1754575 1750269 1736641 1715443 1690322 1665452 
2294.079 1643994 1627337 1614942 1605264 1596619 1588210 1579976 1572451 
2297.936 1565921 1559976 1553503 1545309 1534730 1522422 1510133 1500387 
2301.793 1495058 1494821 1498449 1503418 1506693 1505869 1499991 1489559 
2305.651 1476241 1462019 1448437 1436418 1426209 1417867 1411329 1406611 
2309.508 1403599 1401929 1400785 1399509 1397930 1396885 1398117 1403886 
2313.366 1415862 1434422 1458066 1483959 1508810 1530296 1547781 1562650 
2317.223 1577449 1594838 1616561 1643139 1674195 1709455 1749279 1794730 
2321.081 1846549 1903549 1961319 2012025 2045645 2052598 2026617 1966818 
2324.938 1878336 1771114 1657593 1549890 1457438 1385411 1334543 1302057 
2328.795 1283383 1273660 1269094 1267386 1267406 1268489 1270003 1271127 
2332.653 1270795 1268278 1263248 1255985 1247089 1237377 1227497 1218083 
2336.510 1209764 1203322 1199621 1199539 1203479 1211318 1222056 1234235 
2340.368 1246027 1255981 1263104 1267182 1268504 1267673 1265489 1262620 
2344.225 1259727 1257673 1257334 1259733 1265587 1275263 1288440 1304153 
2348.083 1320946 1337149 1351437 1362822 1370851 1375560 1377279 1376440 
2351.940 1373555 1369184 1363966 1358580 1353690 1349809 1347097 1345499 
2355.797 1344509 1343495 1341927 1339376 1335875 1331692 1327396 1323724 
2359.655 1321342 1320764 1322190 1325440 1329801 1334298 1337727 1338983 
2363.512 1337471 1333206 1327009 1320287 1314698 1311711 1312176 1316201 
2367.370 1323167 1332138 1342100 1352313 1362340 1371982 1381016 1389059 
2371.227 1395426 1399517 1400909 1399791 1396927 1393544 1391037 1390498 
2375.084 1392463 1396743 1402620 1409099 1415285 1420539 1424597 1427539 
2378.942 1429627 1431251 1432717 1434342 1436217 1438212 1439743 1440050 
2382.799 1438189 1433468 1425862 1416219 1406166 1397887 1393226 1393283 
2386.657 1397893 1405631 1414367 1422008 1427069 1429114 1428544 1426287 
2390.514 1423050 1419113 1414202 1407892 1400044 1391206 1382606 1375812 
2394.372 1372046 1371968 1375148 1380556 1386909 1393167 1398793 1403623 
2398.229 1407441 1409738 1409312 1404800 1395056 1380054 1360986 1340551 
2402.086 1322038 1308575 1302050 1302698 1308887 1317798 1326172 1331152 
2405.944 1330838 1324620 1312942 1297270 1279502 1261900 1246605 1235448 
2409.801 1229555 1229147 1233377 1240487 1248158 1254126 1256715 1255234 
2413.659 1250168 1242785 1234776 1227639 1222297 1218726 1216288 1213744 
2417.516 1209886 1203928 1195633 1185618 1175137 1165861 1159453 1157299 
2421.374 1160085 1167772 1179456 1193809 1208997 1223292 1234953 1242677 
2425.231 1245632 1243683 1237399 1228111 1217649 1207843 1199945 1194169 
2429.088 1189458 1184019 1175771 1163652 1148288 1132172 1118991 1112592 
2432.946 1115183 1126632 1143965 1162408 1176806 1183477 1181206 1171539 
2436.803 1157975 1144351 1133360 1125754 1120154 1113988 1104782 1091097 
2440.661 1073266 1053063 1033247 1016441 1004509 998228 997126 1000077 
2444.518 1005286 1011087 1015932 1018759 1019197 1017687 1015260 1013617 
2448.375 1014235 1018326 1025875 1036036 1047167 1057354 1064977 1069322 
2452.233 1070394 1069086 1066382 1063381 1060617 1058254 1055973 1053123 
2456.090 1048810 1042186 1032526 1019682 1004236 987644 972125 959990 953098 
2460.430 952067 955857 962208 968050 970949 969541 964329 957104 950397 
2464.770 946224 945536 947798 951462 954501 955290 952779 946794 937597 
2469.109 925823 911925 896694 881179 866824 855288 848033 845689 847761 
2473.449 852569 857899 861644 862721 861385 859055 857808 859316 864273 
2477.788 872039 880752 888334 892598 892565 888189 880805 872307 865025 
2482.128 860948 861381 866582 875892 887604 899837 910755 919362 925579 
2486.468 930337 934989 940856 948515 957623 967185 976069 983467 989386 
2490.807 994284 998766 1002884 1005728 1005740 1001324 991811 978118 962854 
2495.147 949745 942314 942771 951197 965487 982164 997555 1008826 1014762 
2499.486 1015668 1012963 1008367 1003502 999505 997221 997196 999932 1005641 
2503.826 1014166 1024655 1035634 1045563 1052915 1057091 1058251 1057448 
2507.683 1055965 1054993 1055431 1057590 1061731 1067956 1076553 1087583 
2511.541 1100853 1115416 1129945 1142538 1151686 1156537 1157230 1154791 
2515.398 1150860 1146978 1144469 1144022 1145986 1150539 1157538 1166700 
2519.256 1177140 1187349 1195351 1198957 1196788 1188807 1176761 1163731 
2523.113 1153680 1149828 1154096 1166185 1183818 1203577 1221822 1235566 
2526.970 1243151 1244176 1239323 1229664 1216656 1201814 1186909 1173933 
2530.828 1165131 1162437 1167016 1178669 1195740 1215196 1233423 1247091 
2534.685 1254158 1254405 1249520 1242500 1236812 1235500 1240199 1251005 
2538.543 1266463 1284047 1301019 1314934 1324366 1328784 1328678 1324848 
2542.400 1318356 1309747 1299337 1286860 1272078 1254938 1235944 1216221 
2546.258 1197526 1181879 1171151 1166485 1168070 1174820 1184851 1195637 
2550.115 1205011 1211621 1215396 1217703 1220677 1226645 1237269 1252732 
2553.972 1271772 1291875 1310174 1324189 1332778 1336287 1336350 1335162 
2557.830 1334873 1336729 1340962 1346965 1353889 1360928 1367841 1374705 
2561.687 1381786 1388888 1395349 1399859 1401103 1398235 1391400 1381955 
2565.545 1372413 1365415 1363330 1367082 1376269 1389001 1402601 1414526 
2569.402 1423052 1427829 1429848 1430996 1433491 1438947 1448161 1460540 
2573.260 1474652 1488409 1499665 1506681 1508407 1504754 1496334 1484459 
2577.117 1471014 1457869 1446919 1439496 1436355 1437316 1441412 1447172 
2580.974 1453021 1457633 1460532 1461844 1462464 1463457 1465777 1469816 
2584.832 1475270 1481265 1486611 1489910 1489971 1485888 1477356 1464520 
2588.689 1448658 1431663 1416436 1406011 1403092 1408977 1423195 1443031 
2592.547 1464321 1482194 1492831 1494337 1487507 1475369 1462375 1452880 
2596.404 1450039 1454831 1466286 1481828 1498442 1513275 1524623 1531655 
2600.261 1534690 1534660 1532795 1530301 1528304 1527381 1527751 1528917 
2604.119 1530163 1530560 1529601 1527434 1525108 1524174 1526338 1532575 
2607.976 1542870 1555964 1569880 1582496 1592364 1599096 1603357 1606286 
2611.834 1608970 1611830 1614595 1616483 1616772 1615190 1612254 1609028 
2615.691 1606758 1606245 1607816 1611146 1615648 1620829 1626540 1632984 
2619.549 1640539 1649384 1659387 1670064 1680728 1690691 1699504 1706758 
2623.406 1712198 1715355 1715820 1713310 1708018 1700869 1693639 1688368 
2627.263 1687088 1691046 1700230 1713423 1728452 1742764 1754180 1761193 
2631.121 1763260 1760829 1754926 1747011 1738765 1731713 1727050 1725417 
2634.978 1726619 1729559 1732509 1733553 1731306 1725502 1717132 1708386 
2638.836 1701919 1699789 1702958 1710594 1720552 1729820 1735654 1736335 
2642.693 1731523 1722371 1711003 1699729 1690622 1684936 1683170 1684892 
2646.551 1689301 1695207 1701444 1706919 1710801 1712689 1712680 1711138 
2650.408 1708883 1706689 1705278 1705036 1706050 1708287 1711533 1715548 
2654.265 1720099 1724680 1728707 1731335 1731748 1729408 1724298 1717103 
2658.123 1709012 1701437 1695470 1691566 1689332 1687608 1684917 1679845 
2661.980 1671550 1659861 1645385 1629125 1612369 1596317 1581907 1569750 
2665.838 1560133 1552974 1547891 1544150 1541043 1537819 1534074 1529844 
2669.695 1525746 1522579 1521286 1522340 1525790 1531017 1537000 1542626 
2673.552 1546980 1549539 1550250 1549361 1547332 1544448 1541051 1537339 
2677.410 1533615 1530233 1527568 1525874 1525186 1525154 1525258 1524677 
2681.267 1522755 1519077 1513643 1506900 1499616 1492734 1487264 1484000 
2685.125 1483447 1485714 1490442 1496759 1503674 1509897 1514472 1516756 
2688.982 1516739 1514880 1511974 1508922 1506402 1504784 1504141 1504347 
2692.840 1505330 1507055 1509576 1512993 1517135 1521604 1525812 1529036 
2696.697 1530712 1530524 1528679 1525592 1521924 1518373 1515500 1513714 
2700.554 1513277 1514273 1516647 1520128 1524181 1528091 1531168 1532739 
2704.412 1532558 1530689 1527593 1523823 1519826 1515781 1511590 1507016 
2708.269 1502140 1497263 1493220 1491021 1491505 1494899 1500742 1507770 
2712.127 1514364 1518939 1520521 1518897 1514721 1509142 1503497 1498980 
2715.984 1496384 1496094 1498238 1502625 1508975 1516705 1525187 1533507 
2719.842 1540955 1546908 1551292 1554408 1557032 1559885 1563589 1568071 
2723.699 1572904 1577087 1579837 1580565 1579508 1577472 1575737 1575603 
2727.556 1578135 1583625 1591748 1601634 1612138 1622160 1630985 1638218 
2731.414 1644049 1648735 1652753 1656341 1659554 1662143 1663649 1663639 
2735.271 1661901 1658701 1654682 1650956 1648700 1648834 1651644 1656701 
2739.129 1662910 1668754 1672969 1674765 1674258 1672203 1669909 1668525 
2742.986 1668745 1670532 1673333 1676246 1678588 1680165 1681392 1683099 
2746.844 1686127 1691067 1697790 1705727 1713943 1721600 1728316 1734222 
2750.701 1739880 1746003 1753044 1760911 1769161 1776849 1783235 1787780 
2754.558 1790464 1791714 1792092 1792063 1791820 1791188 1789822 1787390 
2758.416 1783890 1779683 1775587 1772352 1770675 1770845 1772724 1775690 
2762.273 1779092 1782200 1784638 1786279 1787241 1787785 1788181 1788604 
2766.131 1789214 1790075 1791308 1792988 1795199 1797905 1801049 1804371 
2769.988 1807695 1810833 1813627 1816031 1818043 1819507 1820215 1819944 
2773.845 1818544 1815948 1812483 1808766 1805561 1803680 1803686 1805745 
2777.703 1809562 1814417 1819499 1824068 1827712 1830508 1832949 1835783 
2781.560 1839779 1845413 1852754 1861306 1870282 1878700 1885772 1891103 
2785.418 1894862 1897852 1901172 1906013 1913276 1923376 1936052 1950480 
2789.275 1965591 1980192 1993455 2004807 2014124 2021478 2027019 2030747 
2793.133 2032763 2033067 2032157 2030737 2030090 2031636 2036743 2046178 
2796.990 2060037 2077286 2096195 2114650 2130613 2142628 2150202 2153773 
2800.847 2154559 2154175 2154243 2155937 2159937 2166237 2174534 2184206 
2804.705 2194601 2204981 2214835 2223586 2230862 2236313 2240013 2242265 
2808.562 2243825 2245632 2248625 2253497 2260381 2268947 2278285 2287371 
2812.420 2295387 2301887 2307041 2311427 2315918 2321191 2327673 2335365 
2816.277 2344049 2353411 2363273 2373595 2384616 2396567 2409712 2424084 
2820.135 2439557 2456086 2473634 2492307 2512315 2533831 2556896 2581225 
2823.992 2606445 2632024 2657635 2683135 2708793 2734953 2762247 2791110 
2827.849 2821963 2854983 2890517 2928847 2970401 3015624 3064917 3118365 
2831.707 3175828 3236835 3300823 3367200 3435623 3505922 3578297 3653021 
2835.564 3730575 3811469 3896497 3986553 4082769 4186377 4298724 4420890 
2839.422 4553808 4697938 4853530 5020486 5198571 5387319 5586180 5794438 
2843.279 6011227 6235590 6466591 6703312 6944831 7190150 7438046 7686781 
2847.136 7934114 8177515 8414262 8642023 8859233 9065098 9259757 9443674 
2850.994 9617253 9780310 9931739 10069609 10191594 10295437 10379523 
2854.369 10443311 10487364 10512869 10521472 10514409 10492359 10455213 
2857.744 10402531 10333808 10249123 10149399 10036647 9913770 9784197 
2861.120 9651336 9518393 9387614 9260610 9138026 9020031 8906170 8795837 
2864.977 8688194 8582503 8478168 8374934 8272869 8172488 8074651 7980395 
2868.834 7890657 7806217 7727410 7654455 7587290 7525950 7470578 7421475 
2872.692 7378831 7342716 7312829 7288655 7269503 7255034 7245254 7240976 
2876.549 7243463 7254404 7275264 7306999 7349787 7403168 7466025 7537184 
2880.407 7615464 7699886 7789848 7884803 7984106 8087083 8192766 8300084 
2884.264 8407965 8515409 8621609 8726146 8828793 8929828 9029721 9129222 
2888.122 9228883 9328995 9429184 9528452 9625027 9717029 9802571 9880453 
2891.979 9950295 10012696 10068914 10120572 10169177 10215881 10261244 
2895.354 10305541 10348649 10390460 10430879 10470084 10508350 10546503 
2898.729 10585516 10626923 10672435 10723877 10782484 10848848 10922456 
2902.105 11001913 11085304 11170857 11257296 11344416 11432942 11524064 
2905.480 11618847 11717913 11821018 11927585 12036934 12149017 12264463 
2908.855 12384679 12511146 12644714 12785117 12930657 13078746 13226432 
2912.230 13371450 13512723 13650629 13786688 13922922 14061256 14202866 
2915.606 14348078 14496669 14648157 14802100 14958316 15116514 15276200 
2918.981 15436065 15594168 15747876 15894479 16031708 16158357 16274485 
2922.356 16381364 16481006 16575694 16667172 16756378 16843112 16926366 
2925.731 17004478 17075826 17139194 17194266 17241536 17282258 17317964 
2929.107 17350208 17379824 17407058 17431178 17451018 17465140 17472404 
2932.482 17472090 17464120 17448952 17427176 17399434 17366060 17327074 
2935.857 17282534 17232318 17176854 17116710 17052886 16986088 16916930 
2939.232 16845068 16769724 16689351 16602416 16507503 16404128 16292752 
2942.608 16174856 16052659 15928717 15805282 15683867 15564923 15447830 
2945.983 15331139 15213068 15091774 14966159 14835696 14700876 14562732 
2949.358 14422785 14282358 14142720 14004609 13868536 13734518 13602510 
2952.733 13472298 13343641 13216127 13089411 12962930 12836277 12709051 
2956.109 12581199 12452760 12324148 12195791 12068211 11941794 11816799 
2959.484 11693207 11571048 11450192 11330645 11212339 11095465 10980041 
2962.859 10866160 10753518 10641699 10529890 10417088 10302245 10184534 
2966.234 10063611 9939897 9814525 9689195 9565822 9445992 9330666 9219879 
2970.092 9112829 9008209 8904631 8800908 8696328 8590581 8483457 8374664 
2973.949 8263714 8150001 8033208 7913663 7792506 7671678 7553476 7439954 
2977.807 7332155 7230016 7132140 7036547 6941122 6844455 6746073 6646634 
2981.664 6547260 6449365 6353745 6260749 6169947 6080703 5992352 5904573 
2985.521 5817301 5730837 5645509 5561656 5479391 5398896 5320304 5244074 
2989.379 5170731 5100849 5034801 4972639 4913924 4858006 4803926 4750992 
2993.236 4698608 4646579 4594687 4542831 4490907 4438679 4386149 4333796 
2997.094 4282486 4233703 4188953 4149519 4115713 4086778 4060740 4034832 
3000.951 4006441 3973689 3936025 3894516 3851184 3808651 3768751 3732273 
3004.809 3698445 3665424 3630834 3592793 3550348 3503831 3454491 3404000 
3008.666 3353684 3304395 3256153 3208760 3162147 3116802 3073654 3033919 
3012.523 2998513 2967753 2940808 2916085 2891718 2866050 2838052 2807672 
3016.381 2775482 2742402 2709197 2676276 2643701 2611285 2578971 2547030 
3020.238 2516046 2486968 2460548 2437471 2417898 2401525 2387628 2375114 
3024.096 2362588 2348610 2331568 2310371 2284580 2254776 2222543 2190419 
3027.953 2161342 2138085 2122321 2114459 2113346 2116652 2121479 2125092 
3031.811 2125502 2121868 2114221 2103559 2091117 2078244 2065847 2054603 
3035.668 2044765 2036457 2029782 2025046 2022598 2022970 2026490 2033275 
3039.525 2042893 2054664 2067545 2080697 2093896 2107662 2123443 2143246 
3043.383 2168952 2201818 2241802 2287742 2337512 2388930 2440311 2491132 
3047.240 2541998 2594115 2648544 2705601 2764237 2822339 2877366 2927017 
3051.098 2970013 3006284 3036853 3063215 3086454 3106949 3124045 3136268 
3054.955 3142038 3140191 3130423 3113687 3091742 3067121 3042340 3019754 
3058.813 3001156 2987705 2979882 2977811 2981236 2989849 3003050 3020013 
3062.670 3039496 3059704 3078405 3093145 3101676 3102798 3096559 3084633 
3066.527 3069750 3055270 3043782 3036451 3032508 3029666 3024795 3015272 
3070.385 2999930 2979726 2957417 2936822 2921385 2913383 2912976 2918544 
3074.242 2927299 2936443 2943747 2948386 2950734 2952020 2953546 2956239 
3078.100 2960226 2964799 2968684 2970474 2968696 2962472 2951237 2935125 
3081.957 2914649 2890735 2864586 2837515 2810556 2784647 2760196 2737443 
3085.814 2716304 2696685 2678293 2661004 2644349 2627920 2610882 2592548 
3089.672 2572353 2550287 2526892 2503494 2481804 2463638 2450289 2442374 
3093.529 2439498 2440567 2443934 2448043 2451505 2453558 2454024 2453090 
3097.387 2451339 2449380 2447848 2447413 2448621 2451951 2457573 2465384 
3101.244 2474663 2484541 2493565 2500602 2504584 2505036 2501925 2495660 
3105.102 2486626 2475275 2461583 2445677 2427535 2407650 2386736 2365974 
3108.959 2346342 2328383 2311742 2295402 2277769 2257523 2234056 2208070 
3112.816 2181106 2155418 2132808 2114314 2099610 2087566 2076651 2065912 
3116.674 2055297 2045863 2038944 2035589 2035736 2037970 2040006 2039566 
3120.531 2035179 2027233 2017447 2008772 2003801 2004132 2009567 2018428 
3124.389 2027965 2035718 2039942 2040404 2037775 2033715 2029684 2026747 
3128.246 2025429 2025636 2027011 2028933 2030710 2031370 2029871 2025066 
3132.104 2016151 2002968 1985991 1966714 1946707 1927550 1910054 1894357 
3135.961 1879804 1865712 1851649 1837941 1825569 1815838 1809805 1807838 
3139.818 1809254 1812484 1815325 1815677 1811694 1802446 1787836 1768782 
3143.676 1746897 1724429 1703783 1687058 1675615 1669573 1667708 1667741 
3147.533 1666952 1663089 1655013 1643387 1630238 1618522 1610795 1608739 
3151.391 1612144 1619439 1627846 1634723 1637975 1636661 1630988 1621888 
3155.248 1610658 1598464 1586299 1574935 1565039 1557384 1552500 1550610 
3159.105 1551555 1554683 1558997 1563704 1568233 1572626 1577210 1582538 
3162.963 1588822 1596010 1603486 1610550 1616366 1620592 1623025 1623792 
3166.820 1622925 1620464 1616293 1610422 1603029 1594775 1586391 1578781 
3170.678 1572369 1567135 1562665 1558428 1554146 1550236 1547516 1547155 
3174.535 1549879 1555551 1562980 1570178 1574940 1575712 1572096 1565018 
3178.393 1556374 1548472 1543061 1540824 1541366 1543657 1546396 1548815 
3182.250 1550713 1552591 1554970 1558107 1561522 1564128 1564471 1561282 
3186.107 1553874 1542621 1528750 1514214 1501021 1490986 1485198 1484077 
3189.965 1487079 1493234 1501101 1509173 1516062 1520932 1523365 1523531 
3193.822 1521899 1519112 1515574 1511308 1506013 1499324 1490847 1480857 
3197.680 1470073 1459865 1451582 1446424 1444746 1446185 1449392 1452911 
3201.537 1455220 1455547 1453750 1450602 1447206 1444839 1444391 1446357 
3205.395 1450696 1456946 1464368 1472148 1479436 1485470 1489646 1491557 
3209.252 1491094 1488577 1484543 1479950 1475774 1472909 1471915 1473072 
3213.109 1476123 1480584 1485746 1490867 1495278 1498593 1500487 1500949 
3216.967 1500108 1498210 1495665 1492882 1490249 1488133 1486663 1485926 
3220.824 1485771 1486058 1486507 1487096 1487837 1489053 1490981 1493892 
3224.682 1497712 1502051 1506034 1508658 1508959 1506505 1501585 1495409 
3228.539 1489859 1486914 1488044 1493664 1502725 1512990 1521431 1525154 
3232.396 1522264 1512475 1497173 1479281 1462294 1449691 1443940 1446169 
3236.254 1456027 1471783 1490938 1510502 1527580 1539860 1545634 1544203 
3240.111 1535751 1521392 1502786 1481974 1460887 1441068 1423459 1408474 
3243.969 1396124 1386354 1379015 1374203 1371964 1372287 1374772 1378660 
3247.826 1383135 1387274 1390448 1392698 1394395 1396287 1399083 1403011 
3251.684 1407746 1412526 1416327 1418246 1417988 1415901 1413017 1410710 
3255.541 1410189 1412251 1416830 1423252 1430299 1436769 1441617 1444470 
3259.398 1445425 1445149 1444402 1443884 1444032 1445032 1446730 1448812 
3263.256 1450915 1452550 1453234 1452466 1449729 1444762 1437542 1428560 
3267.113 1418690 1409080 1400834 1394862 1391502 1390614 1391672 1393956 
3270.971 1396953 1400388 1404360 1409133 1414882 1421751 1429443 1437555 
3274.828 1445450 1452657 1458825 1463898 1468040 1471635 1475078 1478807 
3278.686 1483162 1488233 1493788 1499290 1503805 1506377 1506005 1502249 
3282.543 1495281 1485993 1475857 1466784 1460469 1458110 1460183 1466326 
3286.400 1475375 1485902 1496168 1504721 1510623 1513608 1514095 1513204 
3290.258 1512313 1512887 1515754 1521046 1527917 1534900 1540231 1542773 
3294.115 1542326 1539881 1537436 1537264 1541098 1549461 1561238 1573970 
3297.973 1584552 1590010 1588419 1579256 1563503 1543249 1520958 1499139 
3301.830 1479627 1463682 1451879 1444286 1440605 1440240 1442419 1446280 
3305.688 1450872 1455532 1459562 1462742 1465081 1466878 1468653 1471193 
3309.545 1475362 1482037 1491861 1504914 1520479 1536991 1552169 1563368 
3313.402 1568413 1566210 1557013 1542674 1526013 1510292 1498188 1491366 
3317.260 1490194 1493965 1501303 1510765 1521187 1531901 1542530 1552907 
3321.117 1562709 1571480 1578708 1583956 1587036 1588312 1588421 1588372 
3324.975 1589182 1591752 1596573 1603736 1612762 1622829 1632676 1641132 
3328.832 1647048 1649786 1649266 1645933 1640691 1634566 1628529 1623148 
3332.689 1618716 1615164 1612394 1610438 1609486 1609998 1612466 1617226 
3336.547 1624200 1632977 1642574 1651782 1659248 1663751 1664316 1660538 
3340.404 1652404 1640574 1626077 1610391 1595004 1581428 1570704 1563473 
3344.262 1559778 1559141 1560687 1563310 1565956 1567728 1567999 1566622 
3348.119 1563853 1560378 1556812 1553918 1552111 1551493 1551660 1552040 
3351.977 1552039 1551285 1549746 1547723 1545677 1544057 1542785 1541580 
3355.834 1539891 1536954 1532376 1526189 1518910 1511393 1504572 1499266 
3359.691 1496063 1495288 1497145 1501691 1508917 1518678 1530323 1542849 
3363.549 1554649 1563962 1569054 1568840 1563057 1552742 1539697 1526402 
3367.406 1515392 1508653 1507099 1510596 1517794 1526664 1534781 1540215 
3371.264 1541903 1540012 1535852 1531543 1529300 1530829 1536617 1545808 
3375.121 1556448 1566075 1572472 1574461 1572085 1566540 1559649 1553118 
3378.979 1548010 1544441 1541855 1539336 1536307 1532767 1529363 1527101 
3382.836 1526877 1528986 1533044 1537988 1542683 1546133 1547963 1548467 
3386.693 1548290 1548159 1548538 1549360 1550341 1551072 1551406 1551672 
3390.551 1552517 1554793 1559136 1565673 1573939 1582855 1591126 1597627 
3394.408 1601594 1602924 1602197 1600684 1600013 1601958 1608057 1619484 
3398.266 1636426 1658293 1683359 1709223 1733309 1753403 1768112 1777260 
3402.123 1781676 1782989 1782911 1782981 1784158 1787254 1792805 1801670 
3405.980 1815039 1834093 1859543 1890996 1926800 1964213 1999895 2031083 
3409.838 2056100 2075090 2089525 2101754 2114009 2127692 2143203 2160189 
3413.695 2178088 2196775 2216824 2239490 2266014 2297194 2332632 2370999 
3417.553 2410008 2447218 2480602 2508830 2531596 2549346 2562999 2573877 
3421.410 2583421 2593152 2604365 2618050 2634442 2652908 2671935 2689503 
3425.268 2703575 2713029 2717758 2718857 2718234 2717818 2718860 2721695 
3429.125 2725583 2729369 2731883 2732811 2732570 2732421 2733789 2737614 
3432.982 2744080 2752322 2760670 2767004 2769387 2766367 2757235 2742302 
3436.840 2722496 2699255 2674259 2649099 2625003 2602839 2582958 2565439 
3440.697 2550213 2537269 2526455 2517682 2510483 2504060 2497241 2488877 
3444.555 2478052 2464415 2448421 2430997 2413186 2395757 2378927 2362361 
3448.412 2345585 2328305 2310826 2293867 2278285 2264338 2251409 2237967 
3452.270 2222119 2202473 2179028 2153443 2128727 2108395 2095072 2089560 
3456.127 2090397 2094428 2097659 2096627 2089449 2076054 2057822 2037067 
3459.984 2015820 1995582 1977071 1960557 1946259 1934723 1926858 1923756 
3463.842 1926081 1934092 1947141 1963893 1982386 2000338 2015388 2025262 
3467.699 2028093 2022634 2008612 1986843 1959318 1928844 1898869 1872582 
3471.557 1852522 1840412 1836580 1840446 1850417 1864319 1879391 1892895 
3475.414 1902335 1906016 1903387 1895322 1884094 1872689 1864023 1860033 
3479.271 1861190 1866222 1872633 1877469 1878325 1874007 1864735 1851992 
3483.129 1837903 1824618 1813818 1806416 1802670 1802440 1805261 1810525 
3486.986 1817557 1825457 1833417 1840514 1846233 1850502 1853731 1856656 
3490.844 1860238 1865109 1871515 1879013 1886748 1893594 1898567 1901244 
3494.701 1902022 1901957 1902805 1906633 1915050 1929090 1948511 1972013 
3498.559 1997181 2021139 2041088 2054932 2061658 2061542 2055852 2046645 
3502.416 2036213 2026672 2019599 2016031 2016202 2019668 2025560 2032666 
3506.273 2039762 2046060 2051452 2056552 2062619 2071152 2083152 2098940 
3510.131 2117670 2137705 2157017 2173870 2187388 2197759 2206055 2213787 
3513.988 2222242 2232058 2243094 2254607 2265628 2275398 2283528 2290111 
3517.846 2295477 2300004 2303894 2307299 2310350 2313366 2316631 2320644 
3521.703 2325452 2330948 2336458 2341044 2343985 2344910 2344164 2342860 
3525.561 2342492 2344663 2350619 2360885 2375059 2392182 2410654 2428896 
3529.418 2445457 2459541 2470943 2480185 2488229 2496287 2505419 2516195 
3533.275 2528630 2542258 2556118 2569233 2580946 2590900 2599010 2605657 
3537.133 2611067 2615511 2619266 2622712 2626516 2631610 2639008 2649594 
3540.990 2663766 2681130 2700722 2720978 2740335 2757320 2770881 2780273 
3544.848 2784945 2784486 2778753 2767825 2752506 2734515 2715936 2699280 
3548.705 2686390 2678128 2674028 2672656 2672289 2671682 2670728 2670348 
3552.563 2672159 2677589 2686793 2698397 2709622 2716989 2717550 2709753 
3556.420 2693873 2671995 2647152 2622427 2600180 2581672 2567009 2555761 
3560.277 2547282 2540982 2536361 2532902 2529897 2526424 2521667 2515011 
3564.135 2506555 2496991 2487426 2478952 2472156 2466979 2462425 2457342 
3567.992 2450432 2440878 2428524 2413717 2397153 2379650 2361999 2344923 
3571.850 2329153 2315278 2303768 2294659 2287602 2281890 2276525 2270882 
3575.707 2264829 2258690 2252983 2247852 2242563 2235541 2224440 2207455 
3579.564 2184260 2156482 2127858 2103225 2087043 2081935 2087581 2101049 
3583.422 2117734 2133054 2143936 2149764 2152137 2153715 2156872 2162500 
3587.279 2169708 2176195 2179646 2178830 2174203 2167910 2162870 2161677 
3591.137 2165587 2174239 2185863 2197721 2207264 2212463 2212325 2206812 
3594.994 2196828 2184088 2170934 2160207 2154745 2156762 2167022 2184515 
3598.852 2206381 2228545 2246883 2258571 2262844 2261319 2257312 2254587 
3602.709 2256208 2263595 2276170 2292008 2308531 2323556 2335834 2345084 
3606.566 2351887 2357260 2362247 2367660 2374130 2382132 2391690 2402661 
3610.424 2414266 2425645 2435593 2443442 2449007 2452921 2456361 2460556 
3614.281 2466358 2473781 2481959 2489519 2495013 2497391 2496348 2492236 
3618.139 2485857 2478272 2470635 2464167 2460414 2461058 2467711 2481460 
3621.996 2502407 2529252 2559404 2589410 2615792 2635737 2647983 2652391 
3625.854 2650190 2643090 2633091 2621991 2611732 2604306 2601731 2605915 
3629.711 2617791 2636936 2660993 2685942 2706690 2718483 2718110 2705001 
3633.568 2681480 2652361 2623779 2601646 2590041 2590421 2601175 2618536 
3637.426 2637398 2653044 2661965 2662685 2655680 2642874 2626643 2609147 
3641.283 2591710 2574858 2558666 2543244 2529095 2517335 2508984 2504875 
3645.141 2504666 2507035 2509759 2510263 2506814 2498575 2486014 2470638 
3648.998 2453995 2437349 2421241 2405548 2390073 2375136 2361486 2350399 
3652.855 2343095 2339964 2340334 2342253 2343152 2340499 2332609 2319014 
3656.713 2300512 2278701 2255338 2232058 2209894 2189658 2171901 2157251 
3660.570 2146361 2139648 2137201 2138441 2142228 2147221 2151859 2154714 
3664.428 2154702 2150887 2142443 2128913 2110223 2087001 2060613 2033275 
3668.285 2007312 1984768 1966800 1953236 1942943 1934237 1925676 1916670 
3672.143 1907822 1900413 1895872 1895062 1897639 1902212 1906516 1908516 
3676.000 1906782 1901374 1893499 1885265 1878718 1875327 1875647 1879062 
3679.857 1884182 1889352 1893116 1894376 1892587 1887724 1880033 1870056 
3683.715 1858496 1846193 1834358 1823977 1815977 1810855 1808250 1806917 
3687.572 1805115 1800853 1792784 1780720 1765738 1750148 1736507 1727204 
3691.430 1723349 1724786 1730205 1737852 1746082 1753882 1760818 1766531 
3695.287 1770042 1769468 1762109 1745140 1717025 1678297 1632068 1583674 
3699.145 1539192 1504016 1481346 1471652 1472920 1481689 1494584 1508981 
3703.002 1523705 1538310 1552511 1565527 1575908 1582076 1583026 1579202 
3706.859 1572239 1564741 1558990 1555868 1554483 1552401 1546659 1535194 
3710.717 1517794 1496495 1474957 1456805 1444583 1438800 1437795 1438627 
3714.574 1438417 1435437 1429661 1422469 1416020 1412067 1411343 1413315 
3718.432 1416767 1420369 1423475 1426619 1431156 1438929 1451219 1468404 
3722.289 1489640 1513038 1536359 1557508 1575390 1589900 1601897 1612439 
3726.146 1622710 1633035 1642939 1651273 1656528 1657392 1653312 1644688 
3730.004 1632979 1620331 1609142 1601483 1598756 1601285 1608562 1619314 
3733.861 1632006 1644990 1656990 1666957 1674274 1678593 1679810 1677938 
3737.719 1673212 1666083 1657212 1647602 1638515 1631266 1627232 1627267 
3741.576 1631671 1639884 1650554 1661666 1671078 1676983 1678390 1675560 
3745.434 1669870 1663453 1658663 1657472 1661084 1669816 1683030 1699386 
3749.291 1717166 1734500 1749631 1761098 1767883 1769643 1766465 1759163 
3753.148 1748932 1736926 1724340 1711839 1699663 1687824 1676372 1665610 
3757.006 1656292 1649412 1645926 1646263 1650085 1656273 1663042 1668718 
3760.863 1672192 1673263 1672873 1672634 1674435 1679840 1689441 1702839 
3764.721 1718560 1734552 1748481 1758164 1762287 1760368 1752871 1741297 
3768.578 1727703 1714446 1703560 1696180 1692332 1690882 1689735 1686542 
3772.436 1679497 1667752 1651926 1633963 1616655 1602969 1595279 1594876 
3776.293 1601814 1615148 1633150 1653851 1675269 1695569 1713042 1726003 
3780.150 1732894 1732482 1724360 1709020 1688411 1665685 1644639 1629074 
3784.008 1621710 1623436 1633180 1648006 1664003 1677294 1685062 1686050 
3787.865 1680863 1671174 1659175 1646921 1635602 1625766 1617652 1611604 
3791.723 1608320 1608982 1614706 1625839 1641596 1659733 1677089 1690322 
3795.580 1696915 1696025 1688781 1677837 1666573 1657861 1653343 1652930 
3799.438 1655123 1657851 1659193 1658170 1655022 1650982 1647629 1646323 
3803.295 1647500 1650738 1654868 1658440 1660114 1659191 1655440 1649471 
3807.152 1642177 1634752 1628283 1623583 1620921 1620055 1620108 1619854 
3811.010 1617891 1613326 1606172 1597575 1589716 1585261 1586712 1595461 
3814.867 1611105 1631567 1653454 1673113 1687620 1695806 1698205 1696822 
3818.725 1694262 1692751 1693501 1696554 1700848 1705002 1707724 1708349 
3822.582 1706978 1704276 1701009 1697844 1695063 1692601 1690074 1687124 
3826.439 1683585 1679378 1674799 1670347 1666637 1664361 1663904 1665293 
3830.297 1668040 1671224 1673730 1674582 1673369 1670565 1667235 1664776 
3834.154 1664344 1666324 1670256 1674984 1679161 1682082 1683860 1685510 
3838.012 1688445 1693603 1700857 1708756 1714909 1716834 1713141 1704021 
3841.869 1691479 1678844 1669539 1666108 1669263 1677796 1688931 1699233 
3845.727 1705586 1706005 1700026 1688574 1673758 1658232 1644596 1635182 
3849.584 1631652 1634677 1643990 1658370 1675810 1693745 1709559 1720800 
3853.441 1725672 1723295 1713911 1698617 1679552 1659337 1640745 1626201 
3857.299 1617346 1614528 1616718 1621838 1627321 1631088 1632093 1631018 
3861.156 1629749 1630947 1636927 1648788 1666056 1686912 1708551 1728323 
3865.014 1744259 1755425 1761947 1764458 1763798 1760599 1755237 1748035 
3868.871 1739265 1729391 1719050 1708745 1699176 1690850 1684427 1680607 
3872.729 1680090 1683332 1690153 1699686 1710337 1720303 1728119 1733083 
3876.586 1735634 1736876 1738065 1739969 1742237 1743946 1743566 1740081 
3880.443 1733464 1724768 1715901 1708696 1704412 1703207 1704238 1706399 
3884.301 1708665 1710619 1712483 1714647 1717252 1719846 1721543 1721457 
3888.158 1719250 1715702 1712374 1711232 1713866 1720785 1731013 1742548 
3892.016 1752992 1760285 1763448 1762571 1758644 1752839 1746250 1739490 
3895.873 1732846 1726526 1720896 1716453 1713664 1712676 1713005 1713622 
3899.730 1713272 1710991 1706634 1701061 1695904 1693111 1694221 1699773 
3903.588 1708944 1720000 1730432 1738149 1741841 1741598 1738767 1735594 
3907.445 1734500 1737239 1744335 1754939 1766974 1777742 1784638 1785906 
3911.303 1781281 1771691 1759428 1747162 1737540 1732606 1733331 1739729 
3915.160 1750873 1765298 1781195 1796875 1810869 1822426 1831363 1838019 
3919.018 1843049 1847017 1849949 1851345 1850115 1845260 1836161 1823224 
3922.875 1807961 1792721 1779922 1771365 1767536 1767569 1769586 1771447 
3926.732 1771651 1769726 1766248 1762507 1759725 1758625 1758999 1760228 
3930.590 1761286 1761607 1761021 1760091 1759359 1759470 1760423 1761824 
3934.447 1762909 1762862 1760996 1756877 1750373 1741679 1731179 1719767 
3938.305 1708709 1699613 1694179 1693833 1699209 1710006 1725053 1742519 
3942.162 1760612 1778144 1794664 1810583 1826508 1842900 1859442 1874894 
3946.020 1887350 1894614 1895096 1888161 1874439 1856048 1835591 1815951 
3949.877 1799483 1787310 1779354 1774439 1770819 1766934 1761896 1755759 
3953.734 1749569 1744713 1742384 1742968 1745987 1750304 1754676 1758506 
3957.592 1762005 1766181 1772360 1781256 1792528 1804520 1814592 1820038 
3961.449 1818907 1810506 1795921 1777446 1758134 1741061 1728974 1723864 
3965.307 1726793 1737860 1755899 1778698 1802888 1824721 1840755 1848860 
3969.164 1848805 1842357 1832583 1822940 1816022 1813157 1814002 1817361 
3973.021 1821945 1826943 1832301 1838339 1844938 1851192 1855279 1855064 
3976.879 1848923 1836494 1819215 1799709 1781040 1765831 1755509 1750260 
3980.736 1749579 1752949 1760131 1771447 1787180 1806838 1829037 1851378 
3984.594 1871005 1885473 1893377 1894834 1891017 1883888 1875448 1867341 
3988.451 1860834 1856665 1855446 1857354 1862135 1868776 1875391 1879789 
3992.309 1879775 1874172 1863218 1848637 1833119 1819737 1810687 1806866 
3996.166 1807780 1811825 1816928 1821243 1823591 1823958 1823133 1822536 
4000.023 1823854 1828293 
##END=
