##TITLE=3D-Fillies_PETG_White_Filament_r7_ATR-Corrected
##JCAMP-DX=5.01  $$ Nicolet v. 1
##DATATYPE=INFRARED SPECTRUM
##ORIGIN=Curtin University
##OWNER=Nicolet
##LONGDATE=2024/07/18
##TIME=12:54:19
##SPECTROMETER/DATA SYSTEM=Nicolet iS50
##DATA PROCESSING=
Ratio against background
%Transmittance->Absorbance
ATR Correction
Truncated
ElementMultiply or ElementDivide
##COMMENTS=
Number of sample scans: 32
Collection length: 47.29 sec
Sample gain: 1.0
Background collected on: Thu Jul 18 12:52:58 2024 (GMT+08:00);
Number of background scans: 32
Background gain: 1.0
Sample spacing:  1.000
Number of scan points: 16672
Resolution points: 8192
Number of FFT points: 65536
Apodization: N-B strong;
Phase correction: Mertz;
Laser frequency: 15798.3 cm-1
Number of rejected sample scans: 0
Number of rejected background scans: 0
Bench serial number: AUP1200105;
##RESOLUTION=4.000
##XUNITS=1/CM
##YUNITS=ABSORBANCE
##FIRSTX=400.163452
##LASTX=4000.187744
##FIRSTY=0.037838
##MAXX=4000.187744
##MINX=400.163452
##MAXY=1.595092
##MINY=-0.030902
##XFACTOR=1.000000
##YFACTOR=1.000000E-008
##NPOINTS=7468
##DELTAX=0.482125
##ZPD=8192
##XYDATA=(X++(Y..Y))
400.163 3783791 3808059 3820539 3826416 3832601 3844605 3863921 3887542 
404.020 3908595 3919337 3914435 3893831 3863375 3833613 3815953 3818847 
407.877 3844322 3887477 3938252 3985237 4019694 4038518 4044502 4044626 
411.734 4046243 4053771 4066628 4079745 4085840 4078897 4056785 4022458 
415.591 3982706 3945785 3918217 3903034 3899227 3903105 3910314 3918198 
419.448 3926682 3938185 3956009 3982538 4017697 4058712 4100675 4138253 
423.305 4167081 4185158 4193027 4193375 4189827 4185893 4183953 4185163 
427.162 4189526 4196490 4205357 4215660 4226965 4238885 4250500 4260390 
431.019 4266501 4266535 4258414 4240857 4214273 4180585 4143021 4105542 
434.876 4071759 4043999 4022623 4006058 3991381 3975525 3956435 3934021 
438.733 3910177 3888220 3871626 3862831 3862227 3868086 3876995 3885139 
442.590 3889349 3888158 3881906 3872366 3861887 3852508 3845302 3840313 
446.447 3836776 3833777 3830763 3828016 3826604 3828248 3834764 3847589 
450.304 3867228 3892956 3922621 3952773 3978990 3996674 4001772 3991864 
454.161 3966718 3928625 3882062 3832988 3787736 3751910 3729344 3721575 
458.017 3727718 3744925 3769103 3795876 3821316 3842657 3858386 3868394 
461.874 3873618 3875580 3875928 3875786 3875835 3876051 3875954 3875192 
465.731 3873822 3872586 3872847 3876185 3883802 3896071 3912203 3930454 
469.588 3948561 3964489 3977011 3986024 3992354 3997410 4002479 4008439 
473.445 4015543 4023782 4033171 4044168 4057636 4074675 4096035 4121814 
477.302 4151260 4183052 4215719 4248224 4280130 4311566 4342694 4373349 
481.159 4402684 4429417 4452461 4471700 4488469 4505590 4526557 4554475 
485.016 4590878 4635159 4684732 4736036 4785833 4832468 4876347 4919785 
488.873 4965939 5017773 5077092 5144389 5219145 5300733 5389024 5484773 
492.730 5589169 5703209 5826781 5958229 6094365 6231007 6363691 6488427 
496.587 6602026 6702146 6787131 6855800 6907412 6941750 6959150 6960370 
500.444 6946146 6916739 6871501 6809092 6727969 6627507 6508766 6375134 
504.301 6231852 6085067 5940303 5801296 5669309 5543554 5422143 5303602 
508.158 5187857 5076746 4973546 4881939 4804674 4742661 4694535 4657151 
512.015 4626391 4598319 4570028 4540104 4508514 4476196 4444339 4413847 
515.871 4384901 4356922 4328726 4298974 4266600 4231312 4193734 4155413 
519.728 4118431 4084932 4056495 4033803 4016507 4003599 3993812 3986224 
523.585 3980501 3976797 3975338 3975852 3976993 3976424 3971117 3958333 
527.442 3936433 3905590 3867859 3826698 3785966 3748978 3717625 3692270 
531.299 3671991 3655327 3640920 3627979 3616158 3605242 3594538 3582697 
535.156 3567724 3547623 3521143 3488512 3451696 3414170 3380034 3352971 
539.013 3335178 3326872 3326207 3329954 3334341 3336081 3333035 3324565 
542.870 3311398 3295278 3278314 3262585 3249544 3239898 3233398 3228987 
546.727 3224931 3219216 3209908 3195580 3175548 3150039 3119956 3086710 
550.584 3051721 3016266 2981306 2947624 2915960 2887213 2862285 2841963 
554.441 2826427 2815051 2806229 2797753 2787122 2772316 2752202 2726802 
558.298 2697060 2664487 2630709 2597024 2564353 2533254 2504045 2477040 
562.155 2452463 2430372 2410516 2392301 2374832 2357232 2338885 2319694 
566.012 2300054 2280789 2262815 2246938 2233576 2222823 2214383 2207755 
569.869 2202195 2196826 2190611 2182498 2171602 2157473 2140317 2121069 
573.725 2101218 2082509 2066505 2054328 2046424 2042738 2042799 2045972 
577.582 2051478 2058387 2065468 2071310 2074403 2073689 2068912 2061016 
581.439 2052024 2044649 2041519 2044411 2053704 2068395 2086399 2105381 
585.296 2123421 2139561 2153865 2167223 2180815 2195789 2212982 2233058 
589.153 2256606 2284424 2317493 2356948 2403662 2458075 2519938 2588369 
593.010 2662010 2739324 2818808 2899090 2978912 3056880 3131300 3200016 
596.867 3260372 3309404 3344130 3361992 3361251 3341369 3303100 3248458 
600.724 3180367 3102299 3017710 2929784 2841195 2754186 2670638 2592288 
604.581 2520708 2457261 2402959 2358308 2323198 2297058 2278914 2267629 
608.438 2261974 2260677 2262410 2265771 2269414 2272318 2273960 2274567 
612.295 2274963 2276297 2279524 2284971 2292124 2299766 2306445 2311101 
616.152 2313505 2314406 2315297 2317885 2323462 2332610 2345072 2360048 
620.009 2376618 2394119 2412300 2431293 2451432 2473030 2496327 2521516 
623.866 2548865 2578805 2611976 2649326 2692162 2742486 2803125 2877847 
627.723 2970948 3086228 3225387 3386313 3561677 3738670 3900182 4027679 
631.579 4104996 4122081 4077571 3979127 3841570 3683529 3523524 3376839 
635.436 3253633 3158615 3091814 3050067 3028485 3021791 3025012 3033952 
639.293 3045367 3057082 3068050 3078335 3088890 3101175 3116581 3135908 
643.150 3159030 3184878 3211737 3237719 3261280 3281567 3298434 3312352 
647.007 3324063 3334332 3343713 3352559 3360983 3369035 3376633 3383692 
650.864 3390057 3395541 3400049 3403726 3407032 3410867 3416365 3424723 
654.721 3436795 3452869 3472497 3494596 3517743 3540620 3562338 3582739 
658.578 3602271 3621818 3642307 3664397 3688287 3713728 3740202 3767182 
662.435 3794266 3821267 3848131 3874841 3901317 3927491 3953400 3979420 
666.292 4006245 4034817 4066047 4100443 4137908 4177734 4218910 4260656 
670.149 4302915 4346728 4394135 4447752 4510114 4583028 4667148 4761963 
674.006 4866080 4977743 5095272 5217257 5342429 5469378 5596119 5719945 
677.863 5837500 5945201 6039790 6118923 6181467 6227632 6258684 6276582 
681.720 6283546 6281772 6273338 6260229 6244533 6228489 6214589 6205426 
685.577 6203491 6210883 6229061 6258674 6299516 6350678 6410797 6478443 
689.433 6552493 6632329 6718012 6810099 6909455 7016905 7132990 7257882 
693.290 7391473 7533663 7684739 7845666 8018265 8205176 8409517 8634412 
697.147 8882486 9155332 9453213 9774932 10117932 10478581 10852488 11234954 
701.004 11621215 12006732 12387406 12759733 13120979 13469382 13804226 
704.379 14125919 14435878 14736211 15029408 15317929 15603849 15888797 
707.754 16173908 16460174 16748731 17041476 17341430 17653396 17984318 
711.129 18343612 18743164 19197226 19721884 20334426 21052600 21894030 
714.504 22875680 24013772 25323584 26819504 28514680 30420470 32545400 
717.878 34893776 37464236 40248128 43228292 46377768 49658488 53019236 
721.253 56392772 59691812 62804908 65595568 67907336 69580512 70479760 
724.628 70526512 69722256 68150552 65956164 63312268 60389144 57333624 
728.003 54259892 51248788 48351760 45596492 42992856 40538432 38223188 
731.378 36033420 33954648 31973386 30078042 28259078 26508564 24819862 
734.752 23187344 21606682 20075182 18592388 17160354 15783578 14468397 
738.127 13222116 12051857 10963632 9961589 9047669 8221528 7480763 6821291 
741.984 6237751 5723952 5273332 4879296 4535492 4235940 3975139 3748019 
745.841 3549989 3376970 3225435 3092477 2975792 2873502 2784028 2705813 
749.698 2637263 2576714 2522627 2473758 2429312 2388941 2352577 2320145 
753.555 2291380 2265665 2242228 2220364 2199736 2180471 2163148 2148515 
757.412 2137144 2129188 2124389 2122178 2122045 2123781 2127555 2133835 
761.269 2143131 2155672 2171367 2189775 2210430 2233031 2257690 2284871 
765.126 2315283 2349565 2388144 2431135 2478396 2529627 2584487 2642555 
768.983 2703220 2765615 2828561 2890682 2950681 3007605 3060967 3110881 
772.840 3157784 3202182 3244440 3284608 3322564 3358161 3391509 3423197 
776.697 3454326 3486406 3521219 3560481 3605735 3658058 3718070 3785872 
780.554 3861235 3943785 4033362 4130315 4235755 4351483 4479690 4622458 
784.410 4781142 4955945 5145850 5348951 5563185 5786973 6019922 6262804 
788.267 6517160 6784323 7064301 7354646 7649776 7940695 8215325 8459286 
792.124 8657125 8793839 8856613 8836471 8729958 8540072 8276669 7955730 
795.981 7597860 7225878 6862261 6526623 6233920 5993382 5808487 5677576 
799.838 5595052 5552828 5541821 5553220 5579398 5614403 5654010 5695488 
803.695 5737103 5777612 5816015 5851323 5882683 5909529 5931721 5949522 
807.552 5963570 5974539 5983043 5989507 5994196 5997407 5999606 6001499 
811.409 6003926 6007654 6013136 6020378 6028913 6038038 6047102 6055718 
815.266 6063957 6072243 6081234 6091578 6103754 6117979 6134207 6152164 
819.123 6171398 6191291 6211152 6230306 6248301 6265128 6281365 6298109 
822.980 6316816 6338829 6365026 6395446 6429370 6465596 6502910 6540641 
826.837 6578994 6618996 6662260 6710370 6764467 6824869 6891082 6962063 
830.694 7036598 7113690 7192869 7274159 7358031 7445121 7535974 7630841 
834.551 7729555 7831432 7935405 8040053 8143895 8245541 8343987 8438737 
838.408 8529835 8617720 8702984 8786114 8867283 8946290 9022704 9095957 
842.264 9165534 9230996 9291866 9347562 9397335 9440361 9476086 9504507 
846.121 9526522 9543870 9558804 9573535 9589621 9607446 9626260 9644489 
849.978 9660412 9672830 9681585 9687574 9692485 9698190 9706265 9717563 
853.835 9732295 9750239 9771214 9795398 9823532 9856842 9896872 9945287 
857.692 10003762 10073943 10157675 10256999 10374149 10511502 10671227 
861.067 10855104 11064389 11299890 11562292 11852456 12171828 12522517 
864.442 12907229 13328862 13790022 14292412 14836442 15420751 16042060 
867.817 16695036 17372056 18063178 18755948 19435318 20083746 20681546 
871.191 21207728 21641270 21962918 22157302 22214912 22133416 21918028 
874.566 21580588 21137638 20608144 20011372 19365234 18685656 17986350 
877.941 17279160 16574378 15881012 15206869 14558572 13941485 13359785 
881.316 12816495 12313581 11852034 11431970 11052614 10712417 10409197 
884.691 10140405 9903380 9695672 9515207 9360278 9229390 9120983 9033198 
888.548 8963670 8909621 8868089 8836225 8811587 8792378 8777367 8765853 
892.405 8757471 8752049 8749563 8750071 8753728 8760691 8770928 8784058 
896.262 8799139 8814569 8828193 8837463 8839757 8832596 8813885 8781934 
900.118 8735587 8674129 8597416 8505780 8400128 8281770 8152336 8013538 
903.975 7867083 7714604 7557765 7398417 7238760 7081382 6929093 6784601 
907.832 6650151 6527102 6415939 6316278 6227330 6148245 6078494 6017982 
911.689 5966942 5925663 5894161 5871932 5857913 5850643 5848525 5850142 
915.546 5854515 5861262 5870579 5883131 5899783 5921390 5948453 5980959 
919.403 6018276 6059219 6102349 6146301 6190115 6233487 6276736 6320514 
923.260 6365544 6412116 6460006 6508449 6556502 6603406 6648892 6693320 
927.117 6737490 6782258 6828173 6875177 6922626 6969540 7015043 7058706 
930.974 7100872 7142581 7185416 7231136 7281399 7337521 7400389 7470468 
934.831 7547927 7632661 7724394 7822801 7927616 8038790 8156680 8282120 
938.688 8416413 8561188 8718149 8888803 9074176 9274726 9490318 9720254 
942.545 9963470 10218605 10484059 10758040 11038576 11323515 11610629 
945.920 11897644 12182430 12462988 12737660 13005173 13264680 13515940 
949.294 13759324 13995898 14227262 14455345 14682055 14908858 15136385 
952.669 15364107 15590142 15811220 16022727 16218843 16392811 16537419 
956.044 16645597 16711268 16730370 16701528 16626862 16511904 16365218 
959.419 16197312 16019452 15842415 15675557 15526286 15400034 15300298 
962.794 15228926 15186314 15171389 15181744 15213618 15262197 15322034 
966.168 15387550 15453629 15515883 15570888 15615894 15648673 15667173 
969.543 15669392 15653425 15617689 15561081 15483262 15384518 15265740 
972.918 15128075 14972824 14801307 14614984 14415669 14205681 13987993 
976.293 13766210 13544241 13326065 13115339 12915151 12727843 12555063 
979.668 12397738 12256175 12130149 12018951 11921448 11836290 11762018 
983.043 11697266 11640891 11592001 11549849 11513671 11482475 11454967 
986.417 11429548 11404530 11378340 11349933 11318805 11285286 11250345 
989.792 11215506 11182549 11153355 11129705 11113237 11105369 11107373 
993.167 11120335 11145223 11182774 11233473 11297475 11374629 11464471 
996.542 11566427 11679975 11804920 11941496 12090437 12252813 12429941 
999.917 12622955 12832819 13060220 13305825 13570526 13855755 14163634 
1003.291 14497159 14860043 15256631 15691862 16171239 16700889 17287618 
1006.666 17938806 18662352 19466544 20360136 21352806 22455848 23682954 
1010.041 25050738 26578358 28285802 30190594 32302914 34619596 37117480 
1013.416 39747212 42428508 45048772 47466892 49524204 51063384 51952612 
1016.791 52109296 51515668 50220340 48326196 45969948 43300064 40459360 
1020.166 37573372 34744708 32051558 29549080 27272204 25239152 23455050 
1023.540 21915230 20607998 19516960 18622698 17904138 17339514 16907116 
1026.916 16586018 16356556 16200793 16103019 16050011 16031216 16038816 
1030.291 16067532 16114222 16177306 16256070 16350003 16458316 16579707 
1033.666 16712351 16854274 17003586 17158932 17319452 17484790 17654734 
1037.041 17828848 18006158 18184992 18363066 18537636 18705852 18865020 
1040.417 19012740 19147060 19266384 19369380 19454884 19521902 19569496 
1043.792 19596948 19603836 19590230 19556842 19505192 19437612 19357180 
1047.167 19267430 19172110 19074742 18978390 18885464 18797830 18716722 
1050.542 18643164 18578040 18522364 18477348 18444454 18425434 18422196 
1053.917 18436756 18471132 18527086 18606064 18709094 18836812 18989540 
1057.293 19167372 19370338 19598424 19851508 20129364 20431594 20757590 
1060.668 21106712 21478416 21872434 22288850 22728128 23191018 23678370 
1064.043 24191078 24729958 25295832 25889588 26512280 27165148 27849638 
1067.418 28567302 29319784 30108834 30936370 31804696 32716584 33675332 
1070.794 34684716 35748812 36871820 38057888 39310952 40634652 42032224 
1074.169 43506148 45057820 46686968 48391216 50165732 52003424 53895200 
1077.544 55830628 57798640 59787900 61786832 63783396 65764696 67717120 
1080.919 69626528 71479648 73265512 74976832 76610784 78168920 79656144 
1084.295 81079176 82445112 83760128 85028840 86254320 87438368 88582304 
1087.670 89687440 90755624 91789312 92791048 93762168 94701384 95602960 
1091.045 96455808 97243688 97946832 98544544 99017984 99352160 99536384 
1094.420 99563176 99426576 99120816 98640392 97981528 97144344 96134184 
1097.796 94962064 93642896 92193064 90627856 88960184 87200608 85358616 
1101.171 83444144 81468984 79447200 77395080 75330464 73272368 71240648 
1104.546 69256008 67339952 65514596 63802232 62224532 60801912 59552676 
1107.921 58492076 57631420 56977056 56529216 56280924 56217356 56315632 
1111.297 56545544 56870992 57252252 57648464 58020444 58332788 58555736 
1114.672 58666200 58648188 58492816 58197860 57766716 57207156 56529952 
1118.047 55747408 54872344 53917660 52896016 51820000 50701928 49553612 
1121.422 48385728 47207372 46025836 44846968 43675752 42517116 41376488 
1124.798 40259664 39172392 38119288 37103100 36124216 35180892 34269996 
1128.173 33388012 32532012 31700086 30891394 30105612 29342366 28600758 
1131.548 27879268 27175954 26488918 25816738 25158700 24514668 23884992 
1134.923 23270100 22670398 22086236 21518026 20966358 20432020 19915806 
1138.299 19418242 18939308 18478278 18033808 17604268 17188194 16784742 
1141.674 16393821 16016090 15652585 15304346 14971948 14655316 14353801 
1145.049 14066362 13791962 13529804 13279489 13040960 12814231 12599106 
1148.424 12394907 12200327 12013490 11832215 11654257 11477687 11301196 
1151.800 11124082 10946316 10768283 10590547 10413669 10238120 10064238 
1155.175 9892521 9723666 9558817 9399497 9247476 9104510 8972077 8851199 
1159.032 8742375 8645777 8561437 8489454 8430178 8384123 8351888 8334058 
1162.890 8331151 8343807 8372994 8420301 8487997 8578888 8695882 8841270 
1166.747 9016027 9219287 9448026 9697182 9960062 10228873 10495337 10751253 
1170.604 10988841 11201119 11382049 11526772 11631692 11694646 11714892 
1173.980 11693054 11631016 11531634 11398592 11236181 11049055 10842059 
1177.355 10619994 10387459 10148638 9907294 9666841 9430544 9201705 8983834 
1181.212 8780544 8595260 8430869 8289329 8171508 8077261 8005782 7956070 
1185.070 7927344 7919235 7931728 7964902 8018603 8092160 8184393 8293745 
1188.927 8418621 8557561 8709458 8873378 9048400 9233414 9427016 9627610 
1192.785 9833677 10044116 10258453 10476793 10699717 10927905 11161868 
1196.160 11401818 11647704 11899498 12157408 12422036 12694304 12975273 
1199.535 13265875 13566618 13877587 14198554 14529236 14869557 15219854 
1202.910 15580809 15953265 16337998 16735548 17146110 17569662 18006182 
1206.286 18455934 18919612 19398416 19893964 20408046 20942396 21498472 
1209.661 22077254 22679288 23304782 23953950 24627266 25325772 26051172 
1213.036 26805740 27591944 28411970 29267156 30157762 31082770 32040178 
1216.411 33027246 34040792 35077280 36132748 37202524 38281332 39363740 
1219.787 40445136 41522976 42598172 43675740 44764876 45877884 47028620 
1223.162 48230844 49496624 50835668 52255124 53759748 55352444 57034512 
1226.537 58805900 60665284 62610380 64638352 66746396 68932376 71195016 
1229.912 73533664 75947832 78436328 80996952 83626208 86319376 89070616 
1233.288 91872568 94715384 97585440 100464200 103327344 106145456 108885000 
1236.663 111510232 113984808 116273008 118340840 120157528 121697296 
1239.556 122941864 123882304 124519384 124862384 124926320 124729072 
1242.449 124289800 123629168 122770080 121739056 120565792 119281408 
1245.342 117915896 116495576 115042136 113573280 112104168 110649000 
1248.235 109221840 107836032 106503024 105231096 104025016 102886880 
1251.128 101817800 100819704 99896208 99052344 98293048 97621024 97034800 
1254.503 96527680 96088048 95700400 95346960 95009080 94668216 94306352 
1257.879 93906080 93451104 92926472 92319552 91620728 90824232 89928192 
1261.254 88934632 87849112 86680304 85439288 84138776 82792256 81413176 
1264.629 80014120 78606456 77200176 75804088 74425784 73071592 71746320 
1268.004 70453056 69193008 67965920 66770472 65605288 64469372 63362412 
1271.380 62284524 61235736 60215324 59221428 58251160 57301052 56367616 
1274.755 55447824 54539476 53641112 52751772 51870752 50997520 50131672 
1278.130 49273080 48421768 47577884 46741516 45912504 45090456 44274948 
1281.505 43465804 42663412 41868904 41083908 40310392 39550300 38805440 
1284.881 38077424 37367844 36678336 36010540 35365768 34744640 34146620 
1288.256 33569896 33011442 32467564 31934298 31407926 30885082 30362704 
1291.631 29837674 29306642 28766096 28212586 27643436 27057170 26454114 
1295.006 25836394 25207770 24573222 23938344 23308992 22690854 22089214 
1298.382 21508762 20953470 20426436 19929736 19464328 19030010 18625518 
1301.757 18248502 17895820 17563604 17247554 16943128 16645943 16352117 
1305.132 16058648 15763655 15466546 15167911 14869331 14572966 14281303 
1308.507 13996789 13721782 13458419 13208622 12974066 12755994 12555096 
1311.883 12371104 12202704 12047452 11901898 11761943 11623362 11482350 
1315.258 11335940 11182251 11020634 10851484 10675928 10495556 10312031 
1318.633 10126784 9940933 9755164 9569855 9385169 9201340 9018794 8838343 
1322.490 8661224 8489043 8323721 8167252 8021620 7888794 7770689 7669373 
1326.348 7587234 7527035 7491981 7485771 7512370 7575856 7680357 7829864 
1330.205 8028041 8277976 8581739 8939783 9350425 9809203 10308585 10837832 
1334.063 11383235 11928757 12456855 12949696 13390434 13764450 14060418 
1337.438 14270860 14392328 14425124 14372760 14241336 14038964 13775122 
1340.813 13460159 13104810 12719628 12314534 11898497 11479262 11063281 
1344.188 10655722 10260681 9881340 9520113 9178811 8858725 8560561 8284517 
1348.046 8030279 7797127 7584104 7390194 7214433 7056035 6914257 6788357 
1351.903 6677429 6580395 6496039 6423161 6360721 6307933 6264274 6229437 
1355.761 6203231 6185539 6176310 6175698 6184146 6202432 6231740 6273483 
1359.618 6329255 6400715 6489496 6597214 6725487 6875711 7048933 7245464 
1363.476 7464503 7703968 7960291 8228673 8503348 8778092 9046692 9303416 
1367.333 9543347 9762545 9958196 10128576 10272944 10391432 10484922 
1370.708 10554850 10602991 10631277 10641508 10635263 10613783 10578012 
1374.083 10528725 10466605 10392386 10306916 10211048 10105773 9992290 
1377.459 9872157 9747528 9621297 9497085 9379079 9271529 9178250 9102108 
1381.316 9044708 9006280 8985969 8982123 8992883 9016560 9051860 9097883 
1385.174 9153900 9219074 9292196 9371509 9454874 9539936 9624477 9706615 
1389.031 9784922 9858529 9926994 9990236 10048565 10102690 10153776 10203545 
1392.888 10254262 10308672 10369837 10441031 10525656 10627072 10748766 
1396.264 10894392 11067799 11273203 11515051 11798099 12127286 12507707 
1399.639 12944660 13443686 14010619 14651458 15371989 16177033 17069262 
1403.014 18047612 19105484 20228874 21394872 22570796 23714654 24776814 
1406.389 25703338 26440436 26939682 27163174 27087814 26707942 26036116 
1409.765 25101736 23947744 22626132 21192852 19702778 18205824 16744059 
1413.140 15350322 14047866 12851143 11766859 10795600 9933425 9173293 
1416.515 8506401 7923171 7413989 6969699 6581926 6243250 5947230 5688464 
1420.373 5462486 5265642 5094929 4947988 4822909 4718231 4632777 4565677 
1424.230 4516068 4483156 4466125 4464138 4476593 4503065 4543403 4597691 
1428.087 4666058 4748484 4844707 4954182 5076169 5209872 5354517 5509341 
1431.945 5673559 5846188 6026092 6211941 6402366 6596072 6791936 6988978 
1435.802 7186156 7382222 7575654 7764748 7947808 8123609 8291727 8452897 
1439.660 8609080 8763434 8919998 9083351 9258062 9448235 9657070 9886467 
1443.517 10136905 10407391 10695550 10997935 11310312 11628029 11946186 
1446.892 12259736 12563482 12852040 13119720 13360660 13568915 13738592 
1450.268 13864268 13941434 13966995 13940008 13861980 13736969 13571228 
1453.643 13372345 13148326 12906885 12654977 12398604 12142885 11892035 
1457.018 11649247 11416555 11194760 10983559 10781872 10588305 10401536 
1460.393 10220520 10044558 9873011 9705155 9540085 9376691 9213933 9050993 
1464.251 8887488 8723464 8559210 8395047 8231222 8067805 7904898 7742773 
1468.108 7582028 7423504 7268239 7117165 6970902 6829718 6693501 6561903 
1471.966 6434497 6310781 6190164 6071961 5955246 5838966 5722090 5603639 
1475.823 5482970 5359725 5233829 5105416 4974704 4841967 4707588 4572113 
1479.680 4436357 4301355 4168310 4038454 3912891 3792463 3677792 3569207 
1483.538 3466888 3370838 3280829 3196466 3117157 3042220 2971108 2903545 
1487.395 2839691 2780086 2725595 2677070 2635247 2600505 2572968 2552644 
1491.253 2539681 2534519 2537935 2551018 2574910 2610762 2659502 2722028 
1495.110 2799288 2892487 3003428 3134718 3289966 3474057 3693136 3954592 
1498.968 4266491 4636464 5070039 5568268 6125471 6727312 7349984 7961087 
1502.825 8522180 8992885 9335965 9522627 9537043 9379137 9064956 8624031 
1506.682 8094496 7516931 6928628 6359513 5830429 5353419 4933390 4570203 
1510.540 4260608 3999614 3781462 3600157 3449858 3325121 3221170 3134059 
1514.397 3060790 2999136 2947608 2905116 2870812 2843892 2823546 2808976 
1518.255 2799444 2794353 2793230 2795734 2801518 2810161 2821066 2833463 
1522.112 2846543 2859533 2871890 2883318 2893789 2903370 2912101 2919836 
1525.969 2926153 2930398 2931762 2929446 2922815 2911413 2895090 2873893 
1529.827 2848144 2818352 2785218 2749621 2712556 2675009 2637850 2601762 
1533.684 2567128 2534117 2502839 2473345 2445821 2420512 2397667 2377323 
1537.542 2359246 2342899 2327565 2312609 2297801 2283388 2270151 2259090 
1541.399 2251176 2246956 2246396 2248853 2253236 2258320 2263000 2266487 
1545.257 2268464 2269103 2268900 2268637 2269185 2271277 2275438 2281832 
1549.114 2290242 2300172 2310986 2322095 2333212 2344363 2355891 2368220 
1552.971 2381689 2396352 2411874 2427655 2442989 2457379 2470566 2482704 
1556.829 2494289 2505967 2518459 2532320 2547989 2565677 2585485 2607356 
1560.686 2631219 2656977 2684590 2714050 2745432 2778892 2814684 2853161 
1564.544 2894805 2940240 2990246 3045716 3107653 3176999 3254703 3341483 
1568.401 3437966 3544727 3662460 3792138 3935140 4093112 4267873 4461087 
1572.259 4673896 4906577 5158149 5426010 5705553 5989852 6269610 6533366 
1576.116 6768407 6962014 7102970 7182787 7196626 7143462 7026034 6850238 
1579.973 6624616 6359549 6066471 5756963 5441981 5131148 4832435 4552019 
1583.831 4294397 4062420 3857514 3679741 3527956 3400077 3293375 3204772 
1587.688 3131224 3069847 3018171 2974046 2935741 2901870 2871351 2843509 
1591.546 2817967 2794727 2774062 2756411 2742297 2732160 2726310 2724809 
1595.403 2727530 2734157 2744205 2757150 2772512 2789941 2809314 2830811 
1599.260 2854839 2882065 2913182 2948773 2989143 3034254 3083732 3137028 
1603.118 3193659 3253340 3316140 3382374 3452412 3526495 3604491 3685851 
1606.975 3769756 3855352 3942026 4029538 4117984 4207407 4297521 4387216 
1610.833 4474546 4556716 4630605 4693142 4741759 4774527 4790184 4787928 
1614.690 4767296 4728292 4671604 4598960 4513359 4418991 4320798 4223752 
1618.548 4132176 4049173 3976412 3914279 3862157 3818896 3783293 3754314 
1622.405 3731338 3714091 3702473 3696377 3695393 3698685 3705004 3712911 
1626.262 3721026 3728424 3734906 3741005 3747830 3756593 3768208 3782793 
1630.120 3799634 3817291 3834038 3848320 3859221 3866598 3871123 3873889 
1633.977 3876273 3879465 3884397 3891569 3901065 3912652 3925741 3939524 
1637.835 3953183 3965945 3977361 3987417 3996456 4005162 4014310 4024511 
1641.692 4036192 4049441 4064249 4080636 4098742 4118870 4141376 4166524 
1645.550 4194401 4224807 4257385 4291716 4327363 4363970 4401143 4438524 
1649.407 4475770 4512705 4549475 4586575 4624893 4665453 4709179 4756558 
1653.264 4807585 4861906 4919155 4979288 5042922 5111145 5185342 5266754 
1657.122 5356133 5453579 5558571 5670296 5787941 5911027 6039629 6174233 
1660.979 6315790 6465363 6623927 6792066 6969677 7155875 7348966 7546733 
1664.837 7746968 7948015 8149326 8351461 8555955 8764619 8978806 9198767 
1668.694 9423578 9651493 9880538 10109342 10337533 10565735 10795233 
1672.069 11027373 11263323 11503787 11749320 12000483 12257934 12522268 
1675.445 12793748 13071889 13355482 13642889 13932532 14223427 14515373 
1678.820 14808756 15104127 15401740 15701354 16002400 16304524 16608097 
1682.195 16914466 17225618 17543714 17870260 18205784 18549978 18902272 
1685.570 19262884 19633282 20016346 20415874 20835918 21280176 21751900 
1688.946 22254110 22789996 23363150 23977398 24636432 25343210 26100168 
1692.321 26909820 27775892 28704378 29703728 30783864 31954214 33221508 
1695.696 34588604 36055460 37621920 39291584 41074716 42988984 45056984 
1699.071 47301572 49740832 52384336 55233192 58283400 61531912 64981764 
1702.447 68644024 72535184 76671616 81062968 85707480 90590696 95687584 
1705.822 100965824 106388032 111910608 117480424 123030768 128481032 
1708.715 133740568 138716704 143321952 147477376 151111312 154156688 
1711.608 156552304 158251136 159232016 159509184 159130016 158163424 
1714.501 156682464 154751760 152423856 149745776 146767920 143550144 
1717.394 140159536 136662160 133112672 129548552 125990304 122447408 
1720.287 118926088 115435216 111987664 108598232 105279288 102037896 
1723.180 98874816 95786872 92770064 89822712 86946144 84143688 81418176 
1726.555 78769752 76195176 73688808 71244640 68858520 66529192 64257656 
1729.931 62045472 59892584 57795756 55748616 53742804 51770156 49825092 
1733.306 47905924 46015076 44157924 42340580 40567840 38841568 37160528 
1736.681 35520996 33918256 32348120 30808246 29298774 27822334 26383320 
1740.056 24987202 23639262 22344022 21104618 19922826 18799170 17733354 
1743.432 16724630 15772392 14876369 14036632 13253522 12526971 11855981 
1746.807 11238400 10670714 10148593 9667552 9223615 8813683 8435691 8088038 
1750.664 7769187 7477153 7209379 6962973 6735002 6522844 6324413 6138101 
1754.522 5962695 5797253 5641141 5493958 5355603 5226174 5105582 4993399 
1758.379 4888695 4790155 4696500 4606905 4521137 4439767 4363550 4293018 
1762.237 4228072 4167817 4110862 4055959 4002372 3950136 3899939 3852509 
1766.094 3808252 3766872 3727534 3689166 3650975 3612733 3574711 3537498 
1769.951 3501510 3466902 3433498 3401110 3369742 3339762 3311722 3285988 
1773.809 3262585 3240930 3220336 3200172 3180487 3161801 3145035 3130772 
1777.666 3118772 3107730 3095629 3080351 3060449 3035682 3007083 2976400 
1781.524 2945554 2915880 2888072 2862226 2838245 2816121 2796131 2778453 
1785.381 2762914 2748676 2734390 2718620 2700399 2679658 2657453 2635462 
1789.239 2615551 2599018 2586312 2577048 2570246 2564809 2559681 2554202 
1793.096 2547890 2540428 2531678 2521598 2510458 2498710 2486934 2475509 
1796.953 2464418 2453260 2441385 2428252 2413858 2398741 2383957 2370576 
1800.811 2359304 2350231 2342881 2336550 2330707 2325163 2320257 2316296 
1804.668 2313497 2311571 2310106 2308634 2307154 2305957 2305585 2306250 
1808.526 2307488 2308047 2306341 2301157 2292314 2280848 2268754 2258008 
1812.383 2249704 2243461 2237672 2230255 2220008 2207320 2194523 2185196 
1816.240 2182813 2189476 2205070 2227284 2252398 2276671 2297296 2312896 
1820.098 2323333 2329042 2330541 2328175 2322332 2313750 2303690 2293733 
1823.955 2285214 2278669 2273640 2268857 2262783 2254346 2243310 2230195 
1827.813 2215774 2200476 2184132 2165990 2145338 2121990 2096743 2071143 
1831.670 2046895 2025182 2006240 1989386 1973616 1958140 1943001 1928860 
1835.528 1916632 1906562 1898027 1889270 1878165 1862936 1843008 1819110 
1839.385 1793006 1766903 1742640 1721114 1702399 1685860 1670568 1655508 
1843.242 1639845 1622723 1603633 1582530 1560163 1537977 1518048 1502116 
1847.100 1490885 1483399 1477087 1468639 1455353 1436272 1412969 1388906 
1850.957 1368162 1353819 1346634 1344669 1344313 1341803 1334958 1323887 
1854.815 1311044 1299833 1293292 1292647 1297021 1303799 1309761 1312122 
1858.672 1309327 1300965 1287584 1270029 1249238 1226100 1201749 1177624 
1862.530 1155465 1136788 1122645 1113085 1107449 1104691 1104030 1105318 
1866.387 1109146 1116218 1126926 1140509 1155149 1168028 1176460 1178436 
1870.244 1173270 1161663 1145305 1126268 1106522 1087501 1070316 1055799 
1874.102 1044729 1037606 1034538 1034666 1036134 1036180 1031886 1020926 
1877.959 1002560 978122 950958 925660 906830 897753 899489 910465 927181 
1882.299 945032 960061 969601 973209 972062 968342 963932 959646 954941 
1886.638 948431 938661 925193 908861 892088 877821 868946 867111 872618 
1890.978 884202 899765 916664 932325 944362 950815 950321 942544 928655 
1895.318 911555 895581 885830 886653 900617 927142 962984 1002617 1039867 
1899.657 1069118 1086643 1090562 1080806 1058352 1025255 984104 938699 
1903.515 893863 855511 829464 820405 830267 857603 897571 942934 985427 
1907.854 1017904 1035157 1035028 1018170 987934 949225 908318 871257 843760 
1912.194 829746 831114 846960 874170 907486 941019 968900 986599 990939 
1916.533 980850 957057 922524 882041 842000 809239 789980 787719 802473 
1920.873 829835 862512 891943 911205 916844 910238 896562 883094 876123 
1925.213 879307 892553 913020 936588 960271 982932 1005798 1030886 1060157 
1929.552 1093533 1129161 1163298 1192144 1212294 1222117 1221513 1212045 
1933.410 1196303 1177508 1159040 1144172 1135358 1133645 1137783 1144266 
1937.267 1147791 1142994 1125905 1096225 1057686 1018150 987431 974888 
1941.125 986692 1024078 1082483 1152890 1223541 1283301 1323612 1341115 
1944.982 1337335 1318815 1294378 1273550 1263650 1268567 1287752 1317354 
1948.839 1351048 1382108 1404266 1413273 1406183 1382253 1341917 1287711 
1952.697 1224021 1157224 1094598 1043484 1008751 991381 987365 988461 984127 
1957.036 965132 925744 866673 794643 721612 660325 622395 613912 635366 
1961.376 681574 744818 816568 890642 963874 1036619 1109811 1183827 1254626 
1965.716 1314121 1349202 1346243 1293633 1187520 1033511 847195 649578 
1969.573 463624 306809 189239 111488 68561 52461 57346 79714 119737 178244 
1974.395 256462 354689 475154 620847 796026 1000733 1227039 1453300 1647762 
1978.734 1775261 1811041 1749680 1610293 1430620 1258296 1135384 1088499 
1982.592 1120875 1215362 1340991 1465407 1563912 1625452 1650420 1646266 
1986.449 1619488 1573139 1506012 1417738 1312848 1205188 1114942 1064478 
1990.307 1069276 1133013 1243755 1378524 1508584 1608816 1662615 1665616 
1994.164 1623118 1547499 1452367 1349476 1246544 1147379 1052814 962971 
1998.021 877652 798062 726275 665633 618764 587452 570208 562623 557011 
2002.361 545341 522017 487433 448649 419379 414741 447030 518018 618119 
2006.701 725377 812784 854772 836817 758123 632668 483796 338958 221808 
2011.040 148726 124164 143261 191236 249486 298203 323681 320154 292670 
2015.380 253662 219146 201418 204487 220911 234604 225924 179713 89701 
2019.719 -38135 -188999 -342430 -480223 -587179 -655820 -682546 -668088 
2023.577 -614921 -529352 -421451 -306981 -204018 -131206 -100259 -114248 
2027.434 -165313 -239407 -319728 -394914 -460047 -517421 -571843 -627514 
2031.292 -682503 -730987 -763415 -772035 -751702 -701664 -623163 -519494 
2035.149 -393416 -250938 -101457 39381 153687 224137 241434 207560 137761 
2039.489 55704 -11692 -43702 -29444 29426 123010 237239 360293 483378 601708 
2044.311 710754 806119 882486 936792 970558 992151 1014268 1050136 1106248 
2048.650 1178439 1251079 1302145 1310833 1266068 1169249 1035024 886024 
2052.508 747858 642134 583075 573685 607346 669307 741785 807879 855368 
2056.847 878731 879192 863184 840522 821269 813391 820620 842212 873188 
2061.187 906831 936361 957702 969738 974616 976060 977871 982373 989867 
2065.526 998381 1005113 1006685 1001178 987912 968693 946670 926721 913408 
2069.866 910691 920175 941117 970024 1002514 1034169 1062591 1087440 1110756 
2074.206 1134854 1161066 1188168 1212802 1230319 1237085 1232112 1218101 
2078.063 1200617 1186451 1180975 1186638 1201976 1222640 1242396 1255494 
2081.920 1257261 1245463 1219860 1182636 1137816 1091432 1050865 1023908 
2085.778 1016722 1032044 1067541 1115698 1164911 1202871 1219377 1209592 
2089.635 1174656 1121423 1059479 998753 946751 907727 882562 870456 869683 
2093.975 879046 897307 923510 955990 992975 1032283 1072777 1113815 1155551 
2098.314 1197720 1239279 1277426 1308867 1330270 1340286 1339676 1331850 
2102.172 1321188 1311843 1305754 1302278 1298015 1288800 1270416 1241087 
2106.029 1201155 1153971 1104429 1058487 1021523 998138 991069 1001392 
2109.887 1027788 1067169 1114429 1163406 1207376 1240497 1257988 1257473 
2113.744 1238607 1203864 1157269 1104484 1051251 1002796 962444 931055 
2117.602 906726 885468 862327 833173 795728 750604 700498 649575 601197 
2121.941 557449 518142 481726 446044 409786 372671 335660 299806 265772 
2126.281 233522 202794 173785 148465 129827 121543 125308 139666 158466 
2130.620 172377 170690 145543 94112 21036 -63145 -144225 -208611 -246901 
2134.960 -256353 -239878 -204979 -159692 -111209 -63889 -20142 18925 52000 
2139.300 77135 91486 91712 74340 36713 -22704 -103013 -200548 -307529 
2143.639 -413192 -504369 -569838 -601995 -601799 -577735 -545622 -522687 
2147.497 -524290 -557153 -619491 -700543 -785891 -861509 -919147 -957451 
2151.354 -983216 -1007596 -1044675 -1107756 -1208071 -1353574 -1549028 
2154.729 -1792598 -2075938 -2379688 -2673756 -2918006 -3069287 -3090166 
2158.104 -2963839 -2701146 -2345301 -1957760 -1601176 -1317747 -1120761 
2161.480 -994795 -909218 -829867 -733498 -611417 -471005 -328004 -200126 
2165.337 -97325 -20943 37653 88817 140241 190622 230379 243664 215418 136711 
2170.159 9268 -155158 -337070 -515350 -671652 -793996 -876397 -917751 
2174.016 -917783 -877316 -796992 -681362 -539464 -387818 -246709 -137445 
2177.874 -75093 -65460 -101855 -168529 -244832 -313267 -364043 -398969 
2181.731 -428126 -464425 -515867 -580540 -644386 -686207 -684109 -625641 
2185.589 -512208 -361718 -202565 -66365 22840 55618 39939 -2676 -44660 
2189.928 -62987 -45935 1945 63681 115181 135411 113144 52190 -30159 -108045 
2194.750 -155502 -154033 -98945 -138 119828 232935 312039 339270 309062 
2199.090 230350 123036 12895 -75598 -124532 -127131 -87311 -17730 65646 
2203.429 148350 222298 286167 345334 407234 478786 561878 654390 749855 
2207.769 841043 921757 988893 1041247 1079301 1102711 1110650 1101051 
2211.626 1073151 1028215 971238 909386 850979 801828 764011 734541 707329 
2215.966 675242 634479 585735 535701 494409 472606 477408 509987 563933 
2220.305 627549 686300 727669 744145 735960 710262 679352 656227 651725 
2224.645 670768 712153 768840 831119 889080 935603 966990 983902 989292 
2228.985 987924 984108 981657 982996 989227 1000025 1013855 1027909 1039325 
2233.324 1045473 1045938 1042610 1040095 1043965 1059324 1087848 1127277 
2237.182 1170820 1209725 1235172 1241635 1227800 1197297 1156523 1113091 
2241.039 1073188 1041008 1018394 1005768 1002756 1008987 1023590 1045425 
2244.896 1072207 1101348 1130065 1156732 1180433 1201452 1219806 1234815 
2248.754 1244399 1245828 1236923 1217567 1190023 1159215 1130433 1108062 
2252.611 1093498 1085406 1080444 1075503 1069389 1064323 1064755 1075992 
2256.469 1101585 1141871 1193456 1250408 1305779 1354125 1391998 1418970 
2260.326 1436271 1446733 1453086 1457868 1462561 1467743 1472706 1475731 
2264.184 1474194 1465559 1448253 1423174 1393400 1364605 1342735 1332838 
2268.041 1336679 1352788 1376423 1401737 1423512 1439270 1449272 1456476 
2271.898 1464983 1478545 1499149 1527032 1560429 1596578 1631997 1663387 
2275.756 1687912 1703752 1710690 1710323 1705909 1702078 1703099 1712071 
2279.613 1729656 1754195 1782319 1810748 1837109 1861224 1884136 1907579 
2283.471 1932103 1956634 1978193 1993370 1999323 1995348 1982761 1964723 
2287.328 1944547 1924737 1906152 1888398 1870206 1850828 1830246 1809437 
2291.186 1789442 1771066 1753930 1736921 1718470 1697603 1674119 1649008 
2295.043 1623830 1600202 1579058 1560769 1544942 1531236 1519334 1509424 
2298.900 1501846 1497034 1495104 1496106 1499910 1506440 1515597 1527052 
2302.758 1539961 1552637 1563002 1569005 1569326 1564154 1555170 1545221 
2306.615 1537349 1533859 1535414 1541194 1549019 1556491 1561557 1563235 
2310.473 1561610 1557589 1552500 1547752 1544481 1543697 1546035 1551940 
2314.330 1561585 1574842 1591441 1611137 1633614 1658782 1686261 1715493 
2318.188 1745347 1774784 1803131 1831067 1860815 1895715 1938841 1991080 
2322.045 2049318 2105963 2149918 2169208 2154365 2101280 2012534 1896937 
2325.902 1767176 1637019 1518198 1418445 1340631 1283586 1243733 1217126 
2329.760 1200699 1192807 1192585 1199225 1210997 1225324 1239291 1250425 
2333.617 1257541 1260831 1261507 1261031 1260312 1259522 1258261 1256161 
2337.475 1253386 1250908 1250138 1252389 1258218 1267112 1277502 1287536 
2341.332 1295493 1300514 1302487 1302087 1300090 1297283 1294167 1291137 
2345.189 1288711 1287724 1289131 1293774 1301884 1312937 1325556 1337938 
2349.047 1348259 1355320 1358912 1359696 1358980 1358217 1358558 1360606 
2352.904 1364250 1368924 1373749 1377881 1380614 1381672 1380919 1378606 
2356.762 1375073 1370803 1366247 1361854 1358031 1355084 1353167 1352120 
2360.619 1351358 1350033 1346717 1340181 1329360 1314127 1295250 1274616 
2364.477 1254675 1237895 1225988 1219471 1217514 1218436 1220336 1221902 
2368.334 1222913 1224353 1227876 1235214 1247427 1264569 1285603 1308870 
2372.191 1332494 1354865 1374821 1391687 1405046 1414711 1420646 1423178 
2376.049 1423003 1421160 1418798 1416770 1415308 1413885 1411399 1406786 
2379.906 1399454 1389881 1379594 1370878 1365942 1366338 1372271 1382543 
2383.764 1394822 1406418 1414960 1419180 1419034 1415706 1411150 1407266 
2387.621 1405450 1406078 1408424 1410963 1411833 1409510 1403139 1393056 
2391.479 1380368 1366890 1354412 1344412 1337630 1334188 1333589 1335111 
2395.336 1337776 1340546 1342271 1341873 1338434 1331550 1321662 1310209 
2399.193 1299211 1290835 1286432 1285861 1287360 1288102 1285065 1276676 
2403.051 1263546 1248736 1237024 1233435 1241310 1261216 1290147 1322610 
2406.908 1351896 1372224 1380121 1375255 1360143 1339181 1316896 1297236 
2410.766 1282269 1272392 1266605 1263145 1260186 1256351 1250799 1243376 
2414.623 1234274 1224198 1213827 1204028 1195563 1189127 1185136 1183711 
2418.480 1184401 1186428 1188440 1188929 1186481 1180114 1169722 1156154 
2422.338 1140984 1126346 1114154 1105725 1101310 1100352 1101464 1103502 
2426.195 1105582 1107613 1110092 1113589 1118290 1123489 1127714 1128939 
2430.053 1125322 1115876 1100746 1081682 1061164 1042278 1027759 1019724 
2433.910 1019112 1025894 1039083 1057119 1078052 1099942 1121030 1139918 
2437.768 1155690 1167704 1175599 1178985 1177388 1170451 1157920 1140300 
2441.625 1118915 1096112 1074768 1057835 1047455 1044513 1048155 1056232 
2445.482 1065745 1073650 1077596 1076375 1069862 1059030 1045409 1030753 
2449.340 1016846 1005165 996873 992634 992526 996075 1002266 1009887 1017627 
2453.679 1024664 1030473 1035167 1039001 1042475 1045852 1049337 1052765 
2457.537 1055982 1058525 1059703 1058553 1053938 1044786 1030652 1012036 
2461.394 990914 970314 953884 944603 943948 951051 963017 975558 984462 
2465.734 986897 982348 972454 960288 948927 940194 933917 928224 920450 
2470.073 908603 892313 873485 855692 843155 839174 845069 859739 879994 
2474.413 901419 919920 932318 937324 935222 927706 917000 905530 895190 
2478.753 887390 882651 880876 881222 882263 882534 880807 876559 870510 
2483.092 864368 860745 862206 870854 887235 910483 938257 967370 994299 
2487.432 1016119 1030388 1035699 1031512 1018265 997379 971443 943998 919179 
2491.771 901008 892489 894694 906787 925926 948361 970576 990251 1006615 
2496.111 1020249 1032237 1043086 1052244 1057964 1058076 1051115 1037220 
2499.969 1018657 999454 984352 977434 981085 995204 1017358 1043477 1068808 
2504.308 1088891 1100426 1101518 1092245 1074265 1050980 1026912 1007041 
2508.166 995853 996254 1008914 1031987 1061691 1093322 1122679 1147077 
2512.023 1165769 1179776 1190751 1200013 1207553 1212131 1211470 1203664 
2515.880 1187908 1165289 1138722 1112295 1090220 1075926 1071202 1076187 
2519.738 1089402 1108503 1130839 1153963 1175970 1195843 1213066 1227879 
2523.595 1240628 1251692 1261078 1268267 1272343 1272400 1267765 1258716 
2527.453 1246379 1232843 1220371 1210920 1205296 1203069 1202543 1201357 
2531.310 1197295 1189188 1177075 1162482 1147979 1136518 1130753 1132521 
2535.167 1142377 1159794 1183021 1209652 1236843 1261806 1282215 1296491 
2539.025 1303964 1305089 1301027 1293737 1285167 1277276 1271282 1267842 
2542.882 1266761 1267351 1268537 1269571 1269922 1269830 1270147 1271984 
2546.740 1276348 1283676 1293415 1304124 1313770 1320463 1323158 1322151 
2550.597 1319083 1316689 1317682 1324221 1336727 1354146 1373939 1393005 
2554.455 1408447 1418341 1421919 1419666 1412796 1402750 1390951 1378625 
2558.312 1366596 1355525 1345746 1337502 1330620 1324834 1319562 1314554 
2562.169 1309785 1305702 1303095 1302782 1305244 1310485 1317834 1326357 
2566.027 1335167 1343835 1352584 1362284 1373857 1388038 1404648 1422767 
2569.884 1440654 1456488 1468679 1476499 1480187 1480862 1479956 1478998 
2573.742 1478946 1480140 1482223 1484611 1486566 1487727 1488092 1488180 
2577.599 1488579 1489949 1492608 1496559 1501447 1506744 1512034 1516988 
2581.457 1521589 1525966 1530328 1534830 1539524 1544273 1548737 1552568 
2585.314 1555142 1555797 1553724 1548357 1539425 1527422 1513686 1500381 
2589.171 1489899 1484342 1484705 1490418 1499377 1508498 1514828 1516511 
2593.029 1513685 1508436 1504205 1504745 1512632 1528628 1551189 1577061 
2596.886 1602179 1622974 1636959 1643412 1643071 1637556 1628893 1619066 
2600.744 1609655 1601893 1596490 1593865 1593863 1595890 1598784 1601321 
2604.601 1602449 1601783 1599741 1597576 1596847 1598930 1604544 1613465 
2608.458 1624581 1636326 1647128 1655864 1662015 1665763 1667677 1668661 
2612.316 1669628 1671465 1674989 1680756 1688952 1699305 1710886 1722402 
2616.173 1732374 1739718 1744018 1745854 1746378 1747158 1749383 1753407 
2620.031 1758693 1764078 1768142 1770073 1769816 1768280 1766786 1766652 
2623.888 1768469 1772097 1776512 1780531 1783279 1784721 1785579 1787339 
2627.746 1791399 1798742 1809354 1822378 1836054 1848479 1857871 1862979 
2631.603 1863178 1858565 1849642 1837355 1822912 1807774 1793447 1781485 
2635.460 1773049 1768823 1768783 1772238 1777896 1784400 1790417 1795043 
2639.318 1797813 1798666 1797679 1795128 1791154 1786120 1780427 1774696 
2643.175 1769781 1766359 1764964 1765598 1767771 1770683 1773499 1775540 
2647.033 1776541 1776793 1776671 1776576 1776650 1776840 1776869 1776630 
2650.890 1776276 1776447 1777984 1781546 1787297 1794703 1802441 1808834 
2654.748 1812344 1812038 1807836 1800592 1791693 1782568 1774262 1767206 
2658.605 1760979 1754894 1748073 1739836 1729790 1718049 1704801 1690575 
2662.462 1675737 1660815 1646166 1632284 1619518 1608127 1598246 1589751 
2666.320 1582533 1576478 1571666 1568402 1566983 1567633 1570238 1574171 
2670.177 1578473 1582086 1584067 1584057 1582279 1579368 1576224 1573455 
2674.035 1571342 1569676 1567973 1565857 1563255 1560525 1558335 1557294 
2677.892 1557718 1559411 1561634 1563472 1564041 1562982 1560409 1556989 
2681.750 1553595 1551065 1549903 1550352 1552280 1555362 1559202 1563395 
2685.607 1567391 1570667 1572672 1572981 1571323 1567886 1563193 1557948 
2689.464 1552836 1548301 1544423 1540951 1537523 1533921 1530246 1526923 
2693.322 1524520 1523591 1524252 1526243 1528960 1531758 1534150 1536126 
2697.179 1537994 1540252 1543227 1546918 1550855 1554304 1556459 1556882 
2701.037 1555572 1553020 1550005 1547224 1545113 1543737 1542851 1542318 
2704.894 1542021 1542232 1543433 1546125 1550481 1556219 1562533 1568258 
2708.751 1572221 1573638 1572362 1568911 1564266 1559674 1556146 1554356 
2712.609 1554460 1556230 1559303 1563325 1568068 1573480 1579403 1585584 
2716.466 1591476 1596439 1599816 1601323 1601206 1600202 1599490 1600267 
2720.324 1603301 1608793 1616181 1624393 1632198 1638505 1642729 1644850 
2724.181 1645169 1644270 1642712 1640914 1639154 1637639 1636609 1636367 
2728.039 1637151 1639081 1642112 1646006 1650415 1655164 1660173 1665560 
2731.896 1671563 1678221 1685350 1692546 1699276 1705136 1710005 1714048 
2735.753 1717652 1721100 1724356 1726970 1728277 1727772 1725351 1721677 
2739.611 1717818 1715154 1714682 1716642 1720427 1724850 1728491 1730390 
2743.468 1730325 1728858 1726985 1725867 1726179 1728190 1731614 1736055 
2747.326 1741209 1747011 1753518 1760840 1768841 1777020 1784813 1791621 
2751.183 1797218 1801828 1805883 1809958 1814249 1818457 1821888 1823690 
2755.041 1823332 1820917 1817268 1813709 1811718 1812452 1816229 1822680 
2758.898 1830665 1838765 1845502 1849874 1851330 1850009 1846476 1841752 
2762.755 1836961 1833201 1831298 1831683 1834048 1837736 1841704 1844901 
2766.613 1846600 1846596 1845176 1843207 1841637 1841362 1842949 1846578 
2770.470 1852045 1858866 1866305 1873504 1879428 1883086 1883516 1880287 
2774.328 1873499 1864152 1853877 1844814 1838998 1837935 1841991 1850628 
2778.185 1862334 1875214 1887548 1898091 1906412 1912789 1917867 1922432 
2782.042 1926998 1931754 1936445 1940697 1943893 1945607 1945710 1944237 
2785.900 1941591 1938352 1935291 1933243 1932920 1934982 1939757 1947483 
2789.757 1958040 1971128 1986102 2002286 2018741 2034564 2048992 2061525 
2793.615 2072040 2080948 2088852 2096543 2104519 2112960 2121471 2129362 
2797.472 2135917 2140700 2143938 2146384 2149274 2153884 2161149 2171355 
2801.330 2184145 2198556 2213400 2227569 2240174 2250722 2259041 2265109 
2805.187 2269210 2271787 2273542 2275411 2278369 2283282 2290471 2299559 
2809.044 2309562 2318961 2326352 2330852 2332353 2331727 2330446 2330077 
2812.902 2331777 2336016 2342479 2350370 2358836 2367446 2376289 2386001 
2816.759 2397420 2411206 2427463 2445699 2464907 2483962 2501911 2518323 
2820.617 2533388 2547744 2562383 2578270 2596169 2616562 2639488 2664769 
2824.474 2691995 2720567 2749987 2779740 2809577 2839355 2869303 2899718 
2828.332 2930920 2963109 2996431 3030754 3066049 3102577 3140880 3182125 
2832.189 3227635 3278797 3336690 3401655 3473330 3550794 3632771 3718200 
2836.046 3806468 3897602 3992281 4091700 4197097 4309826 4431166 4562282 
2839.904 4704233 4858033 5024339 5203294 5394411 5596487 5807814 6026706 
2843.761 6251615 6481874 6717374 6958504 7205380 7457416 7712969 7969042 
2847.619 8222145 8468453 8704828 8929189 9140579 9338912 9524397 9697182 
2851.476 9856737 10002124 10132196 10245854 10342362 10421479 10482980 
2854.851 10526773 10552417 10559360 10547273 10516381 10467912 10404117 
2858.227 10328023 10242817 10151106 10054594 9953681 9847995 9736830 9619953 
2862.084 9497895 9372278 9245413 9119920 8998076 8881439 8770679 8665572 
2865.941 8565351 8468930 8375072 8282849 8191427 8100550 8010186 7920933 
2869.799 7833718 7749939 7671004 7598392 7533256 7476479 7428562 7389663 
2873.656 7359610 7338010 7324191 7317228 7316173 7320268 7329086 7342919 
2877.514 7362563 7389236 7424241 7468471 7522172 7584927 7655745 7733520 
2881.371 7817314 7906648 8001401 8101439 8206341 8315154 8426250 8537693 
2885.229 8647448 8754060 8856704 8955434 9050860 9144072 9236073 9327861 
2889.086 9420114 9513208 9607102 9701363 9794970 9886361 9973685 10054965 
2892.943 10128473 10193213 10248826 10295854 10335248 10368332 10396442 
2896.319 10420918 10443195 10464973 10488177 10515015 10547549 10587422 
2899.694 10635329 10691174 10753833 10821874 10893764 10968699 11046384 
2903.069 11127502 11212999 11303945 11401084 11504493 11613495 11726861 
2906.444 11842933 11960172 12077323 12193839 12309801 12426218 12544408 
2909.820 12665899 12791872 12922998 13059098 13199325 13342476 13487223 
2913.195 13632707 13778539 13924916 14072317 14221323 14372240 14525132 
2916.570 14679697 14835474 14992052 15149121 15306278 15462972 15618278 
2919.945 15770608 15917996 16058339 16189660 16310732 16421293 16521922 
2923.321 16613984 16699044 16778458 16853004 16922868 16987668 17046820 
2926.696 17100162 17147774 17190514 17229478 17265818 17300334 17333100 
2930.071 17363364 17389754 17410662 17424526 17430392 17428010 17417928 
2933.446 17401236 17379260 17353094 17323490 17290590 17254064 17213132 
2936.822 17166980 17114962 17056780 16992562 16922734 16847912 16768768 
2940.197 16685832 16599397 16509534 16416164 16319099 16218095 16112906 
2943.572 16003250 15889107 15770473 15647954 15522423 15395203 15267745 
2946.947 15141153 15015946 14891760 14767413 14641212 14511630 14377941 
2950.323 14240465 14100614 13960539 13822190 13686785 13554378 13423979 
2953.698 13294183 13163722 13032249 12900418 12769568 12641244 12516230 
2957.073 12394395 12274646 12155551 12035758 11914793 11793110 11671709 
2960.448 11551566 11433151 11316043 11199176 11081361 10961796 10840570 
2963.823 10718496 10596874 10476841 10358898 10242697 10127352 10011863 
2967.199 9895708 9778945 9662380 9546817 9433004 9321012 9210406 9100271 
2971.056 8989753 8878370 8765982 8652848 8539440 8426055 8312842 8199754 
2974.914 8086680 7973711 7860847 7748152 7635531 7522692 7409373 7295323 
2978.771 7180735 7066255 6952924 6841936 6734192 6630166 6529752 6432500 
2982.628 6337908 6245792 6156459 6070404 5988189 5909935 5835107 5762492 
2986.486 5690495 5617646 5542915 5466139 5387846 5309102 5230999 5154507 
2990.343 5080177 5008257 4938784 4871857 4807722 4746745 4689087 4634676 
2994.201 4582900 4532875 4483429 4433781 4383582 4333304 4283964 4236863 
2998.058 4193170 4153426 4117180 4083599 4051132 4018530 3984870 3950050 
3001.916 3914470 3878754 3843457 3808498 3773361 3737128 3698844 3658020 
3005.773 3614555 3569104 3522580 3475945 3430111 3385822 3343611 3304058 
3009.630 3267766 3235255 3206575 3181388 3158518 3136320 3112953 3086905 
3013.488 3057205 3023762 2987139 2948144 2907699 2866344 2824550 2782797 
3017.345 2741840 2702822 2667131 2635999 2610050 2589004 2571558 2555987 
3021.203 2540371 2523467 2504742 2484657 2464079 2443823 2424330 2405364 
3025.060 2386232 2366116 2344426 2321241 2297289 2273772 2252027 2233187 
3028.917 2217815 2205868 2196705 2189358 2182743 2175891 2168078 2158945 
3032.775 2148493 2136924 2124658 2112103 2099719 2087925 2077303 2068385 
3036.632 2061938 2058719 2059342 2064055 2072523 2083735 2096261 2108547 
3040.490 2119322 2128054 2135325 2142639 2152158 2166262 2187024 2215652 
3044.347 2252348 2296395 2346355 2400541 2457337 2515502 2574277 2633323 
3048.205 2692588 2751981 2811253 2869868 2926823 2980832 3030453 3074271 
3052.062 3111192 3140501 3162118 3176315 3183968 3185922 3183035 3175957 
3055.919 3165093 3150577 3132708 3112098 3089918 3067953 3048318 3033201 
3059.777 3024107 3021575 3024832 3032053 3040501 3047426 3050740 3049507 
3063.634 3044109 3036164 3027844 3021443 3018697 3020544 3026881 3036671 
3067.492 3048326 3059913 3069476 3075473 3076882 3073441 3065815 3055449 
3071.349 3044278 3034136 3026542 3021966 3020045 3019644 3019221 3017694 
3075.207 3014415 3009583 3004113 2999090 2995609 2994253 2995202 2998300 
3079.064 3003047 3008735 3014508 3019166 3021319 3019442 3012186 2998881 
3082.921 2979693 2955750 2928722 2900522 2872559 2845419 2818923 2792298 
3086.779 2764782 2736033 2706383 2676782 2648306 2622019 2598275 2577023 
3090.636 2557823 2540155 2523912 2509390 2497223 2488164 2482851 2481484 
3094.494 2483813 2489225 2496769 2505403 2514092 2521886 2528144 2532522 
3098.351 2535176 2536565 2537608 2539196 2542124 2546508 2551941 2557532 
3102.208 2562319 2565399 2566542 2566029 2564520 2562581 2560357 2557158 
3106.066 2551713 2542302 2527425 2506250 2478895 2446734 2411676 2376082 
3109.923 2342111 2311377 2284866 2262764 2244926 2230858 2219807 2210914 
3113.781 2203098 2195007 2185362 2172925 2157055 2137795 2116055 2093494 
3117.638 2072042 2053524 2039082 2029117 2023125 2020290 2019563 2020400 
3121.496 2022801 2027093 2033822 2043201 2054715 2067327 2079545 2089896 
3125.353 2097527 2102257 2104791 2106210 2107640 2109701 2112311 2114510 
3129.210 2115005 2112424 2105734 2094724 2079845 2062183 2043084 2023941 
3133.068 2005763 1989120 1974149 1960671 1948286 1936604 1925183 1913760 
3136.925 1902007 1889746 1876723 1862970 1848519 1833726 1819090 1805104 
3140.783 1792337 1781109 1771669 1764242 1759123 1756787 1757711 1762423 
3144.640 1770651 1781512 1793020 1802620 1807629 1806089 1797416 1782632 
3148.498 1764221 1745195 1728543 1716252 1708979 1706291 1707039 1710038 
3152.355 1714340 1719341 1724470 1728903 1731453 1730744 1725737 1716355 
3156.212 1703604 1689485 1676199 1665378 1657434 1651364 1645334 1637523 
3160.070 1627040 1614605 1602200 1592652 1588380 1590562 1598713 1610887 
3163.927 1624306 1636309 1644910 1649384 1649954 1647679 1643852 1639961 
3167.785 1637194 1636636 1638967 1644359 1652337 1661730 1670819 1677677 
3171.642 1680730 1679060 1672878 1663257 1651868 1640571 1630944 1623922 
3175.500 1619750 1618037 1617910 1618209 1617848 1615973 1612244 1607075 
3179.357 1601596 1597352 1595932 1598285 1604349 1612825 1621561 1628070 
3183.214 1630515 1628083 1621423 1612253 1602718 1594846 1589705 1587692 
3187.072 1588296 1590769 1594482 1598987 1604092 1609477 1614692 1619021 
3190.929 1621630 1621972 1619948 1615848 1610527 1604723 1599024 1593645 
3194.787 1588254 1582529 1575925 1568269 1559454 1549781 1539709 1529934 
3198.644 1521250 1514547 1510574 1509708 1511790 1515942 1520749 1524615 
3202.501 1526314 1525342 1522299 1518589 1516059 1516255 1519844 1526462 
3206.359 1534639 1542369 1547618 1548926 1545762 1538599 1528628 1517655 
3210.216 1507550 1499938 1496055 1496419 1500850 1508618 1518497 1529274 
3214.074 1539818 1549471 1557911 1565191 1571352 1576384 1580210 1582894 
3217.931 1584727 1586550 1589527 1594793 1602876 1613240 1624050 1632672 
3221.789 1636232 1632535 1620939 1602504 1579690 1555643 1533331 1514861 
3225.646 1501217 1492452 1488202 1488198 1492376 1500793 1513332 1529121 
3229.503 1546582 1563509 1577532 1586861 1590607 1589046 1583380 1575319 
3233.361 1566400 1557890 1550386 1544072 1538841 1534626 1531288 1528676 
3237.218 1526616 1524772 1522743 1520302 1517545 1515069 1513645 1514174 
3241.076 1517135 1522214 1528390 1533831 1536666 1535460 1529680 1520019 
3244.933 1508106 1496169 1486044 1478994 1474995 1473334 1472672 1471944 
3248.791 1470759 1469553 1469292 1471044 1475311 1481713 1489031 1495666 
3252.648 1500135 1501708 1500689 1498089 1495445 1493912 1493915 1495194 
3256.505 1496756 1497643 1497276 1495708 1493628 1491983 1491428 1491999 
3260.363 1492885 1492909 1490782 1485837 1478324 1469476 1461162 1455401 
3264.220 1453715 1456717 1463960 1474234 1485889 1497549 1508436 1518452 
3268.078 1528077 1537903 1548149 1558540 1567971 1575149 1578877 1578693 
3271.935 1575013 1569149 1562868 1557682 1554435 1552898 1551953 1550053 
3275.792 1545904 1538911 1529425 1518664 1508197 1499484 1493458 1490286 
3279.650 1489648 1490779 1492843 1495161 1497292 1498963 1500172 1501063 
3283.507 1502075 1503747 1506684 1511173 1517226 1524171 1530998 1536496 
3287.365 1539848 1540866 1540178 1538961 1538537 1539820 1543109 1547799 
3291.222 1552953 1557591 1561171 1563738 1565820 1568190 1571344 1575436 
3295.080 1580314 1585535 1590824 1595994 1600801 1604736 1606993 1606321 
3298.937 1601615 1592376 1579387 1564716 1551456 1542981 1541592 1548044 
3302.794 1560847 1576787 1591892 1602696 1607071 1604924 1597882 1588600 
3306.652 1579871 1573754 1571202 1572085 1575584 1580679 1586419 1592162 
3310.509 1597296 1601289 1603353 1602787 1599025 1592066 1582574 1571960 
3314.367 1562020 1554586 1551026 1552074 1557553 1566600 1577939 1590149 
3318.224 1601896 1612169 1620233 1625629 1628035 1627381 1623722 1617258 
3322.082 1608388 1598003 1587169 1577358 1570194 1567293 1569848 1578407 
3325.939 1592562 1610924 1631423 1651763 1670026 1685239 1697602 1708305 
3329.796 1719002 1730975 1744550 1758845 1771771 1780958 1784480 1781630 
3333.654 1773200 1761323 1748740 1738044 1730880 1727697 1727957 1730646 
3337.511 1734612 1738925 1742826 1745541 1745927 1742618 1734357 1720628 
3341.369 1702247 1681556 1662061 1647604 1641164 1643978 1654962 1671219 
3345.226 1688794 1703919 1714081 1718368 1717617 1713622 1708391 1703518 
3349.083 1699767 1697205 1695439 1693964 1692299 1690071 1686786 1681950 
3352.941 1674876 1665070 1652418 1637414 1621194 1605296 1591431 1580912 
3356.798 1574428 1571978 1572991 1576546 1581598 1587113 1592281 1596370 
3360.656 1598817 1599215 1597305 1593142 1586985 1579485 1571319 1563275 
3364.513 1556018 1550078 1545927 1543974 1544679 1548441 1555473 1565508 
3368.371 1577723 1590507 1601715 1609203 1611172 1606897 1596986 1583448 
3372.228 1569208 1557426 1550635 1550077 1555416 1564916 1575889 1585700 
3376.085 1592316 1594895 1593709 1589955 1585215 1580916 1578029 1577032 
3379.943 1577936 1580528 1584569 1589630 1595373 1601242 1606536 1610572 
3383.800 1612808 1613151 1611907 1609846 1607864 1606823 1607165 1608982 
3387.658 1612059 1615966 1620453 1625531 1631360 1638441 1646944 1656938 
3391.515 1668094 1679766 1691135 1701565 1710644 1718543 1725933 1733883 
3395.373 1743475 1755597 1770389 1787362 1804990 1821442 1834775 1843700 
3399.230 1847954 1848535 1847405 1847097 1849743 1856545 1867435 1881081 
3403.087 1895372 1908079 1917695 1923829 1927199 1929518 1932718 1938572 
3406.945 1948110 1961461 1978147 1997254 2017697 2038756 2059937 2081163 
3410.802 2102557 2124293 2146474 2169123 2191977 2214795 2237152 2258668 
3414.660 2279125 2298418 2316719 2334453 2352205 2370734 2390698 2412649 
3418.517 2436718 2462777 2490380 2518999 2548045 2577186 2606261 2635303 
3422.375 2664220 2692723 2720165 2745563 2767770 2785905 2799584 2809358 
3426.232 2816486 2822760 2830124 2839921 2852384 2866624 2880427 2891050 
3430.089 2895744 2892547 2880935 2862204 2839089 2815508 2795389 2781885 
3433.947 2776433 2778388 2785062 2792539 2796550 2793996 2783540 2766145 
3437.804 2744593 2722714 2703940 2690652 2683232 2680312 2679469 2678069 
3441.662 2674032 2666373 2655229 2641319 2625467 2608230 2589574 2569255 
3445.519 2546692 2521652 2494021 2464065 2432272 2399305 2366151 2334259 
3449.376 2305209 2280810 2262663 2251582 2247160 2247811 2250889 2253398 
3453.234 2252528 2246453 2234430 2216910 2195112 2170733 2145479 2121048 
3457.091 2098983 2080666 2067261 2059452 2057206 2059794 2065659 2072957 
3460.949 2079535 2083871 2084801 2081951 2075413 2065604 2053093 2038638 
3464.806 2023120 2007577 1993183 1981137 1972324 1967244 1965748 1967163 
3468.664 1970149 1973276 1974890 1973661 1968856 1960578 1950119 1939576 
3472.521 1931664 1928809 1932364 1941831 1954834 1967644 1976258 1977792 
3476.378 1971637 1959680 1945678 1934031 1928043 1928847 1935104 1943687 
3480.236 1951046 1954576 1953619 1949485 1944624 1941668 1942124 1946227 
3484.093 1952975 1960893 1968838 1976470 1984045 1992138 2000924 2009829 
3487.951 2017731 2023129 2025037 2023337 2018671 2012305 2005598 1999628 
3491.808 1994957 1991845 1990408 1991011 1994112 2000241 2009492 2021328 
3495.666 2034483 2047091 2057237 2063346 2064676 2061506 2055082 2047633 
3499.523 2041687 2039923 2044377 2056122 2074726 2098138 2122853 2144719 
3503.380 2159895 2165820 2161949 2150045 2133463 2116442 2102728 2094724 
3507.238 2093080 2096950 2104709 2114817 2126343 2139394 2154537 2172494 
3511.095 2193302 2216113 2239193 2260465 2277976 2290743 2298727 2303026 
3514.953 2305293 2307253 2310207 2314853 2321168 2328846 2337568 2347156 
3518.810 2357707 2369362 2382029 2395256 2408180 2419793 2429252 2436510 
3522.667 2442002 2446914 2452457 2459413 2467736 2476560 2484484 2490120 
3526.525 2492693 2492369 2490168 2487514 2485715 2485592 2487226 2490395 
3530.382 2494694 2500172 2507090 2516044 2527309 2540553 2554802 2568734 
3534.240 2581087 2591182 2599326 2606544 2614108 2623273 2634574 2647764 
3538.097 2662067 2676602 2690509 2703479 2715318 2726207 2736156 2745176 
3541.955 2753232 2760370 2766816 2772536 2777456 2780979 2782254 2780396 
3545.812 2775033 2766665 2756657 2747161 2740175 2736958 2737354 2740048 
3549.669 2742575 2742468 2737872 2728267 2714362 2698143 2682208 2669253 
3553.527 2661613 2660884 2667715 2681715 2701270 2723890 2746267 2765355 
3557.384 2778701 2785103 2784664 2778666 2768681 2756089 2741501 2725014 
3561.242 2706626 2686891 2667201 2649898 2637119 2630222 2628788 2630729 
3565.099 2632839 2631862 2625740 2614270 2599155 2582896 2567800 2554805 
3568.957 2543046 2530286 2513893 2491812 2463586 2430621 2395684 2362427 
3572.814 2334408 2314533 2304390 2304208 2312753 2327398 2344512 2360106 
3576.671 2370555 2373474 2368342 2356708 2341691 2326899 2315451 2308889 
3580.529 2306888 2307380 2307666 2305291 2298747 2288118 2274667 2260491 
3584.386 2247891 2238903 2235143 2237709 2246882 2262400 2282928 2306397 
3588.244 2329874 2350175 2364326 2370187 2366906 2354880 2335569 2311304 
3592.101 2284813 2258997 2236583 2219999 2210949 2210158 2217160 2230241 
3595.958 2246868 2264312 2280480 2294355 2306179 2317063 2328181 2340125 
3599.816 2352268 2363130 2370738 2373708 2371809 2366541 2360629 2357394 
3603.673 2359539 2368547 2384106 2404133 2425527 2444964 2459905 2469229 
3607.531 2473457 2474771 2476244 2481094 2491570 2508419 2530318 2554463 
3611.388 2577025 2594352 2604019 2605657 2600747 2592536 2584628 2580359 
3615.246 2581787 2589328 2602013 2617930 2634767 2650452 2663302 2672279 
3619.103 2677013 2677797 2675713 2672385 2669788 2670046 2674551 2683966 
3622.960 2697767 2714443 2731858 2747850 2760437 2768468 2771416 2769486 
3626.818 2763630 2755326 2746702 2740352 2738857 2744347 2757586 2777708 
3630.675 2802050 2826782 2847738 2861522 2866289 2862183 2850832 2834991 
3634.533 2817592 2801010 2786756 2775711 2767876 2763252 2761276 2761458 
3638.390 2762683 2763699 2763133 2760026 2753862 2745021 2734484 2723357 
3642.248 2712521 2702186 2692010 2681253 2669304 2656026 2641714 2626970 
3646.105 2612371 2598052 2583889 2569454 2554612 2539951 2526638 2516468 
3649.962 2511100 2511309 2516765 2525849 2536178 2545107 2550264 2550195 
3653.820 2544381 2533128 2517419 2498632 2478378 2458157 2439374 2422827 
3657.677 2408456 2395620 2382916 2368968 2352913 2334935 2316327 2299242 
3661.535 2285958 2277816 2274804 2275239 2276400 2275345 2269869 2259379 
3665.392 2244624 2227540 2210157 2194139 2180088 2167871 2156847 2146744 
3669.250 2137637 2129970 2124348 2120793 2118483 2116173 2112210 2105570 
3673.107 2096031 2084381 2072015 2060385 2050147 2041325 2032995 2023936 
3676.964 2013307 2000974 1987812 1975363 1965441 1959664 1959033 1963881 
3680.822 1973645 1987018 2002088 2016594 2028128 2034634 2034926 2029011 
3684.679 2017927 2003602 1987938 1972149 1956308 1939289 1919461 1895636 
3688.537 1867840 1837767 1808272 1782607 1763072 1750308 1743106 1738870 
3692.394 1734855 1728947 1720391 1709965 1699030 1689095 1681051 1674959 
3696.251 1670315 1666585 1663559 1661523 1660910 1662167 1665133 1669363 
3700.109 1674114 1678953 1683881 1689504 1696269 1704387 1713152 1721015 
3703.966 1726051 1726524 1721563 1711587 1697949 1682596 1667315 1653273 
3707.824 1640915 1630219 1620923 1613139 1607167 1603676 1603313 1606452 
3711.681 1612995 1622410 1633779 1645848 1657174 1666105 1671059 1670778 
3715.539 1664913 1654207 1640776 1627715 1618321 1615321 1619700 1630638 
3719.396 1645563 1660805 1672802 1679060 1678630 1672281 1662193 1650907 
3723.253 1641064 1634534 1632178 1634110 1639570 1647376 1656332 1665441 
3727.111 1674315 1682967 1691959 1701965 1713185 1725108 1736561 1745605 
3730.968 1750429 1749805 1743583 1732896 1719682 1706091 1693798 1683715 
3734.826 1675793 1669557 1664370 1660046 1656583 1654132 1652694 1651743 
3738.683 1650442 1647927 1643696 1637987 1631701 1626366 1623457 1624155 
3742.541 1629036 1637964 1650165 1664526 1679480 1693262 1704163 1710854 
3746.398 1712805 1710667 1706408 1702977 1703446 1709966 1722765 1739837 
3750.255 1757380 1771022 1777419 1775624 1767244 1756084 1746393 1741488 
3754.113 1742353 1747682 1754282 1758922 1759198 1754795 1747194 1739038 
3757.970 1733070 1730914 1732759 1737665 1743893 1750249 1755965 1761355 
3761.828 1766960 1773285 1780079 1786357 1790507 1790938 1786754 1778105 
3765.685 1766250 1753220 1741323 1732438 1727525 1726523 1728510 1732076 
3769.542 1735806 1738805 1740783 1742319 1744158 1747084 1751539 1757348 
3773.400 1763752 1769829 1774581 1777576 1778752 1778561 1777574 1776283 
3777.257 1774903 1773283 1770953 1767408 1762191 1755024 1745817 1734634 
3781.115 1721600 1707210 1691917 1676674 1662390 1650104 1640678 1634478 
3784.972 1631647 1632121 1635635 1642179 1652007 1665235 1681763 1700720 
3788.830 1720445 1738679 1752974 1761358 1763029 1758556 1749905 1739753 
3792.687 1730920 1725603 1724793 1728176 1734252 1741055 1746271 1748259 
3796.544 1745951 1739219 1728924 1716886 1705418 1697343 1695359 1701463 
3800.402 1716602 1739917 1768867 1799497 1827390 1848528 1860538 1862965 
3804.259 1857351 1846764 1834568 1823747 1815856 1811202 1808677 1806904 
3808.117 1804582 1801264 1797282 1793464 1790578 1788903 1788185 1787798 
3811.974 1787016 1785569 1783649 1781679 1779911 1778118 1775558 1771182 
3815.832 1764455 1755541 1745859 1737644 1733083 1733557 1738992 1747972 
3819.689 1758155 1767152 1773542 1777259 1779237 1780857 1782976 1785262 
3823.546 1786435 1784560 1778086 1766667 1751404 1734664 1719396 1707891 
3827.404 1701598 1700531 1703744 1709636 1716619 1723412 1728925 1732490 
3831.261 1733452 1731823 1728012 1723226 1719478 1718885 1723196 1733220 
3835.119 1748204 1766095 1784057 1799250 1809487 1813943 1812989 1807765 
3838.976 1799828 1790449 1780528 1770553 1760808 1751525 1742843 1734868 
3842.833 1727483 1720366 1713119 1705690 1698479 1692656 1689792 1691574 
3846.691 1699125 1712563 1730706 1751265 1770994 1786760 1795841 1796646 
3850.548 1789082 1774425 1755251 1734850 1716536 1703003 1695877 1695212 
3854.406 1699707 1707029 1714663 1720492 1723302 1723001 1720582 1717775 
3858.263 1716453 1718140 1723664 1732937 1744680 1757061 1767778 1774696 
3862.121 1776496 1772837 1764548 1753605 1742284 1732657 1725977 1722285 
3865.978 1720701 1719776 1718140 1715273 1711590 1708165 1706384 1707335 
3869.835 1711408 1718253 1727213 1737614 1749288 1762392 1777329 1794151 
3873.693 1812341 1830512 1846911 1859797 1868091 1871492 1870582 1866386 
3877.550 1859941 1852092 1843280 1834037 1824845 1816469 1809742 1805133 
3881.408 1802471 1800771 1798395 1793820 1785929 1774980 1762235 1749981 
3885.265 1740456 1735470 1735542 1740142 1747996 1757609 1768059 1779059 
3889.123 1790921 1804011 1818344 1833410 1847921 1860260 1868861 1872601 
3892.980 1870993 1864378 1853626 1840067 1825254 1810895 1798569 1789724 
3896.837 1785261 1785404 1789462 1796171 1803756 1810469 1815055 1817225 
3900.695 1817528 1817034 1817024 1818189 1820531 1823069 1824327 1822827 
3904.552 1817665 1808971 1798065 1787157 1778732 1775106 1777758 1786914 
3908.410 1801451 1819266 1837584 1853591 1865084 1870855 1870876 1866272 
3912.267 1858875 1850952 1844221 1839991 1838435 1839055 1840973 1843232 
3916.125 1845413 1847556 1850132 1853692 1858212 1863061 1867071 1868823 
3919.982 1867294 1862402 1855132 1847387 1841192 1838160 1838819 1842501 
3923.839 1847721 1852864 1856799 1859394 1861358 1863756 1867510 1872712 
3927.697 1878573 1883883 1887457 1889005 1889197 1889469 1891465 1896096 
3931.554 1903217 1911196 1917637 1920059 1916657 1907060 1892161 1874176 
3935.412 1855701 1839320 1826956 1819784 1817870 1820704 1827033 1835158 
3939.269 1843166 1849355 1852525 1852289 1849163 1844584 1840281 1837959 
3943.126 1838791 1843004 1849807 1858132 1866459 1873678 1879115 1882676 
3946.984 1884730 1885886 1886791 1888119 1890241 1893277 1896816 1900038 
3950.841 1901806 1901085 1897146 1890255 1881495 1872694 1865837 1862357 
3954.699 1862332 1864718 1867410 1868380 1866381 1861545 1855530 1850612 
3958.556 1848836 1851037 1856341 1862588 1867060 1867579 1863640 1856290 
3962.414 1847983 1841440 1838558 1840030 1845112 1852215 1859811 1867196 
3966.271 1874503 1882570 1892168 1903496 1915572 1926708 1934894 1938707 
3970.128 1937572 1932100 1923700 1914021 1904314 1895376 1887528 1881076 
3973.986 1876392 1874370 1875743 1880817 1888996 1898655 1907384 1912866 
3977.843 1913564 1909558 1902298 1894504 1888935 1887524 1890646 1897223 
3981.701 1904989 1911743 1915790 1916863 1915840 1914430 1914328 1916549 
3985.558 1921147 1927202 1933205 1937927 1940486 1940827 1939472 1937408 
3989.416 1935316 1933625 1932081 1930108 1926784 1921427 1913608 1903701 
3993.273 1892534 1881500 1872215 1866100 1864010 1865962 1871085 1877990 
3997.130 1885044 1890989 1895288 1898517 1901733 1906437 1913714 1924010 
##END=
