##TITLE=3D-Fillies_PETG_White_Filament_r3_ATR-Corrected
##JCAMP-DX=5.01  $$ Nicolet v. 1
##DATATYPE=INFRARED SPECTRUM
##ORIGIN=Curtin University
##OWNER=Nicolet
##LONGDATE=2024/07/18
##TIME=12:11:51
##SPECTROMETER/DATA SYSTEM=Nicolet iS50
##DATA PROCESSING=
Ratio against background
%Transmittance->Absorbance
ATR Correction
Truncated
ElementMultiply or ElementDivide
##COMMENTS=
Number of sample scans: 32
Collection length: 47.28 sec
Sample gain: 1.0
Background collected on: Thu Jul 18 12:09:41 2024 (GMT+08:00);
Number of background scans: 32
Background gain: 1.0
Sample spacing:  1.000
Number of scan points: 16672
Resolution points: 8192
Number of FFT points: 65536
Apodization: N-B strong;
Phase correction: Mertz;
Laser frequency: 15798.3 cm-1
Number of rejected sample scans: 0
Number of rejected background scans: 0
Bench serial number: AUP1200105;
##RESOLUTION=4.000
##XUNITS=1/CM
##YUNITS=ABSORBANCE
##FIRSTX=400.163452
##LASTX=4000.187744
##FIRSTY=0.032355
##MAXX=4000.187744
##MINX=400.163452
##MAXY=1.536763
##MINY=-0.023437
##XFACTOR=1.000000
##YFACTOR=1.000000E-008
##NPOINTS=7468
##DELTAX=0.482125
##ZPD=8192
##XYDATA=(X++(Y..Y))
400.163 3235515 3271252 3314357 3359881 3403231 3440223 3467969 3485589 
404.020 3494347 3497094 3497371 3498419 3502809 3512572 3529710 3556646 
407.877 3595666 3647920 3711771 3781774 3848744 3901565 3929985 3927567 
411.734 3893808 3834009 3757412 3674076 3591862 3515033 3444544 3380319 
415.591 3323725 3279235 3254225 3256871 3292901 3362743 3459985 3572462 
419.448 3685128 3784160 3860385 3910999 3939109 3951839 3957571 3963718 
423.305 3975210 3994075 4019743 4049828 4081016 4109934 4133890 4151473 
427.162 4162752 4169019 4172217 4174042 4175114 4174761 4171178 4162423 
431.019 4147317 4126256 4101256 4075378 4052008 4033501 4020683 4012915 
434.876 4008602 4005984 4003684 4000911 3997161 3991941 3984380 3973427 
438.733 3958119 3938104 3913880 3886734 3858417 3830637 3804644 3781161 
442.590 3760524 3742970 3728799 3718308 3711510 3707897 3706259 3704963 
446.447 3702376 3697463 3690106 3681217 3672388 3665383 3661551 3661564 
450.304 3665208 3671552 3679101 3686082 3690720 3691618 3688090 3680619 
454.161 3670858 3661418 3655054 3653783 3657899 3665693 3673721 3678021 
458.017 3675550 3665397 3649265 3630952 3615087 3605682 3604971 3613055 
461.874 3628371 3648610 3671693 3696220 3721653 3747544 3773015 3796514 
465.731 3816048 3829924 3837446 3839364 3837783 3835503 3835149 3838500 
469.588 3846169 3857755 3872302 3888752 3906191 3923893 3941140 3957153 
473.445 3971187 3982740 3991845 3999177 4005862 4013192 4022168 4033333 
477.302 4046868 4062871 4081663 4103885 4130225 4160946 4195365 4231724 
481.159 4267514 4300257 4328442 4352187 4373280 4394668 4419388 4449593 
485.016 4485870 4527264 4571887 4617807 4663907 4710290 4758084 4808923 
488.873 4864221 4924605 4989795 5058798 5130388 5203688 5278504 5355471 
492.730 5435825 5520976 5611985 5708981 5810969 5915713 6020067 6120655 
496.587 6214592 6300173 6377095 6446113 6508179 6563323 6609681 6643203 
500.444 6658197 6648647 6610026 6540801 6443234 6323097 6188306 6047123 
504.301 5906339 5770166 5640023 5515216 5394036 5275014 5157613 5042606 
508.158 4931783 4827381 4731542 4645823 4570962 4506849 4452562 4406527 
512.015 4366673 4330765 4296725 4263028 4228979 4194857 4161637 4130705 
515.871 4103219 4079734 4059931 4042737 4026679 4010483 3993460 3975761 
519.728 3958276 3942171 3928394 3917098 3907377 3897400 3884868 3867698 
523.585 3844716 3816109 3783440 3749207 3716099 3686202 3660398 3638341 
527.442 3618791 3600390 3582368 3564961 3549329 3536989 3528944 3525028 
531.299 3523564 3521640 3515939 3503661 3483381 3455364 3421399 3384221 
535.156 3346713 3311310 3279672 3252686 3230627 3213424 3200751 3192097 
539.013 3186731 3183757 3182213 3181254 3180253 3178775 3176397 3172499 
542.870 3166127 3156116 3141516 3122084 3098671 3073327 3048808 3027860 
546.727 3012300 3002414 2996851 2993095 2988305 2980313 2968222 2952616 
550.584 2935118 2917670 2901758 2887867 2875301 2862479 2847319 2827846 
554.441 2802611 2770987 2733360 2691083 2646343 2601857 2560372 2524086 
558.298 2494049 2469854 2449699 2430869 2410589 2386943 2359494 2329540 
562.155 2299622 2272708 2251245 2236364 2227639 2223343 2221109 2218646 
566.012 2214301 2207258 2197358 2184765 2169626 2152053 2132175 2110518 
569.869 2088228 2067038 2049018 2035984 2028936 2027651 2030636 2035478 
573.725 2039532 2040647 2037709 2030900 2021442 2011155 2001718 1994230 
577.582 1988843 1984868 1981150 1976541 1970407 1962876 1954892 1947890 
581.439 1943410 1942620 1945963 1953069 1962837 1973832 1984664 1994462 
585.296 2003082 2011168 2019989 2031051 2045613 2064357 2087192 2113350 
589.153 2141748 2171516 2202514 2235672 2272937 2316830 2369679 2432790 
593.010 2505725 2586120 2669975 2752469 2829013 2896218 2952373 2997471 
596.867 3032574 3058932 3077151 3086716 3086006 3072854 3045272 3002240 
600.724 2944144 2872800 2791269 2703356 2613162 2524766 2441890 2367714 
604.581 2304554 2253637 2214914 2187053 2167739 2154267 2144116 2135590 
608.438 2127989 2121550 2116943 2114754 2115057 2117275 2120426 2123501 
612.295 2125906 2127573 2128956 2130569 2132747 2135388 2137988 2140028 
616.152 2141275 2142051 2143201 2145785 2150701 2158311 2168332 2180063 
620.009 2192792 2206163 2220462 2236514 2255348 2277798 2304014 2333406 
623.866 2364730 2396457 2427354 2457079 2486675 2518887 2558176 2610287 
627.723 2681332 2776414 2897975 3044163 3207802 3376354 3533195 3660297 
631.579 3741756 3767229 3734381 3649348 3525264 3379152 3228493 3088064 
635.436 2968052 2873435 2804601 2758653 2730973 2716582 2711045 2711017 
639.293 2714350 2720016 2727902 2738500 2752527 2770515 2792481 2817764 
643.150 2845095 2872895 2899699 2924455 2946698 2966430 2983812 2998884 
647.007 3011409 3020966 3027243 3030320 3030884 3030119 3029415 3029964 
650.864 3032453 3036947 3043134 3050612 3059242 3069269 3081213 3095624 
654.721 3112704 3132109 3153025 3174369 3195182 3214940 3233688 3251941 
658.578 3270481 3289999 3310835 3332901 3355694 3378497 3400576 3421400 
662.435 3440833 3459146 3476994 3495268 3514913 3536645 3560811 3587331 
666.292 3615790 3645642 3676544 3708491 3741962 3777755 3816747 3859660 
670.149 3906848 3958318 4013858 4073272 4136507 4203771 4275393 4351732 
674.006 4433126 4519807 4612029 4710018 4813880 4923299 5037115 5153025 
677.863 5267499 5376118 5474279 5558102 5625145 5674842 5708341 5727976 
681.720 5736575 5736857 5731245 5721957 5711308 5701912 5696626 5698183 
685.577 5708716 5729335 5759975 5799670 5847010 5900665 5959735 6023810 
689.433 6092880 6166995 6246256 6330779 6420904 6517362 6621254 6733881 
693.290 6856381 6989537 7133747 7289351 7457143 7638816 7837067 8055167 
697.147 8296193 8562034 8852654 9165938 9498030 9844236 10199869 10561042 
701.004 10924789 11288855 11651184 12009485 12361230 12703921 13035654 
704.379 13355631 13664369 13963409 14254870 14540793 14822765 15101838 
707.754 15378748 15654357 15930110 16208337 16492662 16788276 17102366 
711.129 17444462 17826786 18264208 18773878 19374424 20084972 20924216 
714.504 21909734 23057744 24383066 25899410 27619266 29553542 31710696 
717.878 34095316 36706708 39537264 42571344 45784040 49139832 52590032 
721.253 56068892 59487788 62728996 65642984 68053912 69779792 70667880 
724.628 70634992 69694808 67955544 65589928 62793064 59747184 56601304 
728.003 53465240 50412472 47486960 44710796 42091060 39625240 37305124 
731.378 35119404 33055294 31099274 29237852 27457872 25747264 24095592 
734.752 22494816 20939766 19428528 17962314 16545261 15183689 13885263 
738.127 12658016 11509361 10445239 9469587 8583993 7787820 7078331 6451228 
741.984 5900927 5420898 5003943 4642450 4328645 4054993 3814612 3601707 
745.841 3411875 3242127 3090642 2956280 2838004 2734502 2643958 2564290 
749.698 2493470 2430004 2373167 2323001 2279932 2244267 2215674 2192922 
753.555 2173998 2156512 2138302 2118081 2095695 2072192 2049419 2029499 
757.412 2014214 2004543 2000548 2001373 2005703 2012114 2019523 2027383 
761.269 2035773 2045146 2056138 2069236 2084627 2102213 2121765 2143197 
765.126 2166789 2193262 2223671 2259119 2300393 2347689 2400511 2457753 
768.983 2517984 2579768 2641832 2703179 2762960 2820287 2874114 2923306 
772.840 2966803 3003894 3034541 3059513 3080304 3098880 3117306 3137327 
776.697 3160170 3186382 3215998 3248699 3284132 3322231 3363418 3408782 
780.554 3460029 3519297 3588830 3670543 3765652 3874506 3996597 4130946 
784.410 4276574 4432979 4600414 4779897 4972752 5180162 5402561 5639351 
788.267 5888895 6148687 6415622 6686062 6955562 7218329 7466561 7690058 
792.124 7876410 8011912 8083408 8080434 7997438 7835525 7602980 7314782 
795.981 6990871 6653610 6325008 6024108 5765050 5556065 5399467 5292476 
799.838 5228644 5199546 5196326 5210919 5236686 5268614 5303085 5337711 
803.695 5370965 5402033 5430726 5457286 5482165 5505724 5527889 5548057 
807.552 5565246 5578391 5586883 5590890 5591518 5590570 5590072 5591696 
811.409 5596392 5604164 5614286 5625643 5637173 5648138 5658240 5667493 
815.266 5676076 5684081 5691465 5698108 5703833 5708611 5712589 5716067 
819.123 5719535 5723519 5728626 5735430 5744504 5756401 5771521 5790085 
822.980 5812039 5837059 5864601 5893993 5924631 5956129 5988377 6021660 
826.837 6056575 6093892 6134348 6178506 6226524 6278188 6332931 6390095 
830.694 6449220 6510246 6573688 6640505 6711794 6788441 6870708 6958141 
834.551 7049548 7143368 7238020 7332303 7425511 7517373 7607755 7696403 
838.408 7782695 7865659 7944216 8017502 8085172 8147574 8205634 8260648 
842.264 8313873 8366184 8417893 8468691 8517691 8563676 8605310 8641379 
846.121 8670975 8693708 8709753 8719942 8725551 8728164 8729367 8730487 
849.978 8732360 8735374 8739505 8744609 8750601 8757743 8766611 8778088 
853.835 8793119 8812537 8836945 8866607 8901598 8941966 8987914 9040047 
857.692 9099405 9167509 9246267 9337889 9444664 9568965 9713074 9879255 
861.549 10069666 10286500 10531913 10808139 11117402 11461997 11844140 
864.924 12265972 12729393 13235834 13785952 14379176 15013176 15683275 
868.299 16381861 17097978 17817112 18521410 19190158 19800926 20331024 
871.674 20759420 21068654 21246632 21287878 21193742 20971846 20634676 
875.048 20197746 19677942 19092146 18456496 17786006 17094532 16394703 
878.423 15697925 15014201 14351982 13718095 13117759 12554663 12031144 
881.798 11548366 11106499 10704860 10342172 10016727 9726636 9469952 9244768 
885.655 9049128 8880898 8737614 8616474 8514403 8428431 8355928 8294982 
889.512 8244439 8203795 8172767 8151035 8137823 8131975 8132053 8136660 
893.369 8144679 8155323 8167979 8181907 8195958 8208570 8217858 8222021 
897.226 8219687 8210116 8193102 8168597 8136242 8095073 8043415 7979214 
901.083 7900601 7806442 7696747 7572794 7436833 7291706 7140383 6985661 
904.940 6829996 6675532 6524173 6377654 6237523 6105124 5981522 5867503 
908.797 5763596 5670106 5587075 5514303 5451248 5397117 5350956 5311855 
912.654 5279183 5252687 5232475 5218770 5211539 5210199 5213505 5219701 
916.510 5227012 5234156 5240801 5247722 5256636 5269665 5288713 5314950 
920.367 5348535 5388718 5434097 5483044 5534069 5585957 5637841 5688999 
924.224 5738824 5786736 5832270 5875208 5915706 5954323 5991932 6029428 
928.081 6067509 6106432 6145862 6185063 6223094 6259265 6293452 6326347 
931.938 6359442 6394717 6434192 6479429 6531113 6588994 6652102 6719279 
935.795 6789766 6863731 6942390 7027872 7122680 7229003 7348196 7480524 
939.652 7625232 7781020 7946513 8120776 8303453 8494642 8694552 8903103 
943.509 9119566 9342535 9570056 9799916 10029975 10258350 10483494 10704070 
947.366 10918923 11127049 11327667 11520586 11706410 11886753 12064105 
950.741 12241558 12422127 12608093 12800330 12997973 13198231 13396642 
954.116 13587441 13764049 13919619 14047621 14142311 14199372 14216514 
957.490 14193825 14134195 14043149 13928340 13798642 13663146 13530096 
960.865 13406196 13296364 13203730 13130017 13075872 13041188 13025177 
964.240 13026391 13042709 13071369 13109148 13152651 13198528 13243699 
967.615 13285340 13320917 13347994 13364288 13367642 13356210 13328508 
970.990 13283473 13220432 13138944 13038762 12919888 12782790 12628584 
974.364 12459343 12278073 12088486 11894662 11700484 11509265 11323602 
977.739 11145358 10975933 10816523 10668305 10532391 10409676 10300637 
981.114 10205181 10122584 10051628 9990883 9938773 9893891 9854866 9820478 
984.971 9789480 9760679 9732945 9705294 9676977 9647460 9616495 9583922 
988.828 9549879 9514806 9479616 9445740 9415134 9390106 9372902 9365413 
992.685 9368864 9383684 9409711 9446407 9493250 9549928 9616438 9692942 
996.542 9779578 9876312 9982911 10099101 10224843 10360559 10507270 10666490 
1000.399 10840025 11029550 11236399 11461497 11705504 11969244 12254166 
1003.774 12562709 12898596 13266736 13672942 14123519 14624824 15183045 
1007.148 15804185 16494460 17261088 18113156 19062640 20125138 21319892 
1010.523 22669092 24195878 25921116 27859008 30011598 32362538 34871032 
1013.898 37466560 40046360 42477444 44605464 46271624 47336008 47702416 
1017.273 47336884 46273012 44602724 42456652 39981300 37319984 34599892 
1020.648 31925628 29377574 27013090 24869276 22966110 21309692 19895306 
1024.022 18710194 17736044 16951098 16331920 15854810 15496811 15236618 
1027.398 15055084 14935654 14864598 14830968 14826344 14844528 14880998 
1030.773 14932576 14996950 15072510 15158132 15253010 15356565 15468183 
1034.148 15587258 15713093 15844950 15982202 16124319 16270888 16421387 
1037.523 16575018 16730483 16885990 17039270 17187876 17329402 17461618 
1040.899 17582438 17689804 17781408 17854666 17906888 17935604 17939102 
1044.274 17916926 17870092 17801036 17713312 17610932 17497892 17377660 
1047.649 17253006 17125986 16998178 16870988 16745867 16624507 16508922 
1051.024 16401342 16304104 16219442 16149288 16095187 16058238 16039208 
1054.400 16038682 16057202 16095492 16154419 16234970 16338083 16464423 
1057.775 16614263 16787386 16983164 17200720 17439128 17697586 17975580 
1061.150 18273010 18590118 18927564 19286266 19667324 20071808 20500558 
1064.525 20954042 21432356 21935288 22462674 23014650 23591942 24195982 
1067.901 24828822 25492898 26190784 26925204 27699020 28515598 29378968 
1071.276 30293914 31265778 32299904 33400980 34572504 35816548 37133692 
1074.651 38523500 39984848 41516068 43114956 44778248 46501116 48276572 
1078.026 50095380 51946236 53816320 55692004 57559640 59406232 61219824 
1081.402 62989996 64708244 66368120 67965496 69498664 70968248 72377000 
1084.777 73729904 75033752 76296768 77527904 78735840 79927728 81108144 
1088.152 82278328 83436200 84576856 85693440 86777920 87821512 88814248 
1091.527 89744576 90598712 91360736 92013160 92538464 92920368 93145264 
1094.903 93202760 93085976 92791376 92318856 91671568 90855944 89881232 
1098.278 88758768 87500968 86120448 84629224 83039048 81361440 79608280 
1101.653 77791944 75925496 74022400 72096656 70163104 68238088 66340248 
1105.028 64490892 62714052 61035556 59481644 58077292 56844400 55800356 
1108.404 54956984 54319988 53888704 53655948 53608136 53725268 53981108 
1111.779 54343744 54776608 55240088 55693936 56099908 56424500 56641112 
1115.154 56731312 56684904 56499100 56176740 55724412 55150916 54465920 
1118.529 53679700 52802992 51847244 50824712 49748372 48631352 47486304 
1121.905 46324680 45156456 43989888 42831860 41688084 40563492 39462260 
1125.280 38387908 37343012 36329276 35347440 34397604 33479508 32592738 
1128.655 31736946 30911710 30116292 29349404 28609008 27892410 27196572 
1132.030 26518532 25855830 25206864 24570904 23947996 23338706 22743752 
1135.406 22163770 21599232 21050300 20516876 19998578 19494804 19004678 
1138.781 18527268 18061704 17607418 17164376 16733061 16314454 15909679 
1142.156 15519695 15145035 14785697 14441195 14110903 13794285 13491145 
1145.531 13201615 12925969 12664367 12416584 12181840 11958761 11745638 
1148.906 11540578 11341754 11147543 10956576 10767792 10580454 10394103 
1152.282 10208736 10024621 9842312 9662459 9485706 9312523 9143312 8978503 
1156.139 8818756 8665092 8518881 8381736 8255248 8140653 8038731 7949736 
1159.997 7873533 7809826 7758322 7718926 7691712 7676978 7675294 7687631 
1163.854 7715532 7761189 7827448 7917440 8034112 8179468 8353942 8555958 
1167.711 8781815 9025897 9281196 9539937 9794199 10036320 10259280 10456876 
1171.569 10623807 10755876 10850028 10904498 10918821 10893760 10831115 
1174.944 10733456 10603812 10445489 10261926 10056791 9833997 9597819 
1178.319 9352995 9104469 8857339 8616407 8386009 8169681 7970078 7788975 
1182.177 7627358 7485654 7363996 7262341 7180725 7119258 7078185 7057754 
1186.034 7058096 7079053 7120040 7179908 7257060 7349415 7454800 7571120 
1189.892 7696683 7830364 7971566 8120082 8275882 8438709 8607965 8782692 
1193.749 8961636 9143580 9327600 9513307 9700873 9891021 10084856 10283571 
1197.606 10488291 10699896 10918877 11145366 11379157 11619934 11867389 
1200.982 12121543 12382763 12651864 12929901 13217866 13516413 13825652 
1204.357 14145142 14474222 14812347 15159568 15516727 15885441 16267790 
1207.732 16665810 17081140 17514752 17967128 18438430 18928994 19439546 
1211.107 19971260 20525728 21104646 21709656 22342194 23003564 23694926 
1214.483 24417270 25171286 25957044 26773662 27619038 28489732 29381198 
1217.858 30288032 31204578 32125520 33046656 33965596 34882544 35800848 
1221.233 36727164 37671252 38645056 39661640 40733772 41872748 43087740 
1224.608 44385592 45771044 47247348 48816596 50480276 52239116 54093276 
1227.984 56042164 58084764 60219808 62446220 64763116 67169864 69665376 
1231.359 72247824 74913888 77658344 80473712 83350032 86274400 89230648 
1234.734 92199016 95155944 98074560 100925504 103677968 106300832 108763376 
1238.109 111036096 113091016 114902736 116449336 117714224 118687144 
1241.002 119365200 119752904 119861736 119709144 119317864 118714448 
1243.896 117928312 116990232 115930912 114779712 113563600 112306616 
1246.789 111029920 109751424 108485760 107244232 106034960 104863264 
1249.682 103733088 102648280 101614024 100637576 99727952 98894360 98144416 
1253.057 97482024 96906456 96412064 95989264 95626144 95309784 95026848 
1256.432 94763648 94505192 94234720 93933328 93581000 93158040 92647224 
1259.807 92035528 91315392 90484768 89546872 88509184 87382696 86180704 
1263.183 84917960 83609296 82268760 80908584 79538944 78168032 76802704 
1266.558 75449104 74112968 72799656 71513680 70258184 69034680 67843056 
1269.933 66682184 65550440 64446424 63369072 62317472 61290424 60286080 
1273.308 59301716 58334160 57380216 56437196 55503432 54578240 53661436 
1276.684 52753048 51852764 50959832 50073200 49191920 48315524 47444332 
1280.059 46579404 45722404 44875124 44039224 43215864 42405904 41609788 
1283.434 40828012 40061224 39310420 38576856 37861888 37166668 36491860 
1286.809 35837356 35202356 34585320 33984224 33396774 32820592 32253146 
1290.185 31691750 31133408 30574756 30012112 29441828 28860670 28266338 
1293.560 27657798 27035528 26401340 25758260 25109916 24460418 23813884 
1296.935 23174584 22546720 21934568 21342372 20774206 20233766 19723930 
1300.310 19246468 18801794 18388892 18005408 17647948 17312464 16994614 
1303.686 16690098 16394877 16105321 15818283 15531293 15242709 14951955 
1307.061 14659610 14367437 14078173 13795069 13521473 13260353 13013898 
1310.436 12783407 12569232 12370941 12187372 12016737 11856603 11704035 
1313.811 11555701 11408146 11258204 11103396 10942184 10774086 10599492 
1317.187 10419495 10235383 10048417 9859605 9669710 9479194 9288467 9097875 
1321.044 8907799 8718701 8531181 8346010 8164299 7987546 7817644 7656820 
1324.901 7507461 7371943 7252422 7150744 7068507 7007155 6968370 6954220 
1328.759 6967448 7011556 7090662 7209200 7371340 7580266 7837435 8141967 
1332.616 8490188 8875587 9289052 9719300 10153481 10577928 10978866 11343159 
1336.474 11659067 11916817 12109258 12231986 12283596 12265431 12181257 
1339.849 12036833 11839363 11596904 11317879 11010716 10683479 10343761 
1343.224 9998501 9653948 9315588 8987896 8674374 8377452 8098536 7838179 
1347.082 7596259 7372265 7165516 6975370 6801368 6643227 6500801 6373939 
1350.939 6262329 6165255 6081636 6009988 5948622 5895948 5850678 5812145 
1354.796 5780356 5755875 5739726 5733055 5736797 5751511 5777271 5813748 
1358.654 5860541 5917509 5985135 6064820 6158925 6270549 6403099 6559569 
1362.511 6742027 6950981 7185196 7441700 7716001 8002470 8294756 8586167 
1366.369 8870036 9140114 9390887 9618013 9818471 9990616 10134075 10249355 
1370.226 10337526 10399860 10437702 10452464 10445648 10419004 10374513 
1373.601 10314253 10240261 10154306 10057766 9951659 9836835 9714242 9585278 
1377.459 9452043 9317309 9184497 9057312 8939403 8834019 8743669 8670058 
1381.316 8614025 8575729 8554770 8550417 8561763 8587851 8627606 8679810 
1385.174 8742937 8814992 8893596 8976000 9059516 9141701 9220684 9295302 
1389.031 9365065 9429991 9490345 9546603 9599325 9649246 9697432 9745355 
1392.888 9794917 9848414 9908494 9978011 10060004 10157721 10274544 10414071 
1396.746 10580022 10776197 11006497 11274908 11585508 11942813 12351779 
1400.121 12818024 13347770 13947704 14624435 15383801 16229668 17162486 
1403.496 18177444 19262620 20397186 21550210 22680782 23739368 24671070 
1406.872 25420228 25936046 26178188 26121580 25759428 25104094 24185600 
1410.247 23048136 21745080 20333708 18869768 17403474 15976577 14620912 
1413.622 13358490 12202232 11157565 10224136 9397566 8670859 8035591 7482612 
1417.479 7002672 6586695 6226152 5913340 5641519 5405076 5199446 5020928 
1421.337 4866573 4733849 4620755 4525627 4447300 4385022 4338436 4307421 
1425.194 4291998 4292174 4307894 4339006 4385225 4446155 4521310 4610055 
1429.052 4711767 4825825 4951779 5089244 5237806 5396818 5565265 5741615 
1432.909 5924109 6110916 6300632 6492384 6685868 6881072 7077828 7275398 
1436.767 7472303 7666433 7855469 8037539 8211576 8377727 8537414 8693199 
1440.624 8848610 9007808 9175306 9355555 9552481 9769008 10006581 10264920 
1444.481 10542068 10834638 11138413 11448760 11760962 12070248 12371595 
1447.857 12659474 12927689 13169502 13377970 13546452 13669153 13741620 
1451.232 13761230 13727465 13642122 13509256 13334738 13125795 12890249 
1454.607 12635906 12370189 12099723 11830351 11566767 11312427 11069389 
1457.982 10838414 10619042 10410159 10210247 10017877 9831908 9651496 
1461.358 9476034 9305019 9137857 8973852 8812164 8651891 8492123 8332089 
1465.215 8171176 8009028 7845609 7681247 7516605 7352655 7190506 7031301 
1469.073 6875863 6724720 6577959 6435336 6296502 6161090 6028961 5900101 
1472.930 5774553 5652262 5532899 5415779 5299945 5184335 5067989 4950207 
1476.787 4830661 4709441 4586829 4463316 4339356 4215396 4091814 3969076 
1480.645 3847688 3728363 3611839 3498937 3390456 3287105 3189484 3098008 
1484.502 3012927 2934275 2861817 2795076 2733340 2675826 2621800 2570919 
1488.360 2523232 2479295 2440126 2406940 2380962 2363158 2354120 2354117 
1492.217 2363169 2381335 2408762 2445966 2493765 2553247 2625767 2712897 
1496.074 2816487 2938880 3083155 3253556 3455598 3696175 3982918 4323236 
1499.932 4722406 5181477 5694937 6249038 6821146 7380642 7891494 8316195 
1503.789 8620530 8778512 8776376 8615138 8310540 7890774 7391691 6851282 
1507.647 6304331 5778706 5293698 4860171 4482060 4158258 3884526 3655030 
1511.504 3463453 3303802 3170770 3059978 2967890 2891712 2829084 2778036 
1515.362 2736762 2703714 2677558 2657313 2642295 2632023 2626127 2624201 
1519.219 2625778 2630242 2636942 2645262 2654605 2664584 2674880 2685310 
1523.076 2695737 2706066 2716160 2725798 2734669 2742334 2748271 2751928 
1526.934 2752818 2750596 2744969 2735834 2723090 2706730 2686780 2663424 
1530.791 2636980 2607949 2576977 2544644 2511426 2477514 2442944 2407665 
1534.649 2371845 2336016 2301175 2268590 2239549 2214987 2195194 2179744 
1538.506 2167540 2157249 2147648 2138041 2128362 2119094 2110938 2104597 
1542.364 2100419 2098455 2098356 2099708 2102027 2104960 2108284 2111997 
1546.221 2116188 2121068 2126951 2134140 2142880 2153317 2165372 2178794 
1550.078 2193197 2208115 2223115 2237792 2251842 2265036 2277155 2288138 
1553.936 2298073 2307313 2316420 2326120 2337092 2349854 2364603 2381207 
1557.793 2399264 2418336 2438024 2458094 2478529 2499412 2520817 2542832 
1561.651 2565517 2589023 2613644 2639811 2668127 2699210 2733655 2772042 
1565.508 2814949 2863043 2917186 2978390 3047824 3126653 3216025 3316922 
1569.365 3430208 3556670 3696996 3851781 4021508 4206455 4406688 4622015 
1573.223 4851777 5094595 5347671 5606287 5863101 6108098 6329160 6513351 
1577.080 6648683 6725813 6739175 6687485 6573450 6403098 6184964 5929303 
1580.938 5647231 5350089 5048746 4752970 4471043 4209335 3972233 3762190 
1584.795 3579795 3424244 3293584 3185181 3095980 3022835 2962563 2912219 
1588.653 2869159 2831263 2797060 2765783 2737220 2711514 2688806 2669064 
1592.510 2651958 2636957 2623628 2611796 2601779 2594358 2590571 2591392 
1596.367 2597545 2609300 2626477 2648645 2675191 2705563 2739223 2775747 
1600.225 2814703 2855735 2898514 2942898 2988954 3036997 3087543 3141239 
1604.082 3198691 3260417 3326678 3397619 3473086 3552771 3636102 3722390 
1607.940 3810785 3900423 3990390 4079852 4167846 4253330 4334924 4410885 
1611.797 4479034 4536886 4581853 4611499 4623813 4617488 4592044 4548149 
1615.655 4487539 4413157 4328910 4239246 4148701 4061420 3980690 3908790 
1619.512 3846908 3795332 3753526 3720497 3694932 3675515 3661103 3650881 
1623.369 3644364 3641384 3641921 3645899 3653101 3663034 3675000 3688191 
1627.227 3701787 3715081 3727491 3738681 3748467 3756933 3764310 3771069 
1631.084 3777736 3784823 3792639 3801195 3810208 3819237 3827963 3836277 
1634.942 3844545 3853310 3863036 3873948 3885553 3897001 3907200 3915422 
1638.799 3921657 3926674 3931824 3938563 3947851 3959886 3974023 3989229 
1642.656 4004554 4019632 4034738 4050685 4068311 4088086 4109875 4133097 
1646.514 4157056 4181371 4206164 4232039 4259717 4289723 4322061 4356411 
1650.371 4392262 4429366 4467847 4508177 4550907 4596346 4644282 4694200 
1654.229 4745655 4798626 4853895 4912824 4977025 5047911 5126210 5211968 
1658.086 5304686 5403765 5508916 5620305 5738446 5863952 5997145 6138074 
1661.944 6286419 6441848 6604124 6773279 6949273 7131960 7320709 7514475 
1665.801 7711914 7911824 8113174 8315462 8518425 8721972 8925953 9130248 
1669.658 9334889 9540313 9747428 9957577 10172234 10392589 10619348 10852649 
1673.516 11092117 11337219 11587326 11841932 12100483 12362463 12627406 
1676.891 12895110 13165671 13439701 13717966 14000857 14288071 14578278 
1680.266 14869420 15159395 15446965 15732493 16018037 16306971 16602851 
1683.642 16908436 17224958 17552140 17889056 18235038 18590760 18958504 
1687.017 19341624 19744070 20169488 20621160 21102000 21615096 22163864 
1690.392 22752074 23383396 24061038 24787656 25566146 26400626 27297452 
1693.767 28265444 29314836 30455276 31693530 33032096 34470164 36006300 
1697.143 37642544 39387428 41257084 43272816 45456804 47826772 50392364 
1700.518 53154652 56109608 59253656 62589252 66126724 69882344 73872800 
1703.893 78109088 82591400 87307776 92235464 97343928 102596656 107950352 
1707.268 113351512 118733192 124014296 129104152 133909808 138344272 
1710.161 142329760 145798096 148687744 150945408 152532656 153436480 
1713.054 153676304 153302496 152383904 150992096 149188176 147019584 
1715.948 144525440 141746464 138731808 135539968 132231864 128861960 
1718.841 125470984 122084664 118716856 115375672 112068440 108804048 
1721.734 105591944 102439736 99351392 96326800 93363472 90459392 87614688 
1725.109 84832344 82116640 79471144 76896776 74391336 71950248 69568608 
1728.484 67242736 64971256 62754364 60592652 58485276 56428952 54417868 
1731.859 52445084 50504004 48590480 46703632 44846012 43022376 41238028 
1735.235 39496832 37800184 36146716 34532992 32954734 31408286 29891568 
1738.610 28404852 26950600 25533140 24157754 22829866 21554310 20335028 
1741.985 19174688 18074866 17036070 16057958 15139659 14280143 13478197 
1745.360 12732771 12042587 11406010 10820699 10283463 9790463 9337469 
1748.736 8920360 8535448 8179547 7849964 7544315 7260395 6996196 6750135 
1752.593 6521057 6308393 6111781 5930884 5764856 5612234 5470967 5338838 
1756.450 5213766 5094310 4979748 4870045 4765460 4666353 4572911 4485209 
1760.308 4403191 4326806 4255927 4190282 4129409 4072618 4019101 3968130 
1764.165 3919195 3872234 3827336 3784641 3744036 3705107 3667135 3629469 
1768.023 3591599 3553562 3515640 3478360 3441998 3406659 3372003 3337694 
1771.880 3303535 3269776 3237014 3206122 3177724 3152047 3128632 3106465 
1775.738 3084238 3060762 3035296 3007683 2978442 2948573 2919262 2891703 
1779.595 2866635 2844425 2824731 2806775 2789506 2771985 2753602 2734407 
1783.452 2714948 2696132 2678767 2663141 2648856 2634952 2620100 2603247 
1787.310 2583872 2562311 2539558 2516988 2495950 2477404 2461686 2448676 
1791.167 2437724 2427993 2418539 2408492 2397192 2384417 2370301 2355566 
1795.025 2341195 2328240 2317389 2308796 2301903 2295633 2288820 2280685 
1798.882 2270901 2259867 2248271 2236805 2225868 2215609 2205885 2196759 
1802.740 2188427 2181401 2176011 2172321 2169779 2167482 2164438 2160175 
1806.597 2154888 2149555 2145414 2143345 2143368 2144451 2144875 2142846 
1810.454 2137179 2127742 2115292 2101167 2086568 2072309 2058693 2045923 
1814.312 2034511 2025729 2021220 2022658 2030820 2045084 2063116 2081611 
1818.169 2097052 2107021 2110743 2109339 2105141 2100923 2098976 2100585 
1822.027 2105859 2114107 2124009 2134141 2142988 2149137 2151290 2148490 
1825.884 2140176 2126455 2108013 2086016 2061794 2036734 2011793 1987705 
1829.741 1964810 1943302 1923105 1904128 1886034 1868350 1850568 1832321 
1833.599 1813465 1794206 1774898 1755921 1737441 1719378 1701335 1683044 
1837.456 1664337 1645470 1626895 1609092 1592266 1576311 1560774 1545344 
1841.314 1529846 1514741 1500657 1488291 1477880 1468996 1460549 1451278 
1845.171 1440091 1426641 1411231 1394782 1378129 1361806 1345709 1329414 
1849.029 1312410 1294696 1276841 1260169 1245984 1235506 1228856 1225300 
1852.886 1223100 1220145 1214333 1204233 1189277 1169837 1147037 1122422 
1856.743 1097391 1073066 1049820 1027541 1005737 984178 963093 943505 926949 
1861.083 915195 909388 909848 915750 925658 938008 952010 967696 985983 
1865.423 1007594 1032464 1058815 1083301 1101591 1109824 1105473 1088718 
1869.280 1061994 1029586 996246 966239 942368 926069 917380 915633 919459 
1873.620 927299 937116 946996 955134 960812 964481 968101 974348 985792 
1877.959 1003404 1026083 1050255 1070900 1082832 1082390 1068587 1043470 
1881.817 1011524 978546 950051 930084 920298 920249 927451 938573 950171 
1886.156 959683 965892 969214 971139 973919 979170 987617 998280 1009058 
1890.496 1017122 1020071 1016581 1007003 992796 976184 959116 942951 928203 
1894.835 915247 904654 897809 896615 903031 917975 940738 968406 996472 
1899.175 1019287 1031871 1030405 1013535 982234 940139 892559 845983 806846 
1903.515 780459 769869 775414 794369 822003 852556 881265 905067 923526 
1907.854 937963 950633 963055 975414 986206 993308 994750 990035 980286 
1912.194 968167 956596 948142 944104 944444 948102 953674 959558 964288 
1916.533 966381 964677 958487 948456 936653 926949 923677 930605 949281 
1920.873 978260 1012863 1046936 1073975 1089811 1092905 1084907 1069046 
1924.730 1048977 1027068 1004308 980515 955892 931573 910497 896518 893474 
1929.070 903375 926164 959145 998478 1039987 1080733 1119339 1155956 1191120 
1933.410 1225073 1256346 1282386 1299234 1303466 1292847 1268071 1232584 
1937.267 1192531 1155119 1126992 1112255 1111764 1122649 1139985 1158310 
1941.125 1174157 1186550 1197822 1211432 1230635 1255819 1284476 1311383 
1944.982 1330880 1338905 1335424 1323989 1310912 1302508 1303113 1313066 
1948.839 1329768 1348285 1364374 1375370 1381294 1383324 1382752 1378768 
1952.697 1368574 1347291 1310631 1256298 1186579 1107647 1029715 963745 
1956.554 919790 903638 916277 952971 1005121 1061455 1111342 1146110 1160930 
1960.894 1153806 1125743 1078103 1013239 933190 841799 744560 650348 569392 
1965.233 511652 483732 486721 514572 556660 599775 633472 652034 657309 
1969.573 655911 658058 671840 702346 748394 804421 860895 907252 933871 
1973.913 935038 910000 866151 817942 786350 793157 855836 978683 1149363 
1978.252 1339982 1514614 1640089 1696385 1679021 1599112 1475409 1329092 
1982.110 1176967 1031459 900096 790064 709152 667257 672529 727997 826645 
1986.449 951849 1078601 1182019 1242896 1254507 1222791 1164465 1099600 
1990.307 1046192 1014605 1006827 1017167 1036470 1053781 1059859 1046702 
1994.164 1008618 941972 847052 728202 595400 462072 343665 252870 197730 
1998.504 178315 188553 217642 254026 287317 310949 321493 318774 304197 
2002.843 281139 253130 225383 202517 189285 188158 200199 223535 255650 
2007.183 292470 330699 365161 389852 397227 379914 333282 259001 165687 
2011.522 68779 -16017 -76566 -111535 -130142 -150258 -189356 -257581 -350636 
2015.862 -451817 -536146 -581809 -576564 -524317 -440775 -347413 -261698 
2019.719 -191457 -132536 -74510 -7071 71592 153432 220672 254344 239559 
2024.059 172437 59847 -81856 -233433 -376594 -499231 -595003 -664241 -710253 
2028.399 -739710 -758442 -772820 -785709 -797322 -803119 -795640 -766217 
2032.256 -709782 -626372 -523759 -414251 -311520 -224692 -155718 -98415 
2036.114 -43582 18180 89967 168298 243371 304349 342521 355674 348491 331241 
2040.935 315770 312845 328229 363564 415446 479097 548907 621479 694731 
2045.275 769315 846433 927894 1013473 1101146 1184855 1255873 1303386 
2049.132 1317844 1293201 1230261 1136206 1024428 911399 814288 746891 717618 
2053.472 726182 763979 814344 857399 874750 855615 799331 716514 625134 
2057.812 546200 496905 487028 515623 573563 646534 720955 787914 845630 
2062.151 897966 951772 1011891 1079192 1148632 1211667 1258351 1281614 
2066.009 1278711 1252720 1210472 1161473 1114955 1078800 1057950 1054915 
2069.866 1068887 1096518 1132167 1169021 1200112 1220454 1227470 1222199 
2073.723 1207378 1186773 1163029 1137234 1108858 1077477 1043998 1012095 
2077.581 987148 975315 980303 1002036 1035618 1073140 1105565 1126057 
2081.438 1131535 1123513 1106527 1086554 1068692 1056393 1050748 1051843 
2085.296 1058867 1071118 1087482 1106516 1125913 1142976 1155166 1161236 
2089.153 1161133 1156226 1147543 1135280 1117318 1090155 1050177 996044 
2093.010 930380 860909 798851 756635 743512 762997 810684 875808 943711 
2097.350 1000602 1036271 1046923 1034503 1005868 969613 934354 906368 889632 
2101.690 885800 895294 917945 953341 1000252 1056214 1116399 1174066 1220935 
2106.029 1249527 1254546 1235415 1195974 1144274 1089902 1041876 1005822 
2109.887 983643 973500 971772 974553 979408 984824 990051 993406 992061 
2114.226 982218 960880 927354 885040 840604 803011 780114 776521 791349 
2118.566 819067 850575 876473 888692 882546 855882 808945 742803 659586 
2122.906 562635 457808 353434 259944 187272 142640 127507 137314 162316 
2127.245 190853 212473 221109 215305 197749 171988 140553 102832 56652 -903 
2132.067 -70196 -147906 -226143 -294950 -344409 -368186 -364732 -338616 
2135.924 -298119 -253958 -216332 -193720 -191367 -211678 -253184 -312154 
2139.782 -381966 -455441 -525188 -585390 -631564 -660971 -671171 -660592 
2143.639 -627857 -574751 -506624 -434787 -374553 -343238 -352816 -407072 
2147.497 -497004 -603712 -702809 -773217 -804031 -798053 -770346 -743042 
2151.354 -736695 -765497 -833028 -935771 -1066673 -1221098 -1397372 -1596058 
2155.211 -1812247 -2030419 -2219793 -2338633 -2343673 -2208045 -1935074 
2158.587 -1567095 -1174992 -836047 -604363 -495573 -486724 -532695 -585762 
2162.444 -614234 -608782 -581125 -553006 -544396 -562386 -598632 -632180 
2166.302 -640897 -609917 -539533 -443033 -342741 -258141 -200247 -166427 
2170.159 -144987 -120508 -83881 -36126 10147 36962 28861 -18765 -96629 
2174.499 -183618 -255510 -294404 -297653 -278151 -260433 -269124 -319882 
2178.356 -411533 -527081 -638702 -718286 -745527 -714997 -634802 -523590 
2182.213 -401442 -284943 -182271 -95149 -21359 40397 89069 120790 132275 
2186.553 122758 96850 62981 31924 12022 7767 17498 35864 55207 70858 81439 
2191.857 90783 105084 131287 172811 228861 293480 357864 412494 450776 
2196.197 470112 473038 464832 452488 440990 432832 426640 419194 405991 
2200.536 384571 354421 319122 283806 255445 239534 240084 257861 291325 
2204.876 336236 387218 437589 480794 510650 522452 513263 483692 436987 
2209.215 380223 322580 274411 245351 242731 269763 325241 402975 493120 
2213.555 583205 660863 715567 741478 737963 710738 669398 626492 593195 
2217.895 577687 582745 606135 641318 680631 716747 745142 764300 775737 
2222.234 782296 787603 794102 803159 814205 825070 831889 830493 816681 
2226.574 788286 746108 695358 644858 606057 589506 602611 645818 713099 
2230.913 792348 869608 932342 973431 992100 993765 986338 977652 971715 
2235.253 968424 963575 952432 931596 902090 869066 841020 826680 832972 
2239.593 861872 910973 973009 1038750 1098427 1144403 1171754 1179558 
2243.450 1169715 1146861 1116564 1084699 1055650 1032080 1014274 1001141 
2247.307 990561 981460 974365 972279 979736 1001210 1038874 1090978 1150694 
2251.647 1207518 1249335 1266461 1254399 1216588 1163417 1110313 1072692 
2255.504 1061695 1080564 1123642 1178139 1228364 1260114 1265128 1242324 
2259.362 1197802 1142039 1086459 1040206 1008646 992539 990002 997733 
2263.219 1013286 1035026 1062542 1094941 1130431 1165653 1196303 1218278 
2267.077 1229322 1229796 1222936 1213958 1208820 1212403 1227776 1255156 
2270.934 1292503 1335799 1380148 1420120 1450954 1468828 1471908 1460557 
2274.792 1438090 1410120 1384120 1367321 1365224 1379781 1408767 1446175 
2278.649 1483965 1514247 1532055 1536315 1530393 1520509 1513707 1515202 
2282.506 1527095 1547575 1572335 1596103 1614817 1626708 1632863 1636026 
2286.364 1639374 1644873 1652555 1660434 1665633 1665390 1658422 1645103 
2290.221 1627592 1608634 1590828 1575487 1562533 1550895 1539099 1525941 
2294.079 1511289 1495855 1481072 1468353 1458711 1452262 1448405 1445836 
2297.936 1443173 1439072 1432489 1422766 1409763 1393518 1374695 1354260 
2301.793 1333682 1314637 1298780 1287495 1281464 1280580 1284181 1291041 
2305.651 1300102 1310453 1321761 1333982 1347131 1360892 1374458 1386333 
2309.508 1394878 1398560 1396741 1389843 1379558 1368392 1359210 1354320 
2313.366 1355294 1362500 1375547 1393431 1415160 1439728 1466165 1493235 
2317.223 1519404 1542876 1562237 1577192 1589393 1602396 1621218 1650562 
2321.081 1693041 1747325 1807613 1864120 1905496 1921528 1905934 1857784 
2324.938 1781777 1686710 1583568 1483078 1394058 1322024 1268972 1233722 
2328.795 1212993 1202505 1198091 1196440 1195469 1194122 1192438 1191027 
2332.653 1190749 1192247 1195802 1201034 1206918 1212061 1215107 1215216 
2336.510 1212404 1207365 1201533 1196333 1192801 1191283 1191474 1192558 
2340.368 1193816 1194761 1195399 1196046 1197273 1199319 1202111 1205312 
2344.225 1208406 1210832 1212284 1212541 1211563 1209216 1205585 1200827 
2348.083 1195421 1190298 1186684 1185840 1188849 1196073 1207187 1221185 
2351.940 1236602 1251924 1265961 1277778 1286956 1293263 1296515 1296527 
2355.797 1293299 1286867 1277682 1266461 1254407 1242784 1232937 1225927 
2359.655 1222356 1222226 1224929 1229233 1233578 1236269 1235983 1232131 
2363.512 1225115 1216147 1207081 1199843 1195734 1195264 1197999 1202908 
2367.370 1209034 1215813 1223485 1232900 1244973 1260065 1277598 1295841 
2371.227 1312447 1324987 1331904 1332836 1328814 1321922 1314598 1308960 
2375.084 1306429 1307499 1311895 1318796 1327264 1336334 1345257 1353283 
2378.942 1359858 1364535 1366969 1367078 1365005 1361212 1356450 1351503 
2382.799 1347417 1345026 1345066 1347747 1352847 1359438 1366152 1371410 
2386.657 1373963 1373023 1368811 1362152 1354465 1346952 1340503 1335094 
2390.514 1330157 1324640 1317757 1309243 1299706 1290415 1283240 1279949 
2394.372 1281974 1289816 1303029 1320003 1338145 1354101 1364416 1365979 
2398.229 1356939 1337004 1307936 1273087 1237027 1204249 1178435 1161661 
2402.086 1154136 1154336 1159913 1168174 1177051 1185288 1192755 1200040 
2405.944 1208151 1217984 1229959 1243580 1257611 1270009 1278448 1280724 
2409.801 1275476 1262475 1242769 1218533 1192482 1167099 1144321 1125184 
2413.659 1109890 1098432 1090850 1087308 1088148 1093307 1101997 1112592 
2417.516 1122836 1130542 1134331 1133982 1130635 1125990 1121756 1118615 
2421.374 1116170 1113133 1108025 1099907 1088922 1076043 1062828 1050348 
2425.231 1039049 1028388 1017676 1006367 994933 984625 977252 974100 975464 
2429.571 980061 985757 990066 991360 989434 985441 981431 979461 980730 
2433.910 985295 992199 1000131 1008019 1015462 1022542 1029503 1035871 
2437.768 1040505 1041274 1035899 1022630 1001100 972663 940494 908762 882036 
2442.107 864099 857351 862228 877312 899500 924879 949219 969086 982085 
2446.447 987563 986154 979507 969607 958199 946329 934595 923217 912614 
2450.786 903802 898394 897980 903860 916070 933303 952884 971688 986686 
2455.126 996231 1000180 1000114 998461 997893 1000160 1005790 1013651 
2458.983 1021483 1026480 1026072 1018504 1003369 981514 954956 926263 898356 
2463.323 873572 853927 840211 832424 829558 830017 831752 832829 831682 
2467.663 827593 820783 812594 805087 800892 802219 810507 825713 846118 
2472.002 868517 888822 902892 907588 901351 884745 860151 831238 802148 
2476.342 776558 757064 745127 740726 743119 751029 763169 778138 794903 
2480.681 812297 829213 844355 856654 865203 869800 870815 869540 867635 
2485.021 867081 869291 875214 884686 896888 910334 923604 935574 945754 
2489.361 954092 961018 966656 970941 973211 972624 968255 959759 947545 
2493.700 933018 918271 906071 898943 899151 907889 925215 949628 978490 
2498.040 1008155 1034647 1054417 1065317 1066877 1060549 1049140 1036021 
2501.897 1023928 1014342 1007063 1000744 993620 984718 974323 964335 957309 
2506.237 955809 961255 973559 990958 1010925 1030911 1049104 1064586 1077220 
2510.576 1086945 1093473 1095936 1093490 1085611 1072979 1057392 1041802 
2514.434 1029395 1022821 1023455 1031249 1044754 1061945 1080551 1098772 
2518.291 1115148 1128835 1139290 1146299 1149961 1150831 1149683 1147421 
2522.149 1144710 1141846 1138576 1134510 1129564 1124287 1119988 1118562 
2526.006 1121634 1130077 1143337 1159616 1176463 1191676 1203821 1212854 
2529.864 1219340 1224184 1227453 1228204 1224613 1215039 1198828 1177218 
2533.721 1153355 1131635 1116189 1109944 1113431 1124924 1140813 1157083 
2537.578 1170091 1177639 1178858 1174329 1165359 1153793 1141535 1130584 
2541.436 1122802 1119808 1122599 1131153 1144266 1159770 1174839 1186814 
2545.293 1193790 1195210 1191726 1185172 1177779 1171859 1169188 1170954 
2549.151 1177484 1188499 1202850 1219156 1235445 1249956 1261130 1268271 
2553.008 1271369 1271412 1269735 1267655 1266156 1265427 1264895 1263754 
2556.865 1261165 1256810 1251055 1244965 1239970 1237683 1239245 1245312 
2560.723 1255594 1269056 1283984 1298431 1310496 1318983 1323512 1324827 
2564.580 1324388 1323949 1324903 1327707 1331537 1334765 1335291 1331546 
2568.438 1322935 1310489 1296308 1283424 1274637 1272361 1277649 1290508 
2572.295 1309762 1333365 1358406 1381442 1398696 1406827 1403228 1387272 
2576.153 1360521 1327019 1292556 1263739 1246293 1243935 1257310 1284160 
2580.010 1319839 1358641 1394917 1424469 1444881 1455837 1458650 1455818 
2583.867 1450010 1443784 1438762 1435534 1433597 1431747 1428481 1422670 
2587.725 1414001 1403132 1391453 1380813 1372706 1368044 1366892 1368858 
2591.582 1373389 1380225 1389413 1401197 1415457 1431378 1447238 1460779 
2595.440 1469676 1472615 1469585 1462249 1453288 1445781 1442065 1443353 
2599.297 1449229 1458232 1468155 1476922 1482888 1485251 1483884 1479406 
2603.155 1472943 1466198 1461007 1459275 1462396 1470809 1483607 1498618 
2607.012 1512716 1522803 1526500 1523033 1513336 1499922 1485988 1474599 
2610.869 1467861 1466563 1470209 1477381 1486389 1495559 1503513 1509285 
2614.727 1512311 1512318 1509505 1504698 1499142 1494595 1492849 1495321 
2618.584 1502674 1514610 1529939 1547088 1564501 1581139 1596570 1611031 
2622.442 1625005 1638836 1652470 1665423 1676891 1686184 1692815 1696860 
2626.299 1698797 1699241 1698785 1697656 1695731 1692772 1688459 1682667 
2630.156 1675600 1667576 1659099 1650459 1641773 1632987 1624056 1615185 
2634.014 1606869 1600099 1595753 1594611 1596736 1601439 1607260 1612331 
2637.871 1614842 1613594 1608330 1599765 1589423 1579159 1570613 1564867 
2641.729 1562207 1562146 1563718 1565956 1568035 1569618 1570837 1572109 
2645.586 1573826 1576140 1578809 1581338 1582978 1583239 1581971 1579749 
2649.444 1577616 1576906 1578920 1584266 1592783 1603505 1614731 1624696 
2653.301 1631875 1635515 1635687 1633201 1629152 1624630 1620346 1616471 
2657.158 1612863 1609147 1604982 1600245 1594872 1588791 1581761 1573380 
2661.016 1563075 1550524 1535726 1519334 1502446 1486502 1472897 1462516 
2664.873 1455699 1452036 1450734 1450844 1451572 1452577 1453869 1455743 
2668.731 1458460 1462171 1466565 1471130 1475025 1477497 1478005 1476470 
2672.588 1473247 1469226 1465445 1463081 1462869 1465098 1469294 1474470 
2676.446 1479262 1482440 1483147 1481302 1477560 1473044 1468976 1466255 
2680.303 1465098 1464948 1464645 1462812 1458341 1450747 1440341 1428232 
2684.160 1415975 1405363 1397800 1394197 1394699 1398688 1404994 1412158 
2688.018 1418731 1423629 1426319 1426792 1425622 1423577 1421476 1419817 
2691.875 1418817 1418394 1418368 1418721 1419590 1421343 1424436 1429002 
2695.733 1434873 1441297 1447299 1451855 1454223 1454239 1452317 1449290 
2699.590 1446044 1443350 1441570 1440721 1440544 1440810 1441421 1442448 
2703.448 1444084 1446555 1449851 1453857 1458255 1462708 1467045 1471175 
2707.305 1475152 1479040 1482738 1486056 1488538 1489712 1489205 1486868 
2711.162 1482866 1477762 1472238 1467267 1463733 1462291 1463342 1466771 
2715.020 1472042 1478297 1484410 1489358 1492485 1493589 1493060 1491711 
2718.877 1490507 1490379 1491838 1495088 1499744 1505315 1511135 1516601 
2722.735 1521374 1525263 1528212 1530384 1531972 1533249 1534489 1535877 
2726.592 1537522 1539185 1540556 1541203 1540798 1539339 1537284 1535512 
2730.449 1534968 1536531 1540598 1546977 1554882 1563183 1570663 1576364 
2734.307 1579717 1580648 1579439 1576732 1573262 1569919 1567577 1567026 
2738.164 1568772 1572929 1579110 1586471 1593825 1600106 1604640 1607426 
2742.022 1608952 1610275 1612355 1615928 1621096 1627603 1634757 1641896 
2745.879 1648540 1654439 1659630 1664010 1667542 1670106 1671581 1672133 
2749.737 1672242 1672498 1673577 1675858 1679166 1682918 1686210 1688263 
2753.594 1688660 1687568 1685549 1683447 1681973 1681517 1682126 1683653 
2757.451 1686022 1689218 1693462 1699042 1705988 1714013 1722449 1730340 
2761.309 1736750 1741138 1743188 1743149 1741298 1738043 1733580 1728009 
2765.166 1721405 1714083 1706620 1699926 1695173 1693413 1695336 1701176 
2769.024 1710443 1722086 1734657 1746498 1756173 1762507 1765088 1764033 
2772.881 1760006 1754083 1747255 1740396 1733955 1728147 1722989 1718633 
2776.739 1715488 1714171 1715337 1719322 1725943 1734425 1743565 1752138 
2780.596 1759321 1764928 1769349 1773462 1778110 1783762 1790360 1797495 
2784.453 1804558 1811080 1816789 1821789 1826144 1829900 1832870 1834809 
2788.311 1835586 1835388 1834719 1834342 1835007 1837069 1840542 1845095 
2792.168 1850345 1856198 1862965 1871380 1882045 1895300 1910725 1927390 
2796.026 1944006 1959378 1972845 1984509 1994868 2004656 2014410 2024254 
2799.883 2033941 2043028 2051212 2058475 2065023 2071149 2076898 2082064 
2803.740 2086240 2089075 2090683 2091817 2093595 2097322 2103879 2113505 
2807.598 2125567 2138817 2151856 2163584 2173421 2181499 2188197 2193939 
2811.455 2199000 2203371 2206852 2209393 2211177 2212895 2215419 2219769 
2815.313 2226684 2236443 2248772 2262960 2277829 2292201 2304886 2315130 
2819.170 2322722 2328147 2332564 2337592 2345003 2356277 2372237 2392856 
2823.028 2417349 2444405 2472686 2501232 2529479 2557502 2585580 2614094 
2826.885 2643218 2672941 2703314 2734481 2766893 2801385 2838797 2879899 
2830.742 2924947 2973851 3026040 3080867 3137922 3197093 3258703 3323450 
2834.600 3392125 3465343 3543608 3627174 3716171 3810797 3911320 4018204 
2838.457 4132120 4253705 4383676 4522700 4671356 4830224 4999769 5180472 
2842.315 5372632 5576426 5791611 6017587 6253101 6496422 6745200 6996784 
2846.172 7248442 7497656 7742331 7980927 8212254 8435427 8649560 8853521 
2850.030 9046027 9225726 9391384 9542200 9677769 9798070 9903240 9993218 
2853.887 10067576 10125389 10165275 10185970 10186365 10166151 10125981 
2857.262 10067573 9993514 9906972 9811133 9708948 9602576 9493387 9381716 
2861.120 9267522 9150492 9030546 8908191 8784555 8661184 8539890 8422116 
2864.977 8308770 8200197 8096173 7996254 7900107 7807725 7719469 7635984 
2868.834 7557921 7485787 7419676 7359230 7303884 7252691 7204868 7159637 
2872.692 7116707 7076235 7038995 7006138 6979250 6959692 6948448 6945806 
2876.549 6951142 6963392 6981264 7004074 7031898 7065855 7107838 7159842 
2880.407 7223396 7298811 7385313 7480933 7583220 7689684 7798396 7908083 
2884.264 8018113 8128252 8238280 8347781 8456219 8562877 8667147 8768510 
2888.122 8866647 8961449 9052925 9141229 9226462 9308825 9388382 9465003 
2891.979 9538118 9606779 9669801 9726092 9775075 9817000 9853278 9885985 
2895.836 9917671 9950478 9985690 10023472 10062958 10102741 10141663 
2899.212 10179232 10215950 10253209 10293002 10337226 10387384 10444213 
2902.587 10507876 10578053 10654260 10735876 10822500 10913656 11009003 
2905.962 11108141 11210900 11317271 11427613 11542516 11662592 11788136 
2909.337 11918917 12054115 12192459 12332540 12473389 12614779 12757342 
2912.713 12902455 13051848 13206902 13368189 13535245 13706432 13879380 
2916.088 14051348 14219883 14383224 14540423 14691567 14837319 14978759 
2919.463 15116870 15252267 15384974 15514217 15638700 15756668 15866229 
2922.838 15965866 16054589 16132209 16199090 16256341 16305205 16346991 
2926.214 16382843 16413611 16439998 16462655 16482131 16498961 16513389 
2929.589 16525525 16534910 16540861 16542321 16538471 16528672 16512915 
2932.964 16491650 16465755 16436276 16404074 16369748 16333419 16295020 
2936.339 16254279 16210878 16164713 16115728 16064070 16009749 15952677 
2939.715 15892598 15829025 15761310 15688804 15610968 15527530 15438640 
2943.090 15344842 15247105 15146637 15044561 14941810 14838599 14734595 
2946.465 14628841 14519934 14406435 14287324 14162144 14031427 13896468 
2949.840 13759282 13622050 13486782 13354871 13226961 13102584 12980717 
2953.216 12859783 12738298 12615156 12490011 12363281 12235948 12109315 
2956.591 11984404 11861813 11741365 11622320 11503609 11384211 11263561 
2959.966 11141692 11019135 10896708 10775228 10655028 10535820 10416838 
2963.341 10296937 10174989 10050314 9922846 9793177 9662550 9532302 9403921 
2967.199 9278587 9156916 9039120 8924979 8813831 8704756 8596773 8488592 
2971.056 8379113 8267207 8152185 8033761 7912404 7789124 7665465 7543096 
2974.914 7423584 7307993 7196796 7090006 6987142 6887752 6791401 6697847 
2978.771 6606896 6518130 6430933 6344306 6257274 6169105 6079673 5989622 
2982.628 5900218 5812934 5728948 5648583 5571370 5495811 5420239 5343122 
2986.486 5263677 5182215 5099958 5018713 4940611 4867372 4800205 4739577 
2990.343 4685110 4635907 4590423 4546808 4503226 4458023 4410185 4359334 
2994.201 4306015 4251174 4196185 4142257 4090230 4040644 3993734 3949744 
2998.058 3909091 3872154 3839298 3810166 3783659 3757989 3730955 3700654 
3001.916 3666269 3628149 3588033 3548245 3511124 3477948 3448695 3421995 
3005.773 3395782 3367798 3336490 3301256 3262392 3220811 3177523 3133317 
3009.630 3088848 3044695 3001565 2960516 2922793 2889487 2861004 2836885 
3013.488 2815679 2795297 2773646 2749075 2720991 2689875 2656890 2623485 
3017.345 2590884 2559595 2529446 2499824 2470088 2439849 2409220 2378793 
3021.203 2349433 2321874 2296574 2273645 2252986 2234268 2217341 2202123 
3025.060 2188685 2176905 2166397 2156456 2145943 2133755 2119107 2101836 
3028.917 2082593 2062665 2043804 2027672 2015472 2007665 2003854 2003121 
3032.775 2004236 2006065 2007955 2009612 2011166 2013007 2015400 2018304 
3036.632 2021394 2023962 2025388 2025167 2023189 2019982 2016591 2014374 
3040.490 2015021 2019893 2030119 2046254 2068314 2095864 2128091 2163935 
3044.347 2202372 2242413 2283331 2324623 2366290 2408703 2452633 2498866 
3048.205 2548197 2600858 2656329 2713315 2769797 2823314 2871560 2912604 
3052.062 2945298 2969353 2985174 2993551 2995587 2992343 2984917 2974331 
3055.919 2961568 2947612 2933300 2919411 2906460 2894936 2885159 2877597 
3059.777 2872767 2871127 2872895 2877950 2885701 2895072 2904841 2913794 
3063.634 2921163 2926396 2929482 2930462 2929459 2926535 2921792 2915645 
3067.492 2908739 2902111 2896749 2893193 2891215 2889632 2886469 2879613 
3071.349 2867661 2850476 2829576 2807872 2789003 2776391 2772261 2777054 
3075.207 2789287 2805905 2822989 2836561 2843608 2842345 2832801 2816514 
3079.064 2796442 2776200 2759435 2748917 2746044 2750298 2759401 2769633 
3082.921 2776834 2777226 2768273 2749094 2720597 2684776 2644303 2601724 
3086.779 2559196 2518212 2480021 2445673 2416283 2392871 2376239 2366408 
3090.636 2362577 2363009 2365358 2367145 2366575 2362668 2355755 2346974 
3094.494 2338180 2331125 2327168 2327082 2331046 2338727 2349680 2363217 
3098.351 2378745 2395377 2412057 2427552 2440397 2449386 2453545 2452639 
3102.208 2447086 2437752 2425903 2412576 2398555 2384217 2369708 2354883 
3106.066 2339771 2324426 2309005 2293591 2278028 2261833 2244441 2225234 
3109.923 2203982 2180967 2157100 2133565 2111598 2092037 2074974 2059795 
3113.781 2045638 2031426 2016772 2001821 1987506 1974885 1964965 1958091 
3117.638 1953625 1950354 1946735 1941553 1934483 1926257 1918585 1913469 
3121.496 1912685 1917019 1926234 1938811 1952800 1966143 1977359 1985848 
3125.353 1992039 1996897 2001578 2006891 2013089 2019763 2025808 2029634 
3129.210 2029695 2024439 2013005 1995114 1971516 1943999 1915206 1888210 
3133.068 1866104 1851025 1844037 1844363 1849837 1857346 1863572 1865776 
3136.925 1862564 1853883 1841038 1826102 1811386 1798668 1789026 1782723 
3140.783 1779275 1777787 1777227 1776698 1775525 1773318 1769961 1765526 
3144.640 1760287 1754615 1748824 1743243 1738009 1732943 1727759 1721876 
3148.498 1714851 1706335 1696347 1685154 1673344 1661659 1650690 1640891 
3152.355 1632496 1625462 1619664 1615090 1611773 1609788 1609167 1609571 
3156.212 1610505 1610868 1609706 1606279 1600511 1593153 1585593 1579587 
3160.070 1576566 1577166 1581062 1586994 1593340 1598661 1602308 1604620 
3163.927 1606741 1610105 1615878 1624327 1634817 1645874 1655734 1662784 
3167.785 1666012 1665001 1660005 1651511 1640295 1626950 1612295 1597202 
3171.642 1582711 1569972 1559919 1553319 1550408 1551005 1554474 1559923 
3175.500 1566438 1572871 1578261 1581599 1582180 1579502 1573809 1565856 
3179.357 1556942 1548537 1541963 1537913 1536494 1537228 1539412 1542524 
3183.214 1546512 1551653 1558535 1567361 1577888 1589006 1599134 1606618 
3187.072 1610141 1609209 1604366 1596860 1588402 1580465 1574108 1569514 
3190.929 1566297 1563647 1560749 1556995 1552448 1547419 1542559 1538458 
3194.787 1535340 1532875 1530440 1527170 1522593 1516803 1510574 1505146 
3198.644 1501805 1501303 1503597 1507672 1512101 1515288 1516310 1514908 
3202.501 1511586 1507029 1501816 1495968 1489111 1480921 1471591 1462227 
3206.359 1454707 1451136 1453147 1461013 1473704 1488871 1503840 1516472 
3210.216 1525722 1531683 1535247 1537243 1538043 1537327 1534351 1528585 
3214.074 1520406 1511063 1502654 1497258 1496416 1500562 1509050 1520429 
3217.931 1533128 1545638 1556923 1566119 1572525 1575415 1574301 1569119 
3221.789 1560632 1550329 1540348 1532438 1527819 1526470 1527336 1528807 
3225.646 1529413 1528367 1525947 1523052 1521106 1521117 1523605 1528320 
3229.503 1534498 1541133 1547336 1552156 1555062 1555553 1553501 1549000 
3233.361 1542667 1535390 1528231 1522023 1517049 1513081 1509481 1505630 
3237.218 1501290 1496993 1493789 1492916 1495373 1501345 1510455 1521728 
3241.076 1534189 1547001 1559754 1572044 1583241 1592290 1597723 1598102 
3244.933 1592718 1581819 1567046 1550749 1535524 1523386 1515378 1511263 
3248.791 1510193 1511015 1512741 1514838 1517153 1519643 1522144 1524406 
3252.648 1525994 1526602 1526141 1524613 1522267 1519167 1515489 1511472 
3256.505 1507617 1504623 1503482 1504796 1508390 1513164 1517175 1518175 
3260.363 1514676 1506514 1495347 1484024 1475845 1473037 1476041 1483121 
3264.220 1490946 1495856 1495311 1488917 1478661 1468272 1462145 1463630 
3268.078 1474217 1492885 1516595 1541150 1562571 1577932 1586164 1587943 
3271.935 1585075 1579849 1574150 1568822 1563734 1558086 1550988 1542209 
3275.792 1532387 1523089 1516367 1513781 1516078 1522613 1531720 1541170 
3279.650 1549130 1554664 1558178 1560715 1563671 1567705 1572608 1576985 
3283.507 1579087 1577316 1571057 1560834 1548320 1535649 1524868 1517365 
3287.365 1513746 1513803 1516932 1522231 1528821 1535975 1542933 1549033 
3291.222 1553934 1557525 1560245 1562745 1565809 1569878 1574974 1580447 
3295.080 1585402 1588858 1590515 1590549 1589964 1589943 1591601 1595458 
3298.937 1601317 1608217 1614931 1619989 1622371 1621425 1617180 1610103 
3302.794 1601153 1591515 1582694 1575753 1571577 1570323 1571615 1574402 
3306.652 1577667 1580257 1581828 1582479 1582965 1584149 1586819 1591164 
3310.509 1596863 1603108 1609011 1613661 1616726 1618150 1618252 1617433 
3314.367 1616047 1614294 1612362 1610308 1608420 1607087 1607021 1608811 
3318.224 1613047 1619797 1628785 1639111 1649474 1658305 1664300 1666524 
3322.082 1664828 1659758 1652604 1644858 1637957 1632914 1630287 1630033 
3325.939 1631763 1634976 1639338 1644415 1649939 1655576 1660982 1665897 
3329.796 1670313 1674472 1679035 1684526 1691393 1699334 1707568 1714632 
3333.654 1719116 1720046 1717411 1712191 1706221 1701626 1700194 1702665 
3337.511 1708920 1717672 1727255 1735979 1742758 1747165 1749624 1750761 
3341.369 1751339 1751648 1751329 1749407 1744681 1735941 1722556 1704729 
3345.226 1683715 1661452 1640420 1622928 1610816 1605116 1606132 1613431 
3349.083 1626207 1643164 1663001 1683734 1703195 1718810 1728149 1729184 
3352.941 1721238 1704937 1682563 1657163 1632310 1610950 1595039 1585128 
3356.798 1580723 1580647 1583539 1588187 1593871 1599985 1606236 1612049 
3360.656 1616908 1620090 1621077 1619361 1614884 1607827 1599010 1589571 
3364.513 1581235 1575725 1574756 1579288 1589290 1603524 1619648 1634796 
3368.371 1646418 1652658 1653042 1648231 1639885 1629820 1619753 1610881 
3372.228 1603972 1599388 1597561 1598580 1602505 1608871 1616801 1624925 
3376.085 1632034 1637221 1640420 1642125 1643186 1644224 1645274 1645384 
3379.943 1643173 1637087 1626481 1611670 1594467 1577544 1564050 1556796 
3383.800 1557788 1567847 1586535 1612171 1642344 1673735 1703075 1727331 
3387.658 1744442 1753676 1755914 1753403 1749197 1746331 1747023 1752115 
3391.515 1761200 1772642 1784543 1795141 1803351 1808673 1811287 1811589 
3395.373 1810093 1807229 1803579 1799699 1796445 1794649 1795291 1798817 
3399.230 1805639 1815394 1827558 1841073 1854707 1867182 1877230 1884153 
3403.087 1887925 1889301 1890060 1892258 1898194 1909469 1926933 1950213 
3406.945 1978182 2009277 2041897 2074592 2106340 2136087 2163085 2186289 
3410.802 2205213 2219635 2230230 2238212 2245255 2252875 2262104 2273232 
3414.660 2286030 2300096 2315535 2332843 2353125 2377234 2405393 2436650 
3418.517 2469132 2500224 2527908 2550949 2569663 2585559 2600816 2617313 
3422.375 2636251 2657483 2680040 2702180 2722236 2738812 2751092 2758763 
3426.232 2762181 2761899 2758992 2754590 2750245 2747172 2746529 2748963 
3430.089 2754802 2763897 2775982 2790446 2806584 2823180 2838727 2851197 
3433.947 2858741 2859803 2853917 2841696 2824959 2805875 2786638 2768523 
3437.804 2751856 2735986 2720195 2703739 2686840 2670193 2654948 2642009 
3441.662 2631574 2623053 2615260 2606699 2596209 2583024 2566968 2548135 
3445.519 2526965 2503993 2479984 2455962 2433306 2413317 2397040 2384662 
3449.376 2375393 2367376 2358601 2347027 2331814 2313185 2292566 2271921 
3453.234 2253167 2237440 2224940 2214831 2205904 2196732 2186383 2174232 
3457.091 2160312 2144843 2128199 2110645 2092611 2074471 2056943 2040831 
3460.949 2027330 2017488 2012248 2012039 2016680 2025032 2035353 2045141 
3464.806 2051919 2053439 2048486 2036909 2020021 2000033 1979857 1962250 
3468.664 1949425 1942466 1941536 1945661 1953176 1961941 1969776 1974630 
3472.521 1975301 1971238 1963129 1952452 1941517 1932632 1927815 1928001 
3476.378 1933098 1941873 1952669 1963550 1973116 1980396 1985004 1986809 
3480.236 1985729 1981634 1974663 1965377 1954967 1945057 1937740 1934431 
3484.093 1935927 1941620 1950053 1959014 1966669 1971879 1974902 1977060 
3487.951 1980471 1987022 1998048 2013542 2032346 2052436 2071384 2086786 
3491.808 2097080 2101346 2099665 2092586 2081245 2066803 2050609 2033886 
3495.666 2017945 2003856 1992888 1985790 1983188 1985081 1991121 2000428 
3499.523 2012147 2025351 2039499 2054193 2069411 2084892 2100403 2115390 
3503.380 2129193 2141130 2150986 2158678 2164524 2168733 2171293 2171769 
3507.238 2169568 2164138 2155747 2145338 2134879 2126647 2122635 2123988 
3511.095 2130544 2141042 2153786 2167101 2180279 2193415 2207381 2222877 
3514.953 2240223 2258603 2276470 2291825 2303411 2310707 2314740 2317223 
3518.810 2320464 2326429 2336434 2350658 2368512 2388802 2410132 2430961 
3522.667 2449971 2465857 2477703 2484830 2487200 2485344 2480555 2474269 
3526.525 2468148 2463486 2461044 2460964 2463083 2466972 2472371 2479270 
3530.382 2488084 2499482 2514309 2533174 2556342 2583268 2612625 2641982 
3534.240 2668446 2688783 2700689 2703000 2696620 2684145 2669581 2657041 
3538.097 2649890 2649595 2655801 2666341 2678722 2690510 2700727 2709513 
3541.955 2718124 2727836 2739474 2752552 2765633 2776626 2783665 2785682 
3545.812 2782987 2776630 2768740 2761052 2755144 2751558 2750400 2750905 
3549.669 2752332 2753676 2754266 2753622 2751755 2749134 2746607 2745458 
3553.527 2746969 2751933 2760387 2771157 2782076 2790334 2793136 2788475 
3557.384 2775785 2756036 2731784 2706186 2682757 2663956 2651237 2644467 
3561.242 2642304 2642554 2642876 2641253 2636507 2628396 2617823 2606250 
3565.099 2595623 2587470 2582846 2581705 2583051 2585095 2585890 2583762 
3568.957 2577884 2568528 2556934 2544725 2533524 2524112 2516322 2508722 
3572.814 2499425 2486529 2468974 2446845 2421934 2396937 2374944 2358373 
3576.671 2348525 2344703 2344670 2344901 2341956 2332918 2316812 2294444 
3580.529 2268654 2243294 2222423 2209070 2204480 2207727 2216176 2226122 
3584.386 2234216 2238264 2237878 2234431 2230489 2228426 2229678 2233836 
3588.244 2239057 2242579 2242011 2236485 2227120 2216619 2208662 2206050 
3592.101 2210185 2220055 2233153 2246098 2256379 2262928 2266809 2270134 
3595.958 2275323 2283680 2294931 2307092 2317418 2323525 2324296 2320044 
3599.816 2312548 2303960 2296241 2290422 2286975 2285841 2287321 2292049 
3603.673 2300910 2314281 2331742 2351647 2371644 2389308 2403290 2413660 
3607.531 2422163 2431131 2442567 2456970 2473261 2488792 2500865 2507545 
3611.388 2508779 2505953 2501715 2498339 2497225 2498118 2499863 2500805 
3615.246 2500323 2498818 2498263 2501055 2509730 2525594 2548906 2578469 
3619.103 2612250 2647743 2682277 2713166 2738088 2754960 2762679 2761178 
3622.960 2752030 2737871 2722231 2708312 2698323 2692854 2691220 2691944 
3626.818 2693830 2696450 2700831 2708430 2720764 2738205 2759507 2782017 
3630.675 2802185 2816677 2823249 2820978 2810669 2794035 2773564 2751852 
3634.533 2731596 2715000 2704087 2700035 2703162 2712518 2726070 2740841 
3638.390 2753630 2761478 2762679 2756663 2744216 2727029 2707335 2687259 
3642.248 2668922 2653921 2643668 2638837 2639763 2645798 2655592 2666875 
3646.105 2676970 2682854 2682140 2673116 2655561 2630616 2600973 2569904 
3649.962 2541437 2518657 2503591 2496376 2495243 2497035 2498078 2494989 
3653.820 2486009 2470916 2451467 2430121 2409658 2391786 2376987 2364214 
3657.677 2351906 2338330 2322610 2304809 2285984 2267599 2251119 2237526 
3661.535 2226982 2218921 2212310 2205710 2198149 2189035 2178762 2168562 
3665.392 2160464 2156230 2157203 2162819 2170998 2177665 2178444 2169538 
3669.250 2149663 2120359 2086224 2053294 2027384 2012066 2007870 2012053 
3673.107 2020216 2027520 2030536 2027682 2019748 2008630 1996857 1986216 
3676.964 1977904 1972070 1968738 1967553 1968304 1970315 1972733 1974041 
3680.822 1972546 1966730 1955885 1939963 1920125 1897850 1875092 1853454 
3684.679 1834493 1819383 1809185 1804419 1805211 1810710 1819535 1829500 
3688.537 1838466 1844678 1847145 1845519 1839687 1829413 1814078 1792890 
3692.394 1765638 1733177 1698017 1663859 1634866 1614219 1603225 1600787 
3696.251 1604027 1608937 1612191 1611832 1607908 1601855 1595899 1592059 
3700.109 1591660 1594889 1601252 1609537 1618258 1625494 1629412 1628223 
3703.966 1620898 1607373 1589098 1568613 1548981 1532656 1521039 1513661 
3707.824 1508985 1504940 1500484 1495717 1492513 1493203 1499937 1513151 
3711.681 1531534 1551861 1570296 1583271 1588583 1585732 1575934 1561459 
3715.539 1545417 1531050 1521503 1519152 1525529 1540475 1562144 1586945 
3719.396 1610585 1628745 1638693 1639802 1633787 1624022 1614578 1608746 
3723.253 1608431 1613598 1622806 1633574 1643148 1648910 1649036 1642402 
3727.111 1629504 1611914 1592900 1576489 1566675 1566267 1575853 1593480 
3730.968 1615259 1636372 1652946 1662829 1666443 1665721 1663299 1660876 
3734.826 1659003 1656742 1652916 1646952 1639598 1632455 1627462 1625458 
3738.683 1626068 1627204 1626525 1621991 1613225 1601379 1588854 1577928 
3742.541 1570119 1565538 1563485 1562723 1562786 1563826 1566797 1572337 
3746.398 1580310 1589300 1597341 1602287 1603208 1600554 1596382 1593275 
3750.255 1593580 1598190 1606654 1616878 1626616 1633443 1635951 1633398 
3754.113 1626007 1614155 1598783 1581046 1562853 1546368 1534265 1528706 
3757.970 1531265 1541995 1559921 1582896 1608434 1634083 1657980 1678740 
3761.828 1695451 1707584 1714858 1717093 1714403 1706897 1694789 1678104 
3765.685 1656728 1630649 1600319 1566951 1532914 1501344 1475794 1459112 
3769.542 1453023 1457595 1471533 1492712 1519285 1549590 1582963 1618585 
3773.400 1655475 1691712 1724643 1751154 1768725 1775716 1772338 1759840 
3777.257 1740687 1717357 1692291 1667287 1643924 1623340 1606701 1594712 
3781.115 1587807 1585466 1586668 1589844 1593426 1596287 1597997 1598669 
3784.972 1598987 1599418 1600116 1600877 1601245 1600727 1599347 1597383 
3788.830 1595736 1595216 1596675 1600238 1605781 1612327 1618736 1623535 
3792.687 1625442 1623453 1617490 1608124 1596916 1585909 1577438 1573372 
3796.544 1574817 1581812 1593484 1608298 1624795 1641488 1657437 1671700 
3800.402 1683615 1692238 1696957 1697490 1694435 1689176 1684082 1681303 
3804.259 1682535 1687919 1696119 1704258 1709188 1708155 1700113 1686092 
3808.117 1669227 1653735 1643849 1642439 1650385 1665986 1685635 1704309 
3811.974 1717248 1720783 1713712 1697066 1674380 1650427 1630237 1617729 
3815.832 1614844 1621075 1633922 1649584 1664344 1675096 1680216 1679137 
3819.689 1672356 1660741 1645622 1628262 1610248 1593356 1579633 1570869 
3823.546 1568368 1572352 1581786 1594601 1608277 1620409 1629511 1635235 
3827.404 1638399 1640424 1642847 1646564 1651820 1658026 1664451 1670455 
3831.261 1676051 1681712 1688349 1696631 1706826 1718179 1729447 1738830 
3835.119 1744891 1746754 1744675 1739782 1733809 1728349 1724480 1722204 
3838.976 1720750 1718652 1714613 1707733 1697983 1685944 1672617 1658966 
3842.833 1645608 1632775 1620494 1608891 1598353 1589576 1583434 1580571 
3846.691 1581219 1584943 1591062 1598534 1606793 1615261 1623924 1632397 
3850.548 1640267 1646387 1649518 1648281 1641978 1630788 1615999 1599610 
3854.406 1584030 1571296 1562906 1559387 1560666 1566097 1574859 1585997 
3858.263 1598610 1611692 1624468 1636137 1646274 1654527 1660922 1665522 
3862.121 1668548 1670385 1671602 1673013 1675782 1680763 1688591 1698698 
3865.978 1709702 1719129 1724392 1723545 1716186 1703763 1689499 1677318 
3869.835 1670845 1672050 1680769 1694711 1710550 1724916 1735502 1741488 
3873.693 1743559 1743166 1742035 1741200 1741132 1741750 1742785 1743936 
3877.550 1745373 1747096 1749092 1750816 1751540 1750225 1746169 1739214 
3881.408 1729958 1719415 1709025 1699920 1692957 1688358 1686046 1685540 
3885.265 1686530 1688689 1691994 1696327 1701650 1707651 1713836 1719372 
3889.123 1723503 1725331 1724608 1721371 1716479 1711286 1707330 1705952 
3892.980 1707805 1712565 1719006 1725228 1729353 1729919 1726508 1719627 
3896.837 1710515 1700579 1691136 1682958 1676395 1671488 1668459 1667503 
3900.695 1669015 1673007 1678827 1685067 1689768 1690995 1687651 1679956 
3904.552 1669725 1659818 1653411 1652910 1659048 1670743 1685396 1699558 
3908.410 1710218 1715492 1715219 1710668 1704296 1698630 1695803 1696876 
3912.267 1701982 1710270 1720500 1731375 1742043 1751797 1760584 1768313 
3916.125 1775020 1780405 1784126 1785513 1784185 1779904 1773078 1764530 
3919.982 1755562 1747326 1740848 1736297 1733190 1730501 1726998 1721919 
3923.839 1715367 1708171 1701998 1698371 1698396 1701968 1707999 1714451 
3927.697 1719341 1721182 1719697 1715727 1711006 1707218 1705717 1706821 
3931.554 1710214 1715082 1720820 1727323 1735196 1745140 1757601 1771977 
3935.412 1786700 1799095 1806525 1806931 1799822 1786146 1768447 1749678 
3939.269 1732633 1718987 1709163 1702357 1697488 1693607 1690596 1689074 
3943.126 1690402 1695768 1705610 1719309 1735271 1751052 1764303 1773238 
3946.984 1777220 1776671 1772923 1767654 1762451 1758290 1755556 1754118 
3950.841 1753697 1753977 1754945 1756707 1759382 1762680 1766045 1768167 
3954.699 1767852 1763858 1755612 1743339 1728165 1711849 1696418 1683752 
3958.556 1675362 1671844 1673147 1678505 1686739 1696367 1706051 1714584 
3962.414 1721344 1725995 1728912 1730621 1731985 1733576 1735844 1738683 
3966.271 1741907 1744960 1747510 1749129 1749754 1749249 1747575 1744506 
3970.128 1739987 1734020 1727054 1719927 1713876 1709963 1709054 1711003 
3973.986 1714947 1719345 1722466 1722861 1720183 1714843 1708411 1702550 
3977.843 1699056 1698743 1701704 1707316 1714647 1722820 1731661 1741410 
3981.701 1752881 1766542 1782514 1799757 1816339 1829712 1837525 1837868 
3985.558 1830684 1817025 1799574 1781399 1765411 1753358 1745642 1741167 
3989.416 1738227 1735045 1730848 1726022 1722331 1721898 1726728 1737599 
3993.273 1753980 1773627 1793643 1810710 1822271 1826772 1824143 1815290 
3997.130 1802168 1786942 1771995 1759374 1750980 1747992 1751161 1760396 
##END=
