##TITLE=3D-Fillies_PLA-Rainbow_Salmon-Pink_Filament_r2_ATR-Corrected
##JCAMP-DX=5.01  $$ Nicolet v. 1
##DATATYPE=INFRARED SPECTRUM
##ORIGIN=Curtin University
##OWNER=Nicolet
##LONGDATE=2024/07/18
##TIME=16:33:54
##SPECTROMETER/DATA SYSTEM=Nicolet iS50
##DATA PROCESSING=
Ratio against background
%Transmittance->Absorbance
ATR Correction
Truncated
ElementMultiply or ElementDivide
##COMMENTS=
Number of sample scans: 32
Collection length: 47.28 sec
Sample gain: 1.0
Background collected on: Thu Jul 18 16:32:18 2024 (GMT+08:00);
Number of background scans: 32
Background gain: 1.0
Sample spacing:  1.000
Number of scan points: 16672
Resolution points: 8192
Number of FFT points: 65536
Apodization: N-B strong;
Phase correction: Mertz;
Laser frequency: 15798.3 cm-1
Number of rejected sample scans: 0
Number of rejected background scans: 0
Bench serial number: AUP1200105;
##RESOLUTION=4.000
##XUNITS=1/CM
##YUNITS=ABSORBANCE
##FIRSTX=400.163452
##LASTX=4000.187744
##FIRSTY=0.055927
##MAXX=4000.187744
##MINX=400.163452
##MAXY=0.901822
##MINY=-0.027530
##XFACTOR=1.000000
##YFACTOR=1.000000E-009
##NPOINTS=7468
##DELTAX=0.482125
##ZPD=8192
##XYDATA=(X++(Y..Y))
400.163 55927096 54534072 52968068 51381592 49950776 48853244 48211364 
403.538 48047724 48272720 48703468 49114172 49299228 49125388 48557908 
406.913 47655776 46540724 45356328 44231256 43256692 42481376 41916768 
410.288 41547308 41337252 41233572 41170744 41077156 40889564 40569660 
413.663 40116544 39568748 38991704 38453104 37999068 37637176 37335492 
417.038 37037928 36686292 36242036 35698128 35074560 34406880 33727692 
420.412 33056642 32399398 31756378 31134106 30553610 30048298 29653708 
423.787 29392030 29260774 29230626 29254674 29283950 29285318 29250346 
427.162 29194752 29147020 29132010 29157062 29205476 29242074 29225570 
430.537 29124908 28932150 28667786 28375768 28110216 27924402 27853414 
433.912 27908340 28073510 28313248 28580996 28831654 29031560 29164918 
437.286 29234964 29258522 29257142 29247534 29233972 29206074 29142988 
440.661 29022212 28829254 28566208 28252320 27919340 27600424 27318718 
444.036 27079196 26867698 26657356 26420624 26141314 25824288 25497556 
447.411 25206448 25002830 24930776 25014828 25252792 25614052 26045418 
450.786 26480264 26851266 27102454 27199710 27135990 26930654 26622260 
454.161 26256748 25875268 25504350 25152946 24815974 24483298 24149506 
457.535 23820716 23516496 23263902 23090156 23012816 23035630 23147694 
460.910 23328472 23552790 23795570 24033674 24244782 24405282 24498386 
464.285 24510694 24440438 24300928 24121006 23938766 23790910 23701544 
467.660 23674898 23693956 23728148 23744072 23717470 23639618 23516928 
471.035 23364646 23198470 23027988 22855230 22677882 22495566 22314062 
474.409 22146420 22008762 21913846 21865008 21854306 21863528 21870292 
477.784 21853528 21797808 21695014 21543608 21347632 21116402 20865350 
481.159 20616976 20398720 20238864 20158416 20164042 20244024 20370808 
484.534 20508846 20626182 20703998 20740994 20750430 20751436 20758870 
487.909 20776800 20797262 20806822 20794834 20762376 20724356 20706146 
491.284 20734686 20829320 20994036 21217218 21475844 21743726 21997954 
494.658 22228948 22436390 22628598 22817376 23013414 23223044 23446028 
498.033 23675014 23896778 24093356 24245556 24336604 24356976 24307492 
501.408 24199786 24054220 23894032 23738652 23598454 23472428 23351164 
504.783 23221114 23071780 22899710 22709840 22513226 22322808 22148656 
508.158 21996158 21865468 21754226 21659066 21577272 21505416 21438052 
511.532 21364920 21271986 21143568 20967106 20738028 20463536 20162704 
514.907 19862772 19593820 19381468 19241386 19176336 19176360 19222320 
518.282 19290590 19358954 19409814 19433018 19425724 19391334 19337088 
521.657 19272378 19206210 19147120 19100960 19071090 19057396 19055766 
525.032 19056582 19049890 19022926 18964292 18866048 18726216 18548886 
528.406 18343312 18122210 17898908 17686074 17493998 17330508 17200464 
531.781 17105008 17040936 17000112 16970094 16936238 16885980 16812008 
535.156 16715677 16606214 16498234 16405875 16337650 16293438 16264739 
538.531 16237920 16199779 16141735 16061513 15962467 15850268 15730208 
541.906 15606241 15481498 15360929 15252028 15164215 15105112 15075930 
545.281 15068150 15064476 15043419 14987563 14890358 14760315 14618770 
548.655 14493377 14408584 14378401 14402496 14469089 14560277 14659146 
552.030 14753491 14836904 14906418 14959752 14992571 15000557 14981043 
555.405 14936040 14871832 14799553 14729337 14667443 14614884 14569306 
558.780 14528335 14493559 14471206 14470531 14499310 14559762 14646210 
562.155 14746894 14848271 14939882 15017615 15082973 15139656 15189869 
565.529 15231579 15260063 15271684 15269371 15264633 15275681 15320931 
568.904 15411174 15542818 15697271 15845962 15959652 16018398 16018255 
572.279 15971795 15902838 15837414 15795900 15788235 15813440 15864005 
575.654 15930945 16008081 16093429 16188258 16294381 16411979 16538959 
579.029 16671166 16804860 16937330 17067934 17196578 17323260 17445684 
582.404 17559760 17659126 17736748 17785996 17802990 17787410 17744800 
585.778 17686208 17628184 17589454 17587504 17633046 17726714 17857012 
589.153 18003026 18139572 18244400 18303838 18316796 18293092 18249658 
592.528 18203848 18168726 18149864 18146384 18152868 18163192 18172366 
595.903 18177168 18175556 18166086 18147644 18121416 18092094 18068898 
599.278 18064060 18088966 18149090 18240648 18348854 18451808 18526622 
602.652 18556844 18538290 18480342 18402504 18328032 18275692 18255262 
606.027 18265902 18299540 18347134 18404824 18477044 18576168 18717782 
609.402 18914112 19167978 19470344 19801126 20134512 20445482 20716054 
612.777 20938612 21116400 21260204 21383984 21500426 21618476 21742164 
616.152 21872754 22010018 22154524 22307922 22472844 22651210 22843522 
619.527 23047228 23257498 23467452 23669188 23854964 24018508 24156240 
622.901 24268516 24360418 24442324 24528510 24634674 24773868 24953472 
626.276 25172212 25420386 25683172 25945792 26198440 26440654 26681056 
629.651 26933908 27212704 27523490 27859998 28203322 28525644 28797790 
633.026 28997058 29113956 29153954 29136050 29086408 29031938 28993630 
636.401 28983574 29004454 29052638 29122246 29208362 29309870 29429076 
639.775 29570202 29737076 29930960 30149522 30387340 30636564 30888796 
643.150 31136674 31374264 31598174 31806908 32001328 32183946 32359242 
646.525 32532368 32708992 32893912 33090572 33300296 33523292 33759832 
649.900 34012036 34283852 34581348 34910120 35272408 35663832 36072140 
653.275 36477436 36855360 37181648 37436940 37610432 37701372 37718104 
656.650 37675664 37592396 37487084 37376684 37274948 37191108 37130280 
660.024 37092952 37076712 37078196 37095936 37131812 37192352 37286272 
663.399 37420924 37598276 37811416 38045444 38281452 38502336 38699172 
666.774 38874792 39042144 39218736 39419668 39651072 39907512 40175180 
670.149 40437176 40680660 40900764 41100704 41288132 41469820 41647708 
673.524 41818484 41976540 42118216 42245924 42368220 42496944 42642192 
676.898 42808568 42993496 43189576 43389296 43588828 43790032 43997216 
680.273 44213096 44434372 44649424 44841408 44994240 45099612 45161812 
683.648 45197512 45231504 45289132 45388320 45535596 45725792 45945240 
687.023 46176696 46404568 46617556 46810168 46982232 47138300 47287132 
690.398 47440044 47609540 47806388 48036664 48299948 48589068 48892852 
693.773 49200148 49503700 49802060 50098924 50399276 50707304 51023328 
697.147 51346396 51676904 52021068 52391780 52806472 53280688 53821308 
700.522 54421780 55062008 55713948 56349704 56950012 57508132 58028984 
703.897 58522896 58998552 59457356 59892384 60291308 60641968 60937056 
707.272 61176156 61364800 61511460 61625600 61717136 61797916 61883384 
710.647 61991276 62138520 62334920 62576680 62844740 63108168 63333192 
714.021 63495592 63590684 63637868 63678116 63765056 63954844 64298748 
717.396 64841748 65627916 66710324 68159840 70070832 72559536 75755288 
720.771 79786080 84761704 90755464 97787264 105809760 114697152 124240368 
724.146 134151440 144078912 153635344 162435664 170138864 176485520 
727.039 181320704 184598304 186366800 186742192 185879408 183945936 
729.931 181105344 177507232 173283584 168547280 163393056 157898832 
732.824 152129856 146143248 139994352 133740872 127445592 121175480 
735.717 114998952 108982328 103187440 97669016 92474768 87645408 83214000 
739.091 79204856 75632496 72500584 69801952 67519808 65629832 64101628 
742.466 62900512 61988492 61325260 60870160 60585200 60438264 60407080 
745.841 60479600 60653204 60929604 61309672 61787412 62347608 62966780 
749.216 63617468 64274296 64919620 65546304 66157140 66760936 67366968 
752.591 67979536 68593968 69195728 69760368 70256880 70650864 70908936 
755.966 71002592 70912224 70629808 70160456 69521392 68739072 67844792 
759.340 66869380 65839068 64772724 63681700 62570892 61440980 60291036 
762.715 59120444 57930464 56725056 55511552 54300676 53105892 51942052 
766.090 50822836 49758300 48752356 47802516 46900320 46033964 45191532 
769.465 44364096 43547096 42741092 41950128 41179904 40435476 39720184 
772.840 39034752 38377568 37745152 37133052 36537304 35955056 35385544 
776.214 34830708 34295168 33785160 33306610 32863074 32453664 32071662 
779.589 31705360 31339358 30958072 30548868 30105046 29627310 29123994 
782.964 28609630 28101924 27618638 27173922 26775986 26425136 26114768 
786.339 25833396 25568380 25309968 25054642 24806180 24575074 24374530 
789.714 24217016 24109372 24051184 24034446 24045770 24068772 24087452 
793.089 24087390 24056498 23985014 23866026 23696506 23479350 23224210 
796.463 22947636 22670896 22415494 22198570 22029494 21908700 21829598 
799.838 21782486 21759648 21757104 21775460 21817494 21884050 21970992 
803.213 22069688 22167342 22251144 22311998 22346184 22355954 22347354 
806.588 22326678 22298180 22263058 22219782 22164864 22094606 22005334 
809.963 21893722 21756546 21592434 21402404 21192708 20975460 20767516 
813.337 20587672 20451750 20368508 20337102 20348052 20386824 20439208 
816.712 20495896 20554522 20618216 20692062 20778786 20876120 20976770 
820.087 21071232 21152372 21219104 21277560 21339952 21420206 21529126 
823.462 21670748 21840076 22024530 22207318 22371666 22504962 22602214 
826.837 22666700 22709672 22747216 22796984 22873368 22984330 23129294 
830.212 23300194 23484506 23670184 23850464 24026710 24208110 24407710 
833.586 24636652 24900130 25193358 25504210 25817118 26120660 26412192 
836.961 26700374 27002222 27337644 27722836 28165684 28663816 29208122 
840.336 29786666 30390404 31015420 31662878 32335904 33035730 33758100 
843.711 34492400 35222480 35929868 36595980 37205552 37747104 38214200 
847.086 38604584 38921864 39175576 39382700 39567148 39758240 39987552 
850.460 40284956 40674656 41173204 41789512 42527688 43389972 44381140 
853.835 45510340 46791676 48241464 49873920 51696064 53702916 55874744 
857.210 58177832 60567472 62994188 65411008 67779208 70072272 72275944 
860.585 74385864 76402816 78327944 80160312 81895632 83528192 85053416 
863.960 86470152 87782288 88997784 90127352 91181776 92170288 93100000 
867.335 93975904 94802488 95583592 96321880 97016776 97661072 98237352 
870.709 98715672 99053464 99198504 99095000 98691672 97950088 96852424 
874.084 95404088 93634232 91589416 89326448 86902568 84367440 81758336 
877.459 79098704 76402488 73679776 70944024 68217928 65534740 62937060 
880.834 60470500 58177068 56088356 54221044 52576956 51145348 49908152 
884.209 48844952 47937612 47172552 46540816 46036496 45654476 45387288 
887.583 45223904 45149056 45143516 45187084 45260024 45346804 45436460 
890.958 45524052 45608828 45692620 45776744 45860404 45939276 46005616 
894.333 46049984 46062656 46036312 45966996 45855588 45707604 45532952 
897.708 45344784 45157844 44986592 44843436 44736688 44669044 44637608 
901.083 44634264 44647600 44665348 44676172 44672376 44649968 44609664 
904.458 44556008 44496376 44439960 44395628 44370580 44368624 44389320 
907.832 44428536 44479032 44533768 44588616 44644352 44708096 44791388 
911.207 44907560 45067696 45277240 45533572 45826824 46141692 46461372 
914.582 46771188 47061872 47330368 47580044 47818716 48056120 48301132 
917.957 48558996 48829792 49107788 49382792 49642372 49875804 50077192 
921.332 50248476 50399316 50545168 50702800 50885692 51100060 51343456 
924.706 51606776 51878388 52148948 52415336 52682636 52961928 53267136 
928.081 53610440 53998536 54431444 54902748 55402108 55916884 56434796 
931.456 56944152 57434036 57894024 58314864 58688436 59008960 59274104 
934.831 59483968 59641108 59748744 59809936 59827680 59805616 59749232 
938.206 59667040 59570252 59471572 59382856 59313464 59269024 59252140 
941.581 59264072 59306652 59383716 59500484 59661724 59869808 60122516 
944.955 60413772 60735568 61082008 61453024 61855832 62304044 62814288 
948.330 63400216 64068504 64815620 65628992 66489876 67377768 68274672 
951.705 69165456 70037360 70876584 71664736 72377392 72984448 73453360 
955.080 73753304 73859464 73755384 73433816 72895856 72149408 71208448 
958.455 70093408 68830896 67454432 66003152 64519732 63047328 61625924 
961.829 60289240 59062736 57963152 56998612 56169944 55471316 54892140 
965.204 54418316 54034552 53726124 53481664 53293744 53159068 53077016 
968.579 53046580 53064100 53121648 53207576 53308500 53412648 53512724 
971.954 53607056 53699996 53798732 53911196 54042940 54196168 54369392 
975.329 54559044 54761260 54972412 55190612 55415248 55646552 55884892 
978.703 56130448 56382416 56639516 56899076 57158208 57413564 57663908 
982.078 57910020 58155656 58407436 58673348 58960696 59273528 59611900 
985.453 59972080 60347588 60731992 61121040 61512744 61908124 62307912 
988.828 62712908 63123228 63539380 63964360 64404888 64871640 65377520 
992.203 65933892 66546792 67214720 67928576 68674344 69438304 70211000 
995.578 70991104 71785072 72605280 73466664 74382208 75361128 76407352 
998.952 77520072 78694184 79921288 81189480 82484176 83789704 85091384 
1002.327 86379888 87654680 88926992 90219680 91565000 92999744 94559464 
1005.702 96274256 98165984 100249560 102535520 105034672 107762976 110744056 
1009.077 114010128 117602320 121568192 125960696 130835576 136249312 
1011.970 142253824 148889184 156170864 164074144 172516208 181341632 
1014.862 190314928 199126384 207416144 214813568 220988656 225704528 
1017.755 228857312 230493936 230802000 230074880 228664688 226931568 
1020.648 225201328 223738160 222731312 222295440 222479200 223279040 
1023.540 224654464 226542416 228871760 231573824 234591296 237882992 
1026.433 241424192 245203936 249219696 253471584 257957456 262671648 
1029.326 267606256 272754080 278112640 283685984 289484160 295519648 
1032.219 301801216 308328480 315087552 322048768 329169024 336394880 
1035.113 343667264 350925984 358112256 365169664 372042688 378675296 
1038.006 385010496 390990656 396559264 401664416 406262432 410319968 
1040.899 413816128 416740832 419093152 420877088 422099008 422763360 
1043.792 422873184 422430208 421439392 419913408 417878304 415375840 
1046.685 412464000 409214464 405706976 402023360 398243552 394441408 
1049.578 390684128 387029920 383527456 380214048 377112320 374228992 
1052.471 371554624 369066784 366735616 364531904 362434464 360436224 
1055.364 358546720 356792736 355215584 353867328 352807744 352101376 
1058.257 351816704 352024032 352795424 354201824 356311328 359186304 
1061.150 362880928 367439136 372893984 379268032 386573984 394815936 
1064.043 403989856 414083328 425074592 436931552 449611392 463060480 
1066.936 477217376 492015168 507385920 523262784 539581696 556282560 
1069.829 573306048 590591040 608071232 625670912 643303936 660874304 
1072.722 678281216 695426304 712223424 728605056 744527232 759964032 
1075.615 774900480 789320384 803195840 816481216 829110592 841004096 
1078.509 852074432 862232448 871392896 879475200 886406784 892120448 
1081.402 896558976 899675904 901437184 901821696 900824640 898459264 
1084.295 894760000 889789376 883637824 876420672 868272256 859332416 
1087.188 849738880 839618560 829087424 818252352 807215424 796075584 
1090.081 784925504 773844992 762894272 752107584 741493952 731039744 
1092.974 720716928 710491776 700331968 690210752 680110848 670023744 
1095.867 659949312 649894336 639869184 629883520 619942528 610041984 
1098.760 600168512 590299712 580409152 570472640 560473088 550403136 
1101.653 540265664 530071968 519838272 509585152 499337856 489128448 
1104.546 478998336 469000576 459199584 449668672 440487616 431739104 
1107.439 423506496 415870112 408904704 402676544 397238688 392627552 
1110.332 388859392 385929280 383811552 382462400 381823424 381824288 
1113.225 382386688 383426624 384856160 386586432 388531456 390612736 
1116.118 392764672 394939008 397107392 399260864 401406144 403559584 
1119.011 405740416 407964064 410237792 412559136 414915968 417287040 
1121.905 419644256 421952992 424171872 426251648 428134688 429755776 
1124.798 431045152 431934752 432363584 432286400 431676992 430531520 
1127.691 428865792 426710368 424104000 421087360 417698656 413970880 
1130.584 409931360 405600992 400994336 396117344 390966848 385529920 
1133.477 379787520 373717920 367303904 360537664 353424480 345983456 
1136.370 338244096 330242912 322019744 313616064 305074752 296441376 
1139.263 287765056 279098112 270495424 262012160 253702640 245619664 
1142.156 237814112 230336032 223232560 216545920 210310496 204549824 
1145.049 199276320 194491472 190190688 186366304 183012112 180124112 
1147.942 177699632 175733536 174215056 173124768 172435120 172112352 
1150.835 172121728 172431520 173016224 173857200 174939840 176250448 
1153.728 177772112 179482336 181352400 183350208 185442784 187601424 
1156.621 189804800 192040832 194306864 196608288 198956080 201362928 
1159.514 203841056 206399344 209043136 211775152 214597824 217516816 
1162.407 220543376 223697072 227005888 230504512 234233168 238234880 
1165.301 242554208 247237040 252331072 257887520 263961824 270613536 
1168.194 277905984 285905152 294677920 304292448 314817312 326320864 
1171.087 338870272 352526464 367339584 383338720 400522336 418848064 
1173.980 438222752 458494784 479449920 500809728 522233184 543323968 
1176.873 563643008 582726400 600111936 615368192 628125632 638102720 
1179.766 645126208 649140288 650203264 648476736 644205184 637692992 
1182.659 629279232 619313216 608136256 596067264 583394496 570371968 
1185.552 557218240 544115712 531211552 518619712 506423424 494680736 
1188.445 483428800 472690304 462478400 452798336 443649440 435025600 
1191.338 426915584 419304576 412176288 405515328 399308864 393545824 
1194.231 388216640 383309984 378811936 374705664 370972352 367593952 
1197.124 364554272 361840000 359440320 357343904 355537408 354004224 
1200.017 352723552 351672832 350829088 350169600 349672512 349315840 
1202.910 349076448 348929344 348847776 348806336 348781344 348750976 
1205.803 348695680 348596096 348431232 348177568 347810016 347304736 
1208.697 346641472 345807712 344798272 343614432 342261376 340744320 
1211.590 339067872 337234304 335245152 333104320 330818304 328397664 
1214.483 325856832 323213600 320487904 317700928 314874752 312030304 
1217.376 309187168 306361088 303563328 300800480 298074976 295388096 
1220.269 292741408 290138368 287584512 285086592 282650336 280279328 
1223.162 277974208 275733504 273554528 271435488 269375936 267376368 
1226.055 265437520 263559280 261739616 259975168 258262032 256597552 
1228.948 254981936 253419008 251916384 250484400 249136192 247885360 
1231.841 246746672 245735088 244864992 244151168 243607168 243245056 
1234.734 243073824 243100096 243325664 243748256 244362080 245158448 
1237.627 246127616 247259616 248544208 249970960 251527872 253200176 
1240.520 254969008 256811536 258701408 260609840 262507136 264363312 
1243.413 266147680 267828768 269374240 270752064 271934624 272902240 
1246.306 273648640 274183296 274531616 274730240 274821248 274844672 
1249.199 274834560 274816480 274810112 274832448 274901056 275035040 
1252.093 275252416 275565856 275979040 276485152 277067904 277707424 
1254.986 278385952 279092896 279827200 280594944 281406848 282273056 
1257.879 283200128 284190752 285243616 286355808 287523552 288741920 
1260.772 290003136 291296128 292604576 293908576 295185248 296410240 
1263.665 297557600 298600096 299507808 300247744 300784768 301085120 
1266.558 301118752 300860992 300293984 299404736 298183328 296621504 
1269.451 294713216 292456640 289857280 286929760 283698016 280192288 
1272.344 276445120 272487136 268344608 264040352 259594288 255026720 
1275.237 250359840 245617840 240824736 236003840 231175744 226358928 
1278.130 221570160 216825312 212139232 207525648 202995888 198557936 
1281.023 194218080 189981776 185857040 181855504 177991984 174282096 
1283.916 170738576 167367008 164164784 161122208 158226160 155466208 
1286.809 152838608 150347952 148005552 145825264 143817568 141985536 
1289.702 140322784 138815296 137445104 136194656 135050128 134002816 
1292.595 133047104 132178288 131389560 130670216 130006328 129382344 
1295.489 128783896 128200816 127628032 127066328 126520712 125998992 
1298.382 125509440 125059512 124655040 124299072 123992224 123732192 
1301.275 123513616 123328440 123166288 123015512 122863688 122699288 
1304.168 122512664 122296328 122045016 121756200 121428840 121062944 
1307.061 120658880 120217648 119739712 119225000 118673128 118082264 
1309.954 117448944 116768208 116034288 115240920 114383696 113460808 
1312.847 112475416 111435728 110354864 109250304 108142120 107050424 
1315.740 105994120 104988600 104045336 103170984 102367360 101631984 
1318.633 100959600 100342984 99773608 99243648 98745280 98271752 97817024 
1322.008 97376616 96947240 96527744 96119680 95727024 95356232 95015112 
1325.384 94711232 94451288 94239528 94078768 93970176 93915672 93918408 
1328.759 93983744 94119048 94332120 94630328 95018384 95497880 96067208 
1332.134 96722528 97458448 98270304 99152712 100100808 101107744 102163904 
1335.509 103255920 104366680 105476056 106563544 107609800 108598880 
1338.402 109519368 110364664 111133536 111829248 112459304 113034896 
1341.295 113570608 114083648 114592720 115117032 115674976 116283304 
1344.188 116955760 117703640 118535248 119457328 120475512 121594768 
1347.082 122819136 124150928 125589312 127128808 128759056 130464568 
1349.975 132226752 134025304 135840880 137656560 139457408 141231120 
1352.868 142965008 144646064 146259552 147790320 149224160 150550480 
1355.761 151763392 152862176 153849808 154731568 155513072 156199280 
1358.654 156795392 157308160 157746720 158123456 158452960 158750560 
1361.547 159029552 159299376 159564560 159823616 160069536 160289664 
1364.440 160465264 160571296 160577376 160448944 160151120 159651600 
1367.333 158924528 157952672 156728736 155255008 153543920 151618064 
1370.226 149513024 147280128 144988128 142724080 140589072 138693728 
1373.119 137148576 136054720 135494864 135525136 136170016 137419408 
1376.012 139228256 141519952 144190112 147114896 150160032 153190864 
1378.905 156083904 158734624 161062432 163010016 164539056 165624224 
1381.798 166247792 166395408 166057232 165229728 163919456 162144656 
1384.691 159937232 157339920 154403888 151184896 147737632 144112416 
1387.584 140351936 136489440 132550496 128554720 124519448 120463656 
1390.478 116408416 112377344 108394184 104480984 100657168 96939584 93344616 
1393.853 89890424 86598112 83489824 80587272 77906456 75455304 73232008 
1397.228 71227120 69426208 67814536 66380888 65119252 64028680 63113152 
1400.603 62378628 61832048 61480528 61330832 61389084 61659656 62143188 
1403.979 62833928 63716820 64764552 65936684 67179824 68429072 69611896 
1407.354 70651632 71473880 72011688 72211904 72041504 71490792 70576600 
1410.729 69338944 67837752 66144340 64333632 62476080 60632488 58850212 
1414.104 57163848 55594700 54154524 52846108 51666544 50608384 49662572 
1417.479 48819076 48069760 47408168 46831020 46335956 45921648 45585584 
1420.855 45323864 45131112 45001796 44930032 44910280 44935792 44998700 
1424.230 45088092 45191612 45296472 45393268 45478900 45558676 45645984 
1427.605 45760552 45924520 46158064 46477768 46894768 47415892 48047408 
1430.980 48795076 49666248 50669024 51810768 53096444 54528728 56107776 
1434.356 57833368 59705996 61728404 63906452 66249220 68769496 71484808 
1437.731 74417544 77594848 81045976 84798912 88875552 93287400 98032608 
1441.106 103095176 108446224 114046096 119846304 125789912 131813064 
1443.999 137844848 143810832 149636928 155254416 160603520 165635632 
1446.892 170312704 174605968 178495184 181967840 185019968 187655616 
1449.785 189884384 191719168 193171344 194249344 194957584 195297776 
1452.678 195271168 194878432 194118960 192988320 191476736 189570592 
1455.572 187256512 184528112 181390432 177863072 173977088 169768832 
1458.465 165275408 160530768 155567360 150419968 145129040 139740640 
1461.358 134304512 128866880 123467232 118134776 112890128 107749928 
1464.251 102731384 97855232 93145680 88628128 84325000 80253376 76423536 
1467.626 72839464 69500784 66403724 63542404 60908644 58492776 56282860 
1471.001 54264488 52421816 50736740 49189048 47758620 46425188 45171696 
1474.376 43985176 42857332 41784780 40766924 39802876 38890212 38023612 
1477.752 37195412 36396796 35621044 34863228 34122276 33398248 32692532 
1481.127 32005676 31337776 30688584 30058172 29447418 28857576 28289066 
1484.502 27741192 27211494 26697192 26196402 25710034 25241916 24798006 
1487.877 24383760 24002120 23652540 23331168 23033482 22757022 22503100 
1491.253 22277296 22086198 21935490 21826352 21755012 21714192 21696524 
1494.628 21697484 21718056 21763594 21842068 21960702 22122844 22328510 
1498.003 22575784 22864542 23198890 23588116 24044012 24576344 25186236 
1501.378 25862494 26578944 27295840 27964584 28534090 28956660 29194970 
1504.754 29225650 29042646 28658084 28100470 27411742 26640606 25836224 
1508.129 25042614 24293770 23612692 23011416 22493052 22054118 21686610 
1511.504 21380434 21124440 20907706 20721212 20557732 20412554 20283356 
1514.879 20169164 20069508 19983580 19910028 19847366 19794458 19750742 
1518.255 19716848 19693190 19679892 19675140 19675154 19675010 19669928 
1521.630 19656476 19634080 19604856 19572236 19540058 19510720 19485108 
1525.005 19462960 19443662 19427160 19413872 19403958 19396798 19389162 
1528.380 19376662 19353828 19316268 19263078 19196392 19121790 19045472 
1531.756 18972662 18905716 18843694 18782998 18719494 18650570 18576640 
1535.131 18500262 18425674 18356958 18296472 18244952 18202036 18166954 
1538.506 18139804 18122228 18117006 18126296 18151010 18188742 18234110 
1541.881 18278504 18312052 18325134 18310522 18264518 18188830 18089814 
1545.257 17977804 17864326 17760896 17675248 17610446 17564348 17531280 
1548.632 17503508 17473716 17437160 17392830 17341938 17288008 17234630 
1552.007 17184596 17138858 17097368 17059600 17025024 16993600 16965272 
1555.382 16940250 16917964 16897776 16878842 16861424 16846960 16838306 
1558.758 16839068 16852700 16880586 16921844 16972722 17027772 17080732 
1562.133 17126396 17161948 17187748 17206442 17223066 17242892 17270172 
1565.508 17307152 17353674 17407898 17467378 17530938 17599660 17676800 
1568.883 17767118 17875484 18005292 18157378 18329574 18518606 18720862 
1572.259 18934112 19157838 19392658 19639018 19895650 20158332 20419062 
1575.634 20668960 20897982 21097802 21262328 21387834 21472216 21513586 
1579.009 21510330 21461170 21366454 21228916 21053616 20848440 20622836 
1582.384 20386802 20149890 19921562 19711206 19527248 19376654 19262518 
1585.760 19182908 19129724 19090298 19050146 18996774 18924382 18834754 
1589.135 18737402 18645462 18571718 18523972 18503868 18505952 18521798 
1592.510 18542692 18563866 18584018 18605702 18632926 18669014 18715498 
1595.885 18772166 18838652 18915782 19006126 19113728 19242800 19396428 
1599.260 19575468 19779032 20005414 20253242 20522010 20811970 21122852 
1602.636 21452996 21798504 22154142 22514780 22876744 23238494 23600476 
1606.011 23962740 24322866 24674112 25005202 25302552 25553260 25748222 
1609.386 25884528 25965352 25997768 25990322 25949954 25880628 25783780 
1612.761 25659554 25509226 25336214 25146734 24947820 24746630 24548536 
1616.137 24355758 24168574 23986256 23809256 23639682 23481802 23340388 
1619.512 23220380 23123724 23050322 22997304 22960406 22935866 22921250 
1622.887 22916340 22922592 22942072 22976070 23024050 23083630 23150310 
1626.262 23218592 23283018 23338562 23381098 23407986 23418152 23412362 
1629.638 23393678 23367214 23340342 23320268 23314368 23328022 23362860 
1633.013 23418860 23492792 23579868 23674390 23770208 23861100 23940110 
1636.388 24001344 24039376 24051734 24039002 24006326 23962176 23917264 
1639.763 23882442 23865578 23871246 23898898 23944732 24002520 24065574 
1643.139 24127766 24183914 24230228 24264338 24286000 24298028 24306554 
1646.514 24320108 24348400 24398454 24472658 24566804 24671190 24773268 
1649.889 24861834 24931262 24982720 25025030 25071160 25134490 25223666 
1653.264 25340534 25480420 25634150 25793110 25951854 26109802 26270490 
1656.640 26439386 26621288 26818210 27029432 27251342 27480116 27712514 
1660.015 27947860 28187412 28434442 28691712 28961200 29242628 29533620 
1663.390 29830114 30128262 30425148 30721220 31019238 31326712 31652066 
1666.765 32003778 32388952 32810032 33265262 33747736 34247248 34752896 
1670.141 35254988 35746992 36226328 36694644 37157036 37619980 38090356 
1673.516 38573736 39073212 39589340 40120072 40662340 41213288 41771476 
1676.891 42337456 42912904 43499192 44095896 44699268 45303328 45900628 
1680.266 46485200 47054756 47611252 48160608 48710308 49266676 49833728 
1683.642 50413220 51005100 51610568 52232924 52877924 53551240 54257956 
1687.017 54999516 55774436 56579992 57414932 58281112 59184572 60133548 
1690.392 61136576 62198944 63323140 64509592 65760948 67084880 68495784 
1693.767 70013824 71659832 73451128 75396040 77494504 79742544 82139840 
1697.143 84697248 87442264 90418432 93680184 97283384 101277256 105698112 
1700.518 110569488 115908096 121733632 128078688 134994192 142548384 
1703.411 150820672 159891136 169831280 180695040 192516592 205309696 
1706.304 219071200 233781856 249408560 265902720 283199136 301216352 
1709.197 319857312 339008832 358539328 378295648 398097984 417740960 
1712.090 436998112 455635360 473424864 490158272 505654688 519765088 
1714.983 532378016 543427840 552909696 560889664 567504320 572943616 
1717.876 577415872 581109568 584164160 586661440 588636480 590102144 
1720.769 591071360 591569856 591634112 591301248 590602624 589560192 
1723.662 588197824 586551936 584680960 582661888 580576448 578494464 
1726.555 576457216 574476160 572542976 570644352 568777472 566956608 
1729.448 565207296 563556288 562021440 560608320 559317568 558156800 
1732.342 557148928 556337536 555777664 555526144 555629760 556123840 
1735.235 557040064 558419712 560325952 562844160 566073792 570109248 
1738.128 575021632 580847744 587590720 595232576 603751680 613134976 
1741.021 623379520 634480448 646412288 659113856 672481856 686377792 
1743.914 700641472 715105216 729600000 743950272 757967296 771444480 
1746.807 784166144 795926208 806551168 815915968 823943168 830587136 
1749.700 835812224 839574272 841818048 842487744 841545792 838985472 
1752.593 834833152 829136448 821948608 813317696 803286080 791901248 
1755.486 779229632 765366144 750434752 734578112 717944512 700674688 
1758.379 682900032 664741184 646315520 627742272 609142720 590637120 
1761.272 572339776 554355072 536773280 519669280 503103616 487119808 
1764.165 471745120 456989792 442848704 429305632 416340288 403931872 
1767.058 392066208 380733120 369924512 359627648 349819968 340465728 
1769.951 331517152 322918688 314612864 306545792 298672864 290958944 
1772.844 283378656 275913312 268549504 261274608 254075584 246936448 
1775.738 239839056 232761488 225681056 218577040 211435216 204252144 
1778.631 197037296 189815072 182620192 175493056 168472976 161591712 
1781.524 154870736 148319920 141941072 135732448 129693968 123830392 
1784.417 118152816 112677560 107424608 102415240 97669040 93202232 89026480 
1787.792 85146744 81559744 78253384 75208720 72400816 69803872 67394200 
1791.167 65151832 63060148 61105128 59271776 57545044 55909628 54352984 
1794.542 52867560 51452328 50110548 48848452 47670440 46578740 45571200 
1797.918 44645884 43799964 43032788 42342132 41722676 41161556 40639124 
1801.293 40131612 39617752 39084120 38531008 37968776 37415000 36884880 
1804.668 36386480 35917880 35470404 35035400 34610492 34202164 33823708 
1808.043 33487822 33199660 32951326 32722936 32488872 32225810 31921584 
1811.419 31577144 31204504 30820106 30437002 30060506 29688734 29316504 
1814.794 28941574 28570310 28217228 27901842 27642018 27447160 27314214 
1818.169 27228670 27168096 27108054 27028520 26916126 26764002 26571698 
1821.544 26342840 26083670 25802924 25511146 25218646 24934576 24664552 
1824.920 24409694 24166820 23930188 23694748 23457324 23217230 22977076 
1828.295 22739490 22506836 22278308 22051714 21822450 21586464 21339332 
1831.670 21078810 20803032 20512626 20209900 19900218 19591988 19295802 
1835.045 19023168 18785292 18588210 18432788 18312566 18215094 18123000 
1838.421 18018158 17884302 17712634 17501904 17261710 17009568 16767275 
1841.796 16555768 16387878 16265919 16178934 16106064 16023057 15910093 
1845.171 15758736 15574781 15376993 15191741 15045287 14955783 14929119 
1848.546 14956225 15016179 15078036 15108699 15077276 14963609 14760487 
1851.922 14478774 14146170 13803162 13492844 13253104 13103542 13043365 
1855.297 13048628 13082266 13105169 13088375 13020980 12913527 12789890 
1858.672 12680033 12607175 12582719 12602133 12649357 12702620 12740999 
1862.047 12748685 12719199 12652266 12554199 12434768 12305697 12178712 
1865.423 12062343 11960990 11873276 11792490 11709411 11615247 11507044 
1868.798 11387870 11268339 11161263 11079083 11028218 11009694 11018124 
1872.173 11045358 11084117 11129124 11175603 11221790 11263345 11296729 
1875.548 11318662 11328316 11327193 11319195 11306711 11288733 11258565 
1878.924 11204713 11114475 10980705 10805156 10601586 10392659 10208491 
1882.299 10075599 10016227 10039195 10142488 10311021 10519397 10734699 
1885.674 10921104 11043412 11075128 11002988 10830871 10580119 10287181 
1889.049 9994957 9746909 9576924 9507251 9543016 9676701 9887870 10147698 
1892.907 10422029 10675677 10878152 11010995 11069410 11067453 11030098 
1896.282 10986165 10957753 10953148 10962685 10966809 10943777 10882665 
1899.657 10787473 10676810 10574841 10500776 10458836 10437427 10414666 
1903.032 10367628 10283342 10163828 10021150 9872675 9730986 9599855 9476790 
1906.890 9360648 9258137 9187034 9171966 9233694 9375617 9577738 9795699 
1910.747 9974483 10061795 10028239 9873740 9633341 9362760 9130144 8993381 
1914.605 8992760 9139612 9417437 9781495 10169485 10508767 10731348 10786382 
1918.462 10651243 10334956 9877361 9334681 8769707 8233627 7761813 7370711 
1922.320 7063481 6837586 6691545 6624219 6633912 6710399 6834068 6976732 
1926.177 7111637 7219136 7298746 7364808 7446441 7567837 7744595 7970460 
1930.034 8219099 8448423 8612310 8670840 8602641 8408098 8115466 7776174 
1933.892 7458571 7234337 7163204 7273128 7554149 7950416 8379082 8747920 
1937.749 8988348 9071982 9023140 8906158 8804978 8787485 8889863 9095860 
1941.607 9350140 9569022 9666444 9573056 9252129 8701997 7966186 7118672 
1945.464 6271136 5550836 5086121 4977065 5270346 5936979 6879189 7949222 
1949.322 8990323 9876599 10541231 10977442 11223892 11323520 11295378 
1952.697 11118341 10744942 10125772 9250389 8167393 6991974 5874822 4971670 
1956.554 4395953 4199179 4359003 4790879 5374406 5987315 6523240 6922927 
1960.412 7175141 7328792 7468123 7703040 8131883 8813897 9738225 10821284 
1964.269 11916541 12851218 13471119 13687172 13493813 12974442 12265681 
1967.644 11522673 10874519 10407823 10153119 10103966 10218664 10440754 
1971.020 10692566 10890983 10942418 10777310 10362349 9734615 9001680 
1974.395 8341807 7944530 7980491 8531245 9569357 10945756 12433628 13773298 
1978.252 14751824 15234096 15199360 14717035 13917102 12947494 11947297 
1981.627 11018737 10227354 9590738 9103149 8741200 8486304 8331936 8286082 
1985.485 8355779 8535555 8786594 9042950 9222629 9261482 9129759 8859637 
1989.342 8526828 8237383 8073888 8076977 8222524 8437398 8629828 8730082 
1993.200 8718920 8638228 8568915 8603691 8802678 9171921 9654040 10148034 
1997.057 10534174 10715403 10631533 10281920 9713775 9010234 8267793 7578246 
2000.915 7011546 6616446 6411080 6399859 6565664 6886981 7329877 7847989 
2004.772 8378861 8847619 9162175 9246604 9048805 8573877 7887652 7106245 
2008.629 6369880 5809874 5505073 5480993 5691882 6052529 6449347 6771423 
2012.487 6928151 6872940 6597345 6151477 5624609 5141590 4817183 4731167 
2016.344 4878739 5162777 5399360 5378721 4927451 3988655 2649311 1120859 
2020.202 -322362 -1435307 -2098684 -2336972 -2309865 -2220916 -2239163 
2023.577 -2410012 -2659271 -2824268 -2745954 -2341632 -1652696 -830353 
2026.952 -77093 437275 628918 527991 243914 -74765 -296807 -329223 -131802 
2031.292 302303 945240 1745865 2610281 3413531 3999843 4233045 4025917 
2035.149 3391046 2430155 1326812 267182 -586659 -1154464 -1425119 -1446630 
2039.007 -1279890 -976703 -554057 -20484 627677 1375383 2190805 3025355 
2042.864 3824309 4531604 5097100 5468424 5612808 5524051 5247535 4894961 
2046.721 4635813 4655451 5100783 6007112 7270299 8659404 9893927 10732323 
2050.579 11058445 10895581 10385800 9714396 9049160 8480383 8015977 7596069 
2054.436 7150845 6644034 6113070 5648663 5364873 5338982 5575400 5997642 
2058.294 6475024 6866613 7080216 7090127 6951576 6761317 6624807 6609085 
2062.151 6731436 6951997 7201931 7405996 7513856 7508988 7415604 7282097 
2066.009 7169799 7133654 7210632 7403885 7690832 8021009 8335340 8578556 
2069.866 8718416 8748292 8691164 8582324 8460628 8351017 8263270 8193583 
2073.723 8137248 8096493 8090813 8144105 8283201 8518136 8843631 9229530 
2077.581 9640956 10038835 10393180 10679934 10883083 10983473 10965644 
2080.956 10818991 10548994 10188050 9795980 9444132 9203754 9115217 9176691 
2084.813 9339388 9521949 9632264 9596349 9372409 8961995 8399161 7738511 
2088.671 7038078 6351802 5722583 5189410 4781147 4521385 4418663 4463494 
2092.528 4622064 4845987 5079972 5285234 5450004 5599654 5785378 6068740 
2096.386 6490539 7055754 7720108 8406924 9018457 9472851 9719986 9758644 
2100.243 9627750 9396670 9137558 8913556 8755747 8671245 8642282 8642856 
2104.101 8647017 8637032 8603174 8543386 8453576 8331964 8175445 7985144 
2107.958 7769716 7546566 7337947 7166048 7042356 6969702 6937187 6930384 
2111.815 6933095 6934396 6926667 6905955 6863219 6788213 6666388 6493774 
2115.673 6276437 6038375 5815156 5645809 5555611 5551016 5612801 5705136 
2119.530 5787487 5829306 5813451 5740027 5610493 5420949 5152645 4777038 
2123.388 4264569 3603716 2812844 1945318 1081105 313126 -275060 -623260 
2127.245 -709607 -551047 -206578 231926 644295 906510 906856 581016 -66087 
2131.585 -946305 -1900038 -2730227 -3264809 -3407331 -3181101 -2725998 
2134.960 -2257692 -1994831 -2089266 -2576356 -3384364 -4362267 -5346908 
2138.335 -6203017 -6857706 -7284753 -7493881 -7504433 -7345976 -7061258 
2141.710 -6733141 -6471577 -6403308 -6625381 -7160342 -7933769 -8796087 
2145.086 -9568456 -10117293 -10406138 -10511222 -10580825 -10766721 
2147.979 -11149870 -11717224 -12371196 -12996282 -13531233 -14006956 
2150.872 -14541375 -15285284 -16338440 -17703230 -19268400 -20863126 
2153.765 -22324184 -23569224 -24609444 -25520310 -26358424 -27086380 
2156.658 -27530080 -27421786 -26495772 -24639496 -21988186 -18934796 
2159.551 -15980540 -13577115 -11947372 -11073178 -10759091 -10770485 
2162.444 -10923033 -11127323 -11355030 -11598648 -11799678 -11840910 
2165.337 -11561543 -10824034 -9579395 -7908705 -6023554 -4226370 -2834566 
2168.712 -2111371 -2201616 -3102746 -4659308 -6589439 -8529533 -10106248 
2172.088 -11013069 -11082320 -10327216 -8958755 -7331136 -5864887 -4930564 
2175.463 -4762137 -5386046 -6639800 -8237499 -9868057 -11284078 -12355884 
2178.838 -13065968 -13478900 -13676168 -13715790 -13606867 -13320391 
2181.731 -12816564 -12077989 -11119245 -9998498 -8786255 -7560069 -6382223 
2185.106 -5308153 -4378792 -3630168 -3080521 -2727512 -2528267 -2421813 
2188.482 -2341195 -2249826 -2159711 -2135790 -2264779 -2615275 -3176831 
2191.857 -3845355 -4426226 -4698924 -4481985 -3708360 -2457612 -938169 
2195.232 575200 1824031 2646709 3005704 2984895 2733227 2405140 2103743 
2199.090 1866913 1678805 1509926 1349617 1228987 1202526 1325810 1612228 
2202.947 2020558 2455517 2802830 2964901 2896084 2616938 2200393 1744007 
2206.804 1337500 1037285 863685 801850 827952 917660 1059892 1247886 1481700 
2211.144 1756699 2065822 2398470 2749463 3116921 3504552 3906428 4308869 
2215.001 4680529 4985126 5182838 5250048 5175864 4971890 4656737 4259084 
2218.859 3804219 3322663 2844899 2414290 2075706 1875050 1835335 1953474 
2222.716 2193090 2491578 2779277 3005535 3151705 3241002 3324351 3464441 
2226.574 3709986 4084327 4578132 5163830 5808515 6493684 7212449 7971389 
2230.431 8767194 9572576 10325321 10933802 11298122 11341656 11039224 
2233.806 10439037 9660851 8872717 8247101 7919105 7942326 8276132 8792679 
2237.664 9318405 9683521 9778053 9579876 9162379 8665731 8249600 8036709 
2241.521 8077229 8332391 8694323 9021888 9192641 9133077 8844065 8382377 
2245.379 7843013 7322158 6893999 6594894 6432228 6390954 6453134 6603705 
2249.236 6835559 7140544 7505933 7907769 8313404 8688141 9002629 9240050 
2253.094 9399538 9491792 9538013 9559968 9578158 9609335 9665285 9751691 
2256.951 9872660 10024900 10203230 10395431 10585936 10757027 10893168 
2260.326 10979174 11007722 10978479 10898903 10783912 10654711 10532900 
2263.701 10437583 10380366 10364150 10382966 10428191 10490737 10566597 
2267.077 10659047 10778127 10935186 11140225 11395355 11694333 12019259 
2270.452 12345492 12642553 12881572 13039054 13105833 13093275 13035374 
2273.827 12984474 13002727 13145399 13443189 13889452 14437648 15010039 
2277.202 15520305 15893077 16087374 16103441 15977990 15767777 15532425 
2280.578 15317365 15151299 15047044 15014837 15066921 15220793 15488020 
2283.953 15866762 16328825 16819858 17268730 17604660 17776868 17767812 
2287.328 17593198 17296666 16931460 16545800 16172158 15825478 15508370 
2290.703 15220358 14963673 14748021 14585499 14487904 14459267 14495771 
2294.079 14584890 14710084 14852708 14994795 15117108 15202634 15233646 
2297.454 15197734 15092162 14926882 14724839 14518500 14340720 14215928 
2300.829 14151641 14137900 14151614 14168351 14170156 14155322 14138002 
2304.204 14142355 14192481 14302745 14469643 14674937 14889975 15085902 
2307.580 15243675 15358596 15439553 15503843 15569252 15646584 15735382 
2310.955 15825549 15900038 15943125 15943022 15898310 15816206 15712734 
2314.330 15608142 15525713 15485866 15504364 15588879 15736902 15936719 
2317.705 16170755 16419617 16672626 16932052 17215416 17550128 17962102 
2321.081 18459618 19020840 19587230 20071976 20378152 20423384 20162474 
2324.456 19599636 18787522 17814966 16785196 15797239 14926649 14217456 
2327.831 13679274 13296533 13036169 12861973 12741513 12652679 12581329 
2331.206 12521136 12468899 12423836 12385564 12355025 12332062 12316451 
2334.582 12305683 12296244 12283432 12264736 12240863 12216666 12199042 
2337.957 12194424 12205406 12229572 12259707 12287028 12304082 12307948 
2341.332 12299885 12283335 12261828 12235364 12201578 12157250 12100959 
2344.707 12036784 11972355 11917726 11880618 11862764 11857806 11854578 
2348.083 11840482 11808356 11756927 11692720 11626526 11567314 11520057 
2351.458 11483340 11451334 11418451 11383109 11348858 11324845 11319828 
2354.833 11339265 11381121 11435542 11487858 11522190 11526444 11495384 
2358.208 11430810 11339508 11229443 11106783 10974756 10832340 10677079 
2361.583 10507310 10323983 10133578 9946529 9775330 9633499 9529978 9469367 
2365.441 9450414 9465949 9506256 9561935 9625481 9693881 9766753 9844728 
2369.298 9927890 10014030 10097193 10171671 10231503 10273822 10298775 
2372.674 10309044 10307328 10295918 10276081 10248768 10217547 10189177 
2376.049 10174392 10185440 10232287 10319570 10443425 10593062 10752254 
2379.424 10905323 11040857 11154699 11249621 11333738 11415822 11501534 
2382.799 11591359 11680269 11757797 11813387 11837195 11824960 11777863 
2386.175 11703561 11614680 11525052 11447470 11389943 11353598 11334762 
2389.550 11326726 11321804 11317364 11314280 11316802 11330302 11356466 
2392.925 11392660 11430472 11459158 11470451 11460805 11433345 11397124 
2396.300 11362895 11339090 11329005 11330321 11338865 11349177 11360300 
2399.676 11374880 11398391 11435982 11488470 11551279 11614515 11666272 
2403.051 11695828 11698497 11677082 11641801 11608683 11593685 11609307 
2406.426 11660250 11740891 11838349 11935207 12015404 12069561 12097657 
2409.801 12107992 12113161 12122454 12136515 12145248 12131426 12076919 
2413.177 11974192 11831239 11673447 11535835 11452061 11441482 11500173 
2416.552 11602931 11708974 11777487 11780564 11710229 11580389 11417368 
2419.927 11252364 11108714 10998258 10920599 10867884 10827880 10789243 
2423.302 10741829 10677604 10591046 10480929 10352684 10221725 10109640 
2426.677 10041920 10037989 10104217 10230095 10390901 10554394 10691627 
2430.053 10785171 10832547 10843158 10833100 10816117 10800430 10788321 
2433.428 10777424 10764978 10750243 10731918 10705352 10661327 10586062 
2436.803 10467962 10303429 10102406 9890008 9699585 9564736 9507738 9533031 
2440.661 9628261 9769250 9931053 10094494 10250426 10398102 10539069 
2444.036 10671602 10787592 10875734 10925192 10933488 10907553 10863671 
2447.411 10821577 10798637 10803958 10837727 10893231 10960408 11030154 
2450.786 11097060 11157432 11208960 11249674 11275374 11283340 11272578 
2454.162 11246195 11209531 11168494 11127770 11087691 11045540 10997039 
2457.537 10938652 10872755 10806346 10751266 10719791 10722553 10762531 
2460.912 10833415 10920640 11002549 11055647 11059789 11004068 10888289 
2464.287 10726457 10540672 10358225 10202791 10090621 10025935 10001576 
2467.663 10004355 10020258 10037407 10049359 10054709 10053531 10043761 
2471.038 10023575 9990484 9946639 9899880 9864845 9857506 9888711 9959565 
2474.895 10057017 10157990 10235991 10272112 10260443 10213799 10156530 
2478.271 10117728 10120027 10173322 10271845 10398292 10529284 10643487 
2481.646 10727351 10774455 10785353 10761941 10706601 10619905 10503761 
2485.021 10361894 10204031 10045630 9904648 9802628 9755962 9774906 9860746 
2488.878 10003384 10182567 10371671 10542134 10669852 10741440 10757945 
2492.254 10732839 10689123 10650313 10632681 10639245 10659663 10674246 
2495.629 10662867 10612560 10524401 10411070 10293028 10189827 10113414 
2499.004 10064056 10032897 10009083 9986433 9969961 9976316 10028268 
2502.379 10147774 10344440 10610812 10919248 11227218 11485737 11651539 
2505.755 11695151 11611204 11419380 11160371 10889410 10662718 10525697 
2509.130 10502204 10587675 10751208 10941712 11103071 11187843 11170565 
2512.505 11055226 10874681 10676771 10516246 10433056 10444648 10541145 
2515.880 10688694 10841374 10954289 10997331 10961352 10860047 10722477 
2519.256 10584194 10475966 10415589 10403417 10425732 10460029 10483374 
2522.631 10479640 10443074 10380241 10305318 10235604 10185882 10165614 
2526.006 10177184 10215964 10274787 10343951 10415932 10482870 10539263 
2529.381 10580448 10602524 10603104 10583282 10547787 10505333 10468286 
2532.757 10448759 10457273 10500622 10578829 10687173 10815419 10952125 
2536.132 11084912 11203243 11300146 11371098 11416930 11442217 11456460 
2539.507 11471472 11499842 11552462 11633011 11737591 11852011 11955330 
2542.882 12024457 12040708 11995275 11892564 11750197 11593391 11448735 
2546.258 11336090 11264927 11234150 11232951 11248466 11269192 11288388 
2549.633 11304008 11316388 11325613 11327499 11316744 11287959 11240625 
2553.008 11181227 11122493 11081089 11071642 11101519 11167496 11256771 
2556.383 11352759 11438604 11504714 11550383 11582623 11612647 11649624 
2559.759 11696558 11749938 11799483 11833695 11844071 11829656 11797300 
2563.134 11759526 11731864 11726257 11747956 11793453 11853143 11914060 
2566.509 11966406 12006568 12039778 12078333 12135917 12222262 12337053 
2569.884 12469805 12600811 12709914 12783905 12822418 12839735 12859387 
2573.260 12906301 12995848 13127634 13284603 13436815 13553431 13611089 
2576.635 13600070 13527165 13409117 13267618 13122534 12987790 12873762 
2580.010 12789357 12745827 12756338 12832687 12980032 13193500 13455071 
2583.385 13738630 14015516 14262483 14465259 14620422 14731038 14800551 
2586.760 14829800 14813453 14745240 14621316 14447403 14237748 14017884 
2590.136 13814142 13652065 13547032 13505409 13521914 13584153 13676509 
2593.511 13781951 13884310 13969482 14027528 14053994 14051204 14029949 
2596.886 14006941 14001089 14027917 14094936 14199390 14329010 14466367 
2600.261 14594369 14702086 14784356 14843518 14883219 14907297 14915215 
2603.637 14905128 14873357 14820676 14752415 14678181 14610134 14557989 
2607.012 14526996 14516034 14520993 14536719 14562085 14600068 14658127 
2610.387 14744421 14861074 15003473 15157688 15303383 15419228 15488952 
2613.762 15505946 15475264 15412868 15338511 15273440 15232859 15224682 
2617.138 15249192 15301843 15375964 15464895 15563360 15666006 15766058 
2620.513 15855147 15923403 15961215 15962299 15928052 15864976 15785925 
2623.888 15705531 15636042 15586017 15558280 15552493 15566466 15599231 
2627.263 15651692 15724381 15817057 15922846 16031329 16130762 16208580 
2630.639 16259026 16283140 16288863 16287159 16288642 16297905 16313903 
2634.014 16329989 16338734 16335703 16320622 16298804 16276889 16259303 
2637.389 16247390 16238127 16225846 16208503 16187696 16170962 16169744 
2640.764 16193818 16250294 16337864 16449274 16573789 16699960 16819350 
2644.140 16926698 17019158 17094220 17146266 17168884 17153942 17096002 
2647.515 16995308 16857996 16696345 16525576 16359843 16211703 16088109 
2650.890 15993781 15930597 15899912 15902087 15935011 15993262 16065620 
2654.265 16137026 16189910 16208639 16183389 16112875 16004410 15872711 
2657.641 15734369 15605549 15496511 15411819 15348355 15297821 15250575 
2661.016 15195001 15123152 15030014 14914689 14780121 14632469 14480494 
2664.391 14332864 14198067 14082189 13988363 13917127 13866170 13831115 
2667.766 13807852 13792098 13780543 13771488 13764307 13759810 13758714 
2671.142 13761825 13768520 13776468 13780566 13775256 13753449 13711106 
2674.517 13647676 13566920 13477533 13390629 13316346 13260881 13224958 
2677.892 13203291 13187987 13171060 13148832 13123631 13103001 13096734 
2681.267 13112475 13151497 13207159 13266350 13313244 13335062 13326215 
2684.643 13291000 13242100 13196421 13168907 13169111 13197045 13244350 
2688.018 13297621 13342262 13367816 13369671 13348899 13311712 13265043 
2691.393 13214750 13165072 13116822 13071983 13031462 12997966 12976282 
2694.768 12970930 12984810 13017206 13064340 13118628 13171399 13214340 
2698.144 13241113 13249897 13242046 13221977 13195751 13169061 13146071 
2701.519 13128958 13117721 13111280 13106735 13102008 13095105 13084212 
2704.894 13067515 13044375 13013883 12976223 12933103 12886527 12841839 
2708.269 12804845 12781722 12778553 12799432 12844468 12910672 12989167 
2711.645 13068602 13134437 13173218 13174105 13133082 13053216 12946230 
2715.020 12830306 12726171 12652935 12624615 12644871 12707909 12800097 
2718.395 12901979 12994432 13061960 13096988 13098854 13074650 13034396 
2721.770 12990114 12952110 12926678 12917656 12925144 12947689 12982292 
2725.146 13025484 13074080 13124432 13173977 13219068 13256953 13284797 
2728.521 13300952 13304032 13295135 13277085 13255552 13237673 13230951 
2731.896 13242438 13274162 13324209 13385177 13445890 13494623 13521383 
2735.271 13521749 13497548 13455180 13404361 13354173 13311210 13277777 
2738.646 13252772 13233538 13217421 13203222 13190581 13180321 13172352 
2742.022 13165942 13160448 13156052 13156437 13167572 13197562 13253491 
2745.397 13337772 13447209 13570678 13694024 13801947 13882289 13929958 
2748.772 13946683 13938992 13914246 13878888 13834762 13780844 13715940 
2752.147 13639758 13557006 13475710 13407394 13361203 13344073 13355638 
2755.523 13391213 13441480 13495921 13544013 13578443 13594497 13590032 
2758.898 13566337 13526822 13478139 13428702 13387480 13362987 13359493 
2762.273 13376446 13408219 13445552 13477716 13497203 13501037 13491808 
2765.648 13476279 13462409 13456322 13459499 13469171 13478845 13482119 
2769.024 13474450 13457214 13436262 13421338 13423115 13450617 13506728 
2772.399 13587759 13684248 13780311 13859961 13908954 13918995 13890163 
2775.774 13830524 13754678 13681417 13627397 13605191 13619747 13668292 
2779.149 13740886 13824030 13903020 13965821 14005061 14018027 14008426 
2782.525 13983062 13951532 13923814 13908966 13912214 13935436 13975661 
2785.900 14027476 14084542 14139478 14188455 14229415 14262816 14289497 
2789.275 14311417 14329698 14346207 14363561 14386539 14420005 14468743 
2792.650 14534167 14612914 14697037 14776035 14840350 14885098 14912138 
2796.026 14930088 14949642 14978957 15020576 15069435 15114465 15144111 
2799.401 15152355 15141251 15120936 15106814 15112516 15144253 15198850 
2802.776 15265591 15330197 15383730 15422599 15453392 15487863 15537316 
2806.151 15607788 15696844 15794976 15889479 15968086 16025230 16061079 
2809.527 16079964 16087348 16086522 16076447 16054004 16017301 15968217 
2812.902 15916377 15877085 15868379 15905764 15998347 16144177 16330253 
2816.277 16534863 16730776 16893192 17002952 17052820 17047786 17004860 
2819.652 16948566 16905704 16898552 16939252 17027268 17151350 17292934 
2823.028 17432308 17554376 17652574 17728788 17789740 17843874 17897272 
2826.403 17951160 18004406 18055388 18105436 18159974 18227278 18314394 
2829.778 18423628 18550138 18680796 18799700 18891786 18948556 18970846 
2833.153 18968070 18953182 18940578 18937890 18946258 18959786 18970168 
2836.529 18969476 18953136 18923898 18888156 18856606 18839656 18846104 
2839.904 18882266 18950644 19050592 19179550 19332670 19504892 19690592 
2843.279 19887012 20093386 20311554 20546122 20800844 21077862 21374024 
2846.654 21682550 21993460 22295230 22578628 22839400 23077040 23295752 
2850.030 23500712 23696538 23885330 24067176 24241118 24405976 24562720 
2853.405 24712202 24856732 24995926 25127742 25247552 25351666 25438046 
2856.780 25509588 25574384 25643560 25729580 25841448 25983066 26151740 
2860.155 26340140 26539472 26741612 26943176 27144350 27349302 27563576 
2863.531 27792112 28037562 28302162 28586330 28891650 29221048 29578460 
2866.906 29968490 30392738 30850976 31339150 31849914 32374314 32902620 
2870.281 33427228 33942152 34444260 34931752 35405200 35865672 36314688 
2873.656 36753124 37182156 37602236 38012880 38413268 38800644 39172928 
2877.031 39525464 39853804 40152700 40415208 40635096 40804620 40918132 
2880.407 40970636 40959144 40884132 40749116 40560220 40326592 40060084 
2883.782 39773336 39480140 39192928 38922068 38675720 38458432 38271176 
2887.157 38114656 37987984 37891652 37827260 37798060 37807324 37857156 
2890.532 37947172 38073760 38231000 38411632 38607176 38809720 39011780 
2893.908 39206504 39387868 39549816 39689952 39809152 39911164 40003804 
2897.283 40096484 40195832 40304144 40416964 40524364 40613756 40673896 
2900.658 40699416 40693184 40665584 40630840 40602824 40590100 40592872 
2904.033 40603684 40610332 40600664 40567740 40511740 40442688 40376604 
2907.409 40331984 40325240 40366952 40460512 40601292 40779468 40981928 
2910.784 41196440 41414336 41631544 41849860 42074960 42315244 42578308 
2914.159 42868276 43184980 43522352 43870924 44218692 44555664 44876812 
2917.534 45182900 45481048 45782072 46098892 46439184 46805460 47193448 
2920.910 47591932 47987132 48367208 48725772 49064616 49392496 49724684 
2924.285 50075500 50457072 50874388 51324476 51801104 52295356 52800856 
2927.660 53317136 53849176 54406308 54998612 55635388 56321988 57060980 
2931.035 57853148 58700068 59605952 60576636 61618532 62735208 63929052 
2934.411 65196528 66533976 67938184 69409896 70954736 72582056 74302416 
2937.786 76121832 78040728 80048848 82127936 84252040 86390544 88511680 
2941.161 90582472 92570624 94444064 96173320 97730616 99093288 100243424 
2944.536 101171616 101874592 102355504 102622240 102687400 102565184 
2947.429 102273048 101830304 101256560 100570648 99788672 98924880 97990616 
2950.805 96996936 95958736 94895136 93830944 92793600 91810056 90899872 
2954.180 90071832 89321320 88633760 87987248 87360760 86737344 86108360 
2957.555 85472800 84833568 84194992 83559992 82928552 82300048 81675312 
2960.930 81058208 80455112 79875072 79323504 78800712 78298928 77804696 
2964.306 77299656 76767648 76198480 75590624 74950168 74290656 73625656 
2967.681 72966416 72319160 71683680 71055888 70431648 69808664 69188888 
2971.056 68579584 67988880 67424592 66891184 66388220 65911716 65456092 
2974.431 65017356 64597300 64202308 63844912 63539712 63301712 63142904 
2977.807 63067772 63076212 63160732 63310160 63510672 63749328 64015484 
2981.182 64305356 64622364 64979024 65395556 65897504 66510616 67256032 
2984.557 68146232 69183152 70358008 71654728 73054360 74538304 76089168 
2987.932 77691000 79325520 80970280 82596400 84169680 85653888 87015416 
2991.308 88227400 89271400 90139112 90827288 91338232 91674880 91840808 
2994.683 91841232 91682112 91373784 90927592 90355808 89668896 88873784 
2998.058 87972712 86966976 85857680 84648680 83348120 81968104 80522936 
3001.433 79025456 77486600 75913760 74312216 72688384 71050824 69413768 
3004.809 67793264 66206636 64666868 63179560 61738912 60329056 58927268 
3008.184 57510208 56061136 54575604 53064928 51553240 50072688 48654124 
3011.559 47319312 46076116 44916440 43822364 42772184 41748808 40743536 
3014.934 39758284 38801040 37880104 36999092 36154268 35336932 34538120 
3018.310 33752792 32984194 32241546 31537506 30881162 30273084 29705530 
3021.685 29163744 28630496 28094952 27552706 27008462 26471028 25951012 
3025.060 25455258 24985694 24540760 24118514 23717816 23341922 22993382 
3028.435 22676156 22389326 22127786 21882336 21643290 21403696 21159272 
3031.811 20912784 20670540 20439394 20227700 20040472 19880764 19749294 
3035.186 19645868 19566400 19506310 19457846 19413144 19362708 19300410 
3038.561 19221750 19126524 19018088 18902778 18788268 18681798 18591248 
3041.936 18522954 18481014 18467484 18480020 18513326 18558706 18605944 
3045.312 18644602 18668124 18673334 18662468 18641356 18617068 18597788 
3048.687 18591510 18603568 18636636 18692264 18765746 18848992 18928482 
3052.062 18988812 19016334 19001994 18947114 18860302 18758782 18661042 
3055.437 18581858 18529446 18503722 18498938 18508328 18527684 18557114 
3058.813 18597862 18650234 18709410 18763982 18799026 18800036 18759682 
3062.188 18680836 18575934 18463598 18361016 18280944 18225354 18189922 
3065.563 18166630 18148996 18135680 18130186 18137984 18162884 18203564 
3068.938 18251984 18297430 18328664 18340206 18331118 18307072 18275896 
3072.313 18244712 18217334 18193870 18171536 18147542 18119720 18087960 
3075.689 18052166 18012022 17965460 17910104 17844808 17771018 17694216 
3079.064 17623798 17569494 17539366 17536836 17558406 17594564 17632392 
3082.439 17659158 17664612 17643774 17595596 17524524 17436244 17337794 
3085.814 17235696 17136368 17046130 16970478 16913866 16879416 16865986 
3089.190 16868514 16877264 16879380 16862416 16817238 16741138 16640542 
3092.565 16528299 16422777 16341714 16297774 16296269 16332228 16393634 
3095.940 16463889 16527832 16575281 16601443 16609017 16604120 16594127 
3099.315 16585169 16580472 16579930 16581053 16580094 16573202 16557259 
3102.691 16530173 16490590 16438711 16375573 16303675 16226551 16149199 
3106.066 16077971 16019637 15980456 15965121 15975414 16008429 16054688 
3109.441 16100237 16126821 16117224 16058600 15947802 15793692 15616184 
3112.816 15441459 15296436 15202086 15167294 15189471 15255806 15348060 
3116.192 15448281 15542797 15622512 15683129 15722867 15738469 15728775 
3119.567 15692415 15631780 15554293 15473335 15402921 15357595 15344479 
3122.942 15363805 15406786 15459725 15506613 15535080 15537268 15513058 
3126.317 15465369 15402269 15330554 15256520 15182568 15111741 15044358 
3129.693 14981671 14925680 14879425 14844799 14823485 14814121 14814200 
3133.068 14819102 14823481 14823454 14817336 14807747 14800785 14804425 
3136.443 14827188 14875488 14950392 15047084 15154638 15256346 15334843 
3139.818 15372965 15359862 15292552 15179659 15038742 14895692 14777349 
3143.194 14706557 14694495 14735394 14808428 14880436 14916958 14891425 
3146.569 14794747 14639868 14458086 14292500 14182851 14156247 14217982 
3149.944 14351352 14522959 14692950 14826284 14901710 14915500 14879235 
3153.319 14815184 14747950 14696963 14674596 14681380 14709832 14747174 
3156.695 14779978 14797674 14796021 14778395 14754208 14735932 14734160 
3160.070 14751862 14783325 14812578 14819177 14783949 14696606 14560306 
3163.445 14393373 14224393 14085357 14001592 13986242 14036695 14136551 
3166.820 14262310 14389820 14501147 14587691 14649757 14693481 14727244 
3170.196 14755919 14781415 14800657 14807261 14795598 14760658 14702545 
3173.571 14625927 14538979 14453076 14379798 14328294 14304527 14308824 
3176.946 14338546 14387737 14449502 14515864 14580651 14636198 14675473 
3180.321 14690264 14673958 14623026 14541505 14439721 14335142 14245993 
3183.697 14189535 14172926 14192342 14235218 14283442 14319627 14334488 
3187.072 14328015 14308840 14290516 14285098 14298787 14330845 14374553 
3190.447 14421050 14463932 14501164 14534774 14569568 14610468 14660683 
3193.822 14720432 14790472 14869519 14957584 15053815 15154683 15252486 
3197.198 15335969 15391199 15406163 15375696 15303532 15200910 15087547 
3200.573 14981983 14899228 14846472 14822761 14820917 14831621 14846833 
3203.948 14862909 14879633 14899259 14922647 14947759 14968798 14977279 
3207.323 14965889 14930756 14874659 14808771 14748239 14712947 14719781 
3210.698 14778969 14890867 15044651 15219581 15389527 15527574 15611731 
3214.074 15628397 15575060 15459129 15295243 15101274 14896076 14695259 
3217.449 14512613 14358054 14239979 14163789 14131323 14140229 14183087 
3220.824 14246981 14316396 14375157 14411391 14419374 14401894 14369084 
3224.199 14335942 14318658 14330084 14376494 14456182 14559662 14673442 
3227.575 14781214 14872054 14938383 14982245 15010330 15032367 15056354 
3230.950 15084246 15110956 15125225 15113950 15067700 14984514 14874347 
3234.325 14754299 14646354 14568388 14529505 14526146 14545863 14568835 
3237.700 14578268 14564179 14528076 14480145 14436428 14412439 14417728 
3241.076 14454158 14516206 14592814 14672276 14745899 14807384 14854552 
3244.451 14887503 14906666 14911272 14899139 14866787 14811921 14735078 
3247.826 14640712 14539256 14445280 14376621 14347756 14367725 14434160 
3251.201 14534467 14645256 14739973 14794647 14796511 14745439 14654806 
3254.577 14546068 14441880 14360115 14308737 14288839 14296076 14326430 
3257.952 14378274 14451730 14545936 14653921 14761842 14849711 14897764 
3261.327 14892650 14835986 14743487 14641463 14557548 14512177 14510277 
3264.702 14542037 14585607 14620335 14633101 14625201 14610847 14610706 
3268.078 14642069 14710758 14807920 14912019 14996003 15038950 15030984 
3271.453 14981167 14909977 14845998 14815641 14834263 14901446 15002749 
3274.828 15112749 15204580 15256515 15258210 15212282 15131227 15032589 
3278.203 14932614 14839638 14754874 14673935 14591328 14505189 14422541 
3281.579 14354697 14316607 14317392 14358390 14428852 14510876 14584576 
3284.954 14637076 14664630 14676352 14687084 14712238 14759842 14829367 
3288.329 14909705 14987426 15049867 15091948 15113658 15119952 15114563 
3291.704 15097710 15065859 15014154 14942705 14859213 14778904 14721402 
3295.080 14702817 14729791 14795500 14882309 14965394 15022782 15040769 
3298.455 15018341 14965422 14898130 14833250 14782941 14753166 14744270 
3301.830 14753828 14777759 14812755 14856385 14905336 14956295 15005500 
3305.205 15049852 15088238 15122097 15152205 15179438 15201368 15211446 
3308.581 15200811 15161257 15087892 14982706 14854889 14720729 14598512 
3311.956 14506750 14457646 14457091 14500443 14575422 14664400 14746533 
3315.331 14803943 14825188 14807585 14758333 14690969 14623035 14569297 
3318.706 14538318 14530875 14541096 14559543 14578659 14594560 14609131 
3322.082 14626483 14651182 14681669 14713389 14736329 14742583 14726805 
3325.457 14691095 14642909 14593375 14550954 14521660 14505276 14498354 
3328.832 14496891 14498656 14504212 14513889 14526134 14535038 14529782 
3332.207 14499544 14437739 14347475 14243137 14148256 14088160 14082500 
3335.583 14137207 14243614 14377633 14509582 14610080 14658441 14646034 
3338.958 14578084 14469328 14340545 14213522 14107155 14036642 14010496 
3342.333 14029624 14087340 14169232 14257309 14331874 14378930 14392644 
3345.708 14377702 14348759 14324064 14320305 14345890 14396464 14458598 
3349.083 14510103 14528895 14498922 14414454 14281868 14118756 13948889 
3352.459 13798278 13689690 13637715 13646405 13708385 13806517 13919162 
3355.834 14023764 14105720 14160189 14195584 14228402 14280109 14366779 
3359.209 14493945 14652415 14820618 14969990 15074523 15115733 15089202 
3362.584 15004918 14881780 14744432 14616288 14514465 14449773 14424141 
3365.960 14433078 14465560 14507065 14540129 14548183 14518932 14448526 
3369.335 14342032 14214205 14084886 13974598 13897548 13859616 13856747 
3372.710 13878017 13911480 13947434 13982834 14019713 14061682 14113715 
3376.085 14174232 14239965 14304705 14361439 14405874 14437660 14458374 
3379.461 14469484 14471547 14462302 14438233 14397074 14340289 14274325 
3382.836 14209930 14161928 14143796 14165965 14233205 14342370 14482954 
3386.211 14639113 14790574 14916469 14998869 15027202 14999283 14924397 
3389.586 14821473 14715346 14631439 14590740 14602122 14664240 14761913 
3392.962 14873476 14973830 15043095 15069319 15051913 15000979 14934232 
3396.337 14872015 14832406 14825528 14854471 14911282 14984265 15058980 
3399.712 15125296 15178089 15219287 15253438 15284525 15311176 15326790 
3403.087 15319277 15277921 15198043 15087147 14965404 14863237 14813136 
3406.463 14841797 14960539 15164296 15429744 15723502 16007472 16249314 
3409.838 16426492 16530503 16565520 16546950 16495679 16434448 16382696 
3413.213 16352307 16345814 16357156 16372506 16376078 16355047 16303688 
3416.588 16224617 16129734 16032659 15948379 15885148 15845710 15826873 
3419.964 15825558 15840732 15875269 15934566 16025167 16146749 16293021 
3423.339 16448637 16593764 16707961 16776526 16792202 16758407 16684655 
3426.714 16586199 16479000 16378319 16295530 16241090 16220860 16237730 
3430.089 16289303 16370308 16470764 16577462 16676953 16757386 16810006 
3433.465 16830086 16817376 16776122 16713338 16637646 16558485 16484482 
3436.840 16421171 16372813 16339181 16320860 16317042 16328083 16357796 
3440.215 16407911 16479019 16566982 16663620 16756255 16833232 16887620 
3443.590 16919526 16936436 16948274 16964612 16987654 17010240 17020356 
3446.966 17003912 16954420 16876148 16783188 16697828 16640073 16620785 
3450.341 16636863 16672600 16702678 16703855 16660273 16568443 16437961 
3453.716 16287785 16139898 16016625 15934747 15907234 15939657 16033670 
3457.091 16182363 16373957 16588336 16802570 16992436 17138906 17230808 
3460.467 17268468 17258346 17212724 17143424 17059138 16965552 16868580 
3463.842 16776113 16701965 16665518 16686296 16779300 16947594 17179616 
3467.217 17449620 17721954 17961738 18140904 18246968 18283246 18269610 
3470.592 18232344 18200540 18195502 18229464 18300586 18396890 18499396 
3473.968 18588190 18645432 18659908 18627408 18553042 18446596 18324040 
3477.343 18202388 18099374 18028290 17999878 18017072 18078490 18176688 
3480.718 18300128 18435754 18571548 18697228 18805660 18893562 18961976 
3484.093 19013812 19056778 19099168 19152802 19227506 19331718 19468260 
3487.469 19634934 19822746 20020822 20217806 20408188 20591144 20772764 
3490.844 20960086 21157448 21360990 21560156 21737684 21876884 21967866 
3494.219 22012006 22022680 22020666 22026290 22054124 22106536 22176832 
3497.594 22252562 22323136 22386202 22449410 22526754 22634020 22780052 
3500.969 22962404 23166858 23371982 23554796 23699130 23799894 23862602 
3504.345 23900090 23928504 23960230 24001282 24047540 24088266 24105270 
3507.720 24080722 23996652 23841476 23613298 23322866 22991558 22652090 
3511.095 22340932 22090072 21920512 21835336 21820266 21846762 21879050 
3514.470 21886420 21849022 21764352 21644458 21512130 21391946 21303176 
3517.846 21254684 21243886 21258620 21281396 21293892 21281552 21234666 
3521.221 21152292 21039250 20907618 20771818 20648886 20551612 20487562 
3524.596 20455454 20445350 20441634 20427856 20390272 20324496 20233716 
3527.971 20127992 20019406 19919206 19832016 19758788 19697740 19650308 
3531.347 19622180 19624264 19668314 19762410 19904328 20080814 20266858 
3534.722 20434700 20558088 20622154 20623422 20570890 20480466 20368876 
3538.097 20250138 20131376 20015560 19902574 19790988 19681280 19572268 
3541.472 19462514 19348940 19229636 19102820 18972534 18846502 18737330 
3544.848 18656302 18612470 18607870 18638702 18697260 18775702 18869038 
3548.223 18975502 19093900 19222106 19351184 19467326 19553608 19595582 
3551.598 19587160 19533682 19449198 19354448 19267778 19201480 19157108 
3554.973 19128340 19102672 19069954 19021482 18957490 18879046 18793426 
3558.349 18705398 18621646 18546830 18487514 18447882 18432826 18443202 
3561.724 18474840 18518546 18561192 18587600 18586648 18551998 18485902 
3565.099 18396120 18296402 18202998 18132888 18099588 18113154 18174328 
3568.474 18277988 18407532 18541784 18656570 18732484 18759562 18742814 
3571.850 18698032 18650602 18623410 18631674 18673494 18732346 18779826 
3575.225 18785478 18727096 18599152 18414824 18204322 18004830 17852914 
3578.600 17773046 17773882 17845374 17963566 18098718 18221552 18309252 
3581.975 18348100 18335198 18274606 18171236 18032050 17860162 17660858 
3585.351 17439902 17208228 16978450 16769180 16595803 16469127 16393365 
3588.726 16364690 16374098 16410792 16465528 16532782 16608719 16690688 
3592.101 16774008 16855188 16928090 16990780 17041454 17083112 17115510 
3595.476 17137072 17138046 17107336 17033244 16914676 16761385 16599752 
3598.852 16461229 16377388 16364276 16419867 16520204 16629860 16711207 
3602.227 16741794 16716162 16651072 16573297 16511314 16484072 16497502 
3605.602 16544016 16610587 16681766 16748015 16803168 16844200 16868084 
3608.977 16869852 16843580 16788044 16707707 16616233 16530661 16469499 
3612.353 16443519 16456963 16503436 16573036 16655000 16743042 16834502 
3615.728 16932164 17036886 17147330 17258544 17364944 17460588 17544626 
3619.103 17617292 17681490 17737338 17782890 17812922 17825366 17822644 
3622.478 17817366 17827752 17876142 17979074 18142534 18356232 18596756 
3625.854 18830572 19025444 19156776 19213580 19198492 19127670 19023368 
3629.229 18910890 18810318 18736988 18698458 18697408 18731670 18796386 
3632.604 18884508 18989468 19102504 19217404 19325030 19420862 19499532 
3635.979 19559564 19601922 19632460 19661056 19701736 19768188 19872500 
3639.354 20019832 20207158 20419110 20635058 20827740 20974646 21058620 
3642.730 21077920 21041690 20971196 20892736 20831750 20805014 20817560 
3646.105 20862174 20922714 20979234 21014580 21017482 20987310 20928216 
3649.480 20850980 20766616 20687752 20624674 20589160 20592984 20646454 
3652.855 20753158 20908828 21095592 21287336 21452640 21565582 21613610 
3656.231 21602092 21551644 21491600 21446282 21427366 21429082 21432156 
3659.606 21412242 21352256 21248380 21114118 20972952 20850074 20761962 
3662.981 20713058 20692788 20683708 20666012 20625306 20554210 20451968 
3666.356 20322640 20172984 20011738 19850222 19701104 19579404 19494108 
3669.732 19447560 19428944 19417954 19387508 19318022 19201728 19051916 
3673.107 18895796 18769824 18705286 18717470 18799022 18920644 19040088 
3676.482 19115318 19116466 19034512 18881882 18686192 18480862 18298188 
3679.857 18156182 18059900 17999116 17953000 17898238 17815950 17697620 
3683.233 17547928 17381928 17219846 17079578 16972110 16897322 16846464 
3686.608 16806454 16767912 16725784 16682284 16641373 16605139 16567290 
3689.983 16516095 16437462 16324716 16182417 16029965 15895775 15809376 
3693.358 15787838 15831549 15920393 16024228 16110409 16155923 16153084 
3696.734 16111024 16045572 15976761 15916597 15872141 15842151 15826268 
3700.109 15823130 15834847 15859947 15892975 15919823 15921647 15878495 
3703.484 15778705 15624246 15432090 15229251 15047325 14912094 14838679 
3706.859 14826354 14865473 14937830 15027450 15121808 15215328 15307263 
3710.235 15401833 15501771 15607326 15713658 15810465 15882205 15912224 
3713.610 15887076 15801156 15659671 15481747 15294724 15129424 15012566 
3716.985 14957711 14962634 15012193 15081538 15147793 15194166 15218404 
3720.360 15228340 15241266 15274481 15341441 15446143 15583633 15738113 
3723.736 15889028 16012460 16085574 16091643 16025659 15892958 15714601 
3727.111 15520136 15342223 15209422 15137568 15127304 15165181 15228143 
3730.486 15292620 15341392 15367335 15372442 15368812 15368924 15386892 
3733.861 15431716 15510280 15623098 15765071 15924465 16080538 16207030 
3737.237 16277157 16270874 16183281 16027864 15835643 15644893 15492150 
3740.612 15399935 15373641 15398024 15450322 15504763 15547203 15575127 
3743.987 15597171 15624606 15665704 15718089 15773371 15820522 15853146 
3747.362 15873238 15891457 15921341 15972806 16045865 16130487 16207229 
3750.738 16256252 16262861 16224401 16147260 16045745 15935291 15830593 
3754.113 15740195 15671378 15628422 15615982 15636455 15689230 15765522 
3757.488 15851766 15928354 15978936 15994821 15979640 15949611 15928382 
3760.863 15936842 15989475 16081769 16196625 16304467 16376451 16388880 
3764.239 16333789 16217837 16062183 15895290 15745506 15635511 15579421 
3767.614 15578516 15626010 15706796 15802486 15893159 15962545 15999530 
3770.989 16001070 15972456 15927427 15881253 15851224 15849082 15880903 
3774.364 15943287 16027668 16122935 16216338 16296625 16356967 16390910 
3777.740 16398057 16379416 16342308 16296465 16256806 16237378 16249822 
3781.115 16296556 16371649 16460305 16544688 16608708 16645268 16655369 
3784.490 16649509 16637318 16624231 16603922 16562065 16478503 16340680 
3787.865 16148845 15923902 15700964 15523620 15428000 15433512 15534744 
3791.240 15705375 15901683 16080178 16203916 16253568 16225554 16131897 
3794.616 15991254 15824942 15650602 15482083 15328133 15196380 15090632 
3797.991 15015214 14972163 14962632 14982823 15027921 15087388 15149417 
3801.366 15199638 15226608 15221803 15185839 15126725 15061617 15010229 
3804.741 14991146 15014926 15082741 15180483 15289962 15388531 15461532 
3808.117 15505391 15528242 15548170 15583649 15648570 15747286 15873058 
3811.492 16010730 16143728 16257761 16345423 16408866 16455350 16496619 
3814.867 16540702 16592715 16647806 16695507 16719077 16703431 16637439 
3818.242 16520966 16364986 16190203 16021905 15885018 15794115 15751630 
3821.618 15746333 15760465 15773574 15774030 15759265 15735928 15716039 
3824.993 15710726 15723841 15753718 15791154 15827835 15856842 15877148 
3828.368 15890544 15901640 15912481 15922939 15930198 15933868 15933951 
3831.743 15934804 15940396 15952533 15966976 15975269 15964966 15928620 
3835.119 15861735 15770974 15668519 15569896 15489344 15437522 15420082 
3838.494 15441144 15502524 15607959 15757352 15945589 16158819 16374577 
3841.869 16564311 16703840 16776154 16782374 16736243 16664112 16593510 
3845.244 16546439 16531141 16545441 16576091 16604815 16613722 16590049 
3848.620 16525162 16420081 16280975 16122790 15965603 15833514 15748931 
3851.995 15728487 15775682 15880877 16019877 16163824 16282283 16354740 
3855.370 16373293 16341286 16270176 16175827 16073847 15978819 15901707 
3858.745 15851295 15831459 15839893 15867177 15898213 15915567 15907222 
3862.121 15869163 15811848 15753612 15717721 15720587 15768560 15853645 
3865.496 15958276 16060617 16146816 16208721 16247099 16266720 16271077 
3868.871 16258482 16226593 16174115 16108807 16045429 16004954 16004486 
3872.246 16051166 16136071 16234476 16315676 16351406 16326999 16245283 
3875.622 16123362 15987679 15862085 15763957 15700301 15671387 15673855 
3878.997 15705768 15765196 15851500 15958594 16077144 16191967 16289813 
3882.372 16359894 16399208 16410209 16400421 16376987 16345361 16305666 
3885.747 16258426 16202332 16139725 16073337 16008103 15946107 15888907 
3889.123 15836120 15788391 15749369 15725039 15723607 15750410 15806638 
3892.498 15887355 15984759 16090140 16196201 16299689 16398389 16489297 
3895.873 16564069 16613180 16623713 16589258 16510716 16400600 16278597 
3899.248 16167523 16083824 16035197 16018001 16023375 16040884 16067402 
3902.624 16103586 16157668 16234873 16335739 16450223 16562385 16651196 
3905.999 16700169 16699616 16652526 16568951 16469279 16373510 16301781 
3909.374 16267700 16277421 16327171 16403757 16483895 16543249 16559031 
3912.749 16518921 16423427 16288374 16140210 16009565 15920533 15887793 
3916.125 15911357 15981169 16079426 16187932 16290577 16375685 16434206 
3919.500 16461270 16455557 16421778 16370939 16321531 16292447 16299566 
3922.875 16345529 16420247 16500497 16558586 16573224 16537176 16460542 
3926.250 16371412 16298948 16269814 16293360 16364343 16461238 16559606 
3929.625 16637230 16682796 16693391 16675709 16636061 16581533 16514629 
3933.001 16436661 16350649 16262913 16183972 16125808 16096724 16101724 
3936.376 16135952 16190860 16252497 16307177 16343687 16356096 16345976 
3939.751 16321355 16295282 16285807 16308894 16376942 16490901 16640777 
3943.126 16804020 16952804 17057822 17098184 17064236 16963342 16813840 
3946.502 16643325 16480440 16351337 16274100 16259843 16308721 16414940 
3949.877 16564535 16739417 16917400 17079712 17209940 17301190 17352510 
3953.252 17370106 17359524 17326174 17270184 17189696 17082586 16952026 
3956.627 16807942 16666744 16546842 16462002 16416606 16404035 16408416 
3960.003 16410947 16396649 16358636 16300736 16234342 16173637 16132001 
3963.378 16117660 16134202 16181244 16256543 16354406 16469413 16591487 
3966.753 16709883 16811460 16886910 16930386 16943730 16933970 16911456 
3970.128 16885482 16861894 16840028 16817356 16790162 16758842 16725520 
3973.504 16697511 16680125 16677497 16687099 16703751 16719745 16729221 
3976.879 16728587 16717311 16696448 16667863 16632216 16592035 16550777 
3980.254 16518299 16508453 16536552 16615406 16748367 16926808 17128902 
3983.629 17325596 17487830 17594236 17635842 17618770 17558596 17475862 
3987.005 17388310 17307146 17239310 17186942 17154582 17149048 17182626 
3990.380 17267356 17408204 17601594 17831268 18069306 18285112 18450716 
3993.755 18548566 18575150 18539534 18458288 18352546 18238484 18128018 
3997.130 18026766 17937938 17862078 17802528 17761304 17740016 17738274 
4000.506 17751526 
##END=
