##TITLE=3D-Fillies_PLA-Rainbow_Purple_Filament_r1_ATR-Corrected
##JCAMP-DX=5.01  $$ Nicolet v. 1
##DATATYPE=INFRARED SPECTRUM
##ORIGIN=Curtin University
##OWNER=Nicolet
##LONGDATE=2024/07/18
##TIME=13:43:55
##SPECTROMETER/DATA SYSTEM=Nicolet iS50
##DATA PROCESSING=
Ratio against background
%Transmittance->Absorbance
ATR Correction
Truncated
ElementMultiply or ElementDivide
##COMMENTS=
Number of sample scans: 32
Collection length: 47.27 sec
Sample gain: 1.0
Background collected on: Thu Jul 18 13:42:24 2024 (GMT+08:00);
Number of background scans: 32
Background gain: 1.0
Sample spacing:  1.000
Number of scan points: 16672
Resolution points: 8192
Number of FFT points: 65536
Apodization: N-B strong;
Phase correction: Mertz;
Laser frequency: 15798.3 cm-1
Number of rejected sample scans: 0
Number of rejected background scans: 0
Bench serial number: AUP1200105;
##RESOLUTION=4.000
##XUNITS=1/CM
##YUNITS=ABSORBANCE
##FIRSTX=400.163452
##LASTX=4000.187744
##FIRSTY=0.055935
##MAXX=4000.187744
##MINX=400.163452
##MAXY=0.955659
##MINY=-0.037477
##XFACTOR=1.000000
##YFACTOR=1.000000E-009
##NPOINTS=7468
##DELTAX=0.482125
##ZPD=8192
##XYDATA=(X++(Y..Y))
400.163 55935108 55083176 54004928 52796572 51552508 50370424 49339936 
403.538 48539320 48026536 47827344 47920916 48235080 48653508 49041656 
406.913 49279120 49287348 49041856 48563352 47892896 47068876 46112496 
410.288 45033068 43845484 42590536 41343432 40204204 39266760 38584508 
413.663 38142644 37855376 37591776 37221032 36659040 35897980 35003844 
417.038 34088764 33265550 32607832 32127536 31782638 31505458 31238016 
420.412 30955528 30670774 30416194 30220166 30086002 29987830 29883808 
423.787 29739120 29545798 29328588 29131914 28996148 28933846 28919144 
427.162 28897002 28808968 28622330 28349902 28048894 27798776 27668574 
430.537 27687616 27833044 28040874 28232812 28346776 28365220 28312360 
433.912 28238838 28195462 28208120 28267750 28336414 28368530 28331778 
437.286 28223166 28068416 27908524 27779844 27699316 27658190 27631074 
440.661 27590240 27520488 27426208 27328796 27255032 27225474 27245872 
444.036 27306662 27389314 27475212 27552168 27615490 27664012 27695766 
447.411 27704562 27682518 27624882 27535592 27428656 27324474 27241548 
450.786 27188240 27158628 27135540 27097974 27031560 26934548 26817054 
454.161 26694398 26577900 26466870 26349948 26210578 26038366 25838282 
457.535 25632096 25452330 25330072 25280920 25298006 25352774 25405678 
460.910 25419836 25374338 25269460 25125066 24970510 24830592 24725312 
464.285 24656708 24614192 24580718 24540062 24482052 24404278 24310890 
467.660 24209272 24106898 24008162 23913080 23816910 23712028 23590150 
471.035 23446562 23282966 23110408 22947630 22817040 22736904 22714864 
474.409 22742766 22798178 22850464 22871048 22842890 22766198 22657096 
477.784 22540714 22440476 22369896 22328266 22303014 22277186 22236950 
481.159 22177496 22104076 22027350 21958352 21903026 21861510 21830044 
484.534 21805858 21790396 21790524 21815042 21869884 21953162 22054522 
487.909 22157610 22246046 22310070 22351598 22383566 22427042 22503794 
491.284 22629952 22810530 23038962 23297730 23563472 23811156 24017260 
494.658 24168366 24258820 24292616 24283698 24253216 24225588 24222844 
498.033 24259404 24337538 24446834 24566184 24668908 24729020 24726754 
501.408 24651756 24503404 24289312 24022230 23718004 23394184 23069674 
504.783 22764742 22499370 22291272 22151694 22082302 22073404 22104784 
508.158 22149994 22182424 22181276 22136286 22047832 21924994 21779936 
511.532 21623794 21462650 21298014 21128810 20956214 20786344 20631902 
514.907 20509522 20434350 20414346 20445610 20510762 20583034 20632360 
518.282 20634792 20579380 20471700 20332026 20189342 20071526 19997114 
521.657 19968746 19973070 19984100 19972106 19912216 19793004 19619214 
525.032 19409108 19191916 18995652 18839030 18727050 18649478 18585892 
528.406 18512488 18410950 18273928 18107418 17928018 17757176 17613834 
531.781 17508914 17442122 17403524 17377430 17348314 17305654 17246994 
535.156 17177840 17109574 17054856 17024300 17022158 17044906 17081502 
538.531 17115220 17127142 17100846 17026362 16903654 16742527 16561551 
541.906 16382333 16224511 16100174 16011370 15950026 15902372 15853522 
545.281 15793147 15718013 15632860 15547643 15474685 15424839 15405939 
548.655 15421583 15471790 15552844 15657436 15774010 15887685 15981553 
552.030 16040463 16054589 16023481 15956676 15871756 15789609 15728159 
555.405 15697394 15695512 15712878 15733130 15739085 15717633 15662935 
558.780 15577217 15469701 15355198 15250704 15173232 15136791 15149122 
562.155 15209857 15310113 15434106 15563092 15680518 15776599 15850239 
565.529 15907543 15957439 16006146 16053012 16089665 16103355 16083311 
568.904 16026583 15941244 15845710 15763536 15715713 15714606 15759703 
572.279 15839325 15934804 16027048 16102573 16156619 16193125 16222404 
575.654 16256824 16307360 16380683 16477868 16594971 16724369 16856876 
579.029 16984304 17101000 17205338 17299016 17385908 17469202 17550160 
582.404 17626414 17693484 17746470 17783942 17808682 17828190 17851608 
585.778 17886322 17934392 17991198 18047164 18091446 18116018 18119350 
589.153 18107014 18089604 18079218 18085526 18113102 18161514 18226326 
592.528 18301556 18381330 18461566 18539724 18615176 18688206 18759920 
595.903 18830720 18899496 18961604 19008462 19027528 19005926 18934038 
599.278 18810826 18646474 18462294 18286224 18146038 18061638 18040838 
602.652 18077490 18155774 18255804 18359760 18456602 18542652 18619770 
606.027 18692258 18763922 18837130 18912848 18992206 19076992 19170194 
609.402 19274334 19391208 19521018 19663290 19817456 19983846 20163010 
612.777 20355136 20558076 20767468 20977662 21183648 21384212 21582448 
616.152 21784880 21998304 22226116 22465614 22708342 22942788 23158860 
619.527 23351632 23522918 23679568 23829780 23979228 24129460 24278474 
622.901 24424024 24566722 24711444 24866370 25039466 25234920 25450784 
626.276 25681244 25919048 26160582 26407774 26667230 26946052 27246758 
629.651 27563238 27880652 28178994 28439480 28650152 28809528 28925392 
633.026 29011718 29082572 29149494 29219438 29296574 29384446 29487290 
636.401 29609874 29755064 29921176 30101222 30284094 30458198 30616018 
639.775 30757316 30889052 31023560 31173008 31345618 31541918 31755344 
643.150 31974270 32185998 32380010 32551416 32700292 32832048 32955546 
646.525 33081230 33219040 33377714 33563088 33777804 34021532 34292108 
649.900 34586604 34903164 35240980 35599828 35978036 36370552 36767112 
653.275 37152880 37510256 37822248 38075272 38262628 38384052 38445140 
656.650 38455536 38426944 38371772 38302876 38232380 38171572 38129160 
660.024 38110320 38115316 38140572 38179932 38227780 38281024 38341328 
663.399 38413996 38506368 38624700 38771984 38946328 39141612 39349280 
666.774 39561052 39770948 39977444 40183392 40395868 40623996 40876180 
670.149 41157376 41466592 41795168 42128112 42446512 42732796 42975444 
673.524 43172664 43332908 43472004 43608236 43756412 43923812 44109412 
676.898 44305700 44503224 44694040 44874696 45045456 45209016 45366360 
680.273 45516856 45657732 45786416 45901924 46006852 46105744 46203824 
683.648 46304792 46409728 46518424 46631096 46750416 46882644 47035628 
687.023 47216336 47426980 47663768 47917140 48175084 48427148 48667672 
690.398 48896416 49117640 49336880 49558444 49784156 50014356 50250212 
693.773 50496240 50760856 51055468 51391216 51775532 52210016 52688856 
697.147 53201260 53733468 54272548 54809152 55338700 55862656 56387100 
700.522 56921684 57476692 58060284 58674392 59313644 59964156 60606696 
703.897 61220664 61789904 62305984 62770024 63189708 63574880 63931680 
707.272 64260720 64556336 64811588 65022924 65195084 65341152 65480380 
710.647 65630808 65804368 66002996 66219016 66439568 66653544 66856564 
714.021 67054436 67262248 67501192 67794696 68166328 68640400 69246256 
717.396 70023424 71028072 72337144 74050072 76286984 79182384 82875392 
720.771 87496192 93149032 99893296 107724520 116559136 126223968 136456208 
724.146 146915040 157205824 166915136 175651392 183084432 188976352 
727.039 193198432 195731264 196651120 196106544 194290608 191414368 
729.931 187684224 183286112 178376400 173079552 167490560 161680704 
732.824 155704368 149605344 143420832 137185008 130931992 124697928 
735.717 118524336 112461216 106567120 100908240 95552728 90563920 85992504 
739.091 81871216 78211568 75006824 72235320 69868032 67873536 66221960 
742.466 64886236 63841464 63062856 62524572 62199224 62058564 62075248 
745.841 62224540 62485364 62840328 63275308 63778088 64337200 64941408 
749.216 65579444 66240132 66912724 67587272 68254104 68903800 69526728 
752.591 70113008 70652208 71133728 71546648 71879776 72121288 72258552 
755.966 72278568 72168408 71916936 71516528 70964600 70265584 69430320 
759.340 68476392 67425624 66302368 65130636 63931948 62723480 61516484 
762.715 60316436 59123188 57932652 56739812 55541184 54337840 53136828 
766.090 51950592 50794756 49684104 48629276 47633872 46693916 45800700 
769.465 44944432 44117772 43318928 42551040 41820072 41130604 40483212 
772.840 39872068 39286544 38713560 38141928 37565036 36982096 36397356 
776.214 35817620 35250548 34702636 34178956 33683456 33218860 32786388 
779.589 32384064 32005694 31640216 31272992 30889008 30476330 30029894 
782.964 29552444 29054466 28550588 28056328 27584618 27144224 26739736 
786.339 26372680 26043626 25753280 25503102 25295260 25132184 25016066 
789.714 24948042 24927600 24951148 25010258 25090244 25170694 25226876 
793.089 25233680 25170404 25025530 24799288 24503260 24158002 23788360 
796.463 23418960 23071254 22761378 22501292 22298778 22158772 22082774 
799.838 22068926 22111136 22199564 22321618 22464634 22617246 22770108 
803.213 22917566 23055192 23179254 23286130 23372206 23434780 23471940 
806.588 23483494 23469158 23428766 23361244 23265220 23140952 22992350 
809.963 22827934 22660586 22504776 22372742 22270594 22196492 22141264 
813.337 22091738 22036228 21968684 21891328 21813914 21750356 21713344 
816.712 21710670 21742162 21800420 21873524 21948356 22014898 22068126 
820.087 22108688 22141884 22176404 22221550 22285932 22375654 22493118 
823.462 22636148 22798288 22969142 23136806 23290418 23423158 23533758 
826.837 23626602 23710270 23793710 23882964 23978986 24077846 24172424 
830.212 24256696 24329518 24396146 24468768 24562390 24690968 24863214 
833.586 25079990 25335880 25621178 25925704 26242564 26569280 26908150 
836.961 27263732 27641822 28047322 28484978 28960248 29478916 30047412 
840.336 30670072 31346828 32071148 32829888 33605732 34380948 35142448 
843.711 35883364 36603900 37307364 37995976 38666088 39306296 39899216 
847.086 40425344 40869216 41224224 41496092 41702384 41870608 42034600 
850.460 42230520 42494308 42859520 43356084 44009324 44839292 45859872 
853.835 47078988 48498596 50115508 51921280 53902300 56038588 58303452 
857.210 60663308 63079880 65513508 67927944 70294656 72595032 74820200 
860.585 76968744 79042920 81044368 82972984 84825216 86595952 88279248 
863.960 89870080 91364720 92759672 94053264 95244568 96335232 97330608 
867.335 98239528 99074200 99846496 100564880 101230256 101833064 102351792 
870.709 102753664 102996560 103033200 102816296 102304136 101466144 
873.602 100288672 98776368 96953024 94857784 92539144 90048376 87433496 
876.977 84736240 81990936 79226664 76469736 73745560 71079096 68493072 
880.352 66006324 63632392 61380500 59258340 57275752 55447200 53791524 
883.727 52328564 51073820 50033088 49199376 48553516 48068576 47715136 
887.101 47466512 47301948 47205704 47165720 47170380 47208272 47268332 
890.476 47342380 47426972 47523696 47636752 47769924 47922080 48085508 
893.851 48245688 48384364 48483772 48530092 48516148 48441908 48313812 
897.226 48142552 47941572 47726052 47510764 47308448 47127964 46972508 
900.601 46838768 46718616 46601896 46480632 46352152 46220656 46095516 
903.975 45987984 45906728 45854372 45826920 45815528 45810392 45804648 
907.350 45796952 45791528 45795924 45818012 45862920 45931896 46023256 
910.725 46133992 46263100 46412908 46589188 46799780 47052212 47350824 
914.100 47694756 48077316 48486528 48906572 49321108 49715200 50077664 
917.475 50402508 50688856 50939988 51162100 51362100 51547480 51724796 
920.849 51900412 52080416 52270676 52476556 52701632 52946776 53210156 
924.224 53486904 53771172 54057612 54343452 54628920 54917592 55215096 
927.599 55527092 55858404 56211940 56589076 56989524 57411736 57852800 
930.974 58307960 58770372 59230652 59677664 60099248 60484128 60822896 
934.349 61108960 61339028 61513180 61634408 61708328 61742164 61744440 
937.724 61723696 61687076 61640152 61586644 61529128 61470592 61415376 
941.098 61370824 61346372 61352184 61396900 61485708 61619452 61795384 
944.473 62008988 62256676 62537708 62855452 63216908 63630932 64106024 
947.848 64648204 65260216 65940568 66684188 67483016 68326728 69203304 
951.223 70099584 71000736 71890704 72750816 73559368 74290800 74916240 
954.598 75404264 75724400 75850240 75762840 75453576 74925152 74189480 
957.972 73266160 72179352 70955232 69622000 68209448 66750652 65280840 
961.347 63837260 62455912 61168184 59997932 58960108 58061264 57301344 
964.722 56675884 56177888 55798580 55526960 55349284 55248544 55205880 
968.097 55202480 55221848 55252744 55289820 55333660 55388928 55462200 
971.472 55559904 55686268 55843008 56028888 56240460 56472904 56720676 
974.847 56978536 57241696 57506520 57770492 58031564 58288864 58542272 
978.221 58792716 59042768 59296372 59558836 59835292 60128864 60439196 
981.596 60761728 61087964 61408396 61715188 62005408 62283248 62558808 
984.971 62845944 63158332 63505768 63891964 64314812 64768576 65247020 
988.346 65745020 66261044 66796400 67353152 67932736 68534568 69156408 
991.721 69795456 70450160 71121344 71812664 72529424 73277384 74061152 
995.095 74883512 75745360 76646824 77587648 78569256 79593816 80665568 
998.470 81788528 82965552 84195832 85473968 86788336 88122104 89455368 
1001.845 90770040 92054592 93309656 94550944 95809096 97126400 98550480 
1005.220 100126672 101892576 103874416 106087560 108540224 111238456 
1008.113 114191008 117413288 120928840 124770144 128978472 133604136 
1011.005 138705360 144346400 150590448 157488656 165063488 173289040 
1013.898 182070976 191234080 200517952 209589968 218074000 225593616 
1016.791 231823888 236540944 239657696 241237424 241482176 240697488 
1019.683 239245888 237496448 235781568 234366320 233435424 233093168 
1022.576 233375280 234267616 235726160 237694032 240113760 242932944 
1025.469 246105168 249588608 253343696 257334320 261529632 265907856 
1028.362 270460096 275191328 280118688 285267296 290664480 296333568 
1031.255 302289472 308535840 315064480 321856000 328881248 336103712 
1034.148 343481952 350971104 358524576 366094880 373632832 381086048 
1037.041 388397088 395502336 402332256 408813504 414873664 420445344 
1039.934 425472704 429912544 433737952 436936608 439509152 441465408 
1042.827 442820928 443591520 443789888 443423712 442496736 441013056 
1045.720 438984672 436438016 433420384 430000768 426266272 422314144 
1048.614 418243264 414145152 410097792 406162112 402382592 398786848 
1051.507 395388192 392187296 389175168 386336832 383656608 381122848 
1054.400 378732864 376495168 374428704 372561920 370930336 369574016 
1057.293 368538272 367874752 367643648 367914464 368765312 370280064 
1060.186 372543232 375635648 379629568 384585792 390551552 397559968 
1063.079 405629888 414765152 424955360 436177248 448397024 461573696 
1065.972 475663360 490620480 506399040 522949280 540213248 558118720 
1068.865 576576576 595480000 614709248 634137984 653641280 673102528 
1071.758 692418752 711501184 730276800 748686464 766683392 784225856 
1074.651 801272960 817775232 833670208 848881664 863327808 876929920 
1077.544 889623040 901360064 912106688 921827584 930473856 937976192 
1080.437 944250432 949210176 952787264 954940800 955658752 954944384 
1083.330 952808704 949263488 944330944 938060544 930547392 921933056 
1086.223 912393600 902112256 891251648 879935616 868251840 856266496 
1089.116 844048000 831682176 819274688 806936768 794763648 782815680 
1092.010 771110144 759626240 748322560 737156224 726097792 715135552 
1094.903 704270144 693504896 682835520 672246016 661709312 651192256 
1097.796 640663744 630097600 619476864 608792320 598043392 587236736 
1100.689 576386944 565513408 554638912 543784768 532968992 522204832 
1103.582 511504832 500886016 490377440 480024768 469890528 460051616 
1106.475 450592160 441596704 433146240 425314112 418166176 411761600 
1109.368 406151488 401376320 397461792 394413504 392214496 390823680 
1112.261 390178848 390200736 390800960 391887008 393369280 395164384 
1115.154 397197888 399404896 401730880 404131072 406570176 409022304 
1118.047 411471264 413911200 416347168 418793344 421270656 423800640 
1120.940 426397728 429061440 431770240 434479616 437125632 439630368 
1123.833 441911040 443887776 445487072 446644352 447302720 447414592 
1126.726 446942976 445867808 444190560 441936352 439151072 435893856 
1129.619 432225344 428196832 423843776 419184704 414225888 408967040 
1132.512 403407840 397550656 391399904 384958944 378228640 371205760 
1135.406 363885632 356266496 348353792 340163360 331722752 323069952 
1138.299 314252064 305321760 296335488 287352576 278433696 269640064 
1141.192 261032848 252671296 244611088 236902960 229590832 222710224 
1144.085 216288288 210343600 204888080 199928240 195467008 191504992 
1146.978 188041120 185071856 182589120 180579488 179022896 177892992 
1149.871 177159248 176789456 176752944 177023232 177578000 178398288 
1152.764 179465616 180759840 182257328 183930720 185750912 187689664 
1155.657 189721792 191827088 193990288 196200912 198452224 200742096 
1158.550 203072832 205452000 207892960 210412944 213031280 215766544 
1161.443 218634224 221646912 224815888 228154160 231679984 235417792 
1164.336 239399328 243661136 248243312 253188048 258540032 264349488 
1167.229 270674112 277581504 285149856 293464800 302616608 312695584 
1170.122 323787648 335972160 349319744 363889248 379724192 396845952 
1173.015 415245184 434872128 455626496 477348416 499812032 522721696 
1175.908 545711808 568351808 590157760 610611648 629190208 645400640 
1178.802 658819200 669126656 676135808 679804992 680235328 677652224 
1181.695 672375360 664781440 655267776 644221312 631999936 618923584 
1184.588 605274176 591300672 577222528 563230464 549484864 536111712 
1187.481 523201280 510810080 498968128 487687584 476972544 466824192 
1190.374 457243264 448228224 439772256 431861088 424473152 417583232 
1193.267 411166336 405202336 399676352 394578208 389898496 385625760 
1196.160 381744224 378234528 375076640 372252576 369747968 367552800 
1199.053 365657312 364050240 362715808 361633120 360778368 360126112 
1201.946 359653280 359338592 359161760 359101120 359130592 359220832 
1204.839 359338848 359450848 359525920 359536576 359460608 359278496 
1207.732 358972608 358525984 357924032 357155104 356212928 355097280 
1210.625 353813984 352371936 350781472 349051904 347190336 345202656 
1213.518 343093696 340869152 338535360 336100416 333573600 330965312 
1216.411 328287648 325554592 322782592 319990624 317198464 314426496 
1219.304 311692864 309012992 306397952 303854496 301384576 298985952 
1222.198 296652928 294377216 292149248 289959808 287801728 285670912 
1225.091 283567040 281492576 279452192 277450816 275492448 273579712 
1227.984 271713824 269896800 268131856 266424512 264782928 263217536 
1230.877 261739104 260358608 259085632 257929472 256899648 256007072 
1233.770 255265024 254689664 254297824 254106288 254128128 254369760 
1236.663 254829520 255497840 256357408 257386720 258562976 259864240 
1239.556 261271568 262769280 264342752 265976960 267653232 269348224 
1242.449 271032192 272671168 274228992 275670112 276963488 278084480 
1245.342 279017760 279757152 280305408 280675168 280886336 280965760 
1248.235 280945120 280859168 280743232 280630848 280551744 280529472 
1251.128 280580640 280713600 280929920 281225408 281593056 282025344 
1254.021 282517184 283066304 283673312 284340576 285069152 285857888 
1256.914 286702912 287598880 288540672 289525440 290553248 291625792 
1259.807 292744224 293906752 295106048 296329888 297561408 298781984 
1262.700 299971552 301109280 302171872 303130432 303950784 304592960 
1265.594 305015328 305180160 305056704 304625152 303875424 302804800 
1268.487 301413984 299705056 297679552 295340800 292695360 289755424 
1271.380 286538304 283064544 279356256 275435008 271322176 267039600 
1274.273 262611296 258063376 253424016 248720096 243974848 239207392 
1277.166 234431872 229660912 224907440 220187120 215517696 210918080 
1280.059 206405280 201993232 197691792 193508896 189451840 185529552 
1282.952 181752144 178129680 174670112 171376592 168247760 165278464 
1285.845 162462480 159795216 157275088 154903328 152682960 150615584 
1288.738 148700256 146932624 145305536 143810304 142438464 141182160 
1291.631 140033504 138984240 138024864 137144256 136331104 135574240 
1294.524 134865024 134196760 133565096 132967336 132401272 131865264 
1297.417 131358368 130880832 130433496 130018768 129639224 129296752 
1300.310 128991168 128719944 128478408 128260288 128058416 127865704 
1303.203 127675008 127479600 127272752 127048088 126799536 126521528 
1306.096 126208784 125856192 125459072 125013648 124517504 123971528 
1308.990 123379016 122745576 122077024 121375504 120637656 119852392 
1311.883 119003592 118074440 117052768 115937952 114742584 113492880 
1314.776 112223000 110968816 109761264 108621112 107558760 106575216 
1317.669 105666248 104826320 104049864 103332200 102668120 102050224 
1320.562 101469256 100915328 100379912 99859224 99354656 98872688 98422352 
1323.937 98011856 97646000 97324800 97044624 96799256 96584168 96397784 
1327.312 96243528 96129928 96069408 96076728 96166688 96352768 96644768 
1330.688 97047464 97560384 98177480 98889096 99683504 100550280 101480768 
1334.063 102469200 103510744 104599128 105723816 106868784 108012928 
1336.956 109132448 110204464 111210592 112139400 112986848 113754832 
1339.849 114449208 115078104 115649848 116174184 116663008 117131696 
1342.742 117600800 118095200 118641920 119267616 119994344 120837224 
1345.635 121802704 122888568 124087216 125387864 126780032 128255176 
1348.528 129807472 131432576 133125320 134878240 136680224 138516672 
1351.421 140370736 142225504 144064432 145872288 147633552 149332208 
1354.314 150951184 152473520 153884400 155174592 156341216 157388624 
1357.207 158325872 159163712 159911712 160576640 161162960 161675408 
1360.100 162121200 162511744 162861968 163188160 163503312 163814576 
1362.993 164120272 164411024 164670032 164875792 165003888 165028176 
1365.886 164920816 164652800 164194768 163518640 162599888 161419904 
1368.780 159969024 158249600 156277456 154085760 151726928 149274720 
1371.673 146823072 144483648 142378400 140630672 139353472 138637840 
1374.566 138543344 139091760 140265424 142010480 144241648 146851376 
1377.459 149718304 152715904 155720048 158616384 161304864 163701952 
1380.352 165740880 167369648 168548000 169246624 169446336 169139184 
1383.245 168328640 167030784 165271584 163085024 160510208 157589408 
1386.138 154367568 150891872 147210544 143371168 139417680 135387488 
1389.031 131309672 127205480 123089928 118975952 114876352 110806824 
1391.924 106785648 102833736 98973272 95227344 91619448 88173624 84914152 
1395.299 81863640 79040880 76458152 74119464 72020104 70147840 68486496 
1398.675 67019388 65734304 64624520 63690036 62935740 62369344 61998548 
1402.050 61829548 61866864 62112568 62566200 63223340 64072692 65093184 
1405.425 66250996 67498360 68774640 70009248 71126056 72048848 72706248 
1408.800 73037328 72996568 72559072 71725224 70522632 69004760 67245952 
1412.176 65332272 63350760 61379416 59480320 57695916 56050444 54553796 
1415.551 53206448 52003080 50935268 49992264 49161744 48429960 47784400 
1418.926 47216452 46722828 46306448 45974812 45736164 45595288 45550604 
1422.301 45592436 45703512 45862468 46045836 46231756 46402580 46546560 
1425.677 46658872 46742524 46808280 46873668 46961392 47097108 47305156 
1429.052 47607096 48019628 48554348 49219184 50019756 50960672 52044920 
1432.427 53275024 54651836 56175396 57846036 59665744 61639128 63773140 
1435.802 66076852 68559800 71232184 74105520 77194728 80519144 84102880 
1439.177 87972312 92150944 96654424 101485808 106633640 112071272 117760112 
1442.553 123651712 129689944 135812384 141950544 148031744 153981008 
1445.446 159724560 165193744 170327552 175075792 179400560 183278624 
1448.339 186703376 189683760 192242064 194408592 196213216 197678544 
1451.232 198815296 199620704 200082400 200182560 199904048 199231440 
1454.125 198152656 196656736 194734864 192380720 189594496 186385728 
1457.018 182774192 178789408 174465264 169837856 164942208 159814320 
1459.911 154492928 149021072 143445456 137814496 132173016 126560152 
1462.804 121007600 115541616 110186128 104965248 99904008 95027520 90358504 
1466.179 85916080 81715304 77766936 74078576 70654800 67496080 64597600 
1469.555 61948048 59530428 57322936 55302336 53446168 51733692 50146784 
1472.930 48668740 47283964 45977784 44737572 43553084 42418780 41332772 
1476.305 40296632 39312816 38382900 37505804 36676868 35888536 35131628 
1479.680 34396712 33676796 32967042 32266918 31578928 30907978 30260016 
1483.056 29640592 29052282 28494810 27965162 27458252 26969282 26495194 
1486.431 26035714 25593658 25173386 24779918 24417216 24087256 23790172 
1489.806 23524306 23287306 23076284 22888032 22719518 22567938 22431806 
1493.181 22310866 22206880 22122916 22062574 22029054 22024420 22049980 
1496.557 22107356 22200852 22338112 22530462 22791368 23132964 23562564 
1499.932 24080318 24677738 25337600 26036788 26747108 27437502 28074722 
1503.307 28623542 29047814 29313238 29391622 29267090 28940502 28432250 
1506.682 27780880 27036426 26252012 25475274 24742156 24074346 23480562 
1510.058 22960056 22506034 22109418 21761342 21454278 21183192 20944950 
1513.433 20738476 20563090 20419056 20304672 20216584 20149636 20096834 
1516.808 20051260 20007362 19962660 19917362 19874778 19838918 19813766 
1520.183 19800952 19799912 19806970 19817400 19825502 19826686 19818404 
1523.559 19799766 19771638 19735896 19694348 19648456 19598682 19545592 
1526.934 19488982 19429836 19370030 19312322 19259696 19214080 19175840 
1530.309 19143476 19113176 19080610 19041596 18993000 18933450 18863420 
1533.684 18783312 18694428 18597816 18494614 18386760 18277496 18170482 
1537.060 18069692 17977854 17895656 17821264 17751494 17682786 17613618 
1540.435 17544884 17480198 17424336 17381180 17352420 17337230 17332102 
1543.810 17332370 17333370 17331906 17325754 17314342 17297142 17274664 
1547.185 17247804 17218088 17188248 17160966 17138508 17121616 17108980 
1550.561 17098124 17085568 17069578 17050360 17030702 17014726 17006812 
1553.936 17009342 17022438 17043570 17069730 17097546 17125532 17153482 
1557.311 17182134 17211598 17241338 17269720 17295306 17317674 17339150 
1560.686 17363498 17396138 17441116 17500406 17572270 17651680 17731306 
1564.062 17804010 17863674 17907402 17935500 17951570 17961360 17971370 
1567.437 17988470 18019126 18068638 18141454 18240698 18368656 18525690 
1570.812 18711300 18922980 19157236 19409662 19676002 19951942 20234814 
1574.187 20522482 20813290 21104230 21389912 21661648 21907062 22112172 
1577.563 22263572 22351128 22369794 22320576 22209970 22048392 21848044 
1580.938 21621468 21380072 21134018 20892662 20664700 20458670 20281710 
1584.313 20138954 20032194 19959184 19914360 19890008 19877442 19868760 
1587.688 19857740 19839884 19812376 19773852 19723916 19664036 19596640 
1591.063 19525734 19456038 19392164 19337968 19296172 19268078 19254686 
1594.439 19255950 19272200 19303304 19349262 19409554 19484088 19573528 
1597.814 19680298 19808552 19963778 20151804 20376282 20638260 20934706 
1601.189 21260546 21608620 21972904 22349704 22737844 23138176 23552278 
1604.564 23981108 24423662 24876458 25333116 25784702 26219968 26625938 
1607.940 26989066 27297610 27542696 27720592 27833128 27887270 27892956 
1611.315 27860190 27796898 27707336 27592496 27452422 27287270 27100606 
1614.690 26898312 26688450 26478526 26273986 26076834 25886288 25700684 
1618.065 25520466 25348750 25192430 25059238 24955850 24884954 24843788 
1621.441 24824574 24817038 24811108 24799822 24780896 24756154 24730450 
1624.816 24708800 24694272 24687092 24684816 24683874 24681138 24675832 
1628.191 24669734 24667874 24675846 24698470 24737882 24791692 24854434 
1631.566 24917602 24973472 25016710 25046576 25067370 25087052 25114426 
1634.942 25156128 25213850 25283004 25354456 25416554 25458846 25474668 
1638.317 25462418 25425964 25372594 25310864 25249104 25193560 25148292 
1641.692 25114942 25093858 25084366 25085696 25096440 25115538 25141702 
1645.067 25173462 25209192 25247478 25286640 25325364 25361960 25395180 
1648.443 25424058 25448082 25468260 25486070 25504796 25529590 25566814 
1651.818 25624192 25708892 25825718 25975512 26153370 26349456 26550412 
1655.193 26742208 26913194 27057650 27176728 27278500 27376116 27485086 
1658.568 27619268 27788612 27997530 28244432 28523772 28826968 29144898 
1661.944 29468656 29791464 30109368 30422466 30734602 31054182 31391584 
1665.319 31756308 32154250 32584674 33039052 33504266 33964932 34408804 
1668.694 34831552 35238228 35642040 36058968 36503488 36982716 37494408 
1672.069 38028520 38570972 39108028 39631132 40138304 40633892 41126148 
1675.445 41624000 42134868 42663388 43211260 43778012 44362156 44961052 
1678.820 45571524 46190300 46813844 47439200 48065488 48693344 49325236 
1682.195 49964028 50612204 51269188 51932368 52596692 53256492 53907312 
1685.570 54547676 55180440 55813960 56461628 57141768 57874928 58682352 
1688.946 59581016 60580096 61678488 62864072 64117976 65420360 66757708 
1692.321 68128632 69545672 71033944 72623792 74344584 76217480 78253256 
1695.696 80454488 82822272 85364784 88103352 91074248 94326752 97914552 
1699.071 101887048 106282832 111126336 116430712 122206472 128471656 
1701.964 135259328 142622256 150628032 159352448 168868992 179241936 
1704.857 190519328 202731616 215892896 229999984 245032720 260951792 
1707.750 277696096 295185024 313321120 331998144 351105920 370530112 
1710.644 390146240 409809088 429342304 448534944 467148640 484932832 
1713.537 501644864 517070048 531039488 543442816 554239168 563463744 
1716.430 571226688 577697792 583079488 587569280 591327040 594455808 
1719.323 597005504 598991168 600419520 601308544 601692480 601613632 
1722.216 601111552 600213632 598937856 597307584 595365376 593182528 
1725.109 590853056 588475648 586132864 583875008 581717440 579653248 
1728.002 577670144 575766784 573958336 572269568 570722496 569326208 
1730.895 568075904 566961536 565984896 565170560 564571840 564260928 
1733.788 564314816 564799360 565762624 567240832 569270208 571902272 
1736.681 575207936 579271808 584176384 589983168 596721472 604387136 
1739.574 612953216 622387328 632663808 643766080 655676608 668359744 
1742.467 681746496 695727552 710160704 724882112 739721152 754504448 
1745.360 769054912 783182656 796683840 809347456 820972608 831390016 
1748.253 840475200 848147840 854360192 859076032 862259520 863871872 
1751.146 863881408 862275328 859065664 854284608 847973312 840169152 
1754.040 830901888 820201344 808111808 794707392 780097920 764423104 
1756.933 747840640 730508992 712578048 694186944 675467648 656549440 
1759.826 637560640 618624064 599851200 581335040 563150720 545359168 
1762.719 528014176 511167776 494872416 479176000 464114208 449704960 
1765.612 435944832 422813120 410279168 398311584 386885088 375980960 
1768.505 365584928 355679616 346238016 337220928 328577792 320251360 
1771.398 312183424 304319904 296613856 289025632 281521856 274073664 
1774.291 266656272 259250400 251843120 244429040 237009440 229590624 
1777.184 222180432 214786304 207413696 200067104 192752480 185479280 
1780.077 178262704 171123456 164086352 157178160 150425120 143850752 
1782.970 137475296 131313112 125374080 119661352 114174384 108910568 
1785.863 103870720 99061776 94500752 90211512 86218768 82539696 79175200 
1789.239 76105512 73292832 70688632 68247232 65934280 63734240 61646888 
1792.614 59681884 57848824 56149100 54574884 53111628 51743608 50459920 
1795.989 49256356 48133732 47093352 46132792 45243560 44413732 43630476 
1799.364 42885908 42177352 41507316 40878992 40292520 39742852 39219972 
1802.740 38712168 38211076 37713940 37225068 36753608 36309248 35897912 
1806.115 35520632 35171704 34841460 34518060 34191812 33856772 33512376 
1809.490 33163514 32818626 32487270 32177508 31890772 31622358 31360332 
1812.865 31088882 30793454 30465128 30104906 29722810 29335522 28961882 
1816.240 28617496 28312012 28048530 27825360 27639318 27486098 27361096 
1819.616 27256636 27160246 27054640 26921332 26746148 26523280 26259594 
1822.991 25971760 25682138 25411940 25175442 24977022 24811060 24664636 
1826.366 24521094 24361588 24167138 23919388 23603818 23213082 22751736 
1829.741 22237978 21703726 21187868 20727438 20349404 20062984 19861118 
1833.117 19724064 19626068 19542976 19455178 19348464 19211932 19037342 
1836.492 18820270 18564766 18284482 18006210 17761578 17579924 17477758 
1839.867 17450560 17472836 17505966 17509802 17454946 17328890 17136912 
1843.242 16894794 16620252 16325766 16018894 15703559 15388623 15089476 
1846.618 14826995 14621552 14483307 14406787 14369827 14340086 14286058 
1849.993 14187211 14040720 13862104 13678632 13521935 13419108 13386644 
1853.368 13430402 13542327 13703505 13884427 14048401 14155860 14173435 
1856.743 14081641 13883941 13604681 13287130 12979052 12720618 12530841 
1860.119 12408285 12332566 12278412 12226613 12171906 12122937 12094434 
1863.494 12096438 12126962 12167974 12193515 12176964 12103676 11975942 
1866.869 11813013 11642940 11493905 11383552 11315034 11277697 11251522 
1870.244 11214904 11150932 11051235 10917366 10759187 10594044 10441043 
1873.620 10320307 10248507 10235674 10283036 10382412 10515723 10659832 
1876.995 10786581 10870480 10890361 10833238 10696548 10490298 10234673 
1880.370 9959634 9700438 9491199 9358341 9316076 9362252 9478393 9632877 
1884.228 9789046 9908474 9958679 9917337 9776361 9541608 9236989 8900525 
1888.085 8582170 8335079 8206335 8224554 8391124 8676873 9028869 9380496 
1891.942 9670351 9855298 9921920 9885019 9780658 9650729 9530471 9437990 
1895.800 9371393 9315822 9252284 9166658 9058873 8940559 8835171 8764847 
1899.657 8749196 8795450 8902006 9060146 9259491 9491047 9748997 10026175 
1903.515 10310418 10577965 10794906 10922085 10926578 10792293 10532821 
1906.890 10187713 9819234 9490567 9250606 9116733 9073754 9080010 9087550 
1910.747 9059954 8987279 8886016 8789517 8729482 8719512 8746955 8776141 
1914.605 8761299 8667582 8481236 8213216 7893031 7555695 7228067 6928086 
1918.462 6660866 6434989 6263457 6168194 6172114 6286773 6499208 6773106 
1922.320 7048515 7265153 7376258 7365761 7250618 7073046 6881981 6719228 
1926.177 6603959 6536642 6501469 6481019 6458627 6424568 6368855 6279814 
1930.034 6141586 5943659 5687640 5399173 5125990 4928625 4856934 4932051 
1933.892 5127756 5379395 5599546 5713333 5688151 5551938 5384291 5291710 
1937.749 5362418 5634979 6073506 6580403 7024538 7284763 7289428 7037104 
1941.607 6590269 6049795 5518987 5070760 4730944 4483493 4287018 4096836 
1945.464 3883226 3644570 3397898 3172155 3001073 2916911 2943997 3103552 
1949.322 3397631 3808042 4281589 4732559 5056705 5158792 4979043 4524388 
1953.179 3863129 3115518 2407740 1840186 1453491 1230218 1116753 1059779 
1957.036 1033682 1056860 1175929 1435005 1837311 2330488 2812335 3168789 
1960.894 3309980 3210138 2897149 2438509 1898870 1317221 697978 32345 
1964.751 -674074 -1376615 -1994263 -2428600 -2605002 -2492961 -2128112 
1968.126 -1574582 -904646 -150562 694483 1663264 2779411 4020115 5296942 
1971.984 6474120 7400979 7961909 8103710 7846131 7260754 6454279 5545930 
1975.841 4669629 3965277 3596399 3702871 4367740 5563618 7131926 8810785 
1979.699 10303863 11358119 11828282 11693083 11048198 10060098 8932530 
1983.074 7844616 6945157 6317792 5993575 5939866 6070947 6256326 6339524 
1986.931 6178534 5693772 4900320 3924736 2973785 2277614 2007852 2219942 
1990.789 2831797 3651865 4446510 5024872 5292226 5274105 5080278 4850787 
1994.646 4688686 4631867 4641362 4642151 4549303 4307455 3890296 3301409 
1998.504 2553438 1673355 701112 -285282 -1176718 -1836687 -2153171 -2076475 
2002.361 -1665075 -1078462 -546360 -290080 -453441 -1045002 -1934743 
2005.736 -2886200 -3635209 -3965614 -3772510 -3067964 -1978295 -699035 
2009.112 542687 1515472 2003721 1849782 978819 -549528 -2536758 -4658528 
2012.969 -6534191 -7813805 -8282385 -7903405 -6828310 -5331821 -3733224 
2016.344 -2304589 -1234273 -596328 -391344 -565072 -1045009 -1740137 
2019.719 -2543815 -3332938 -3995578 -4457378 -4719242 -4858032 -5003997 
2023.095 -5265749 -5678510 -6158735 -6524614 -6559799 -6115153 -5172853 
2026.470 -3880621 -2497477 -1313543 -544270 -277179 -456048 -946466 -1592673 
2030.327 -2290378 -2991417 -3686804 -4343926 -4879545 -5154132 -5028699 
2033.703 -4419790 -3370509 -2048339 -709207 382227 1032625 1170155 850553 
2037.560 223821 -519993 -1187118 -1624811 -1724948 -1440031 -783534 155812 
2041.417 1218235 2184498 2825004 2942130 2442691 1359034 -136809 -1785418 
2045.275 -3283769 -4364715 -4835106 -4608184 -3700687 -2224963 -368814 
2048.650 1622780 3487885 4983271 5938232 6287282 6086411 5488317 4704759 
2052.508 3943720 3360480 3015636 2875897 2838195 2790232 2663149 2466488 
2056.365 2276882 2202264 2315468 2624765 3053509 3477523 3771266 3866728 
2060.222 3775500 3584697 3413656 3368652 3495433 3779643 4160213 4566892 
2064.080 4950909 5298108 5616273 5910656 6161916 6323586 6337750 6171266 
2067.937 5837624 5409902 4993214 4693757 4572010 4622096 4777875 4946310 
2071.795 5045824 5047136 4978562 4912238 4921809 5049346 5281497 5555602 
2075.652 5784507 5895241 5852635 5672670 5407132 5125137 4883189 4715144 
2079.510 4629805 4621943 4682740 4810524 5005995 5267437 5581767 5921841 
2083.367 6253789 6546928 6779690 6948856 7058804 7115458 7116826 7048998 
2087.224 6890831 6626144 6249802 5776840 5231779 4645250 4037961 3426211 
2091.082 2820012 2244227 1742083 1386207 1258605 1431932 1935492 2736998 
2094.939 3736589 4792243 5753375 6508098 7007795 7275689 7382952 7419974 
2098.797 7459748 7539795 7655805 7779600 7872930 7908655 7876754 7785902 
2102.654 7652302 7497232 7336003 7185128 7056625 6963009 6908861 6890477 
2106.511 6888256 6875273 6824507 6726295 6597445 6484806 6452011 6558739 
2110.369 6834931 7266053 7790199 8313824 8739556 8994164 9046067 8908315 
2114.226 8625763 8257057 7852282 7444251 7048864 6675081 6331934 6035228 
2118.084 5798438 5627703 5504242 5391620 5236079 4992333 4638355 4191707 
2121.941 3702297 3241080 2868148 2615198 2469374 2384192 2296720 2157550 
2125.799 1947048 1683635 1403239 1138609 891364 620012 244977 -323248 
2129.656 -1152943 -2255550 -3578176 -5002051 -6375918 -7550807 -8412167 
2133.031 -8902283 -9028276 -8842859 -8432389 -7888159 -7298153 -6738205 
2136.406 -6277715 -5977119 -5889103 -6043505 -6443250 -7047541 -7785342 
2139.782 -8553519 -9252255 -9798075 -10153391 -10326573 -10374801 -10380576 
2143.157 -10435787 -10611168 -10946339 -11435613 -12043079 -12703090 
2146.050 -13354239 -13941543 -14434475 -14820854 -15102503 -15281047 
2148.943 -15357598 -15329938 -15214459 -15054325 -14944651 -15022987 
2151.836 -15459760 -16411401 -17991804 -20215026 -22996666 -26139752 
2154.729 -29378568 -32403752 -34922552 -36676568 -37476868 -37203876 
2157.622 -35831948 -33437874 -30227864 -26525914 -22738780 -19259586 
2160.515 -16392449 -14276268 -12893575 -12083584 -11622314 -11276809 
2163.408 -10865766 -10293396 -9569873 -8783787 -8081194 -7595955 -7432739 
2166.784 -7612012 -8088392 -8755182 -9485021 -10158753 -10707323 -11110970 
2170.159 -11406443 -11656707 -11921364 -12226051 -12551725 -12834261 
2173.052 -13002511 -13005397 -12853179 -12617055 -12424721 -12400015 
2175.945 -12624026 -13078751 -13655175 -14166622 -14421225 -14272290 
2178.838 -13668768 -12661632 -11394977 -10048149 -8798094 -7768776 -7020406 
2182.213 -6547741 -6302383 -6205616 -6182550 -6155371 -6065683 -5870760 
2185.589 -5562259 -5161895 -4727519 -4337403 -4071160 -3980164 -4073893 
2188.964 -4316103 -4634304 -4944238 -5177266 -5286476 -5254931 -5079778 
2192.339 -4765325 -4306640 -3697483 -2942394 -2068278 -1130732 -217955 
2195.714 575035 1157300 1468538 1482349 1210334 690958 -12165 -826175 
2199.572 -1659273 -2414724 -2986408 -3283838 -3240797 -2844284 -2136147 
2202.947 -1213905 -203807 761980 1582181 2200529 2622872 2894712 3092600 
2206.804 3288707 3537642 3852551 4212086 4560074 4827781 4953489 4902678 
2210.662 4676512 4317461 3891433 3470779 3105798 2814995 2577614 2356659 
2214.519 2113967 1848435 1596096 1435989 1452334 1711479 2221067 2926819 
2218.377 3717652 4465384 5059149 5438350 5605852 5611658 5527898 5419164 
2222.234 5318019 5226762 5121997 4986092 4812451 4622102 4449483 4333039 
2226.092 4293008 4330099 4418500 4526374 4624442 4704160 4777166 4879977 
2229.949 5051763 5330650 5730031 6237488 6811628 7390452 7907442 8306704 
2233.806 8555911 8656419 8633708 8531192 8387621 8229139 8058659 7863251 
2237.664 7626550 7342733 7025704 6709914 6433528 6231795 6117339 6084061 
2241.521 6111528 6181913 6288827 6444121 6663117 6952865 7291594 7629760 
2245.379 7897611 8032767 8003426 7827428 7565314 7303986 7118996 7050652 
2249.236 7086468 7174108 7244519 7247198 7173687 7063179 6988407 7027716 
2253.094 7234054 7614107 8123230 8683024 9202120 9604731 9851302 9943579 
2256.951 9918662 9834803 9750009 9707957 9723031 9779238 9834718 9839237 
2260.808 9747596 9543575 9246383 8913757 8627235 8473178 8513491 8773372 
2264.666 9231473 9831799 10499734 11162632 11765150 12272761 12665239 
2268.041 12930954 13056927 13033574 12858674 12551106 12153174 11729502 
2271.416 11352420 11085773 10964635 10990491 11128632 11327127 11527956 
2274.792 11688487 11787694 11830254 11837949 11843664 11878548 11968059 
2278.167 12123098 12342588 12608488 12894846 13169233 13404136 13583717 
2281.542 13710285 13804875 13901738 14036620 14236200 14506619 14831309 
2284.917 15174843 15493331 15745495 15902985 15954535 15906304 15775412 
2288.292 15585489 15358554 15113940 14864665 14621275 14389778 14177950 
2291.668 13990410 13833706 13712155 13628923 13583641 13573628 13592667 
2295.043 13636223 13698537 13778540 13877640 13996856 14134510 14282354 
2298.418 14422246 14531222 14586218 14574353 14497522 14377283 14248417 
2301.793 14148984 14107387 14132702 14211360 14312275 14397983 14439422 
2305.169 14423612 14358665 14267419 14180714 14124914 14117319 14163857 
2308.544 14260765 14400017 14571019 14763402 14965145 15161805 15338594 
2311.919 15481652 15584630 15649755 15688676 15719509 15762510 15834587 
2315.294 15946992 16104518 16307052 16551303 16829202 17130410 17440504 
2318.670 17744564 18032412 18305430 18578946 18878344 19228268 19636258 
2322.045 20077464 20489272 20779320 20847444 20614800 20048736 19175272 
2325.420 18076914 16872486 15693272 14653858 13831366 13253847 12903683 
2328.795 12730848 12671667 12668427 12679494 12682742 12671366 12646922 
2332.171 12613233 12573662 12531181 12489307 12452275 12424855 12409956 
2335.546 12405860 12407637 12408474 12402805 12388902 12368875 12349463 
2338.921 12335618 12330392 12331756 12335869 12337309 12333413 12324172 
2342.296 12312491 12301121 12290842 12278202 12259897 12230652 12190548 
2345.672 12143817 12099194 12065412 12049710 12051874 12065842 12079815 
2349.047 12080878 12058779 12009101 11933478 11840412 11740306 11644499 
2352.422 11562932 11502307 11466420 11455363 11465991 11492246 11526088 
2355.797 11557654 11577234 11576995 11551718 11500440 11425358 11331212 
2359.173 11224386 11112156 11001235 10897235 10803167 10719661 10642057 
2362.548 10563006 10471270 10357595 10216434 10051976 9876956 9713364 
2365.923 9585654 9515040 9512703 9575839 9688892 9827673 9967159 10087851 
2369.781 10180539 10246377 10293525 10332439 10370813 10411587 10453725 
2373.156 10494930 10533291 10570476 10609109 10651573 10696679 10739975 
2376.531 10774855 10796062 10802232 10799007 10796341 10805458 10834815 
2379.906 10886415 10955012 11032575 11110730 11185730 11261083 11343895 
2383.281 11442714 11560828 11695060 11833519 11960457 12060672 12123580 
2386.657 12147792 12139043 12109238 12070699 12035104 12007745 11988865 
2390.032 11972458 11948915 11905969 11832713 11722963 11578792 11413902 
2393.407 11252739 11126168 11065788 11091672 11206612 11392308 11612312 
2396.782 11820321 11973897 12043652 12022682 11925249 11782285 11629953 
2400.158 11502027 11420945 11397903 11430278 11508533 11616928 11738502 
2403.533 11856510 11956855 12030733 12077882 12106428 12132159 12173067 
2406.908 12241827 12338380 12448626 12544064 12593184 12570659 12468049 
2410.283 12300040 12100798 11914604 11783643 11734029 11771378 11877554 
2413.659 12020509 12162243 12269651 12322215 12314715 12253837 12156812 
2417.034 12045499 11943066 11871955 11850984 11893226 12001647 12168438 
2420.409 12373375 12585900 12771834 12898897 12946394 12908177 12797204 
2423.784 12638976 12467135 12313054 12199578 12134603 12112295 12113970 
2427.160 12116213 12095923 12038268 11938034 11802365 11645739 11488425 
2430.535 11348654 11240266 11168567 11130310 11115087 11108004 11093746 
2433.910 11060904 11002539 10920270 10820203 10713504 10612397 10527895 
2437.285 10466852 10434011 10429793 10452011 10495704 10555578 10622584 
2440.661 10685698 10732418 10751210 10734206 10681963 10602883 10515601 
2444.036 10442603 10405811 10418991 10485604 10595466 10731335 10871862 
2447.411 11001401 11111499 11202547 11279372 11348275 11410810 11464753 
2450.786 11504602 11527062 11534338 11534307 11537643 11553795 11582448 
2454.162 11613083 11625478 11598158 11516213 11380208 11209125 11034875 
2457.537 10892668 10808749 10789724 10818092 10859973 10874619 10830550 
2460.912 10719510 10558769 10389918 10262874 10221466 10287658 10453781 
2464.287 10684728 10929015 11133999 11262319 11299038 11253756 11153944 
2467.663 11032785 10918204 10828955 10770994 10743346 10741226 10763247 
2471.038 10806864 10867619 10934194 10987221 11002525 10959798 10849901 
2474.413 10683089 10489656 10312825 10196988 10175780 10259780 10434978 
2477.788 10664660 10899790 11090166 11194740 11187289 11061934 10831022 
2481.164 10524108 10182467 9854914 9589403 9424689 9381446 9457406 9627169 
2485.021 9848617 10073106 10258561 10377407 10423016 10405397 10345330 
2488.396 10266262 10188251 10124205 10082616 10068825 10086603 10136463 
2491.771 10215179 10312103 10410572 10491740 10539153 10544780 10512182 
2495.147 10453777 10387759 10329315 10289809 10271498 10271810 10284239 
2498.522 10302770 10320725 10331912 10328551 10304200 10255997 10189540 
2501.897 10121889 10079237 10090051 10175293 10338291 10560943 10805263 
2505.272 11026508 11185974 11262542 11261187 11207538 11139099 11092547 
2508.648 11092831 11148548 11253431 11392483 11546567 11700395 11839414 
2512.023 11952752 12028437 12056507 12030614 11949384 11820206 11656466 
2515.398 11474664 11290043 11112290 10946455 10793639 10654771 10532291 
2518.773 10431432 10356831 10309849 10286115 10277207 10273692 10269921 
2522.149 10268765 10278658 10311675 10376696 10473238 10590429 10709369 
2525.524 10807913 10868718 10885166 10859085 10801199 10724259 10639176 
2528.899 10552883 10467832 10386141 10311614 10250691 10213198 10206847 
2532.274 10237244 10305091 10408469 10541729 10701250 10883160 11084938 
2535.650 11301087 11522541 11734180 11918408 12054115 12127650 12132592 
2539.025 12073744 11967327 11836979 11708467 11603489 11534980 11504658 
2542.400 11503181 11514132 11519807 11505553 11467272 11408278 11341339 
2545.775 11283752 11250009 11250009 11284623 11347989 11426990 11509101 
2549.151 11582027 11640132 11681013 11708329 11726516 11742916 11762825 
2552.526 11791799 11831814 11885186 11949783 12024761 12106700 12193043 
2555.901 12281650 12371236 12461634 12550533 12633896 12705294 12756141 
2559.276 12778613 12766609 12719677 12640034 12535306 12413209 12281813 
2562.652 12146260 12013162 11888614 11781806 11704679 11669606 11685973 
2566.027 11755356 11869630 12010952 12154837 12276168 12355913 12386460 
2569.402 12372947 12331362 12283044 12249609 12244843 12275570 12337414 
2572.777 12421607 12517736 12618738 12720907 12825537 12933667 13044870 
2576.153 13153101 13248597 13319595 13359249 13366763 13351365 13329820 
2579.528 13320207 13336190 13381339 13446927 13516352 13569790 13593107 
2582.903 13583433 13549669 13508872 13480717 13477424 13502480 13548351 
2586.278 13601354 13647442 13678184 13692102 13696043 13697550 13704880 
2589.654 13718809 13736476 13749549 13750629 13735631 13705065 13666052 
2593.029 13627900 13602774 13600432 13627061 13684417 13768437 13871296 
2596.404 13983089 14092579 14190440 14270914 14331018 14370129 14388495 
2599.779 14385667 14360153 14312286 14244677 14165792 14089932 14033522 
2603.155 14012194 14034789 14100813 14201027 14320171 14443739 14561417 
2606.530 14669528 14769110 14861911 14945380 15012421 15053127 15059061 
2609.905 15031351 14981631 14930140 14901340 14913296 14971824 15067136 
2613.280 15178454 15278593 15344971 15364308 15336404 15271419 15186388 
2616.656 15100448 15031705 14995194 15001910 15056632 15156130 15288047 
2620.031 15430585 15557081 15642961 15673578 15649773 15589055 15519592 
2623.406 15472044 15466871 15509111 15588222 15682882 15770704 15839068 
2626.781 15888128 15930062 15981277 16054679 16151877 16262896 16368933 
2630.156 16452203 16501287 16518023 16514678 16510803 16524360 16565355 
2633.532 16633460 16716111 16796230 16856716 16886824 16886636 16864816 
2636.907 16836954 16819730 16824224 16853558 16900024 16949172 16984224 
2640.282 16992474 16969650 16921858 16862768 16809794 16774831 16762786 
2643.657 16768154 16780012 16785830 16778396 16758507 16735498 16721107 
2647.033 16725581 16751587 16793542 16839608 16876338 16894822 16892816 
2650.408 16875126 16850478 16826532 16808736 16796096 16785770 16773213 
2653.783 16756186 16734157 16706856 16673204 16630707 16573906 16498428 
2657.158 16403014 16291585 16171018 16050506 15935590 15825739 15713889 
2660.534 15587806 15437383 15256725 15049851 14831678 14622853 14446152 
2663.909 14320082 14253858 14245888 14282885 14344042 14405221 14444687 
2667.284 14445598 14401402 14315932 14202149 14079296 13967331 13881570 
2670.659 13829095 13807142 13805513 13810512 13810047 13798917 13777023 
2674.035 13750014 13723619 13700983 13679953 13654429 13619294 13572844 
2677.410 13519645 13469750 13436177 13427370 13445504 13483132 13526527 
2680.785 13560409 13572016 13557198 13518727 13466397 13410991 13361054 
2684.160 13321447 13292889 13273413 13259957 13251805 13248063 13248279 
2687.536 13250655 13252402 13251085 13244633 13235020 13225404 13221554 
2690.911 13227260 13243340 13266006 13288051 13301891 13301024 13284359 
2694.286 13255226 13220213 13187360 13161536 13144377 13132452 13120339 
2697.661 13100632 13069345 13024574 12969485 12909399 12852554 12806634 
2701.037 12778158 12770398 12782993 12811888 12850479 12889809 12922180 
2704.412 12941244 12944912 12934985 12916440 12895172 12877068 12864672 
2707.787 12857983 12855101 12853308 12850060 12846355 12845283 12851200 
2711.162 12868379 12899098 12943180 12997368 13057030 13116263 13169603 
2714.538 13213415 13244419 13261419 13264321 13254478 13234708 13209563 
2717.913 13184404 13163702 13150824 13146048 13147195 13150255 13151218 
2721.288 13149630 13147673 13151370 13167473 13202011 13255727 13323426 
2724.663 13395357 13459549 13505680 13528262 13528735 13515408 13498603 
2728.039 13488555 13490758 13504847 13525344 13543194 13551076 13544683 
2731.414 13524465 13495725 13465146 13438857 13420164 13408515 13400433 
2734.789 13392259 13380596 13364899 13346533 13329169 13316021 13310108 
2738.164 13312453 13323057 13341186 13367311 13400603 13441348 13488625 
2741.540 13538953 13588015 13629189 13656496 13666806 13659735 13639418 
2744.915 13611733 13583946 13561397 13546199 13537349 13531162 13524144 
2748.290 13514731 13504482 13495796 13493096 13499514 13514787 13536791 
2751.665 13560558 13582854 13601650 13617783 13634653 13656514 13685954 
2755.041 13722511 13762501 13799454 13826719 13839027 13833498 13810962 
2758.416 13775008 13731462 13687902 13652372 13631725 13631422 13653142 
2761.791 13695047 13749277 13805291 13851412 13877725 13879501 13858013 
2765.166 13820021 13776089 13736124 13706812 13689911 13682372 13678913 
2768.542 13673316 13661502 13642162 13616227 13586755 13557457 13532053 
2771.917 13515274 13511399 13524250 13555964 13604145 13663123 13722776 
2775.292 13773247 13806243 13820364 13820718 13819395 13829800 13863484 
2778.667 13925306 14010535 14107721 14201223 14275463 14320737 14333385 
2782.042 14316840 14279210 14231022 14181603 14137959 14104005 14081148 
2785.418 14068088 14064734 14069131 14082119 14105672 14143063 14197104 
2788.793 14269958 14359483 14459336 14559325 14648591 14716835 14759166 
2792.168 14776417 14775130 14764658 14753999 14749141 14751873 14760887 
2795.543 14774590 14792423 14817108 14853152 14905349 14974360 15058139 
2798.919 15149651 15239977 15319820 15382874 15425934 15448893 15453245 
2802.294 15441707 15417559 15385504 15352215 15326158 15316280 15331240 
2805.669 15375389 15449027 15548685 15667224 15797032 15930852 16062377 
2809.044 16185187 16292768 16378598 16437374 16467476 16472470 16462736 
2812.420 16452054 16454779 16479708 16528836 16595276 16665149 16723035 
2815.795 16757300 16763102 16744589 16712539 16683128 16672445 16693287 
2819.170 16753523 16854132 16988222 17143504 17301990 17445850 17558758 
2822.545 17632620 17668464 17677274 17675546 17681412 17706840 17755066 
2825.921 17820322 17890348 17952420 18000442 18035362 18066396 18105428 
2829.296 18162548 18240056 18332346 18427146 18510940 18572856 18608792 
2832.671 18621488 18617608 18605524 18592100 18579918 18569914 18561058 
2836.046 18553338 18548478 18550296 18563944 18594880 18647206 18724574 
2839.422 18827572 18954594 19100402 19258990 19421000 19579642 19729740 
2842.797 19871384 20007832 20146248 20293640 20455850 20635484 20833138 
2846.172 21047956 21280154 21530328 21800604 22089476 22392924 22700102 
2849.547 22996880 23267938 23501516 23691590 23839766 23952174 24037736 
2852.923 24103772 24156044 24198114 24234702 24273034 24323928 24400406 
2856.298 24513300 24667474 24860244 25079972 25311306 25538408 25751604 
2859.673 25947876 26133892 26319604 26517122 26733434 26970390 27223562 
2863.048 27483568 27740112 27985642 28217018 28438510 28659052 28892232 
2866.424 29151786 29450572 29796910 30193890 30639816 31129710 31656034 
2869.799 32210554 32784350 33367288 33948640 34516752 35061812 35578016 
2873.174 36065780 36532720 36989688 37448244 37913012 38378880 38829936 
2876.549 39243540 39597284 39877036 40079836 40217428 40307312 40368744 
2879.925 40413056 40442192 40448464 40420628 40349784 40234344 40081104 
2883.300 39902576 39711596 39517220 39323600 39130248 38936260 38743828 
2886.675 38558152 38388524 38244412 38133500 38057988 38017864 38010688 
2890.050 38035196 38091292 38179208 38296780 38439196 38596008 38755156 
2893.426 38904788 39036872 39146952 39235896 39305476 39357556 39392724 
2896.801 39412352 39419512 39423396 39436196 39473476 39545460 39654852 
2900.176 39792540 39940508 40076336 40180256 40240940 40259936 40247748 
2903.551 40221168 40196652 40183960 40185160 40196304 40209136 40218192 
2906.927 40221484 40224976 40239200 40277908 40352944 40472292 40636192 
2910.302 40838108 41065928 41305704 41545604 41780748 42014300 42256760 
2913.677 42521600 42819936 43154704 43519852 43899928 44276524 44634236 
2917.052 44966428 45276364 45575652 45876108 46186352 46504608 46821320 
2920.427 47123052 47399032 47648020 47880652 48116312 48378540 48687004 
2923.803 49052724 49474372 49942940 50444920 50967128 51501016 52042172 
2927.178 52591504 53152064 53727320 54322048 54940652 55589968 56276940 
2930.553 57009192 57793596 58635588 59537848 60502968 61532760 62630564 
2933.928 63800276 65046520 66374168 67787816 69291072 70887784 72580928 
2937.304 74371632 76258328 78234576 80287824 82400376 84549216 86709016 
2940.679 88853608 90955136 92987632 94922232 96730760 98384648 99857248 
2944.054 101126752 102175640 102993216 103573024 103913672 104016360 
2946.947 103888480 103544592 103009064 102316456 101508936 100628968 
2949.840 99713912 98788480 97863632 96937264 96000240 95043992 94065328 
2953.216 93070280 92071680 91085136 90128752 89216560 88360016 87567408 
2956.591 86844136 86191656 85605608 85074072 84579576 84099336 83612960 
2959.966 83106296 82575744 82027360 81472864 80923464 80384760 79853768 
2963.341 79321024 78774680 78204800 77608072 76986832 76346824 75692760 
2966.717 75027256 74350320 73660520 72960264 72256736 71560856 70885504 
2970.092 70240240 69629248 69051184 68499888 67969288 67457744 66967188 
2973.467 66504256 66076404 65689192 65346152 65046632 64788952 64572312 
2976.842 64397916 64266524 64179472 64135520 64132944 64170704 64250708 
2980.218 64378992 64567520 64828628 65176696 65620796 66166692 66815780 
2983.593 67570264 68432872 69407400 70498576 71707336 73027176 74444328 
2986.968 75937208 77480504 79049032 80620352 82176112 83702184 85183888 
2990.343 86607872 87957824 89216904 90366944 91391248 92272832 92995152 
2993.719 93543496 93906024 94073992 94048280 93836280 93454136 92920544 
2997.094 92254728 91470872 90577040 89576264 88471944 87269624 85980432 
3000.469 84618496 83200032 81736616 80233472 78689112 77100504 75466040 
3003.844 73792856 72093552 70388064 68695712 67030936 65399916 63800344 
3007.219 62225764 60668556 59126600 57602964 56104984 54642268 53222688 
3010.595 51849572 50521944 49235348 47982548 46758580 45557612 44377396 
3013.970 43219144 42088380 40992648 39943128 38949916 38018244 37145056 
3017.345 36319752 35523064 34734832 33939948 33134938 32328110 31541210 
3020.720 30798082 30119866 29515204 28978084 28489116 28021974 27551880 
3024.096 27063708 26554798 26035906 25525242 25044548 24609752 24229820 
3027.471 23901866 23616896 23358858 23111918 22864440 22611514 22355804 
3030.846 22106898 21876852 21676598 21511226 21378204 21266186 21159966 
3034.221 21044016 20909546 20755132 20588830 20424336 20275752 20151756 
3037.597 20055222 19980430 19918698 19860022 19799378 19735142 19669766 
3040.972 19606516 19546932 19488352 19426892 19358662 19282534 19202606 
3044.347 19127768 19067238 19029314 19016968 19026534 19048082 19070554 
3047.722 19082384 19076182 19049890 19005658 18948802 18885886 18824284 
3051.098 18769326 18726764 18702750 18702218 18727638 18778102 18847778 
3054.473 18925380 18995620 19041030 19048348 19008928 18922646 18798540 
3057.848 18652820 18506046 18379078 18290202 18250840 18263688 18323834 
3061.223 18417834 18527088 18629494 18705902 18741886 18731556 18679730 
3064.599 18600194 18513118 18439922 18396888 18391848 18421320 18473988 
3067.974 18532962 18584432 18620242 18640284 18651878 18665124 18687658 
3071.349 18721244 18760100 18792880 18807806 18798054 18762894 18710470 
3074.724 18652868 18601964 18564994 18540622 18520272 18492060 18443780 
3078.100 18368914 18269110 18153252 18035302 17930664 17852168 17808412 
3081.475 17801578 17829712 17886220 17962412 18047538 18129068 18195604 
3084.850 18236682 18244920 18218960 18162932 18086882 18003972 17927672 
3088.225 17867220 17826660 17802270 17787830 17773900 17755300 17729324 
3091.601 17698148 17665926 17635148 17604568 17569616 17522712 17458240 
3094.976 17375882 17282698 17191778 17119334 17077316 17070098 17090738 
3098.351 17124278 17151692 17156960 17131858 17078448 17007546 16933818 
3101.726 16868806 16817726 16777352 16738946 16691364 16628981 16550655 
3105.102 16463973 16379872 16309917 16262235 16238712 16236544 16247505 
3108.477 16263055 16275169 16277589 16268745 16248636 16219443 16185336 
3111.852 16151430 16122729 16104143 16098497 16106313 16124157 16148482 
3115.227 16171556 16188165 16193178 16183248 16156591 16113199 16053176 
3118.603 15978392 15891567 15797921 15705505 15624887 15566215 15539016 
3121.978 15547066 15588708 15655069 15732022 15800521 15843075 15845831 
3125.353 15801867 15712526 15588475 15445857 15302890 15177400 15083107 
3128.728 15026630 15009869 15028955 15076887 15144656 15223043 15301042 
3132.104 15367939 15411769 15422856 15394568 15326053 15223911 15100635 
3135.479 14972817 14858834 14772982 14725872 14721515 14759512 14835359 
3138.854 14941200 15066325 15197703 15319351 15415365 15471100 15479052 
3142.229 15440784 15368178 15279858 15197732 15139495 15113793 15117904 
3145.604 15141086 15166068 15177985 15167131 15132551 15080029 15020321 
3148.980 14964819 14924279 14905148 14910488 14938416 14985355 15042019 
3152.355 15099023 15144530 15168923 15165538 15133936 15079604 15011307 
3155.730 14939606 14873599 14817933 14774622 14742194 14719060 14703644 
3159.105 14694356 14688450 14681805 14667849 14640768 14598958 14546338 
3162.481 14494658 14460225 14457981 14496945 14575017 14678134 14784676 
3165.856 14871011 14918450 14919767 14876956 14801984 14709064 14613044 
3169.231 14525064 14454047 14406995 14391777 14414882 14481212 14588671 
3172.606 14726873 14877031 15015666 15120755 15178352 15184909 15150622 
3175.982 15093561 15035204 14993329 14978150 14990320 15021872 15059287 
3179.357 15087342 15092506 15063370 14995127 14887653 14747235 14586116 
3182.732 14420597 14268797 14147121 14065919 14028931 14030094 14058662 
3186.107 14101845 14149096 14194870 14241084 14294145 14361417 14448144 
3189.483 14553909 14672104 14790986 14896982 14977257 15024208 15035243 
3192.858 15014843 14971443 14917013 14865456 14829505 14817939 14836872 
3196.233 14885777 14960288 15049705 15143761 15230462 15302083 15355188 
3199.608 15391800 15415883 15432896 15445729 15454706 15456068 15447452 
3202.984 15425420 15392218 15352032 15309689 15268512 15226789 15177855 
3206.359 15112374 15023461 14910250 14781442 14652927 14542971 14467263 
3209.734 14431506 14430665 14450781 14477999 14502645 14527189 14562067 
3213.109 14624817 14727184 14870165 15037963 15204106 15336497 15411730 
3216.485 15420291 15373137 15295794 15220158 15172744 15166826 15198964 
3219.860 15252143 15304911 15339675 15348986 15337902 15320336 15313346 
3223.235 15329779 15375157 15444745 15529263 15616191 15693959 15754782 
3226.610 15793895 15806852 15789857 15736729 15643131 15506784 15331574 
3229.986 15129613 14919939 14724731 14565731 14455819 14398358 14383840 
3233.361 14395075 14409887 14410304 14385598 14337062 14276166 14220779 
3236.736 14189856 14197821 14250323 14342294 14460102 14584241 14694541 
3240.111 14774294 14814140 14813743 14780672 14729790 14677268 14637978 
3243.487 14621804 14631471 14662645 14706867 14755664 14802848 14847114 
3246.862 14890303 14935248 14981619 15022347 15046663 15040298 14993561 
3250.237 14904586 14784022 14650921 14531396 14448313 14415180 14433105 
3253.612 14490133 14565916 14636931 14683885 14694015 14665019 14601672 
3256.988 14516066 14423574 14339781 14279961 14253608 14265859 14312812 
3260.363 14384330 14464714 14537919 14591494 14619971 14625407 14615880 
3263.738 14601870 14592226 14590994 14598505 14611044 14624792 14636026 
3267.113 14643219 14643958 14636270 14617533 14587626 14549615 14512792 
3270.489 14489974 14495176 14538047 14620143 14732499 14861005 14987917 
3273.864 15100952 15193637 15265731 15318435 15350203 15352570 15314446 
3277.239 15226484 15091086 14924931 14758962 14628856 14562727 14567832 
3280.614 14627736 14703911 14750891 14731636 14633036 14470794 14286656 
3283.990 14133252 14057740 14086842 14221605 14439005 14702265 14973797 
3287.365 15227291 15451171 15648387 15828719 16001742 16169321 16322302 
3290.740 16443472 16512066 16509412 16426537 16266732 16047871 15796425 
3294.115 15545615 15326108 15162176 15067182 15042458 15079317 15162441 
3297.490 15272977 15391731 15499697 15579417 15614739 15594470 15512852 
3300.866 15375605 15199309 15010936 14842871 14724529 14672609 14688574 
3304.241 14755642 14844303 14921824 14959633 14943108 14870789 14756715 
3307.616 14622802 14493620 14389656 14324648 14304363 14324723 14375001 
3310.991 14440472 14505303 14556851 14589569 14606662 14620653 14648293 
3314.367 14704561 14794690 14912151 15034760 15134546 15183165 15162714 
3317.742 15071720 14927495 14759138 14598971 14474658 14400985 14377408 
3321.117 14392385 14428935 14471051 14507511 14534527 14553542 14568225 
3324.492 14581352 14594040 14604726 14610405 14607625 14595490 14573330 
3327.868 14544033 14511945 14483188 14464674 14461868 14478337 14513426 
3331.243 14562799 14619096 14673515 14719254 14752621 14776180 14794275 
3334.618 14815500 14846780 14892804 14951914 15020307 15089172 15148115 
3337.993 15187072 15197873 15177038 15125005 15048026 14957046 14866276 
3341.369 14789906 14739805 14722244 14736786 14776621 14829230 14880732 
3344.744 14917026 14927911 14907999 14855824 14775298 14673914 14562090 
3348.119 14450913 14352039 14274880 14224377 14202325 14204930 14227154 
3351.494 14263065 14308296 14360607 14417870 14476948 14532228 14573941 
3354.870 14591867 14577345 14528120 14451477 14363021 14282747 14231660 
3358.245 14222357 14257885 14330064 14420928 14509800 14576659 14606982 
3361.620 14593102 14534328 14437510 14314564 14182138 14062742 13979111 
3364.995 13952523 13997301 14114269 14289845 14496362 14698794 14863097 
3368.371 14965003 14997029 14967597 14897551 14812937 14733381 14669599 
3371.746 14620923 14578890 14534589 14483279 14427779 14376216 14338752 
3375.121 14321378 14322408 14333488 14342087 14338600 14320081 14292063 
3378.496 14267090 14257820 14274440 14317411 14377926 14441741 14493580 
3381.872 14523598 14529743 14519477 14505810 14504028 14526139 14578721 
3385.247 14661679 14768347 14888423 15008431 15114761 15194137 15235999 
3388.622 15234536 15190757 15113606 15017713 14922936 14847770 14807999 
3391.997 14811579 14859779 14947856 15067990 15211572 15369413 15532997 
3395.373 15690735 15828971 15932793 15989888 15994661 15950957 15874008 
3398.748 15787251 15713342 15670829 15666561 15694406 15738655 15780300 
3402.123 15803955 15804032 15785074 15758701 15740644 15741505 15766427 
3405.498 15812563 15869437 15924390 15962929 15973063 15945304 15874961 
3408.874 15763056 15618130 15458908 15312104 15210710 15185115 15257040 
3412.249 15431225 15692554 16007155 16331177 16620921 16843636 16984610 
3415.624 17050310 17062334 17049970 17040466 17052380 17091672 17154006 
3418.999 17228276 17302570 17367146 17417178 17451280 17471178 17480636 
3422.375 17484936 17491300 17509026 17548224 17616362 17715756 17840334 
3425.750 17975064 18099392 18190544 18230694 18210264 18130846 18001398 
3429.125 17837886 17656408 17471570 17296590 17144234 17027728 16960884 
3432.500 16955446 17016498 17137410 17299218 17472372 17623832 17725012 
3435.875 17760680 17732638 17657696 17562222 17472374 17406942 17371344 
3439.251 17359598 17357076 17348092 17320422 17269680 17198390 17113936 
3442.626 17025766 16944040 16876602 16830380 16812426 16827822 16881204 
3446.001 16972826 17098894 17249734 17411488 17568450 17704084 17805652 
3449.376 17865278 17881190 17858586 17806934 17739302 17669684 17610582 
3452.752 17569636 17550216 17550462 17565998 17591382 17621170 17652244 
3456.127 17681354 17705604 17721636 17723876 17708610 17674556 17624376 
3459.502 17564674 17507044 17462972 17440232 17442428 17466674 17505082 
3462.877 17547798 17585070 17609696 17617608 17607746 17583014 17549216 
3466.253 17515522 17493906 17497268 17535500 17612460 17723858 17856352 
3469.628 17992380 18113562 18208602 18273874 18315764 18344154 18370460 
3473.003 18401316 18439634 18485072 18541010 18615498 18721254 18871706 
3476.378 19072368 19315350 19576876 19820774 20009770 20116728 20133652 
3479.754 20076858 19980324 19887038 19835216 19848250 19930020 20067242 
3483.129 20236320 20411550 20574206 20713868 20829344 20926834 21013694 
3486.504 21097306 21181760 21269642 21360130 21452172 21546002 21643734 
3489.879 21751466 21877184 22030878 22219020 22442340 22692766 22953172 
3493.255 23199824 23408966 23563516 23656142 23692928 23689018 23664754 
3496.630 23637660 23619148 23612522 23615422 23623502 23635002 23650624 
3500.005 23675202 23712152 23762308 23821792 23881762 23931260 23960020 
3503.380 23962490 23937132 23888884 23826354 23760268 23701714 23660728 
3506.756 23643214 23652246 23685364 23736194 23794834 23851130 23895864 
3510.131 23921828 23923696 23898388 23842108 23750708 23623010 23460296 
3513.506 23272734 23078524 22902132 22769332 22699158 22697662 22755646 
3516.881 22850070 22951626 23032506 23074122 23071370 23028838 22958478 
3520.257 22870342 22768568 22651386 22511676 22343526 22144440 21920694 
3523.632 21683186 21446478 21223478 21023656 20850920 20706696 20589442 
3527.007 20498460 20433750 20394372 20379032 20385492 20410198 20449374 
3530.382 20501480 20565696 20642140 20729168 20821920 20913272 20993620 
3533.758 21054646 21093486 21113820 21126200 21145354 21182804 21244378 
3537.133 21325108 21411090 21482596 21520834 21516628 21472232 21403440 
3540.508 21332846 21284484 21273580 21303130 21360772 21424976 21470156 
3543.883 21476052 21433368 21344586 21223386 21088116 20958294 20849652 
3547.259 20774102 20739514 20750320 20806646 20902920 21026288 21153750 
3550.634 21258122 21311108 21291928 21196384 21039246 20850704 20669884 
3554.009 20532352 20460794 20457120 20505258 20575136 20635362 20659300 
3557.384 20634030 20559062 20445840 20310738 20172386 20048102 19952956 
3560.760 19898772 19894056 19941458 20037408 20166996 20309668 20439586 
3564.135 20531262 20566828 20538486 20450888 20318254 20159504 19994496 
3567.510 19838200 19701876 19592342 19514162 19472246 19472840 19520992 
3570.885 19618518 19759820 19929220 20102278 20248780 20339190 20354534 
3574.260 20292008 20168876 20020284 19891462 19822978 19839214 19939364 
3577.636 20094302 20254574 20364334 20378734 20277302 20071914 19802454 
3581.011 19523722 19291456 19143862 19092850 19122700 19197510 19272584 
3584.386 19307520 19274762 19165632 18989128 18766178 18525158 18294454 
3587.761 18097996 17952136 17862420 17823200 17819700 17829556 17829060 
3591.137 17796316 17720110 17600556 17449686 17289878 17147982 17048558 
3594.512 17008824 17035912 17124428 17260672 17424802 17596460 17758422 
3597.887 17898492 18010032 18092658 18149250 18184382 18203832 18212908 
3601.262 18216918 18219598 18225900 18237518 18254814 18272840 18284104 
3604.638 18278814 18246820 18182548 18087802 17971280 17848570 17737926 
3608.013 17654098 17607610 17600410 17630214 17692808 17783970 17902874 
3611.388 18049166 18221542 18412268 18607064 18786064 18929012 19020744 
3614.763 19057588 19045582 19001560 18945764 18894562 18857178 18834098 
3618.139 18820228 18807570 18791388 18771926 18755246 18746820 18753324 
3621.514 18775492 18812602 18860898 18919898 18992648 19088386 19219408 
3624.889 19396918 19627642 19909068 20229198 20567858 20900226 21201442 
3628.264 21451124 21637892 21758408 21818364 21827846 21797574 21736552 
3631.640 21652702 21549562 21434322 21315278 21205728 21120314 21074670 
3635.015 21078928 21133728 21231640 21356572 21490220 21615970 21726978 
3638.390 21825676 21925752 22046278 22205122 22413688 22670794 22962158 
3641.765 23262958 23542458 23771844 23930370 24009158 24014790 23965494 
3645.141 23889704 23816596 23773270 23774820 23825556 23914094 24018242 
3648.516 24110272 24162314 24155566 24084840 23960808 23808882 23660734 
3651.891 23549772 23498720 23516316 23591164 23697244 23801028 23868946 
3655.266 23881930 23837008 23750630 23651450 23569832 23527554 23529548 
3658.642 23565004 23610442 23641978 23642876 23611772 23561572 23514446 
3662.017 23491806 23507580 23559084 23631048 23697366 23732646 23716050 
3665.392 23639790 23506442 23328696 23121954 22899772 22671160 22435982 
3668.767 22190922 21928822 21646238 21345270 21037132 20740060 20478458 
3672.143 20274738 20144682 20092976 20110648 20177024 20264128 20343122 
3675.518 20391672 20396444 20354216 20268416 20146698 19996450 19824460 
3678.893 19638872 19449798 19269834 19111802 18982500 18879464 18789982 
3682.268 18692704 18566770 18398962 18191014 17959826 17734044 17540330 
3685.644 17397074 17305648 17250622 17205954 17144730 17049526 16918494 
3689.019 16763715 16607432 16471999 16372608 16313475 16287679 16280415 
3692.394 16273398 16250186 16198289 16112262 15992712 15848910 15695935 
3695.769 15551464 15433182 15353332 15315268 15312440 15330269 15351322 
3699.145 15362232 15357428 15341854 15327884 15331493 15363824 15429602 
3702.520 15524131 15636157 15750578 15854374 15935145 15986066 16002283 
3705.895 15980804 15921988 15829423 15712406 15585192 15466022 15373994 
3709.270 15324380 15325131 15375522 15466890 15585598 15715895 15843006 
3712.646 15955374 16044796 16105533 16136333 16136689 16110562 16064784 
3716.021 16009297 15956406 15918057 15906313 15928779 15989572 16086470 
3719.396 16214270 16361406 16514197 16655460 16767243 16833584 16840874 
3722.771 16782484 16658774 16479449 16263954 16040081 15840111 15697198 
3726.146 15636902 15673958 15805166 16009133 16250232 16485937 16675796 
3729.522 16791440 16821832 16773179 16664438 16520958 16364839 16209442 
3732.897 16059268 15914187 15770333 15629327 15497916 15387719 15309863 
3736.272 15274851 15285196 15339164 15430779 15552060 15694764 15848277 
3739.647 16001215 16138688 16244415 16305098 16313588 16271984 16194051 
3743.023 16098944 16011458 15950261 15927257 15943468 15991259 16058996 
3746.398 16133517 16204054 16263822 16308306 16337249 16352145 16359394 
3749.773 16369026 16393598 16443405 16524112 16630335 16747767 16853180 
3753.148 16924072 16942582 16902152 16809178 16681118 16540335 16408078 
3756.524 16301444 16229738 16196612 16200705 16239507 16308637 16401686 
3759.899 16508985 16616194 16707951 16768010 16785522 16758204 16692968 
3763.274 16605929 16517863 16449431 16416132 16426047 16477680 16561341 
3766.649 16663812 16770853 16868976 16949466 17006766 17040362 17049986 
3770.025 17037528 17005498 16955534 16890664 16816308 16740547 16673611 
3773.400 16627621 16612316 16633892 16691484 16774869 16869020 16951318 
3776.775 16999376 16994846 16924302 16785192 16584344 16337436 16067613 
3780.150 15801940 15566590 15385461 15276133 15248864 15305202 15438981 
3783.526 15637094 15878446 16137999 16386770 16595727 16740393 16803738 
3786.901 16783316 16689872 16548108 16390732 16250316 16153235 16110783 
3790.276 16118160 16154962 16194059 16208297 16178129 16096942 15970943 
3793.651 15817640 15659234 15519839 15419130 15370443 15379251 15442909 
3797.027 15549637 15682181 15819345 15940543 16029241 16077289 16085686 
3800.402 16063696 16024664 15982440 15946437 15919587 15900487 15884567 
3803.777 15869148 15854105 15840335 15829865 15822835 15815800 15803540 
3807.152 15781604 15750358 15715543 15687725 15678370 15696920 15745549 
3810.528 15817771 15900724 15980508 16042087 16077276 16082114 16055826 
3813.903 15999038 15911743 15794950 15650574 15485756 15314532 15158470 
3817.278 15040156 14981681 14995703 15083520 15231512 15415954 15605318 
3820.653 15769579 15885193 15941914 15943540 15908469 15862009 15828710 
3824.029 15828148 15866732 15939102 16028514 16112192 16167987 16180780 
3827.404 16144404 16064484 15954576 15833504 15721124 15633056 15580712 
3830.779 15568194 15594114 15649388 15722489 15797539 15861580 15903197 
3834.154 15918666 15910918 15890982 15873864 15874704 15906731 15976753 
3837.530 16084027 16219966 16371617 16523965 16660940 16769178 16839404 
3840.905 16867226 16854302 16808458 16743958 16676361 16618904 16578803 
3844.280 16552838 16528282 16486611 16408769 16283944 16115474 15920468 
3847.655 15730971 15581212 15502982 15515095 15620024 15801091 16028201 
3851.031 16264547 16474824 16631683 16721431 16741058 16700599 16614866 
3854.406 16499449 16366733 16225480 16080461 15935808 15798092 15673773 
3857.781 15573943 15508153 15481704 15494736 15541974 15614142 15701305 
3861.156 15795983 15893918 15994208 16096208 16199531 16301466 16400198 
3864.531 16495338 16589474 16690103 16803576 16933384 17072938 17206718 
3867.907 17311534 17361734 17340846 17245864 17089728 16899372 16706917 
3871.282 16539956 16416620 16341453 16311096 16318828 16358702 16428007 
3874.657 16526245 16650051 16789980 16929048 17047138 17124784 17149752 
3878.032 17120214 17044458 16937918 16817984 16700499 16598180 16519995 
3881.408 16473999 16464747 16493678 16555747 16635504 16708912 16749199 
3884.783 16732693 16650004 16510360 16340526 16178079 16058773 16005892 
3888.158 16022574 16093755 16190976 16284324 16350759 16381420 16381236 
3891.533 16362436 16340377 16325083 16319420 16320659 16325286 16331738 
3894.909 16343141 16366925 16411049 16479431 16570516 16677406 16787460 
3898.284 16889330 16976092 17046702 17105320 17160040 17216472 17275268 
3901.659 17329640 17366788 17369848 17324962 17224146 17069608 16874674 
3905.034 16659070 16447099 16259795 16112056 16011596 15957378 15944447 
3908.410 15966021 16016100 16089469 16180905 16283352 16386880 16480492 
3911.785 16552541 16596595 16612908 16608542 16596839 16590504 16599096 
3915.160 16624324 16659386 16692359 16710797 16708003 16685940 16653256 
3918.535 16623449 16607663 16611410 16629979 16651699 16662141 16650807 
3921.911 16616642 16568817 16526364 16510151 16537251 16612807 16729223 
3925.286 16865638 16994476 17089716 17134392 17124272 17069330 16988744 
3928.661 16906034 16839220 16797502 16778918 16772296 16762909 16738132 
3932.036 16692825 16632902 16573232 16531968 16525574 16562084 16637702 
3935.412 16736779 16836014 16911704 16944998 16929154 16869434 16782550 
3938.787 16689988 16610583 16556995 16529629 16519785 16514689 16501149 
3942.162 16472571 16429614 16380975 16337862 16310969 16305311 16319182 
3945.537 16347436 16385335 16430771 16487174 16561422 16661048 16787652 
3948.913 16935306 17089084 17229830 17339020 17406324 17433444 17432264 
3952.288 17423414 17426730 17455582 17512234 17587562 17663966 17720140 
3955.663 17739646 17713204 17641988 17534200 17403614 17264656 17130448 
3959.038 17010124 16908726 16827314 16764434 16715193 16674288 16637217 
3962.414 16601730 16569281 16546108 16541889 16567107 16629605 16731780 
3965.789 16868618 17028858 17197510 17359984 17505906 17630758 17734528 
3969.164 17822112 17896174 17957094 18000218 18018092 18003392 17950926 
3972.539 17862802 17748064 17622270 17504166 17412114 17359152 17349414 
3975.915 17378000 17428146 17478442 17503726 17483080 17404648 17269874 
3979.290 17093272 16900798 16722413 16585283 16508318 16496601 16542558 
3982.665 16629819 16738566 16849206 16947752 17026328 17079722 17105928 
3986.040 17104128 17075784 17026090 16965312 16909588 16876940 16881782 
3989.416 16930136 17016282 17124218 17231248 17316944 17369530 17391400 
3992.791 17397510 17409902 17449960 17533346 17662742 17831230 18022918 
3996.166 18220690 18407828 18572140 18704374 18797282 18845750 18845476 
3999.541 18798322 18712304 18602826 
##END=
