##TITLE=3D-Fillies_PLA-Rainbow_Orange_Filament_r4_ATR-Corrected
##JCAMP-DX=5.01  $$ Nicolet v. 1
##DATATYPE=INFRARED SPECTRUM
##ORIGIN=Curtin University
##OWNER=Nicolet
##LONGDATE=2024/07/18
##TIME=16:07:54
##SPECTROMETER/DATA SYSTEM=Nicolet iS50
##DATA PROCESSING=
Ratio against background
%Transmittance->Absorbance
ATR Correction
Truncated
ElementMultiply or ElementDivide
##COMMENTS=
Number of sample scans: 32
Collection length: 47.27 sec
Sample gain: 1.0
Background collected on: Thu Jul 18 16:05:54 2024 (GMT+08:00);
Number of background scans: 32
Background gain: 1.0
Sample spacing:  1.000
Number of scan points: 16672
Resolution points: 8192
Number of FFT points: 65536
Apodization: N-B strong;
Phase correction: Mertz;
Laser frequency: 15798.3 cm-1
Number of rejected sample scans: 0
Number of rejected background scans: 0
Bench serial number: AUP1200105;
##RESOLUTION=4.000
##XUNITS=1/CM
##YUNITS=ABSORBANCE
##FIRSTX=400.163452
##LASTX=4000.187744
##FIRSTY=0.060002
##MAXX=4000.187744
##MINX=400.163452
##MAXY=0.904633
##MINY=-0.026951
##XFACTOR=1.000000
##YFACTOR=1.000000E-009
##NPOINTS=7468
##DELTAX=0.482125
##ZPD=8192
##XYDATA=(X++(Y..Y))
400.163 60001800 58175080 56561192 55260948 54290316 53600412 53097588 
403.538 52676528 52257432 51806268 51336488 50887676 50494912 50158852 
406.913 49830116 49416452 48812340 47940124 46787068 45420736 43978436 
410.288 42630956 41534612 40783144 40381464 40244764 40226588 40166224 
413.663 39938716 39487444 38832796 38050064 37233716 36459280 35760572 
417.038 35129748 34536240 33954304 33385434 32863054 32439660 32160498 
420.412 32039284 32045186 32109048 32145110 32080874 31880308 31554834 
423.787 31157338 30762762 30443722 30250622 30200432 30278720 30447674 
427.162 30658900 30865628 31031464 31135746 31178000 31177216 31167938 
430.537 31190896 31279646 31446978 31676472 31919748 32114856 32198734 
433.912 32130726 31905950 31559012 31152294 30757214 30433458 30214730 
437.286 30105226 30085672 30124488 30189772 30255588 30302702 30316052 
440.661 30282132 30189828 30035018 29825578 29584418 29346614 29150856 
444.036 29027328 28988556 29024152 29104284 29188726 29238892 29228478 
447.411 29150142 29015840 28852792 28695340 28577218 28522126 28539386 
450.786 28619846 28738380 28858470 28942676 28962654 28908276 28790436 
454.161 28637630 28485400 28363990 28287578 28250788 28232380 28206188 
457.535 28151960 28063794 27951318 27833120 27727352 27642254 27572074 
460.910 27500054 27405318 27271836 27094434 26880402 26642390 26403388 
464.285 26181532 25990914 25839898 25732250 25666158 25633976 25621018 
467.660 25607132 25570058 25492916 25369768 25211012 25041972 24896568 
471.035 24807520 24796916 24869428 25012368 25199812 25400892 25586768 
474.409 25735496 25833780 25875668 25861058 25794434 25684326 25542398 
477.784 25381870 25214338 25046754 24879428 24707400 24524630 24329578 
481.159 24129774 23942802 23792544 23701944 23685184 23742926 23860882 
484.534 24014428 24174370 24314358 24414416 24462658 24454700 24391960 
487.909 24281870 24138234 23981976 23840498 23743990 23719308 23783572 
491.284 23938890 24171188 24453618 24752616 25036024 25280182 25471702 
494.658 25614018 25720604 25812760 25915426 26051688 26236440 26472154 
498.033 26745636 27028528 27282788 27468850 27555652 27528996 27395200 
501.408 27178722 26914894 26640338 26384594 26165414 25988598 25851984 
504.783 25749548 25675100 25623358 25589590 25568224 25552956 25537508 
508.158 25516958 25488666 25451306 25402748 25338328 25249962 25128978 
511.532 24969460 24773666 24553736 24330656 24128674 23968808 23862514 
514.907 23809600 23799502 23816234 23842736 23864316 23868792 23844964 
518.282 23781692 23668960 23501822 23285310 23038232 22791570 22582234 
521.657 22442312 22388054 22413048 22488716 22571644 22616738 22589982 
525.032 22475912 22284696 22043148 21786720 21549284 21354648 21212586 
528.406 21119252 21060512 21017662 20973446 20916834 20846340 20771120 
531.781 20708892 20680994 20705248 20789188 20924918 21088742 21245222 
535.156 21356056 21390316 21332598 21186620 20973304 20724282 20472648 
538.531 20245314 20057956 19913942 19807342 19726468 19658922 19594320 
541.906 19526890 19455786 19385516 19324348 19283212 19272484 19298956 
545.281 19363048 19457794 19569490 19681030 19775694 19841502 19872258 
548.655 19868964 19836572 19782648 19714314 19638336 19561018 19489722 
552.030 19431772 19394550 19382286 19394734 19425896 19465308 19500740 
555.405 19522130 19523700 19508152 19482774 19458194 19444986 19451270 
558.780 19480886 19533402 19605054 19689598 19779316 19866078 19942190 
562.155 20001438 20040438 20059678 20063636 20059786 20057280 20064474 
565.529 20086392 20124088 20173622 20227542 20276384 20310838 20324256 
568.904 20314248 20283804 20241650 20200726 20175736 20179512 20219952 
572.279 20296676 20401578 20520172 20636146 20736116 20814308 20874358 
575.654 20927920 20991242 21079734 21203052 21361910 21548172 21747070 
579.029 21940646 22111916 22247464 22339334 22384204 22383606 22342180 
582.404 22268038 22172164 22068500 21973446 21904428 21877228 21903446 
585.778 21987314 22124548 22301904 22499066 22691466 22855078 22970054 
589.153 23024128 23014628 22948004 22838778 22706288 22571578 22453682 
592.528 22367096 22319312 22310484 22333716 22377376 22427882 22473688 
595.903 22508146 22531252 22549168 22571938 22609576 22667802 22745914 
599.278 22836064 22925648 23001444 23053872 23080340 23085782 23080788 
602.652 23078136 23088500 23117676 23165176 23225002 23287330 23341518 
606.027 23378382 23392456 23383440 23357654 23328128 23314040 23338266 
609.402 23423228 23585652 23831660 24153432 24529502 24927808 25312616 
612.777 25652038 25924310 26121826 26251396 26331120 26385518 26440044 
616.152 26516310 26628952 26784122 26979102 27203496 27440438 27670112 
619.527 27873042 28034960 28150508 28225698 28277086 28329208 28408324 
622.901 28535880 28722816 28966602 29251838 29554612 29848810 30113568 
626.276 30338418 30525950 30689826 30850242 31026724 31232140 31467832 
629.651 31723752 31981376 32219640 32421452 32578894 32694812 32781418 
633.026 32854856 32929964 33015340 33111800 33213724 33312612 33401992 
636.401 33480250 33551566 33624204 33706848 33805744 33922504 34054244 
639.775 34195628 34341604 34489472 34639648 34795196 34959984 35136748 
643.150 35326224 35527356 35737968 35956160 36180844 36411644 36647732 
646.525 36886344 37121712 37345364 37547772 37720820 37861788 37975628 
649.900 38076640 38186756 38331932 38536452 38816596 39175560 39601056 
653.275 40066276 40535456 40970664 41339988 41623700 41817260 41930084 
656.650 41981468 41994584 41990920 41985592 41986380 41994108 42005012 
660.024 42014092 42017596 42014612 42007832 42002840 42006692 42026432 
663.399 42067276 42131556 42218604 42325296 42447668 42582876 42730532 
666.774 42892900 43073980 43276908 43502156 43744872 43995296 44240232 
670.149 44466160 44662736 44825592 44956892 45065380 45163360 45264096 
673.524 45378976 45515272 45675308 45856672 46052804 46254792 46453104 
676.898 46639320 46807644 46955640 47084276 47197192 47299032 47394032 
680.273 47485576 47575812 47666384 47758460 47852772 47949076 48045120 
683.648 48136832 48218976 48288076 48345160 48398264 48462336 48555968 
687.023 48696308 48892320 49141076 49426984 49725832 50012892 50270464 
690.398 50494140 50693404 50888264 51101088 51348644 51636632 51958112 
693.773 52297080 52634060 52952736 53244508 53509736 53756740 53998628 
697.147 54250188 54525164 54835152 55188856 55591048 56042364 56537660 
700.522 57066580 57613904 58162056 58693396 59193292 59651800 60064152 
703.897 60430624 60755268 61044648 61307440 61552808 61790192 62027248 
707.272 62268536 62513968 62758028 62990540 63198844 63370740 63497448 
710.647 63575940 63609348 63606820 63581004 63546516 63517720 63507468 
714.021 63527212 63586468 63694252 63859768 64094424 64413860 64840356 
717.396 65405592 66153280 67140840 68440824 70141680 72345824 75167608 
720.771 78726168 83135240 88488816 94842352 102194248 110467904 119500616 
724.146 129042568 138767552 148298016 157239648 165223280 171944560 
727.039 177195072 180877296 183001936 183668240 183036112 181294704 
729.931 178634672 175228288 171217664 166711920 161789968 156509408 
732.824 150917184 145060144 138993488 132783368 126505720 120240568 
735.717 114065136 108048608 102250352 96719952 91502072 86638768 82170984 
739.091 78136808 74566848 71479000 68874024 66733456 65021672 63690284 
742.466 62684616 61950664 61440436 61115200 60946584 60915164 61007904 
745.841 61214508 61524696 61925276 62399820 62928840 63492300 64072920 
749.216 64659232 65247512 65842188 66452244 67087844 67754240 68448752 
752.591 69157504 69857912 70521104 71117024 71618368 72003416 72255968 
755.966 72364776 72321088 72118632 71753320 71225584 70542120 69716920 
759.340 68770392 67727184 66612324 65447800 64250640 63032432 61800792 
762.715 60561028 59318232 58077896 56845812 55627476 54427244 53248432 
766.090 52093772 50966816 49872836 48818420 47810892 46856064 45956332 
769.465 45109028 44306428 43537092 42788304 42049120 41312608 40578424 
772.840 39851972 39143508 38465744 37830880 37247440 36717668 36236832 
776.214 35792648 35368336 34945656 34509136 34049840 33566648 33066314 
779.589 32559458 32057032 31565946 31087052 30615024 30141758 29659836 
782.964 29166698 28665648 28165460 27677432 27211274 26773428 26366382 
786.339 25990496 25647230 25341348 25081492 24877740 24738218 24664220 
789.714 24648526 24675112 24722740 24769708 24798470 24798426 24766302 
793.089 24703324 24612396 24495542 24352964 24183874 23988922 23772140 
796.463 23541510 23308098 23083822 22879140 22701840 22556646 22446454 
799.838 22373830 22341586 22351984 22405336 22497678 22620196 22759148 
803.213 22899662 23027286 23131590 23206486 23249840 23260998 23238468 
806.588 23178746 23077274 22930998 22741756 22518138 22275544 22033148 
809.963 21809020 21615860 21457590 21329906 21223820 21129436 21041820 
813.337 20962208 20897924 20857782 20848370 20869244 20912148 20962692 
816.712 21004310 21024058 21015996 20983492 20938026 20896068 20874956 
820.087 20888792 20946170 21049604 21195656 21376760 21582636 21801674 
823.462 22022504 22234546 22428900 22599218 22741206 22852820 22933980 
826.837 22986294 23013258 23020470 23016234 23011046 23016808 23044846 
830.212 23103344 23195504 23318560 23464920 23624522 23789032 23954284 
833.586 24121930 24299012 24493930 24713456 24959330 25227900 25512410 
836.961 25807646 26114510 26443864 26815432 27254118 27782542 28413498 
840.336 29144084 29954452 30811674 31677448 32517102 33307460 34039768 
843.711 34718168 35353528 35955988 36528412 37064368 37550088 37969640 
847.086 38312612 38578400 38778596 38934760 39074624 39226640 39417180 
850.460 39669664 40004856 40443124 41004328 41707916 42569560 43599720 
853.835 44801260 46171084 47701708 49384144 51210120 53171424 55257712 
857.210 57453252 59734288 62068680 64418548 66744768 69012552 71195376 
860.585 73276848 75249480 77112624 78869272 80524752 82085624 83559728 
863.960 84956392 86285480 87555208 88769744 89928616 91025760 92052168 
867.335 92998576 93858688 94630680 95316272 95918160 96436088 96862160 
870.709 97178968 97359296 97367976 97166024 96715800 95986200 94956776 
874.084 93620448 91984992 90072144 87915976 85559752 83052248 80444048 
877.459 77783880 75115368 72475520 69893640 67392080 64987532 62692904 
880.834 60518428 58473316 56565228 54800300 53182456 51713112 50391968 
884.209 49218208 48191980 47315796 46594508 46033488 45635192 45395720 
887.583 45300300 45323920 45432412 45588744 45759320 45921300 46064872 
890.958 46193620 46318580 46451700 46598308 46753388 46901808 47022256 
894.333 47094220 47103980 47048124 46933996 46776456 46593260 46400548 
897.708 46210328 46029604 45862068 45709328 45572436 45452576 45350776 
901.083 45268080 45205052 45162644 45142212 45144472 45168880 45211396 
904.458 45263524 45311880 45340536 45334556 45283976 45188036 45056004 
907.832 44906540 44764312 44654904 44600084 44614112 44702088 44859556 
911.207 45074364 45329244 45605032 45883624 46151332 46400556 46630768 
914.582 46847692 47060916 47280620 47513276 47759852 48014608 48266984 
917.957 48504512 48716544 48897516 49047600 49172968 49282668 49386460 
921.332 49492320 49605012 49726508 49856444 49993924 50138280 50289668 
924.706 50448900 50616864 50794672 50982344 51180048 51387672 51605624 
928.081 51835152 52079528 52342968 52630576 52946768 53293360 53667296 
931.456 54059680 54455452 54836060 55182516 55480148 55722272 55912364 
934.831 56062784 56191476 56316380 56449996 56595516 56746320 56887684 
938.206 57002524 57076108 57101344 57080912 57027276 56959752 56900448 
941.581 56870764 56887832 56962564 57100104 57299684 57556544 57862928 
944.955 58210260 58589848 58994844 59421004 59867036 60334828 60828420 
948.330 61352644 61911760 62507956 63140900 63807704 64503552 65222196 
951.705 65956392 66697164 67433376 68149824 68827152 69441072 69963744 
955.080 70365824 70619224 70700368 70592680 70289064 69792160 69114232 
958.455 68276552 67306592 66236080 65098896 63928136 62755332 61607980 
961.829 60510136 59481432 58537292 57689736 56947368 56315572 55796724 
965.204 55389600 55089436 54887840 54773320 54732292 54750340 54814056 
968.579 54912000 55035640 55179424 55339600 55513600 55698840 55892316 
971.954 56091008 56293164 56499780 56714924 56945768 57201520 57490400 
975.329 57817324 58182000 58578404 58995868 59421560 59843312 60252292 
978.703 60643428 61015648 61369812 61707568 62030248 62339008 62636016 
982.078 62925400 63213864 63510424 63824080 64161420 64524196 64908652 
985.453 65305716 65703944 66092268 66464028 66819480 67166304 67517952 
988.828 67891728 68304416 68768440 69289488 69864352 70482168 71126744 
992.203 71780104 72427600 73060144 73676464 74282448 74889488 75510304 
995.578 76157384 76840376 77566600 78341248 79168888 80053864 80999264 
998.952 82005320 83067184 84174784 85312992 86464696 87614680 88753392 
1002.327 89880096 91002920 92139080 93312296 94549944 95882032 97337384 
1005.702 98943208 100723312 102696088 104874320 107265440 109874200 
1008.595 112706464 115773920 119098304 122714016 126666736 131010176 
1011.487 135799520 141083296 146894480 153239472 160088512 167365024 
1014.380 174937312 182615616 190157648 197285184 203713104 209186464 
1017.273 213519104 216624688 218531088 219376736 219384944 218830624 
1020.166 218001136 217162512 216535744 216283360 216506224 217247568 
1023.058 218502320 220228688 222362256 224830192 227564432 230511792 
1025.951 233640352 236938368 240409648 244066032 247917552 251968272 
1028.844 256213600 260643984 265249968 270028544 274986272 280138208 
1031.737 285504832 291104000 296944960 303022624 309316064 315789216 
1034.630 322394720 329077088 335776608 342430976 348976960 355349920 
1037.523 361485440 367321600 372801632 377876992 382508992 386668832 
1040.417 390334944 393490816 396120672 398208704 399739680 400701504 
1043.310 401088384 400902848 400157344 398872512 397075872 394800608 
1046.203 392085344 388975360 385524800 381797824 377866944 373810464 
1049.096 369705056 365620576 361612608 357720224 353965728 350357184 
1051.989 346893472 343569760 340381408 337325504 334400256 331604704 
1054.882 328936160 326390624 323966272 321667808 319511488 317529856 
1057.775 315772640 314305728 313205248 312550464 312418144 312876576 
1060.668 313984256 315790752 318338752 321666336 325807904 330793632 
1063.561 336645312 343372864 350971328 359419776 368682624 378714208 
1066.454 389464448 400883296 412923968 425543136 438698336 452344896 
1069.347 466432992 480907488 495709120 510778592 526058784 541499264 
1072.240 557054848 572684864 588350528 604011264 619621888 635132096 
1075.133 650486208 665623744 680483776 695007424 709141760 722839168 
1078.026 736057408 748754688 760882816 772384256 783189312 793221376 
1080.919 802400768 810653888 817916032 824131008 829246336 833210688 
1083.813 835972160 837484992 837720896 836680832 834401088 830953856 
1086.706 826437056 820964864 814653248 807615872 799960128 791788224 
1089.599 783196480 774273344 765094144 755719232 746193536 736551616 
1092.492 726823616 717041728 707241792 697461504 687732480 678074496 
1095.385 668491904 658975296 649506752 640066688 630638528 621209600 
1098.278 611767616 602297536 592778304 583185472 573495872 563695104 
1101.171 553782464 543772416 533692352 523576672 513459616 503373856 
1104.064 493348992 483415296 473608704 463974912 454570176 445461504 
1106.957 436723360 428434496 420672800 413512736 407020640 401251616 
1109.850 396245344 392021984 388580544 385897056 383927040 382609792 
1112.743 381873504 381642432 381842432 382404192 383265536 384370176 
1115.636 385667424 387111328 388660416 390279328 391940320 393625728 
1118.529 395327008 397045568 398789792 400572384 402407168 404305856 
1121.422 406273920 408308992 410397728 412514848 414621312 416665376 
1124.315 418583648 420304608 421753856 422859296 423558432 423802816 
1127.208 423562048 422824448 421594560 419889088 417732032 415150304 
1130.102 412169280 408811232 405093088 401025792 396611680 391845088 
1132.995 386712096 381194272 375273728 368939424 362191488 355043680 
1135.888 347522688 339663232 331504544 323087200 314452256 305644576 
1138.781 296715296 287724032 278737728 269827776 261063520 252508288 
1141.674 244216128 236231184 228590736 221327104 214469536 208044832 
1144.567 202075792 196579216 191564256 187032240 182977216 179388560 
1147.460 176253296 173557072 171286592 169428688 167970432 166898224 
1150.353 166196592 165847904 165830752 166119856 166685456 167494352 
1153.246 168510928 169700384 171031056 172477152 174021024 175651680 
1156.139 177364176 179156704 181027760 182974448 184992064 187075056 
1159.032 189218544 191419008 193676576 195993760 198375456 200829008 
1161.925 203363680 205991440 208728112 211593840 214612912 217813408 
1164.818 221225984 224884080 228823152 233082192 237704720 242739392 
1167.711 248239488 254262800 260868672 268117152 276067968 284780480 
1170.604 294313632 304727424 316079360 328422080 341796640 356224768 
1173.498 371702112 388189792 405609504 423839232 442710720 462007776 
1176.391 481466336 500778304 519598432 537557888 554282816 569415872 
1179.284 582637824 593688000 602377664 608600256 612332608 613633792 
1182.177 612636160 609532672 604558528 597975424 590053184 581057536 
1185.070 571241152 560838336 550061120 539096576 528105440 517218720 
1187.963 506539584 496144000 486084544 476397088 467104896 458223168 
1190.856 449764800 441740160 434159648 427032800 420366944 414165600 
1193.749 408425920 403138048 398283744 393839264 389778464 386075712 
1196.642 382710432 379667552 376937568 374512768 372384384 370539680 
1199.535 368961792 367629728 366522560 365619808 364902560 364351392 
1202.428 363944032 363652512 363443360 363279040 363123680 362947360 
1205.321 362728480 362453184 362112128 361694976 361185248 360559200 
1208.214 359786912 358837760 357685696 356313184 354713216 352887584 
1211.107 350843712 348592384 346145792 343517120 340721856 337777504 
1214.000 334703072 331516960 328235680 324872672 321439584 317947808 
1216.894 314411104 310846880 307275520 303717920 300193632 296717728 
1219.787 293300704 289948992 286667520 283460352 280332160 277287264 
1222.680 274328032 271454592 268663744 265951488 263314896 260754400 
1225.573 258274320 255882560 253587040 251393296 249301248 247305184 
1228.466 245395712 243563136 241801952 240113440 238506752 236997536 
1231.359 235604352 234344880 233232816 232276640 231479648 230842032 
1234.252 230363440 230043520 229883872 229886400 230052496 230382144 
1237.145 230873808 231524592 232330880 233288608 234392576 235634768 
1240.038 237003312 238480432 240043056 241663792 243313296 244963040 
1242.931 246586816 248160896 249663712 251074224 252370928 253533296 
1245.824 254543280 255389488 256070640 256597280 256991600 257284768 
1248.717 257512416 257709984 257909440 258136576 258410576 258744544 
1251.610 259146272 259617712 260156240 260755040 261404688 262095008 
1254.503 262817440 263566880 264342464 265146784 265984928 266863792 
1257.396 267790352 268772608 269818176 270934112 272124128 273386304 
1260.290 274711104 276080416 277470272 278854304 280209472 281518592 
1263.183 282770656 283957376 285067712 286082592 286972224 287697792 
1266.076 288217248 288492384 288493792 288203328 287612416 286717856 
1268.969 285516992 284005536 282178304 280032192 277569152 274799200 
1271.862 271738848 268410000 264836544 261042656 257053264 252894608 
1274.755 248595264 244186608 239700352 235166272 230608784 226047104 
1277.648 221494848 216963248 212462352 208003184 203596368 199250944 
1280.541 194973440 190766640 186633008 182576768 178608272 174744016 
1283.434 171006528 167419904 164005120 160775792 157736688 154883632 
1286.327 152208000 149699632 147350048 145153328 143105808 141203568 
1289.220 139441408 137811536 136306048 134917280 133640184 132472232 
1292.113 131412264 130458536 129606288 128847224 128169776 127561720 
1295.006 127011536 126511168 126055896 125642688 125269576 124933336 
1297.899 124629624 124353168 124100456 123870504 123665616 123490328 
1300.792 123348976 123243024 123169232 123118336 123077368 123031208 
1303.686 122966144 122871880 122743280 122579400 122382424 122154760 
1306.579 121897848 121609856 121286424 120921608 120509032 120044064 
1309.472 119525088 118953272 118331808 117664352 116952840 116197152 
1312.365 115394136 114539800 113631672 112671800 111668720 110638704 
1315.258 109604168 108590432 107621760 106716264 105883624 105124104 
1318.151 104429360 103786256 103180688 102601024 102040336 101496208 
1321.044 100970224 100464776 99981464 99519816 99078016 98653984 98247144 
1324.419 97859816 97497632 97168504 96881000 96641904 96455376 96322936 
1327.794 96244912 96222016 96258240 96361136 96541200 96810264 97177448 
1331.170 97647272 98217480 98880664 99625440 100440832 101318632 102254320 
1334.545 103245840 104290968 105383864 106512000 107656888 108794952 
1337.438 109901960 110957008 111945752 112861376 113705192 114484064 
1340.331 115209416 115894880 116556400 117211384 117878856 118578208 
1343.224 119327696 120142576 121033952 122008048 123066600 124209696 
1346.117 125436696 126748128 128146024 129632712 131208448 132870224 
1349.010 134609952 136414448 138266160 140145056 142029888 143899728 
1351.903 145735008 147518176 149233168 150865792 152404240 153838784 
1354.796 155162032 156368784 157455920 158421520 159264688 159985440 
1357.689 160585632 161068352 161439904 161709712 161889760 161994256 
1360.583 162038752 162038400 162007744 161959216 161902496 161842720 
1363.476 161779072 161703712 161601360 161449440 161221536 160889856 
1366.369 160428112 159815008 159033712 158072160 156921984 155578096 
1369.262 154041504 152323008 150448800 148465536 146442944 144472032 
1372.155 142660032 141121184 139966448 139292240 139171824 139647968 
1375.048 140729568 142391376 144576560 147200944 150160096 153335504 
1377.941 156602832 159838160 162924672 165757728 168248048 170321840 
1380.834 171920992 173001952 173535200 173504976 172910128 171762784 
1383.727 170087360 167917520 165294400 162264048 158877136 155188720 
1386.620 151257568 147143168 142902720 138587008 134237408 129884992 
1389.513 125552144 121255120 117007040 112820528 108708464 104683744 
1392.406 100760488 96953232 93278464 89755048 86404016 83246560 80301656 
1395.781 77583272 75098400 72847032 70823576 69019120 67423048 66025124 
1399.157 64815736 63785688 62926516 62231276 61695372 61317596 61101524 
1402.532 61054672 61187132 61507776 62021656 62724800 63602024 64623648 
1405.907 65746256 66912056 68052600 69092136 69953760 70565912 70869768 
1409.282 70825768 70418616 69659704 68585248 67252312 65730268 64093648 
1412.658 62413476 60750904 59154480 57657728 56280676 55031368 53909336 
1416.033 52907820 52017156 51225736 50522244 49896808 49341964 48852556 
1419.408 48426656 48064796 47769268 47542492 47386560 47301164 47282356 
1422.783 47323020 47412320 47536728 47681560 47832532 47978112 48110636 
1426.159 48228288 48335036 48440584 48560020 48711588 48916016 49194028 
1429.534 49564452 50043304 50641652 51366216 52219364 53200292 54306972 
1432.909 55538640 56898260 58392896 60034212 61836864 63816072 65985680 
1436.284 68357032 70940144 73745976 76788840 80088328 83668144 87552912 
1439.660 91762576 96307672 101185376 106378336 111855768 117575776 123487360 
1443.035 129531848 135644016 141752880 147783952 153663280 159321536 
1445.928 164697344 169738704 174403312 178657648 182477312 185848368 
1448.821 188767680 191243104 193290384 194928656 196175872 197044208 
1451.714 197540576 197668368 197429040 196825280 195859280 194531440 
1454.607 192837568 190768912 188315376 185470688 182237024 178628768 
1457.500 174671504 170398048 165844880 161048144 156045360 150875760 
1460.393 145581664 140208144 134799264 129395064 124028128 118723864 
1463.286 113503040 108385600 103393568 98551200 93882280 89407600 85142696 
1466.662 81096288 77273320 73677408 70313024 67185072 64297712 61651564 
1470.037 59240868 57053300 55069860 53267448 51620212 50102304 48689908 
1473.412 47362448 46104356 44905388 43761396 42672452 41641300 40669116 
1476.787 39754184 38890012 38065892 37269884 36491636 35724564 34966940 
1480.163 34220240 33486742 32767054 32059126 31358284 30659982 29961532 
1483.538 29264482 28573808 27898028 27246706 26628304 26050338 25517562 
1486.913 25033546 24599186 24213664 23872752 23569348 23293928 23036756 
1490.288 22789756 22549538 22317850 22101642 21909764 21751112 21631058 
1493.664 21550402 21505668 21490802 21499168 21525926 21569194 21630532 
1497.039 21714426 21828496 21981876 22185214 22449598 22784424 23196250 
1500.414 23685400 24243810 24853682 25487260 26108790 26677180 27151544 
1503.789 27494732 27677982 27684980 27513742 27177246 26702000 26123668 
1507.165 25482710 24817442 24161508 23540016 22969786 22459782 22012772 
1510.540 21627392 21298622 21019914 20783648 20582742 20411444 20265476 
1513.915 20141688 20037444 19949238 19872164 19800588 19728606 19652390 
1517.290 19571370 19487922 19407020 19333738 19270788 19217958 19171006 
1520.666 19123822 19070952 19010054 18943314 18877158 18820514 18781862 
1524.041 18766400 18775042 18803642 18844218 18886850 18922114 18942458 
1527.416 18944068 18926868 18893812 18850158 18802256 18755622 18714598 
1530.791 18681160 18654848 18633476 18613916 18592980 18568272 18538842 
1534.167 18505260 18469672 18435000 18404438 18380656 18364708 18355866 
1537.542 18350888 18344702 18330962 18304894 18264394 18211702 18153474 
1540.917 18098984 18057008 18033630 18030082 18042546 18063524 18084616 
1544.292 18098514 18100596 18088408 18061170 18017706 17956208 17874776 
1547.667 17772294 17651278 17518044 17382380 17255032 17145330 17058022 
1551.043 16992962 16945528 16909610 16879842 16852638 16827210 16803768 
1554.418 16782688 16762754 16742066 16718458 16691606 16663153 16636685 
1557.793 16616603 16605925 16605137 16612919 16626213 16643114 16663466 
1561.168 16689129 16722765 16765380 16815610 16869274 16921268 16967292 
1564.544 17006324 17041340 17077920 17121804 17176100 17239748 17307374 
1567.919 17372758 17430398 17479648 17525776 17578822 17650802 17751938 
1571.294 17887778 18058268 18258272 18480346 18716446 18960750 19209470 
1574.669 19460250 19710782 19956826 20191746 20407078 20593636 20743172 
1578.045 20849976 20911130 20926362 20897570 20827698 20720870 20582090 
1581.420 20417992 20236340 20046422 19858866 19683610 19529510 19402348 
1584.795 19304286 19233946 19186634 19156148 19135648 19119186 19101900 
1588.170 19080272 19052082 19015920 18971988 18922240 18870890 18823412 
1591.546 18786522 18766034 18765104 18784018 18819162 18865234 18916544 
1594.921 18968750 19019742 19070602 19123392 19181058 19246918 19323652 
1598.296 19414268 19522490 19652430 19807824 19991008 20202190 20438576 
1601.671 20695894 20969926 21258126 21560964 21881430 22223138 22587608 
1605.047 22972428 23369730 23767372 24151034 24506830 24823832 25095316 
1608.422 25318258 25492688 25619908 25702842 25744686 25750352 25725544 
1611.797 25677616 25612986 25536124 25448194 25346744 25227564 25086538 
1615.172 24922498 24738322 24542054 24344226 24155480 23984202 23834656 
1618.548 23707348 23601068 23514214 23447014 23401534 23380236 23384358 
1621.923 23411478 23454730 23502782 23543244 23565254 23562402 23535554 
1625.298 23492040 23444158 23405268 23386244 23392896 23424188 23473734 
1628.673 23531674 23588696 23638274 23678554 23712148 23744082 23780060 
1632.049 23824668 23880372 23947978 24026650 24115454 24213452 24318692 
1635.424 24427698 24534932 24632924 24713846 24771006 24801284 24805718 
1638.799 24789518 24760986 24728946 24701786 24684734 24680898 24690346 
1642.174 24711454 24741580 24777984 24817340 24857276 24895204 24929652 
1645.550 24960104 24987974 25015068 25043868 25076808 25115136 25158860 
1648.925 25207584 25260300 25317006 25379016 25448484 25528884 25623510 
1652.300 25734994 25864548 26010554 26169510 26336090 26503938 26667360 
1655.675 26822592 26969000 27108900 27247934 27392544 27549298 27721942 
1659.051 27911112 28114608 28328974 28552048 28784126 29028266 29289428 
1662.426 29571766 29876128 30199638 30535654 30876272 31214864 31548846 
1665.801 31880048 32214120 32557712 32916736 33294820 33692296 34106840 
1669.176 34534948 34972596 35415748 35860740 36303804 36743052 37179196 
1672.552 37616416 38062136 38526496 39018960 39543828 40098960 40674788 
1675.927 41257128 41831244 42387396 42923340 43445196 43964228 44493008 
1679.302 45040148 45608308 46193100 46785860 47376192 47955836 48520516 
1682.677 49070132 49608864 50143312 50682388 51235236 51811448 52419012 
1686.052 53064568 53752224 54484108 55260824 56082036 56947356 57857364 
1689.428 58812404 59813048 60859060 61949960 63086836 64274200 65521716 
1692.803 66845088 68264472 69801592 71475520 73299136 75278136 77413864 
1696.178 79706784 82163664 84802288 87652928 90757376 94162592 97915352 
1699.553 102056208 106617536 111625048 117104504 123088160 129622072 
1702.447 136768192 144599840 153195648 162630112 172965216 184245344 
1705.340 196495904 209724912 223924448 239071024 255123168 272018176 
1708.233 289670560 307975680 326815104 346062752 365586848 385246688 
1711.126 404882720 424306688 443298080 461608544 478978848 495160320 
1714.019 509939200 523158016 534731264 544653632 553003072 559930496 
1716.912 565640576 570359616 574301760 577638272 580484416 582904000 
1719.805 584925376 586564224 587838016 588769856 589383872 589696320 
1722.698 589713920 589438400 588878784 588064000 587046784 585897536 
1725.591 584688704 583479168 582302784 581168448 580069952 578998144 
1728.484 577950720 576934528 575959936 575034304 574159680 573336128 
1731.377 572571904 571893952 571351552 571012224 570950080 571230400 
1734.270 571901184 572994048 574535232 576560128 579126464 582314432 
1737.163 586220928 590944960 596572544 603168512 610774976 619415872 
1740.056 629103808 639843072 651625152 664421568 678174016 692790656 
1742.949 708149440 724107200 740508416 757189696 773973312 790658880 
1745.843 807014976 822783296 837695488 851499776 863983744 874986752 
1748.736 884392768 892112320 898065344 902174912 904375872 904633344 
1751.629 902955840 899393408 894021568 886914496 878126208 867689472 
1754.522 855630784 841998784 826883328 810426624 792810880 774236544 
1757.415 754901184 734983104 714641408 694023296 673271936 652533504 
1760.308 631951296 611659072 591770432 572373952 553532096 535284576 
1763.201 517654240 500651488 484276896 468523904 453381824 438840160 
1766.094 424892128 411538368 398785408 386639520 375098368 364143904 
1768.987 353738144 343826208 334344224 325228992 316427104 307898752 
1771.880 299616224 291558976 283707264 276037344 268521024 261127472 
1774.773 253826912 246592320 239401824 232236512 225080704 217921792 
1777.666 210752448 203573408 196396800 189245472 182149552 175141376 
1780.559 168247296 161485328 154862656 148380704 142040752 135850144 
1783.452 129825320 123989568 118368368 112982024 107841088 102946488 
1786.345 98293176 93877384 89700904 85773496 82109336 78718448 75600016 
1789.721 72738568 70103568 67658808 65368944 63209124 61168400 59247612 
1793.096 57454088 55794264 54266876 52862536 51565104 50356160 49219592 
1796.471 48145000 47127124 46165644 45261616 44415744 43626192 42887356 
1799.846 42190196 41522848 40871700 40224908 39574360 38919740 38269416 
1803.222 37638724 37047752 36514092 36047196 35644744 35291472 34963448 
1806.597 34634892 34284844 33903684 33494328 33070464 32651298 32254680 
1809.972 31892472 31567082 31271428 30991656 30710088 30410682 30081468 
1813.347 29718024 29324620 28914556 28508418 28130138 27803378 27545192 
1816.723 27362414 27248820 27186044 27148362 27108228 27043250 26940060 
1820.098 26795154 26613390 26403118 26173706 25932634 25685024 25435360 
1823.473 25187460 24946552 24717372 24502798 24301636 24108530 23914678 
1826.848 23710922 23490768 23253222 23003590 22751038 22505166 22272268 
1830.224 22051788 21835682 21611728 21366706 21092398 20788498 20461620 
1833.599 20125488 19793682 19476542 19178172 18895138 18621150 18350224 
1836.974 18080554 17817188 17568838 17345084 17150966 16984248 16835282 
1840.349 16690250 16536761 16369460 16192019 16016703 15859269 15733419 
1843.725 15645087 15591047 15559788 15538174 15515051 15487050 15456102 
1847.100 15427695 15405263 15385190 15357425 15307919 15225158 15107074 
1850.475 14964397 14818482 14696635 14619415 14593598 14607147 14630145 
1853.850 14624758 14557176 14409481 14186216 13912538 13626927 13367600 
1857.226 13159824 13009412 12901989 12812542 12717051 12603372 12477757 
1860.601 12362925 12288492 12278776 12341464 12462154 12608252 12736510 
1863.976 12808193 12800523 12710932 12557586 12372176 12187090 12028691 
1867.351 11908855 11825896 11768025 11719297 11666965 11604177 11532246 
1870.727 11458647 11393634 11347579 11328738 11340401 11380893 11444573 
1874.102 11521326 11600268 11668917 11716802 11735706 11720935 11670637 
1877.477 11587945 11478590 11353728 11227750 11117632 11040806 11009664 
1880.852 11030044 11095930 11191370 11291989 11371860 11408749 11391735 
1884.228 11322738 11216361 11095126 10982459 10897677 10850484 10839825 
1887.603 10854762 10878454 10889285 10869042 10804891 10694966 10549911 
1890.978 10391676 10249571 10152665 10120846 10157014 10247190 10361058 
1894.353 10465907 10535210 10558945 10546871 10521296 10506150 10513404 
1897.729 10535309 10544993 10505809 10388033 10181253 9903629 9596650 
1901.104 9314219 9105761 9000392 9001272 9087952 9226534 9381730 9527905 
1904.961 9651446 9750151 9827061 9884645 9923336 9941771 9940381 9922865 
1908.819 9897465 9874678 9861291 9859745 9867616 9877283 9880352 9868931 
1912.676 9834546 9768138 9658275 9490891 9258154 8963276 8625707 8281244 
1916.533 7973486 7741655 7604141 7549684 7539524 7517488 7431337 7252234 
1920.391 6988443 6685211 6409136 6227313 6185564 6292121 6517934 6806571 
1924.248 7094807 7333812 7502330 7609796 7686797 7769643 7884248 8035163 
1928.106 8203274 8353882 8446484 8451113 8354529 8167155 7917338 7644284 
1931.963 7388103 7179077 7027926 6927105 6850729 6764370 6634942 6442660 
1935.821 6189524 5901644 5623022 5404752 5291412 5306558 5444216 5672388 
1939.678 5938272 6184879 6363715 6447858 6438179 6357826 6248389 6156422 
1943.535 6121885 6168755 6296198 6478073 6663650 6792941 6805741 6663468 
1947.393 6363681 5950302 5507810 5144519 4965623 5040218 5374284 5907719 
1951.250 6519667 7065386 7414842 7487555 7275941 6837292 6270738 5682052 
1955.108 5154352 4729009 4406531 4166810 3989316 3871712 3837018 3920293 
1958.965 4148985 4522274 4997673 5499194 5938970 6239740 6361372 6307717 
1962.823 6116081 5848677 5568060 5332585 5192742 5194737 5385470 5807051 
1966.680 6486910 7417041 8533715 9717157 10802869 11614997 12012974 11926622 
1970.537 11384249 10506641 9476528 8485557 7688503 7157147 6872926 6736037 
1974.395 6606487 6354406 5903036 5256432 4514944 3848077 3451503 3491295 
1978.252 4048102 5089278 6468527 7959225 9319650 10338637 10887149 10945654 
1982.110 10604913 10049718 9504844 9179023 9210689 9632716 10368743 11267629 
1985.967 12151063 12873475 13353638 13588564 13637093 13578026 13477031 
1989.342 13361137 13217489 13008655 12693136 12249625 11680704 11009659 
1992.718 10268255 9485870 8695006 7932825 7247316 6699175 6345515 6212749 
1996.575 6278347 6455833 6611497 6596083 6294683 5667390 4773956 3756821 
2000.432 2803754 2092937 1746531 1804908 2224274 2902871 3711899 4520734 
2004.290 5216328 5706458 5921993 5828412 5432216 4799180 4050708 3345388 
2008.147 2833457 2616970 2714415 3065051 3551797 4048083 4469473 4791746 
2012.005 5043151 5283879 5551904 5839748 6083073 6182659 6048609 5632275 
2015.862 4955619 4106647 3215773 2421084 1831513 1502792 1436018 1581253 
2019.719 1860289 2185106 2485693 2727073 2922732 3133454 3447659 3941747 
2023.577 4640211 5475593 6284196 6841471 6922167 6392807 5273915 3755808 
2027.434 2158114 837313 78835 7999 552597 1476579 2465376 3224155 3566308 
2031.774 3437188 2902194 2093952 1151352 185385 -730016 -1545380 -2211543 
2035.631 -2670709 -2871612 -2780883 -2409599 -1810566 -1062344 -242034 
2039.007 598150 1444404 2306437 3198686 4108493 4988986 5762832 6345975 
2042.864 6675370 6733903 6557490 6231024 5859307 5549622 5392912 5455642 
2046.721 5775824 6363963 7194648 8205923 9293305 10327644 11179902 11755060 
2050.579 12019608 12006315 11807988 11545486 11340170 11277046 11384776 
2053.954 11623762 11895412 12066435 12009975 11637920 10925686 9921948 
2057.329 8737061 7519297 6423369 5578634 5062775 4889515 5006384 5315476 
2061.187 5697048 6036873 6248107 6289414 6160584 5901420 5575596 5255378 
2065.044 5013147 4907585 4977146 5236529 5671482 6239068 6870793 7487013 
2068.902 8009738 8381229 8575639 8605061 8511683 8353919 8188004 8053701 
2072.759 7968965 7937761 7956451 8030896 8176546 8417432 8768273 9221562 
2076.616 9735516 10237816 10637886 10855026 10839980 10593507 10166358 
2079.992 9642462 9116050 8666552 8340325 8148739 8075649 8093742 8177385 
2083.849 8310755 8484703 8689797 8906337 9099708 9226033 9242064 9115380 
2087.707 8835606 8414787 7882693 7277048 6635543 5990989 5371750 4806209 
2091.564 4324032 3957586 3734794 3673754 3774544 4018862 4375545 4806562 
2095.421 5277432 5761341 6236637 6682093 7071243 7372231 7556660 7606078 
2099.279 7523103 7332160 7073422 6787642 6505957 6242810 6001632 5782981 
2103.136 5601091 5486393 5481127 5622623 5923471 6359001 6869456 7373601 
2106.994 7796225 8091439 8255860 8322885 8346012 8373099 8432440 8523076 
2110.851 8627598 8723418 8798455 8852894 8893790 8921271 8920548 8859632 
2114.708 8703554 8432277 8056929 7625432 7210619 6890009 6717629 6702617 
2118.566 6808864 6964053 7087209 7114303 7019070 6814064 6543031 6258366 
2122.423 6000271 5782547 5589689 5382485 5118683 4764536 4311242 3777058 
2126.281 3201868 2632640 2103347 1621219 1155999 648030 28923 -752573 
2130.138 -1698976 -2747677 -3776889 -4633065 -5175942 -5326408 -5097951 
2133.513 -4597797 -3996127 -3465872 -3124943 -3001676 -3031416 -3102650 
2136.889 -3108855 -3000646 -2806579 -2615774 -2535873 -2645578 -2967566 
2140.264 -3465800 -4072820 -4723693 -5384776 -6057322 -6758795 -7490839 
2143.639 -8218342 -8863074 -9325394 -9524347 -9427903 -9071044 -8551539 
2147.014 -7994056 -7518780 -7212549 -7116686 -7240938 -7576112 -8114710 
2150.390 -8852567 -9789131 -10914643 -12211591 -13653021 -15215636 -16883836 
2153.765 -18651394 -20497986 -22368964 -24152656 -25667656 -26680566 
2156.658 -26950952 -26289662 -24636636 -22105498 -18997920 -15737623 
2159.551 -12778742 -10465660 -8964871 -8243299 -8111458 -8277154 -8432102 
2162.926 -8302510 -7703673 -6566741 -4960019 -3068256 -1154561 502228 
2166.302 1661538 2173955 1994885 1192360 -97120 -1692229 -3409818 -5089296 
2170.159 -6612538 -7902602 -8923807 -9668156 -10146867 -10376401 -10374501 
2173.534 -10153198 -9719455 -9080474 -8248634 -7247253 -6119593 -4923083 
2176.909 -3732136 -2623908 -1682019 -982209 -585134 -530130 -829969 -1451876 
2180.767 -2324581 -3335151 -4347175 -5221386 -5840062 -6129871 -6075084 
2184.142 -5709502 -5108013 -4364350 -3575479 -2822576 -2168494 -1648297 
2187.517 -1275614 -1040724 -920277 -884976 -902130 -944589 -990761 -1017156 
2191.375 -1005848 -926630 -756142 -474379 -84728 386326 884018 1345559 
2195.232 1714256 1965299 2115073 2216713 2327386 2493088 2708118 2921608 
2199.090 3048984 3006812 2749822 2294418 1713076 1117154 611864 268065 
2202.947 103941 92720 185344 337707 526999 749975 1010413 1304633 1607934 
2207.287 1888967 2122844 2312289 2490995 2717449 3042907 3484509 4003954 
2211.144 4517795 4918555 5121058 5093357 4878511 4576808 4319130 4213135 
2215.001 4314672 4603585 4997577 5381266 5642695 5711246 5579292 5304132 
2218.859 4995603 4783323 4785618 5078429 5671755 6507217 7471055 8416590 
2222.716 9206717 9740426 9978932 9942900 9701421 9343764 8956016 8598467 
2226.574 8304514 8084258 7935090 7850998 7826420 7852460 7920586 8015415 
2230.431 8124232 8238098 8360380 8493843 8639767 8782119 8890721 8926925 
2234.289 8865275 8713122 8519388 8366028 8345114 8519145 8894407 9409505 
2238.146 9954612 10404965 10665490 10698245 10530074 10232141 9890815 
2241.521 9571366 9308726 9106192 8954235 8848290 8798502 8821104 8925453 
2245.379 9096237 9291911 9455919 9540636 9528698 9446968 9355281 9327499 
2249.236 9419187 9648442 9988039 10378310 10747867 11037963 11214363 
2252.611 11273540 11231551 11121499 10981128 10853630 10782219 10810290 
2255.987 10966183 11256617 11650320 12083795 12470592 12726404 12790386 
2259.362 12647512 12327318 11898534 11441185 11029318 10709639 10499699 
2262.737 10390857 10364123 10396499 10473242 10586200 10731842 10908990 
2266.112 11115248 11347314 11601041 11869993 12144837 12411955 12654660 
2269.488 12854560 12997732 13076032 13092916 13058327 12990775 12909239 
2272.863 12836600 12796516 12814647 12912025 13103087 13383433 13726512 
2276.238 14085229 14401210 14620936 14714793 14687493 14578813 14450097 
2279.613 14364868 14368750 14475598 14667717 14906374 15146801 15354283 
2282.989 15509719 15612059 15670091 15697159 15705317 15706247 15709791 
2286.364 15727881 15768379 15836153 15925601 16023722 16110793 16169691 
2289.739 16188366 16167402 16111949 16031712 15929690 15803561 15645524 
2293.114 15451022 15224611 14984187 14759232 14580450 14470686 14436834 
2296.490 14465803 14533241 14608356 14667436 14696479 14695233 14669710 
2299.865 14630643 14585991 14544111 14510874 14492944 14496445 14525490 
2303.240 14576694 14640465 14701091 14742758 14756770 14744972 14720917 
2306.615 14704993 14716444 14766849 14855771 14971908 15097969 15216717 
2309.990 15315630 15388395 15432739 15449801 15441591 15410888 15363366 
2313.366 15309213 15261574 15235950 15244730 15296272 15391934 15527464 
2316.741 15694490 15883680 16086170 16294479 16504792 16719764 16948858 
2320.116 17210860 17527330 17915964 18375404 18875530 19352884 19719052 
2323.491 19878746 19756442 19317930 18582168 17618862 16534105 15447409 
2326.867 14464973 13662058 13070460 12680717 12452958 12334598 12275190 
2330.242 12237095 12198202 12150539 12093320 12029510 11963644 11899632 
2333.617 11842402 11796029 11760355 11732886 11706501 11672510 11625978 
2336.992 11568228 11509360 11464258 11448911 11473298 11536808 11628028 
2340.368 11726825 11810996 11862088 11869633 11832348 11757750 11658465 
2343.743 11549802 11447235 11364665 11313182 11298218 11320191 11371497 
2347.118 11440284 11511307 11569771 11604652 11611048 11590046 11545808 
2350.493 11484300 11411508 11331365 11249617 11170759 11101961 11048744 
2353.869 11015061 11000521 10999777 11004475 11005149 10993988 10966560 
2357.244 10922783 10864618 10794667 10715533 10629261 10539013 10448893 
2360.619 10364353 10290769 10229565 10178775 10130969 10076346 10005254 
2363.994 9912154 9798141 9670175 9539323 9417769 9315327 9239201 9193678 
2367.852 9179480 9195364 9236118 9293681 9354760 9405718 9434029 9434600 
2371.709 9412091 9381250 9363085 9378634 9441652 9553679 9704919 9877292 
2375.567 10049923 10206909 10339483 10447624 10535288 10609779 10676105 
2378.942 10738237 10797053 10853664 10908065 10959386 11004904 11041190 
2382.317 11063291 11070157 11062422 11047256 11032564 11025373 11026483 
2385.692 11029432 11019995 10982343 10905430 10788842 10644643 10495448 
2389.068 10368359 10286171 10261534 10295041 10375128 10484227 10604669 
2392.443 10723490 10833559 10933824 11025241 11109165 11183903 11247366 
2395.818 11295930 11329344 11350089 11365059 11382284 11409315 11449212 
2399.193 11498853 11549397 11587581 11601008 11580814 11525532 11441585 
2402.569 11341758 11241416 11155291 11095782 11070470 11085334 11143539 
2405.944 11247455 11394626 11576626 11774943 11963369 12111461 12193175 
2409.319 12194969 12121641 11995623 11851795 11724086 11636822 11596075 
2412.694 11590471 11598365 11597367 11572269 11521437 11451656 11373196 
2416.070 11293333 11211745 11122360 11019591 10902301 10779228 10664784 
2419.445 10574921 10517747 10490279 10478029 10461560 10424501 10361570 
2422.820 10281027 10203621 10153188 10150585 10204681 10311544 10454334 
2426.195 10610109 10754027 10865440 10929201 10940555 10902403 10827565 
2429.571 10734726 10647146 10587032 10570908 10606042 10686689 10797581 
2432.946 10915939 11017732 11082335 11095942 11052651 10953249 10804978 
2436.321 10618105 10405750 10183079 9965098 9764195 9590160 9447719 9339817 
2440.178 9266546 9230037 9232269 9277507 9365453 9491330 9643163 9803412 
2444.036 9953774 10080175 10176624 10246203 10298547 10344938 10391349 
2447.411 10438271 10478332 10502104 10501307 10474032 10424538 10365512 
2450.786 10310730 10275038 10270005 10302378 10371526 10471730 10588733 
2454.162 10706532 10807465 10880504 10923902 10948410 10972844 11016862 
2457.537 11090683 11189306 11289708 11359275 11365455 11291819 11143030 
2460.912 10946839 10742037 10565038 10435699 10352050 10293509 10231814 
2464.287 10146772 10032605 9902989 9781994 9693204 9650483 9651217 9681646 
2468.145 9721660 9754429 9768882 9761874 9732891 9683661 9615664 9534094 
2472.002 9450433 9385915 9363858 9405532 9516020 9682153 9869891 10036705 
2475.860 10143657 10169651 10119112 10017933 9905206 9819629 9784492 9807697 
2479.717 9878590 9979617 10090900 10197336 10288965 10360544 10405990 
2483.092 10421055 10402638 10351058 10270959 10171630 10061802 9948864 
2486.468 9835227 9722143 9612850 9516750 9448728 9428597 9470778 9578970 
2490.325 9741080 9932429 10122965 10287355 10412478 10502636 10573318 
2493.700 10643777 10727292 10826785 10934257 11036940 11124627 11195892 
2497.075 11257824 11323710 11404266 11503010 11611761 11713779 11786622 
2500.451 11813018 11781286 11692910 11557505 11391903 11213947 11040556 
2503.826 10883887 10751733 10646776 10568866 10515235 10484057 10473749 
2507.201 10485492 10522491 10588621 10684323 10806185 10944060 11084107 
2510.576 11207834 11301022 11353978 11366585 11346476 11308020 11266184 
2513.952 11233758 11217225 11215925 11222454 11225699 11212017 11169345 
2517.327 11088995 10966576 10803082 10607364 10392307 10178642 9988617 
2520.702 9848522 9780198 9801035 9917414 10123855 10401297 10720118 11043800 
2524.560 11334989 11561350 11700134 11740094 11681843 11534980 11318452 
2527.935 11055685 10776808 10515153 10305909 10180290 10159637 10246798 
2531.310 10425097 10655495 10888064 11072448 11172567 11175542 11097090 
2534.685 10975018 10858002 10792363 10809012 10917755 11107636 11352750 
2538.061 11621889 11883119 12110996 12287104 12400069 12444644 12422401 
2541.436 12343010 12222720 12084939 11955212 11856712 11805629 11806078 
2544.811 11851438 11923411 11997718 12047836 12050202 11988668 11858768 
2548.186 11670045 11444767 11215866 11021479 10893349 10853675 10905406 
2551.562 11034597 11212623 11405522 11582200 11721696 11815929 11869485 
2554.937 11893202 11902121 11908989 11926388 11961947 12021677 12107044 
2558.312 12213531 12329839 12440028 12523851 12564044 12553195 12495142 
2561.687 12403511 12299151 12202227 12126996 12079560 12060276 12067871 
2565.063 12104763 12178878 12301677 12482233 12721555 13006800 13312455 
2568.438 13602977 13844039 14008089 14083145 14073713 14000362 13891707 
2571.813 13778796 13686385 13629582 13611769 13625886 13656931 13689453 
2575.188 13710240 13712808 13697058 13668252 13633210 13597378 13562573 
2578.563 13528963 13496637 13469493 13456264 13468644 13518502 13610972 
2581.939 13741158 13895396 14053355 14197782 14318173 14415553 14500135 
2585.314 14583281 14670883 14757225 14823720 14845938 14801621 14682392 
2588.689 14497532 14275453 14055851 13880082 13780308 13773747 13858628 
2592.064 14017716 14222204 14439250 14636303 14787400 14874548 14891423 
2595.440 14842871 14744714 14620475 14496722 14396296 14335072 14318374 
2598.815 14340654 14389629 14450488 14509194 14557795 14594190 14622745 
2602.190 14650782 14687217 14738608 14808371 14893727 14987161 15077055 
2605.565 15150797 15197528 15213297 15200176 15167530 15127510 15092819 
2608.941 15071346 15066245 15075165 15092849 15115622 15142178 15173563 
2612.316 15211975 15259268 15314736 15375760 15438913 15501653 15562137 
2615.691 15619742 15671398 15711114 15730975 15723852 15687080 15627783 
2619.066 15560634 15506836 15485845 15507967 15569449 15652092 15729746 
2622.442 15776426 15777120 15732519 15659876 15587471 15544405 15551315 
2625.817 15615378 15727727 15868714 16014099 16143037 16242798 16312394 
2629.192 16360009 16400309 16448490 16515879 16605143 16710455 16818204 
2632.567 16909542 16968506 16984544 16957980 16898808 16825884 16759846 
2635.943 16719403 16714925 16748564 16812902 16894822 16979708 17053090 
2639.318 17103514 17125018 17115712 17079320 17025060 16964742 16912844 
2642.693 16880654 16874222 16892236 16926432 16965624 16998778 17021358 
2646.068 17035674 17049988 17074016 17112826 17163050 17214986 17252152 
2649.444 17260552 17232854 17170920 17084810 16988956 16898070 16822044 
2652.819 16765436 16727099 16704712 16693827 16690793 16690431 16686233 
2656.194 16669082 16630940 16565457 16473066 16359122 16234247 16110323 
2659.569 15995305 15891867 15796805 15703678 15606592 15502420 15391957 
2662.945 15278519 15164956 15052438 14939265 14824627 14709782 14600812 
2666.320 14507642 14441198 14408554 14408562 14431307 14459610 14475744 
2669.695 14464744 14421225 14348395 14258072 14163514 14077706 14008097 
2673.070 13957560 13924306 13903955 13892112 13884033 13876310 13865620 
2676.446 13849811 13828881 13804799 13781968 13765682 13760795 13768931 
2679.821 13788478 13813876 13837840 13853005 13854598 13840722 13813169 
2683.196 13776068 13735448 13699044 13674323 13667510 13682208 13718249 
2686.571 13769889 13826052 13872954 13897344 13890732 13851033 13784085 
2689.947 13700436 13611623 13527474 13453314 13389954 13336591 13292868 
2693.322 13261132 13245633 13250711 13278819 13327981 13392610 13464855 
2696.697 13536947 13604638 13666210 13722015 13772412 13814961 13845301 
2700.072 13858638 13851153 13823018 13779297 13729312 13683117 13650311 
2703.448 13636345 13642494 13664959 13698858 13735852 13769411 13793096 
2706.823 13802266 13794562 13769696 13729568 13678079 13619308 13557793 
2710.198 13496080 13437160 13383948 13341166 13314729 13311279 13335464 
2713.573 13387757 13461532 13545707 13625098 13686860 13722247 13730147 
2716.948 13715187 13686199 13650547 13613882 13577023 13540603 13506088 
2720.324 13476849 13459541 13460105 13481004 13519337 13564893 13605169 
2723.699 13627847 13627244 13605002 13571151 13539112 13522415 13528918 
2727.074 13560191 13610853 13671867 13732449 13783537 13818362 13833704 
2730.449 13829191 13808657 13777128 13743022 13713947 13696488 13692402 
2733.825 13699031 13709236 13715046 13709853 13693750 13671402 13653723 
2737.200 13651727 13673766 13722152 13793505 13878841 13968989 14055866 
2740.575 14134970 14204271 14263578 14311416 14345385 14362162 14359537 
2743.950 14337400 14298969 14250765 14198773 14148792 14105053 14068945 
2747.326 14043138 14029298 14031116 14051821 14094011 14155667 14231271 
2750.701 14310873 14383215 14437781 14466428 14466193 14437799 14385939 
2754.076 14316610 14236732 14152674 14070258 13994095 13928073 13874512 
2757.451 13834330 13808004 13794699 13793781 13803684 13823854 13851251 
2760.827 13883374 13915970 13945988 13970736 13990125 14005161 14018535 
2764.202 14031268 14043259 14051455 14052238 14041428 14019022 13987239 
2767.577 13952661 13922805 13904814 13901948 13913928 13937518 13968268 
2770.952 14003391 14041411 14082692 14128077 14175806 14221224 14259038 
2774.328 14283187 14290785 14284523 14270160 14257840 14256499 14271917 
2777.703 14304755 14350830 14402231 14452070 14494561 14529053 14558146 
2781.078 14587156 14622240 14667411 14724361 14791874 14865016 14937536 
2784.453 15001767 15051452 15081905 15092365 15085631 15068419 15048865 
2787.829 15035945 15035271 15049848 15076401 15109705 15143020 15169978 
2791.204 15187491 15196856 15201822 15208570 15222722 15249346 15290693 
2794.579 15347246 15416672 15495879 15580089 15663585 15739508 15801471 
2797.954 15843825 15863651 15861500 15841492 15812645 15784536 15767511 
2801.330 15768722 15790150 15829645 15879972 15932765 15979365 16015248 
2804.705 16039470 16056729 16074466 16102100 16148118 16217146 16310338 
2808.080 16423935 16551161 16683066 16811822 16930722 17035980 17126832 
2811.455 17204208 17270372 17326922 17374886 17414268 17444678 17465920 
2814.831 17480456 17491114 17503762 17523420 17554062 17596838 17649290 
2818.206 17705640 17758890 17803722 17838238 17866694 17898672 17946974 
2821.581 18024984 18141270 18297942 18486782 18693098 18895998 19075334 
2824.956 19215396 19309962 19362052 19383526 19390544 19399466 19421618 
2828.332 19460824 19513658 19571078 19623952 19664838 19692966 19713574 
2831.707 19735138 19768536 19819874 19892604 19982340 20082418 20183498 
2835.082 20278312 20361228 20430892 20487586 20533408 20570930 20604258 
2838.457 20638646 20680028 20735202 20809724 20906002 21022520 21152014 
2841.833 21285784 21415866 21539202 21659336 21788050 21940418 22133632 
2845.208 22378868 22680512 23032470 23420788 23826472 24227706 24605236 
2848.583 24944004 25233264 25469486 25653862 25794550 25903948 25999110 
2851.958 26098370 26218510 26372792 26566350 26796426 27053208 27320562 
2855.333 27581098 27819228 28023790 28190504 28322032 28426882 28517914 
2858.709 28609078 28713464 28840776 28996856 29183080 29397928 29638328 
2862.084 29900798 30181966 30479530 30790970 31113880 31444754 31780892 
2865.459 32121032 32466926 32822102 33192900 33585592 34004032 34449216 
2868.834 34919828 35412872 35927212 36463668 37026496 37620056 38245576 
2872.210 38900376 39573332 40247928 40906688 41531748 42111512 42639888 
2875.585 43116480 43541996 43917652 44241980 44511768 44723580 44876872 
2878.960 44973584 45019680 45021488 44985396 44914756 44810860 44674080 
2882.335 44507192 44316604 44111440 43903188 43701908 43512576 43334392 
2885.711 43161912 42986924 42803880 42612592 42420880 42242776 42096020 
2889.086 41998024 41959100 41982340 42059356 42173852 42305420 42435460 
2892.461 42551680 42651084 42741412 42836124 42950424 43094548 43268512 
2895.836 43461228 43653844 43824472 43956320 44042376 44086400 44101000 
2899.212 44101068 44098060 44095736 44089828 44072176 44036888 43983772 
2902.587 43921968 43865420 43828584 43819620 43838160 43873636 43910920 
2905.962 43937352 43946132 43942052 43938076 43950244 43993660 44075192 
2909.337 44193996 44341004 44504952 44675672 44846756 45016516 45188560 
2912.713 45366872 45555984 45760484 45983500 46228972 46499900 46797048 
2916.088 47119920 47462336 47815096 48167548 48509264 48833796 49140612 
2919.463 49434636 49724272 50018908 50325076 50646120 50980552 51324744 
2922.838 51673976 52023932 52373368 52722316 53073372 53430908 53800288 
2926.214 54186980 54596288 55033600 55503004 56007412 56549288 57130960 
2929.589 57755324 58426640 59150496 59931880 60775008 61681672 62652020 
2932.964 63686036 64785316 65954172 67200616 68533824 69963352 71493584 
2936.339 73125232 74852768 76668512 78563408 80529600 82558848 84640864 
2939.715 86757760 88883312 90982296 93013984 94939008 96724808 98350416 
2943.090 99805576 101084536 102181632 103084544 103774568 104228864 
2945.983 104428816 104367840 104057928 103527440 102820024 101983192 
2948.876 101062600 100094416 99105648 98113656 97130336 96163712 95217120 
2952.251 94290192 93376592 92466312 91547864 90613624 89665504 88714856 
2955.626 87781496 86889704 86059336 85302312 84620256 84005904 83445744 
2959.002 82926240 82432792 81951816 81470576 80973168 80443936 79870384 
2962.377 79247512 78580208 77884240 77182920 76500208 75854512 75253640 
2965.752 74695240 74167288 73655744 73147248 72633280 72109376 71573880 
2969.127 71025856 70463336 69886368 69295952 68697624 68099928 67513096 
2972.503 66945024 66401804 65884656 65393688 64931548 64505288 64126784 
2975.878 63810520 63568300 63403420 63310312 63275276 63280544 63314116 
2979.253 63372152 63463180 63604848 63819184 64124860 64533168 65045408 
2982.628 65655424 66353492 67129712 67978088 68896848 69888040 70954240 
2986.004 72098728 73325096 74636208 76033008 77512656 79064632 80667712 
2989.379 82289080 83886240 85413136 86827984 88098744 89209080 90155368 
2992.754 90943512 91579448 92063848 92389632 92541728 92504952 92268680 
2996.129 91834248 91214384 90432416 89513208 88480176 87349696 86132704 
2999.505 84835768 83467544 82039776 80568632 79071936 77563016 76048624 
3002.880 74525832 72986056 71419328 69821144 68194112 66550472 64907780 
3006.255 63282640 61686276 60124560 58594648 57091792 55613060 54158416 
3009.630 52733912 51348368 50010612 48726404 47497888 46323404 45199916 
3013.006 44124540 43095116 42110100 41167892 40265200 39397132 38557572 
3016.381 37740188 36940032 36153156 35377708 34610896 33851476 33097490 
3019.756 32349028 31609576 30884250 30181626 29510906 28878896 28289462 
3023.131 27741946 27232836 26758132 26312882 25895756 25505618 25143162 
3026.507 24808994 24503828 24227038 23977704 23751828 23545232 23349336 
3029.882 23154830 22951510 22732622 22497150 22254194 22020598 21816702 
3033.257 21661908 21566446 21526546 21526490 21540850 21542840 21510268 
3036.632 21433718 21313580 21161404 20992834 20822390 20661736 20519252 
3040.008 20400056 20309178 20251214 20230178 20246584 20294524 20362958 
3043.383 20437148 20500714 20540430 20549728 20528284 20482544 20423060 
3046.758 20363552 20315716 20288070 20285226 20304640 20336578 20366366 
3050.133 20376054 20350636 20282408 20175156 20042720 19908718 19797478 
3053.509 19728312 19709656 19736390 19793856 19861508 19920040 19956388 
3056.884 19965292 19948802 19912866 19865192 19812572 19761682 19719624 
3060.259 19691552 19683744 19697246 19730308 19773882 19816340 19844180 
3063.634 19848130 19824666 19778318 19719692 19661872 19617544 19593718 
3067.010 19593498 19613186 19646696 19686312 19723870 19752768 19767644 
3070.385 19765586 19746074 19712410 19672328 19634820 19610626 19608430 
3073.760 19630834 19675054 19731798 19787834 19830548 19849898 19843698 
3077.135 19817112 19781924 19753248 19744956 19765132 19814414 19884940 
3080.510 19963778 20036016 20090038 20120440 20128358 20119584 20101160 
3083.886 20078578 20051116 20016488 19969916 19911086 19843520 19775938 
3087.261 19717576 19674664 19645342 19620578 19586356 19529690 19445270 
3090.636 19338288 19224422 19125178 19058436 19034386 19051800 19099474 
3094.011 19161512 19222946 19275872 19318410 19353052 19382190 19405822 
3097.387 19419146 19416444 19394786 19357700 19315608 19283710 19276392 
3100.762 19300964 19356498 19431236 19508504 19570672 19605428 19607952 
3104.137 19581570 19534936 19477640 19416674 19354858 19289158 19214152 
3107.512 19121788 19007786 18870466 18715150 18552914 18399628 18272846 
3110.888 18190744 18164516 18198682 18287728 18418938 18574780 18736958 
3114.263 18891570 19030332 19150204 19252954 19341180 19415718 19473726 
3117.638 19509326 19514758 19482762 19410504 19300692 19163386 19015040 
3121.013 18873796 18760102 18688956 18669816 18702598 18781134 18892338 
3124.389 19020910 19151626 19271056 19368572 19435860 19467866 19462668 
3127.764 19424358 19361956 19291128 19229958 19195270 19197070 19232640 
3131.139 19288946 19342856 19372358 19360918 19305776 19219558 19124370 
3134.514 19044952 18999744 18995086 19023290 19066998 19106080 19124302 
3137.890 19113644 19076298 19022388 18964344 18913672 18879020 18864508 
3141.265 18870786 18896794 18939490 18994976 19059454 19128710 19199256 
3144.640 19267500 19328796 19378054 19406822 19405568 19364864 19280892 
3148.015 19157548 19010480 18863814 18746838 18684432 18691206 18766136 
3151.391 18895616 19055428 19220286 19370484 19495412 19592518 19664106 
3154.766 19714508 19746156 19761690 19764604 19762742 19767882 19792554 
3158.141 19845362 19926650 20027820 20133702 20229428 20305414 20363044 
3161.516 20412606 20468140 20539970 20629476 20724766 20806994 20854872 
3164.892 20854750 20803410 20710320 20593668 20472194 20361138 20268904 
3168.267 20196994 20142754 20103838 20080366 20074464 20088390 20122682 
3171.642 20174258 20237694 20307116 20379126 20454470 20538056 20637692 
3175.017 20759994 20907128 21075692 21254902 21428530 21578376 21686034 
3178.393 21739712 21733488 21670760 21564678 21434918 21303636 21193298 
3181.768 21119758 21091806 21108384 21161274 21238278 21328058 21421944 
3185.143 21517038 21613778 21715054 21821730 21930486 22033268 22119026 
3188.518 22175722 22196038 22178670 22130472 22064970 21999132 21947884 
3191.894 21921332 21920880 21941278 21972326 22003810 22028532 22045406 
3195.269 22059164 22076264 22102726 22139962 22184200 22228562 22265614 
3198.644 22291264 22305720 22314142 22324724 22344036 22376068 22419538 
3202.019 22470678 22524422 22577534 22628394 22679600 22731898 22785510 
3205.395 22838058 22883816 22916742 22931422 22926332 22902664 22866662 
3208.770 22828926 22801554 22799250 22835434 22919748 23055036 23233008 
3212.145 23434966 23633768 23800604 23912808 23960596 23951730 23909918 
3215.520 23865818 23849238 23877424 23951150 24054510 24161056 24244528 
3218.896 24286360 24282070 24241204 24183064 24130120 24101484 24108458 
3222.271 24153990 24231696 24329204 24430438 24518884 24580176 24603864 
3225.646 24587202 24534856 24459544 24376270 24300374 24241432 24202172 
3229.021 24179884 24170538 24172408 24190060 24234076 24316778 24446032 
3232.396 24620020 24822644 25028732 25208076 25334360 25392808 25384804 
3235.772 25326040 25242372 25161082 25106410 25092680 25123612 25191476 
3239.147 25282308 25377432 25458380 25512242 25533534 25526942 25506020 
3242.522 25488700 25492490 25528562 25596930 25685572 25776546 25851448 
3245.897 25899538 25922234 25935502 25959082 26012478 26102728 26221300 
3249.273 26345066 26442554 26486964 26464776 26381670 26263084 26145580 
3252.648 26065588 26048698 26103180 26216436 26359838 26498126 26599316 
3256.023 26642284 26623358 26556264 26466510 26386510 26346310 26366710 
3259.398 26454118 26600988 26786988 26986284 27174868 27336314 27464328 
3262.774 27565600 27652246 27738038 27831250 27931336 28027922 28106220 
3266.149 28151436 28156584 28124970 28070812 28013438 27972068 27957526 
3269.524 27970490 28000690 28032114 28050066 28047566 28027046 28001208 
3272.899 27986532 27997846 28042126 28114972 28203662 28290058 28357666 
3276.275 28395722 28403440 28388794 28365940 28351722 28360876 28404056 
3279.650 28484834 28601558 28744508 28900590 29053854 29188308 29293060 
3283.025 29362764 29402056 29421698 29435908 29458674 29495224 29542232 
3286.400 29585584 29605382 29584256 29512636 29393850 29245780 29094686 
3289.776 28969920 28893848 28877168 28915332 28991580 29081868 29164394 
3293.151 29223680 29257250 29273678 29290662 29327596 29401100 29517430 
3296.526 29670830 29845920 30018848 30164844 30264234 30306280 30292178 
3299.901 30234178 30152500 30069898 30005710 29971334 29965876 29977740 
3303.277 29985690 29963912 29891830 29758128 29567058 29340178 29110590 
3306.652 28916410 28789710 28748408 28789496 28893008 29027322 29161678 
3310.027 29274936 29361816 29430916 29498704 29577594 29668608 29757306 
3313.402 29819354 29827732 29765592 29631794 29445502 29238882 29049284 
3316.778 28908866 28838610 28844710 28922368 29059516 29238570 29442508 
3320.153 29651468 29845466 30005168 30116614 30173020 30181000 30157944 
3323.528 30127802 30114520 30133508 30187262 30266342 30353442 30430328 
3326.903 30485622 30516048 30526326 30525680 30523006 30523370 30528584 
3330.279 30538634 30553312 30573632 30601170 30636944 30680176 30727704 
3333.654 30777728 30829572 30886398 30951594 31025616 31101588 31163230 
3337.029 31185696 31145574 31026688 30828120 30568848 30282772 30010002 
3340.404 29786342 29632586 29551670 29529718 29543248 29568648 29588848 
3343.780 29598092 29602700 29615000 29651504 29724114 29838842 29991416 
3347.155 30168052 30346566 30501368 30607504 30647724 30617342 30526760 
3350.530 30399658 30265166 30153202 30084410 30067078 30096694 30160570 
3353.905 30241034 30321742 30389886 30434778 30447782 30421156 30349896 
3357.281 30234782 30085230 29919188 29759700 29627670 29535598 29481786 
3360.656 29451138 29421956 29374696 29299694 29201144 29095526 29003412 
3364.031 28940380 28910872 28907852 28915518 28918412 28909012 28889946 
3367.406 28872574 28872610 28900080 28956698 29033490 29113610 29178030 
3370.781 29211142 29201648 29146568 29048048 28913944 28754858 28585600 
3374.157 28422808 28282444 28177272 28114150 28090114 28096064 28119694 
3377.532 28151200 28186480 28229868 28289136 28370796 28473830 28587182 
3380.907 28692456 28771148 28809532 28808038 28777742 28737490 28704086 
3384.282 28683484 28667672 28639848 28579646 28474930 28328902 28160532 
3387.658 27997400 27867880 27787634 27756230 27756976 27765726 27762008 
3391.033 27736992 27698686 27667698 27668536 27720008 27825566 27971620 
3394.408 28132170 28274432 28370878 28406106 28379738 28304722 28202034 
3397.783 28093248 27996942 27922300 27871866 27840694 27821684 27807258 
3401.159 27792024 27773802 27753384 27734348 27721160 27718420 27729244 
3404.534 27755582 27796874 27851054 27915136 27985224 28058894 28133514 
3407.909 28208154 28283272 28359000 28435896 28513506 28589302 28658668 
3411.284 28713542 28744678 28741592 28696896 28608364 28481084 28328060 
3414.660 28168778 28023662 27911488 27843120 27819714 27833442 27869562 
3418.035 27912150 27947484 27968276 27973370 27967044 27956200 27946050 
3421.410 27940866 27940874 27944236 27949790 27956384 27964714 27976398 
3424.785 27992830 28014230 28039568 28065612 28088416 28102672 28104194 
3428.161 28088466 28053408 27997846 27923166 27830986 27726740 27615412 
3431.536 27503708 27397890 27302356 27220120 27152238 27096844 27052096 
3434.911 27014756 26983778 26959632 26945794 26947488 26970170 27015702 
3438.286 27080396 27153106 27216558 27250086 27235796 27165198 27041066 
3441.662 26881380 26714008 26567964 26468458 26426644 26438820 26487828 
3445.037 26549392 26597842 26615166 26593430 26535078 26449154 26348560 
3448.412 26245156 26149054 26066770 26005168 25968090 25959972 25980816 
3451.787 26028780 26095382 26169334 26236444 26283424 26300720 26284824 
3455.163 26237816 26167846 26087020 26007924 25942330 25897694 25877296 
3458.538 25879272 25898270 25926718 25956924 25981772 25997174 25999628 
3461.913 25986448 25953766 25899134 25820910 25721418 25608478 25493646 
3465.288 25390702 25308636 25250730 25210910 25176216 25134624 25078064 
3468.664 25009334 24942230 24895208 24884756 24918612 24990590 25084578 
3472.039 25179878 25261290 25323538 25373866 25427252 25497164 25589108 
3475.414 25697364 25806004 25897460 25960470 25993956 26008348 26020278 
3478.789 26046512 26094926 26163998 26242944 26320504 26384946 26432268 
3482.165 26461758 26476344 26479302 26472162 26455036 26432144 26409480 
3485.540 26397742 26406564 26441956 26502160 26576376 26651442 26714176 
3488.915 26759636 26794516 26833996 26898090 27004112 27161754 27368216 
3492.290 27612236 27874036 28132770 28367204 28559976 28698776 28777440 
3495.666 28797700 28772394 28721578 28673472 28656288 28692714 28792706 
3499.041 28950982 29147964 29355666 29543816 29688750 29773520 29793944 
3502.416 29753200 29660726 29529412 29375942 29216882 29071290 28953486 
3505.791 28873890 28833938 28826182 28835592 28845360 28840798 28816446 
3509.167 28775976 28730516 28693818 28677018 28680958 28697582 28707444 
3512.542 28685660 28607286 28453232 28216722 27906182 27546652 27175126 
3515.917 26835014 26566836 26396910 26332830 26358850 26441210 26536770 
3519.292 26605660 26618800 26565004 26449596 26288476 26098958 25894338 
3522.667 25680076 25455934 25220490 24976472 24731836 24500698 24298604 
3526.043 24137076 24020616 23946508 23904196 23879326 23856944 23824696 
3529.418 23774030 23700906 23607214 23500318 23390902 23291204 23210858 
3532.793 23153184 23112848 23077850 23033330 22968002 22876854 22765718 
3536.168 22646588 22532664 22431090 22340790 22252134 22153710 22037534 
3539.544 21906234 21773954 21662704 21593676 21581858 21629666 21728192 
3542.919 21858420 21998700 22128188 22229724 22289106 22295594 22242252 
3546.294 22129056 21965180 21769924 21570706 21395306 21264812 21186156 
3549.669 21150282 21139200 21131102 21113096 21086378 21063116 21062394 
3553.045 21097356 21167416 21255880 21334586 21374620 21355902 21276258 
3556.420 21149170 20999006 20850840 20721650 20616086 20528306 20447082 
3559.795 20363326 20273818 20183930 20101670 20038046 20000822 19994204 
3563.170 20018916 20074490 20159754 20271604 20404554 20546776 20680658 
3566.546 20783334 20830580 20802248 20689448 20495514 20238540 19947392 
3569.921 19657300 19402884 19208446 19085496 19027210 19013484 19012576 
3573.296 18995246 18940516 18844778 18721326 18597136 18503968 18466656 
3576.671 18496366 18587134 18718724 18864754 18999436 19106674 19179484 
3580.047 19220018 19231854 19218106 19177568 19106498 19000932 18861336 
3583.422 18693480 18507214 18313466 18121732 17936824 17761380 17595882 
3586.797 17440450 17298092 17171330 17060052 16962458 16872650 16783908 
3590.172 16693465 16605645 16532719 16491042 16493857 16545152 16634000 
3593.548 16734669 16812984 16837148 16789204 16671168 16507955 16339421 
3596.923 16210476 16156528 16193502 16314933 16493281 16688088 16858616 
3600.298 16973136 17014726 16984800 16899134 16780878 16654033 16537540 
3603.673 16440812 16364818 16300028 16234502 16153872 16049325 15920131 
3607.049 15772805 15623884 15494011 15404925 15371481 15398535 15479827 
3610.424 15598478 15732875 15863333 15976423 16067792 16141407 16204888 
3613.799 16264753 16323427 16379217 16426185 16462391 16489770 16517399 
3617.174 16556783 16617861 16702093 16800774 16894396 16959440 16977582 
3620.550 16940436 16856836 16749568 16649920 16589306 16590787 16663365 
3623.925 16801128 16985674 17190200 17386428 17550540 17665134 17722530 
3627.300 17725860 17684336 17614966 17536946 17466688 17418668 17400916 
3630.675 17416852 17466116 17547396 17657786 17791336 17939910 18090238 
3634.051 18226856 18333190 18400074 18426524 18422386 18405688 18393990 
3637.426 18400086 18422886 18451920 18468878 18458638 18416796 18352854 
3640.801 18289878 18255686 18272020 18348174 18476612 18637216 18804716 
3644.176 18957862 19084660 19183508 19259402 19319176 19367718 19406486 
3647.552 19436944 19461538 19488586 19528122 19588606 19672370 19772936 
3650.927 19875492 19962890 20021768 20047450 20047156 20034358 20023760 
3654.302 20026282 20043148 20069340 20093944 20107758 20105994 20088886 
3657.677 20063676 20036128 20011394 19992424 19978362 19968342 19960044 
3661.052 19950882 19935330 19906626 19855180 19773502 19656652 19508204 
3664.428 19340188 19168086 19009114 18875182 18767410 18679282 18595928 
3667.803 18502110 18384912 18240884 18072244 17886606 17694060 17502220 
3671.178 17315396 17135554 16964782 16805544 16664356 16550075 16471934 
3674.553 16437808 16450670 16507210 16595764 16698256 16791298 16849526 
3677.929 16849516 16774872 16619295 16387327 16093759 15762851 15419242 
3681.304 15088427 14788245 14531746 14324836 14170715 14069881 14021112 
3684.679 14022945 14070972 14158676 14276600 14413416 14556937 14692865 
3688.054 14807624 14886652 14918698 14895107 14816357 14693532 14549834 
3691.430 14415485 14324555 14301371 14354344 14472528 14624593 14769295 
3694.805 14867471 14892887 14841440 14728557 14585617 14445373 14332914 
3698.180 14256653 14210049 14174683 14132262 14069794 13987770 13898064 
3701.555 13819220 13769188 13759598 13789848 13849937 13922172 13988485 
3704.931 14033397 14049093 14034697 13997007 13946301 13894592 13853029 
3708.306 13830297 13831845 13859798 13912554 13985533 14069947 14154012 
3711.681 14221852 14259560 14253096 14196368 14091094 13951417 13800670 
3715.056 13668143 13581154 13559948 13610134 13721815 13871294 14027661 
3718.432 14160717 14247947 14279759 14257362 14191563 14096525 13982813 
3721.807 13859007 13728086 13592042 13452741 13317022 13193348 13092914 
3725.182 13025927 13002603 13025815 13097328 13211315 13359831 13528827 
3728.557 13702241 13861762 13992549 14082864 14130690 14141619 14129478 
3731.933 14110975 14101570 14110505 14139028 14180413 14222685 14252358 
3735.308 14260192 14240180 14193441 14125834 14048469 13974962 13920675 
3738.683 13898234 13915271 13970425 14052220 14140165 14207756 14231472 
3742.058 14198035 14108431 13982034 13849610 13744808 13694780 13710182 
3745.434 13783657 13893827 14012920 14113896 14177831 14195814 14164443 
3748.809 14087333 13970242 13821802 13655799 13489139 13342380 13235319 
3752.184 13180373 13181190 13228388 13305942 13394305 13480687 13559944 
3755.559 13635586 13714387 13799867 13888760 13970019 14028198 14052982 
3758.935 14042225 14006086 13960262 13923477 13905783 13906310 13914000 
3762.310 13914651 13896570 13859369 13811848 13771861 13756014 13774005 
3765.685 13825594 13900477 13982432 14057234 14113802 14147216 14154316 
3769.060 14133077 14081347 13997229 13883359 13750569 13616497 13502686 
3772.436 13427543 13398885 13411311 13445296 13476896 13484671 13459531 
3775.811 13407518 13347297 13303082 13294436 13330832 13406235 13507286 
3779.186 13615942 13719707 13813655 13901314 13990263 14085684 14185683 
3782.561 14279901 14351639 14384577 14366047 14294136 14176045 14027696 
3785.937 13868320 13717392 13590096 13496306 13438808 13416603 13424764 
3789.312 13454951 13495908 13534343 13557591 13554757 13518608 13448884 
3792.687 13351526 13240594 13132556 13046036 12995614 12990547 13032884 
3796.062 13116054 13229425 13358433 13486848 13601854 13692916 13754559 
3799.438 13784612 13786741 13767413 13737034 13706900 13686665 13682686 
3802.813 13694329 13715507 13735163 13741351 13725172 13684197 13625163 
3806.188 13562425 13514550 13498587 13526623 13598811 13706005 13828759 
3809.563 13945572 14034922 14081645 14078842 14029170 13941916 13832224 
3812.938 13716016 13608960 13522902 13467405 13447954 13466985 13522093 
3816.314 13608446 13715868 13831609 13940497 14027864 14083097 14102105 
3819.689 14088313 14053456 14012977 13983975 13975398 13989164 14015450 
3823.064 14038296 14038405 14002356 13925024 13814068 13685971 13564363 
3826.439 13472258 13426791 13435896 13498195 13603602 13736798 13878739 
3829.815 14009978 14114511 14179137 14198588 14175281 14119824 14051168 
3833.190 13990692 13957227 13961674 14003017 14067180 14131363 14169030 
3836.565 14158634 14090667 13971527 13822877 13678304 13572049 13532586 
3839.940 13574046 13691464 13863064 14053851 14224549 14342148 14384914 
3843.316 14349600 14248132 14103996 13941595 13781871 13636762 13509873 
3846.691 13399792 13306906 13236489 13199209 13206774 13266274 13374384 
3850.066 13515322 13665821 13801063 13904053 13969623 14005868 14027701 
3853.441 14047480 14068039 14079456 14063960 14005436 13898464 13754630 
3856.817 13600851 13474360 13408531 13424510 13524780 13692627 13899988 
3860.192 14115940 14314168 14478920 14605266 14693573 14747050 14769161 
3863.567 14760675 14723383 14660122 14575922 14478269 14373752 14267792 
3866.942 14162717 14059691 13959486 13865854 13784739 13725708 13696526 
3870.318 13703790 13748037 13825270 13925420 14036468 14145995 14242616 
3873.693 14317909 14368884 14395791 14404574 14405848 14411787 14433659 
3877.068 14480800 14555036 14651586 14759185 14861889 14941150 14981009 
3880.443 14970418 14906898 14793544 14642028 14468174 14289105 14120650 
3883.819 13973835 13853855 13759938 13688453 13635512 13599950 13587228 
3887.194 13605792 13665912 13774232 13929737 14120637 14326164 14520324 
3890.569 14678665 14783350 14827844 14817714 14767771 14697389 14626473 
3893.944 14569204 14533528 14517236 14510570 14498438 14464426 14395641 
3897.320 14289337 14153972 14009209 13881484 13794633 13761299 13777981 
3900.695 13823202 13868565 13886179 13864433 13810744 13752740 13726146 
3904.070 13761223 13869086 14036077 14226090 14394767 14502928 14531352 
3907.445 14485226 14390384 14282855 14195418 14147406 14143012 14170230 
3910.821 14212352 14251477 14276238 14281657 14268382 14239809 14201813 
3914.196 14161979 14129982 14118118 14136995 14192114 14281403 14392706 
3917.571 14506659 14602452 14663829 14683838 14665865 14617759 14549730 
3920.946 14468192 14374058 14268508 14153896 14040967 13945709 13886344 
3924.322 13874288 13909029 13973019 14038207 14074031 14059758 13994971 
3927.697 13898421 13805266 13752635 13766134 13850249 13985851 14136727 
3931.072 14262567 14331309 14332671 14278326 14199926 14133991 14115092 
3934.447 14160721 14271040 14428996 14606991 14776369 14915012 15009744 
3937.823 15059099 15066733 15041721 14990897 14919914 14834697 14739452 
3941.198 14638397 14538506 14443601 14354872 14270207 14186182 14099378 
3944.573 14011499 13931513 13874833 13859526 13900107 14000024 14150477 
3947.948 14329071 14508915 14662828 14776138 14846055 14883644 14903285 
3951.323 14919368 14934130 14940840 14923771 14866930 14762779 14616190 
3954.699 14445796 14277889 14138630 14045734 14003302 14004347 14032627 
3958.074 14072016 14111814 14150165 14192230 14246876 14321381 14416156 
3961.449 14524325 14633718 14729111 14798572 14834414 14837277 14811791 
3964.824 14767750 14714688 14661615 14614362 14577568 14553626 14545052 
3968.200 14553979 14580413 14623032 14676142 14730724 14776298 14803572 
3971.575 14808552 14793628 14769403 14750883 14754533 14790850 14862108 
3974.950 14961148 15072839 15180846 15271735 15339654 15387516 15421561 
3978.325 15448168 15467995 15473461 15450990 15387798 15275896 15118728 
3981.701 14933328 14746973 14587604 14480777 14439408 14464849 14545278 
3985.076 14665406 14807152 14956132 15101830 15236914 15354312 15446684 
3988.451 15506951 15530428 15518569 15480029 15429344 15386786 15368498 
3991.826 15385968 15440539 15525557 15628356 15734121 15829504 15906211 
3995.202 15958359 15981263 15972901 15929928 15854198 15753729 15645221 
3998.577 15552600 15503007 15517846 15605563 15756436 
##END=
