##TITLE=3D-Fillies_PETG_White_Filament_r5_ATR-Corrected
##JCAMP-DX=5.01  $$ Nicolet v. 1
##DATATYPE=INFRARED SPECTRUM
##ORIGIN=Curtin University
##OWNER=Nicolet
##LONGDATE=2024/07/18
##TIME=12:33:46
##SPECTROMETER/DATA SYSTEM=Nicolet iS50
##DATA PROCESSING=
Ratio against background
%Transmittance->Absorbance
ATR Correction
Truncated
ElementMultiply or ElementDivide
##COMMENTS=
Number of sample scans: 32
Collection length: 47.28 sec
Sample gain: 1.0
Background collected on: Thu Jul 18 12:31:54 2024 (GMT+08:00);
Number of background scans: 32
Background gain: 1.0
Sample spacing:  1.000
Number of scan points: 16672
Resolution points: 8192
Number of FFT points: 65536
Apodization: N-B strong;
Phase correction: Mertz;
Laser frequency: 15798.3 cm-1
Number of rejected sample scans: 0
Number of rejected background scans: 0
Bench serial number: AUP1200105;
##RESOLUTION=4.000
##XUNITS=1/CM
##YUNITS=ABSORBANCE
##FIRSTX=400.163452
##LASTX=4000.187744
##FIRSTY=0.033489
##MAXX=4000.187744
##MINX=400.163452
##MAXY=1.298479
##MINY=-0.027837
##XFACTOR=1.000000
##YFACTOR=1.000000E-008
##NPOINTS=7468
##DELTAX=0.482125
##ZPD=8192
##XYDATA=(X++(Y..Y))
400.163 3348852 3409727 3473016 3529987 3573951 3601513 3613756 3615563 
404.020 3613945 3615811 3626408 3648217 3681267 3723783 3772987 3825525 
407.877 3877599 3924776 3962225 3985061 3989383 3973506 3938647 3889197 
411.734 3831993 3774864 3725082 3687679 3664799 3655681 3657313 3665549 
415.591 3676113 3685299 3690625 3691031 3687194 3681629 3678647 3683773 
419.448 3702817 3740427 3798716 3876048 3966814 4062135 4151581 4225360 
423.305 4276623 4302823 4306118 4292235 4268688 4242626 4219115 4200407 
427.162 4186185 4174533 4163399 4151440 4138573 4125660 4113837 4103819 
431.019 4095588 4088518 4081989 4075706 4070522 4067622 4068141 4072258 
434.876 4078797 4085188 4088241 4085146 4074538 4057091 4035369 4012950 
438.733 3993329 3978638 3969111 3962906 3956809 3947217 3931275 3907745 
442.590 3877411 3842898 3808120 3777198 3753508 3738767 3732601 3732593 
446.447 3735010 3735949 3732595 3724115 3711953 3699139 3689011 3683712 
450.304 3683189 3685066 3685607 3681226 3670231 3653773 3635660 3621109 
454.161 3614853 3619413 3634295 3656267 3680727 3703372 3721628 3735157 
458.017 3745427 3754589 3764410 3775505 3787390 3799149 3810088 3820280 
461.874 3830485 3841635 3854175 3867682 3881038 3892862 3902261 3909238 
465.731 3914711 3919935 3925885 3932635 3939350 3944718 3947769 3948502 
469.588 3948168 3948893 3953027 3962249 3977087 3996957 4020619 4046831 
473.445 4074858 4104485 4135609 4167586 4198861 4227021 4249450 4264384 
477.302 4271830 4273887 4274415 4277756 4287341 4304490 4328017 4354742 
481.159 4380893 4403677 4422595 4439770 4459300 4485777 4522541 4570381 
485.016 4627225 4688857 4750546 4808666 4861959 4911693 4960901 5012890 
488.873 5069847 5132013 5197915 5265345 5332799 5400518 5470753 5547013 
492.730 5632621 5729210 5835829 5948965 6063616 6174736 6278597 6373416 
496.587 6459034 6535947 6604189 6662583 6708748 6739798 6753319 6748145 
500.444 6724661 6684360 6629146 6560568 6479477 6386187 6280911 6164374 
504.301 6038102 5904475 5766421 5627050 5489348 5356027 5229487 5111803 
508.158 5004588 4908782 4824457 4750659 4685603 4626981 4572476 4520251 
512.015 4469175 4418933 4369904 4322906 4279065 4239655 4205961 4179015 
515.871 4159309 4146400 4138803 4134121 4129611 4123032 4113366 4101182 
519.728 4088464 4077680 4070803 4068220 4068382 4068143 4063696 4051855 
523.585 4031091 4001946 3966754 3928753 3891065 3855841 3823945 3795075 
527.442 3768343 3742775 3717812 3693372 3669745 3647348 3626508 3607338 
531.299 3589823 3573783 3559083 3545532 3532913 3520928 3509172 3497219 
535.156 3484645 3471117 3456465 3440717 3424124 3407145 3390478 3374908 
539.013 3361187 3349771 3340691 3333345 3326645 3319206 3309738 3297306 
542.870 3281609 3262958 3242118 3220125 3197991 3176684 3157002 3139587 
546.727 3124871 3112941 3103416 3095389 3087607 3078762 3067930 3054968 
550.584 3040512 3025752 3011858 2999367 2987783 2975624 2960850 2941653 
554.441 2917178 2887970 2855886 2823528 2793317 2766771 2744054 2724006 
558.298 2704650 2683931 2660436 2633824 2604863 2575172 2546732 2521279 
562.155 2499983 2483147 2470283 2460247 2451539 2442661 2432358 2419859 
566.012 2404952 2387965 2369644 2350929 2332767 2315887 2300698 2287199 
569.869 2275060 2263704 2252563 2241210 2229599 2218115 2207533 2198835 
573.725 2192857 2190013 2190066 2192119 2194854 2196945 2197517 2196424 
577.582 2194282 2192222 2191434 2192733 2196279 2201552 2207576 2213287 
581.439 2217862 2220839 2222204 2222167 2221107 2219518 2218031 2217496 
585.296 2218984 2223610 2232341 2245749 2263819 2286087 2311873 2340616 
589.153 2372143 2406690 2444785 2486905 2533289 2583827 2638193 2696050 
593.010 2757199 2821539 2888837 2958273 3028180 3095967 3158452 3212408 
596.867 3255241 3285313 3302145 3305963 3297343 3276751 3244374 3200326 
600.724 3144998 3079472 3005642 2926075 2843679 2761220 2681075 2605128 
604.581 2534945 2471967 2417644 2373273 2339735 2317049 2304132 2298808 
608.438 2298199 2299290 2299645 2297852 2293720 2288069 2282269 2277653 
612.295 2275058 2274530 2275473 2276901 2277925 2278191 2278094 2278822 
616.152 2282018 2289293 2301702 2319328 2341147 2365265 2389372 2411399 
620.009 2430063 2445261 2458027 2470273 2484244 2501979 2524798 2553041 
623.866 2586036 2622322 2660128 2698038 2735740 2774756 2818783 2873507 
627.723 2945676 3041450 3164301 3312962 3480084 3652144 3810984 3936844 
631.579 4012428 4026701 3977630 3872599 3726741 3559532 3390827 3237315 
635.436 3110246 3014612 2949805 2911167 2892002 2885576 2886450 2891227 
639.293 2898523 2908402 2921587 2938620 2959393 2982981 3007850 3032313 
643.150 3055080 3075475 3093550 3109774 3124672 3138445 3150820 3161202 
647.007 3169044 3174218 3177295 3179410 3181941 3185980 3191909 3199241 
650.864 3206880 3213609 3218633 3222002 3224647 3228067 3233797 3242890 
654.721 3255596 3271375 3289222 3308053 3327068 3345918 3364598 3383155 
658.578 3401490 3419218 3435794 3450780 3464159 3476524 3489049 3503205 
662.435 3520317 3541150 3565679 3593105 3622113 3651396 3680035 3707821 
666.292 3735268 3763354 3793183 3825510 3860561 3897978 3937063 3977121 
670.149 4017839 4059476 4102834 4149085 4199471 4255058 4316612 4384618 
674.006 4459401 4541185 4630114 4726042 4828275 4935357 5044944 5153924 
677.863 5258824 5356205 5443154 5517597 5578425 5625408 5659082 5680589 
681.720 5691565 5694100 5690631 5683855 5676464 5670852 5668851 5671525 
685.577 5679230 5691759 5708702 5729744 5754859 5784344 5818775 5858790 
689.433 5905042 5958136 6018715 6087516 6165469 6253530 6352523 6462895 
693.290 6584531 6716798 6858804 7009803 7169693 7339361 7520759 7716591 
697.147 7929853 8163023 8417530 8693303 8988681 9300710 9625474 9958680 
701.004 10296054 10633580 10967712 11295407 11614258 11922592 12219602 
704.379 12505402 12780961 13047823 13307774 13562483 13813268 14061165 
707.754 14307110 14552335 14798766 15049317 15308039 15580064 15871638 
711.129 16190033 16543688 16942412 17397698 17922814 18532836 19244250 
714.504 20074296 21040084 22157488 23440100 24898150 26537594 28359408 
717.878 30359074 32526514 34846132 37297376 39854888 42488180 45160076 
721.253 47823788 50418948 52867840 55074228 56927176 58312268 59129972 
724.628 59316600 58860712 57807112 56247020 54298628 52085876 49721728 
728.003 47298784 44886424 42532292 40265964 38103060 36048924 34101476 
731.378 32253406 30494034 28810894 27191386 25624118 24100046 22612930 
734.752 21159404 19738526 18351352 17000608 15690589 14427167 13217673 
738.127 12070495 10994115 9996009 9081476 8252756 7508873 6845940 6258183 
741.984 5738876 5281305 4879283 4527325 4220392 3953662 3722304 3521508 
745.841 3346719 3193922 3059861 2942065 2838591 2747825 2668172 2597947 
749.698 2535569 2479733 2429677 2385264 2346755 2314519 2288510 2267987 
753.555 2251410 2236743 2221910 2205489 2187149 2167903 2149852 2135719 
757.412 2128045 2128513 2137457 2153686 2174789 2197754 2219706 2238573 
761.269 2253582 2265325 2275504 2286387 2300175 2318541 2342303 2371459 
765.126 2405408 2443303 2484349 2527984 2573835 2621684 2671248 2722146 
768.983 2773923 2826202 2878731 2931472 2984457 3037601 3090444 3142088 
772.840 3191187 3236227 3275968 3309802 3338042 3361970 3383636 3405386 
776.697 3429516 3457820 3491432 3530844 3576033 3626756 3682743 3743874 
780.554 3810237 3882131 3959998 4044368 4135869 4235224 4343246 4460862 
784.410 4589030 4728668 4880556 5045243 5223011 5414013 5618266 5835777 
788.267 6066414 6309649 6564005 6826403 7091500 7351254 7594954 7809762 
792.124 7981951 8098399 8148373 8125103 8026852 7857535 7626459 7347677 
795.981 7038650 6718591 6406610 6119843 5871808 5671293 5521821 5421865 
799.838 5365744 5345021 5350078 5371663 5401941 5435093 5467306 5496546 
803.695 5521989 5543693 5562253 5578702 5594303 5610443 5628315 5648646 
807.552 5671494 5696216 5721597 5746142 5768375 5787119 5801587 5811379 
811.409 5816414 5816903 5813372 5806705 5798147 5789246 5781591 5776467 
815.266 5774558 5775762 5779302 5784033 5788887 5793313 5797489 5802215 
819.123 5808578 5817489 5829238 5843401 5858991 5874869 5890245 5905048 
822.980 5919985 5936352 5955527 5978573 6005878 6037171 6071742 6108772 
826.837 6147709 6188395 6231045 6275993 6323524 6373705 6426516 6481947 
830.694 6540277 6602064 6668070 6738905 6814782 6895292 6979470 7066082 
834.551 7154017 7242524 7331308 7420253 7509048 7596877 7682348 7763809 
838.408 7839868 7909976 7974680 8035476 8094204 8152327 8210290 8267357 
842.264 8322021 8372722 8418614 8460062 8498464 8535678 8573097 8610860 
846.121 8647554 8680541 8706723 8723573 8729924 8726376 8715075 8699150 
849.978 8681908 8666242 8654185 8646844 8644577 8647236 8654501 8666038 
853.835 8681699 8701601 8726127 8755893 8791585 8833811 8882939 8939043 
857.692 9002098 9072269 9150294 9237844 9337530 9452684 9586843 9743160 
861.549 9923986 10130689 10363957 10624266 10912432 11229990 11579201 
864.924 11962747 12383225 12842587 13341731 13880195 14455949 15065180 
868.299 15701668 16356300 17016398 17665546 18283956 18849700 19340636 
871.674 19736672 20021958 20186452 20226572 20144792 19948524 19648640 
875.048 19258032 18790636 18260830 17683194 17072270 16442212 15806188 
878.423 15175690 14560011 13965964 13398130 12859322 12351345 11875582 
881.798 11433334 11025868 10654177 10318722 10019165 9754308 9522238 9320545 
885.655 9146553 8997508 8870649 8763281 8672825 8596916 8533598 8481362 
889.512 8439219 8406489 8382603 8366816 8358022 8354809 8355627 8359126 
893.369 8364434 8371190 8379473 8389532 8401368 8414514 8427905 8439988 
897.226 8448903 8452722 8449588 8437805 8415843 8382296 8336021 8276205 
901.083 8202500 8115118 8014783 7902612 7779956 7648268 7509105 7364194 
904.940 7215533 7065458 6916629 6771754 6633367 6503473 6383369 6273569 
908.797 6173837 6083448 6001361 5926511 5858034 5795385 5738469 5687715 
912.654 5643912 5608105 5581245 5563892 5555902 5556399 5563884 5576565 
916.510 5592866 5611691 5632664 5655969 5682036 5711181 5743289 5777781 
920.367 5813806 5850516 5887436 5924554 5962303 6001271 6041834 6083966 
924.224 6127116 6170347 6212592 6253033 6291236 6327320 6361836 6395663 
928.081 6429752 6464936 6501830 6540760 6581750 6624597 6668938 6714423 
931.938 6760748 6807803 6855729 6904942 6956158 7010343 7068677 7132467 
935.795 7203062 7281693 7369300 7466383 7573001 7688762 7813067 7945395 
939.652 8085581 8233950 8391281 8558558 8736625 8925756 9125507 9334650 
943.509 9551367 9773564 9999114 10226106 10452817 10677684 10899316 11116341 
947.366 11327570 11532091 11729366 11919381 12102602 12280027 12453095 
950.741 12623641 12793685 12965246 13139844 13318038 13498896 13679565 
954.116 13855252 14019558 14165209 14285061 14373066 14425063 14439303 
957.490 14416349 14359015 14271910 14161041 14033423 13896741 13758938 
960.865 13627727 13509986 13411202 13334920 13282500 13253252 13244835 
964.240 13253926 13276905 13310368 13351390 13397421 13446000 13494422 
967.615 13539456 13577425 13604520 13617270 13613099 13590688 13550028 
970.990 13492200 13418829 13331605 13231757 13119882 12996030 12860067 
974.364 12712087 12552829 12383907 12207820 12027752 11847156 11669435 
977.739 11497597 11334044 11180560 11038406 10908460 10791370 10687664 
981.114 10597763 10521854 10459742 10410696 10373326 10345593 10324971 
984.489 10308713 10294188 10279215 10262232 10242414 10219499 10193646 
987.864 10165267 10134774 10102776 10070093 10037944 10007949 9982089 
991.239 9962466 9950946 9948900 9957083 9975680 10004541 10043497 10092571 
995.095 10152054 10222456 10304215 10397524 10502178 10617681 10743500 
998.470 10879307 11025328 11182397 11351876 11535457 11734831 11951499 
1001.845 12186698 12441503 12717105 13015123 13337873 13688566 14071313 
1005.220 14490911 14952688 15462090 16024563 16645488 17330452 18085774 
1008.595 18919254 19840876 20863286 22001630 23272634 24692620 26274546 
1011.970 28024206 29935842 31987556 34137188 36319296 38444696 40403644 
1015.344 42074068 43335204 44084560 44254848 43825672 42826224 41328560 
1018.719 39434260 37258708 34917472 32516158 30144554 27874046 25757560 
1022.094 23830804 22114388 20616214 19334022 18257764 17371886 16657381 
1025.469 16093490 15659229 15334360 15100183 14940013 14839301 14785762 
1028.844 14769277 14781718 14816734 14869478 14936246 15014243 15101229 
1032.219 15195452 15295552 15400615 15510273 15624765 15744884 15871760 
1035.595 16006555 16149940 16301818 16461003 16625239 16791456 16956150 
1038.970 17115876 17267630 17408970 17537958 17652998 17752564 17835086 
1042.345 17899022 17943092 17966596 17969594 17953070 17918708 17868646 
1045.720 17805136 17730220 17645668 17552984 17453564 17348916 17240804 
1049.096 17131320 17022846 16917874 16818904 16728246 16647926 16579624 
1052.471 16524756 16484518 16460037 16452472 16463089 16493219 16544139 
1055.846 16616926 16712327 16830676 16971872 17135516 17321114 17528186 
1059.221 17756372 18005420 18275086 18565026 18874758 19203618 19551040 
1062.597 19916640 20300452 20702938 21124930 21567508 22031812 22518914 
1065.972 23029806 23565414 24126614 24714194 25328880 25971240 26641744 
1069.347 27341020 28070202 28831298 29627358 30462494 31341448 32268974 
1072.722 33249066 34284424 35376212 36523980 37726096 38979992 40282484 
1076.098 41629768 43017416 44440100 45891416 47363940 48849220 50337948 
1079.473 51820256 53286080 54725868 56130964 57494540 58811772 60079956 
1082.848 61297868 62465196 63581860 64647908 65664108 66632992 67559456 
1086.223 68450992 69316640 70165320 71003488 71833920 72654872 73461144 
1089.599 74245360 74999640 75716480 76388728 77008848 77568232 78056936 
1092.974 78464384 78780536 78997240 79108496 79110304 78999608 78773512 
1096.349 78428920 77963360 77376072 76669184 75847840 74919912 73894424 
1099.724 72780432 71586216 70319416 68987376 67597976 66160108 64683784 
1103.100 63179880 61660404 60138380 58628668 57148372 55717164 54356800 
1106.475 53090160 51939660 50925540 50064272 49367420 48840892 48484716 
1109.850 48292876 48253472 48348824 48555924 48847072 49191316 49556120 
1113.225 49909608 50222648 50470484 50633664 50698136 50654776 50498908 
1116.601 50229424 49848596 49361656 48776496 48103116 47353076 46538432 
1119.976 45671092 44762112 43821368 42857380 41877588 40888540 39896296 
1123.351 38906456 37924336 36954792 36001972 35069224 34158968 33272722 
1126.726 32411328 31575186 30764466 29979294 29219642 28485236 27775454 
1130.102 27089128 26424562 25779616 25152132 24540066 23941836 23356492 
1133.477 22783602 22223176 21675372 21140302 20617956 20108116 19610558 
1136.852 19125196 18652106 18191606 17744098 17309792 16888652 16480254 
1140.227 16083902 15698880 15324704 14961331 14609247 14269227 13942137 
1143.603 13628580 13328701 13042183 12768394 12506682 12256506 12017613 
1146.978 11789886 11573193 11367120 11170861 10983226 10802798 10628181 
1150.353 10458057 10291363 10127144 9964490 9802475 9640162 9476945 9312663 
1154.210 9147911 8984007 8822923 8666793 8517639 8376940 8245534 8123687 
1158.068 8011317 7908294 7814699 7730853 7657351 7594820 7543853 7504902 
1161.925 7478299 7464373 7463599 7476691 7504719 7549118 7611578 7694060 
1165.783 7798526 7926712 8079776 8257800 8459361 8681164 8917946 9162603 
1169.640 9406777 9641577 9858426 10049758 10209563 10333568 10419235 
1173.015 10465550 10472860 10442712 10377586 10280772 10156080 10007431 
1176.391 9838634 9653193 9454252 9244865 9028213 8807907 8587989 8372815 
1180.248 8166675 7973347 7795755 7635887 7494811 7373012 7270627 7187646 
1184.105 7123999 7079432 7053455 7045275 7053946 7078516 7118261 7172745 
1187.963 7241731 7324979 7421987 7531795 7653017 7783988 7923079 8068958 
1191.820 8220707 8377773 8539775 8706363 8877102 9051540 9229358 9410521 
1195.678 9595389 9784600 9978915 10179017 10385313 10597920 10816859 
1199.053 11042096 11273757 11512133 11757562 12010343 12270594 12538332 
1202.428 12813586 13096474 13387437 13687155 13996500 14316292 14647193 
1205.803 14989685 15344128 15711038 16091189 16485679 16895814 17322860 
1209.179 17767812 18231230 18713290 19214002 19733562 20272650 20832472 
1212.554 21414744 22021272 22653618 23312702 23998644 24710740 25447666 
1215.929 26207664 26988580 27787874 28602464 29428560 30261698 31097170 
1219.304 31930718 32759470 33582868 34403312 35226140 36059224 36911912 
1222.680 37793952 38714544 39681544 40701324 41778756 42917384 44119564 
1226.055 45386620 46718848 48115716 49576104 51098692 52682352 54326356 
1229.430 56030256 57793476 59614824 61491968 63421308 65398096 67416592 
1232.805 69470312 71551648 73651352 75757648 77855744 79927792 81953736 
1236.181 83912480 85783312 87546840 89185648 90684160 92028880 93208560 
1239.556 94215032 95044008 95695176 96171960 96480520 96628616 96624968 
1242.931 96479352 96203032 95809272 95313248 94730976 94078248 93369200 
1246.306 92615960 91829056 91018392 90193880 89365936 88544880 87740072 
1249.682 86959240 86208280 85491824 84814360 84181064 83597920 83070960 
1253.057 82605064 82202456 81861792 81578160 81343880 81149456 80984392 
1256.432 80837384 80696072 80546472 80373016 80159208 79889144 79549232 
1259.807 79129712 78625328 78035024 77361128 76608392 75783256 74893648 
1263.183 73948656 72958400 71933344 70883448 69817424 68742296 67663664 
1266.558 66586220 65514480 64453112 63406860 62380080 61376136 60396872 
1269.933 59442712 58512896 57606232 56721412 55857296 55012648 54185812 
1273.308 53374404 52575332 51785104 51000272 50218152 49437048 48656340 
1276.684 47876320 47097856 46322024 45549984 44782760 44021252 43266120 
1280.059 42517796 41776472 41042240 40315156 39595584 38884340 38182648 
1283.434 37491996 36813928 36149664 35499944 34865068 34245044 33639824 
1286.809 33049458 32474152 31914058 31369072 30838460 30320698 29813376 
1290.185 29313306 28816692 28319424 27817344 27306622 26784054 26247392 
1293.560 25695678 25129384 24550312 23961524 23366874 22770688 22177500 
1296.935 21591776 21017878 20460042 19922246 19408046 18920392 18461246 
1300.310 18031358 17630184 17255966 16905948 16576843 16265161 15967551 
1303.686 15680914 15402502 15129876 14860927 14593884 14327459 14060991 
1307.061 13794520 13528873 13265586 13006757 12754846 12512401 12281807 
1310.436 12065013 11863238 11676879 11505329 11346945 11199246 11059114 
1313.811 10923180 10788104 10651014 10509642 10362514 10208943 10049002 
1317.187 9883369 9713169 9539770 9364554 9188643 9012812 8837380 8662372 
1321.044 8487690 8313377 8139892 7968148 7799497 7635624 7478306 7329331 
1324.901 7190524 7063781 6951190 6855192 6778443 6723740 6693870 6691386 
1328.759 6718630 6777820 6871160 7000974 7169486 7378515 7628821 7919601 
1332.616 8247869 8608280 8993106 9392545 9795157 10188463 10559560 10895876 
1336.474 11185930 11420029 11591000 11694584 11729617 11697908 11603851 
1339.849 11453849 11255634 11017612 10748241 10455628 10147236 9829780 
1343.224 9509088 9190206 8877358 8573894 8282394 8004694 7742034 7495185 
1347.082 7264636 7050752 6853745 6673797 6510836 6364519 6234101 6118446 
1350.939 6016130 5925655 5845720 5775430 5714450 5662908 5621158 5589507 
1354.796 5567826 5555479 5551295 5553946 5562269 5575593 5594102 5618660 
1358.654 5650877 5692736 5746411 5814146 5898147 6000552 6123319 6268017 
1362.511 6435546 6625874 6837807 7068961 7315848 7574006 7838212 8102716 
1366.369 8361435 8608294 8837600 9044573 9225738 9379213 9504754 9603503 
1370.226 9677497 9729185 9760942 9774838 9772493 9755252 9724174 9680280 
1374.083 9624466 9557534 9480147 9392906 9296450 9191595 9079583 8962203 
1377.941 8841780 8721135 8603358 8491706 8389303 8299021 8223328 8164136 
1381.798 8122668 8099289 8093490 8103990 8128909 8166048 8213255 8268581 
1385.656 8330353 8397130 8467504 8540028 8613116 8685071 8754305 8819439 
1389.513 8879519 8934160 8983585 9028599 9070566 9111287 9152839 9197436 
1393.371 9247351 9304792 9371930 9451012 9544490 9655113 9786043 9940924 
1397.228 10123710 10338584 10589764 10881364 11217490 11602188 12039704 
1400.603 12534620 13091889 13716638 14413680 15186433 16035639 16957526 
1403.979 17942012 18970922 20016926 21043490 22006128 22855278 23540510 
1407.354 24015374 24242718 24198920 23876924 23287050 22455890 21423070 
1410.729 20236884 18949214 17610856 16267735 14958331 13712430 12551025 
1414.104 11486895 10525838 9668027 8909453 8243294 7661043 7153544 6711587 
1417.962 6326576 5990794 5697568 5441397 5217759 5022971 4854028 4708321 
1421.819 4583610 4477953 4389756 4317717 4260936 4218774 4190848 4176876 
1425.677 4176733 4190365 4217753 4258961 4313936 4382566 4464508 4559239 
1429.534 4666071 4784275 4913105 5051815 5199645 5355659 5518808 5687907 
1433.391 5861790 6039380 6219796 6402315 6586122 6770176 6953075 7133107 
1437.249 7308424 7477393 7638993 7793047 7940361 8082758 8223016 8364749 
1441.106 8512093 8669458 8841022 9030186 9239058 9468062 9715819 9979415 
1444.964 10254885 10537813 10823940 11109424 11390744 11664418 11926606 
1448.339 12172677 12397209 12594087 12756822 12879175 12955706 12982549 
1451.714 12958021 12883157 12761714 12599845 12405305 12186495 11951524 
1455.089 11707681 11461043 11216487 10977628 10746910 10525587 10313899 
1458.465 10111222 9916458 9728450 9546296 9369467 9197851 9031460 8870194 
1462.322 8713569 8560689 8410262 8260891 8111343 7960696 7808487 7654685 
1466.179 7499580 7343685 7187688 7032402 6878704 6727504 6579622 6435764 
1470.037 6296352 6161593 6031535 5906076 5784983 5667937 5554367 5443405 
1473.894 5333917 5224638 5114363 5002223 4887841 4771390 4653453 4534804 
1477.752 4416191 4298122 4180841 4064484 3949184 3835268 3723240 3613799 
1481.609 3507664 3405380 3307286 3213432 3123692 3037895 2955914 2877791 
1485.467 2803735 2734092 2669311 2609869 2556129 2508319 2466452 2430341 
1489.324 2399688 2374164 2353689 2338501 2329212 2326840 2332477 2347218 
1493.181 2371860 2406920 2452663 2509351 2577447 2657900 2752252 2862844 
1497.039 2992835 3146423 3328976 3547027 3807851 4118506 4484168 4906009 
1500.896 5379002 5890212 6418401 6934956 7406538 7798839 8080951 8229713 
1504.754 8233012 8091783 7819897 7441968 6989489 6496097 5993079 5506089 
1508.611 5053626 4646789 4290449 3984592 3725953 3509389 3328960 3178791 
1512.469 3053632 2949121 2861910 2789517 2730109 2682224 2644529 2615696 
1516.326 2594266 2578741 2567648 2559696 2553957 2549981 2547840 2548000 
1520.183 2551169 2558027 2568861 2583363 2600608 2619060 2636992 2652737 
1524.041 2665031 2673184 2677118 2677264 2674367 2669162 2662232 2653885 
1527.898 2644012 2632305 2618295 2601671 2582221 2560003 2535239 2508198 
1531.756 2479180 2448414 2416126 2382692 2348732 2315147 2283085 2253638 
1535.613 2227647 2205364 2186484 2170185 2155384 2141120 2126860 2112642 
1539.470 2099054 2086918 2077031 2069834 2065267 2062915 2062184 2062492 
1543.328 2063495 2065073 2067217 2070037 2073608 2077895 2082924 2088691 
1547.185 2095212 2102473 2110384 2118666 2126996 2134982 2142385 2149267 
1551.043 2155904 2162796 2170462 2179344 2189630 2201365 2214374 2228394 
1554.900 2243091 2258060 2272834 2286904 2299822 2311356 2321632 2331221 
1558.758 2341004 2351970 2364951 2380394 2398373 2418703 2441267 2466116 
1562.615 2493556 2523974 2557635 2594502 2634219 2676285 2720416 2766881 
1566.472 2816591 2871050 2932085 3001446 3080536 3170376 3271750 3385364 
1570.330 3512067 3652870 3808744 3980304 4167660 4370158 4586296 4813648 
1574.187 5048644 5286217 5519497 5739716 5936656 6099505 6218314 6285301 
1578.045 6295739 6248431 6145548 5992130 5795453 5564373 5308724 5038642 
1581.902 4764082 4494131 4236600 3997646 3781478 3590458 3425128 3284533 
1585.760 3166673 3068866 2988248 2921907 2867149 2821540 2782993 2749798 
1589.617 2720668 2694760 2671569 2650826 2632344 2615987 2601530 2588898 
1593.474 2578117 2569492 2563449 2560495 2561006 2565088 2572521 2582941 
1597.332 2595950 2611480 2629740 2651327 2676921 2707118 2742093 2781588 
1601.189 2824896 2871064 2919145 2968427 3018560 3069628 3122065 3176606 
1605.047 3234062 3295306 3361050 3431701 3507334 3587438 3671075 3756839 
1608.904 3843055 3927903 4009727 4087019 4158612 4223444 4280587 4328950 
1612.761 4367146 4393471 4406010 4402879 4382726 4345217 4291486 4224195 
1616.619 4147388 4065784 3983950 3905634 3833176 3767645 3709099 3657161 
1620.476 3611499 3572027 3539101 3513097 3494328 3482665 3477518 3477929 
1624.334 3482659 3490464 3500157 3510728 3521329 3531285 3540108 3547616 
1628.191 3553897 3559387 3564686 3570478 3577181 3584978 3593662 3602772 
1632.049 3611775 3620190 3627831 3634729 3641221 3647711 3654639 3662317 
1635.906 3670930 3680583 3691280 3703100 3716065 3730246 3745599 3761919 
1639.763 3778802 3795657 3811843 3826853 3840496 3853035 3865144 3877717 
1643.621 3891644 3907496 3925398 3945083 3965970 3987543 4009543 4032081 
1647.478 4055529 4080232 4106311 4133496 4161197 4188738 4215713 4242143 
1651.336 4268661 4296330 4326478 4360343 4398878 4442705 4492167 4547406 
1655.193 4608354 4674766 4746023 4821179 4899117 4978877 5060068 5143119 
1659.051 5229389 5320798 5419398 5526792 5643810 5770389 5905749 6048794 
1662.908 6198317 6353332 6512989 6676562 6843397 7012962 7184950 7359425 
1666.765 7536726 7717369 7901687 8089566 8280311 8472831 8665942 8858765 
1670.623 9051089 9243380 9436597 9631938 9830505 10033170 10240573 10453168 
1674.480 10671256 10894922 11123888 11357497 11594720 11834401 12075537 
1677.855 12317535 12560336 12804151 13049440 13296542 13545649 13796964 
1681.231 14050868 14308053 14569549 14836475 15109649 15389353 15675336 
1684.606 15967187 16264892 16569300 16882352 17206856 17546080 17903156 
1687.981 18280888 18681854 19108606 19563992 20051272 20573822 21134872 
1691.356 21737188 22383408 23076726 23821678 24624812 25494274 26438642 
1694.732 27464982 28577054 29774844 31055986 32418770 33865840 35406600 
1698.107 37057360 38838724 40771032 42869604 45141496 47585276 50194352 
1701.482 52962256 55887436 58975172 62235700 65679496 69311840 73128480 
1704.857 77114416 81244936 85488432 89808264 94163024 98505208 102779760 
1708.233 106924928 110876024 114570752 117953888 120978888 123606584 
1711.126 125802776 127538112 128791928 129557800 129847912 129691960 
1714.019 129131424 128210816 126971112 125447680 123672888 121680368 
1716.912 119507624 117194536 114779128 112292232 109755040 107179976 
1719.805 104574904 101947544 99308720 96672240 94052752 91462536 88909384 
1723.180 86396232 83922840 81488176 79092344 76737008 74424808 72157768 
1726.555 69936400 67759544 65625376 63532692 61481756 59474348 57512784 
1729.931 55598276 53729760 51903396 50113212 48352508 46615584 44899104 
1733.306 43202820 41529256 39882560 38267008 36685696 35139620 33627736 
1736.681 32147474 30695898 29270830 27871654 26499796 25158470 23852180 
1740.056 22585790 21363732 20189610 19066028 17994810 16977306 16014539 
1743.432 15107246 14255626 13459194 12716576 12025651 11383669 10787690 
1746.807 10234815 9722646 9249143 8812739 8411887 8044798 7709148 7401918 
1750.664 7119624 6858612 6615636 6388312 6175233 5975960 5790513 5619041 
1754.522 5461280 5316438 5183257 5060211 4945880 4839036 4738791 4644424 
1758.379 4555400 4471221 4391493 4315965 4244676 4177674 4114925 4056140 
1762.237 4000574 3947178 3894792 3842513 3789978 3737396 3685448 3634857 
1766.094 3586198 3539603 3494899 3451729 3409846 3369329 3330531 3293966 
1769.951 3259962 3228483 3199011 3170696 3142524 3113644 3083640 3052531 
1773.809 3020843 2989586 2960035 2933443 2911007 2893458 2880805 2872236 
1777.666 2866156 2860429 2852918 2841906 2826669 2807506 2785549 2762491 
1781.524 2739985 2719161 2700507 2683837 2668469 2653457 2637822 2620842 
1785.381 2602002 2581212 2558734 2535198 2511497 2488617 2467328 2448112 
1789.239 2430952 2415573 2401583 2388769 2377198 2367238 2359232 2353200 
1793.096 2348592 2344422 2339398 2332497 2323313 2312201 2300092 2288088 
1796.953 2277048 2267205 2258180 2249162 2239436 2228632 2216854 2204647 
1800.811 2192682 2181504 2171438 2162614 2155125 2149094 2144681 2141838 
1804.668 2140112 2138533 2135772 2130482 2121826 2109838 2095471 2080342 
1808.526 2066082 2053982 2044474 2037191 2031368 2026109 2020841 2015288 
1812.383 2009325 2002620 1994562 1984324 1971383 1955990 1939649 1925133 
1816.240 1915988 1915639 1926327 1948206 1979194 2015235 2051274 2082501 
1820.098 2105191 2117495 2119382 2112325 2098854 2081820 2063961 2047475 
1823.955 2033940 2024089 2018093 2015475 2015560 2017520 2020673 2024405 
1827.813 2028169 2031215 2032609 2031049 2025129 2013509 1995328 1970381 
1831.670 1939297 1903477 1864777 1825292 1787061 1751693 1720340 1693592 
1835.528 1671496 1653698 1639578 1628379 1619375 1612063 1606035 1600874 
1839.385 1596108 1590929 1584212 1574556 1560702 1541804 1517769 1489398 
1843.242 1458355 1426643 1396387 1369143 1345866 1326880 1312023 1301072 
1847.100 1293755 1289850 1288893 1289895 1291414 1291346 1287559 1278345 
1850.957 1262834 1241518 1215997 1188641 1162051 1138403 1119059 1104456 
1854.815 1094289 1087806 1084207 1082712 1082681 1083343 1083911 1083387 
1858.672 1080916 1075797 1067996 1057882 1046402 1034474 1022780 1011499 
1862.530 1000202 988444 975869 962859 950606 941037 936265 937990 946816 
1866.869 961993 981302 1001296 1018070 1027938 1028072 1017120 995499 965499 
1871.209 930822 896048 865923 844238 833118 832448 840028 852043 864235 
1875.548 873055 876742 875509 871353 867081 865059 866344 870297 874920 
1879.888 877745 876817 871568 862928 852728 843021 835208 829301 824394 
1884.228 819257 813185 806580 801159 799306 803184 813771 830460 851168 
1888.567 873018 893240 910032 922702 931381 936505 938093 935892 929503 
1892.907 919224 906663 894796 887461 887934 897803 915903 938375 959618 
1897.246 973969 977481 969087 950589 926162 900890 879144 863807 855923 
1901.586 854975 859452 867473 877111 886506 893955 898239 898932 896594 
1905.926 893023 890580 891290 896102 904016 912389 917613 916758 908346 
1910.265 893309 874339 854954 838174 825836 818460 816272 820109 831992 
1914.605 854970 891709 942751 1005068 1071540 1132529 1178126 1201029 
1918.462 1198680 1173927 1133701 1086779 1040742 1000344 966797 938655 
1922.320 913748 891167 872489 861843 864571 885558 926842 986448 1058231 
1926.659 1132881 1199983 1250478 1278672 1283533 1268610 1240510 1207046 
1930.517 1174759 1147411 1125662 1107598 1090755 1073323 1055438 1039320 
1934.374 1027815 1023328 1026218 1034460 1044428 1052108 1054632 1051358 
1938.231 1043537 1033509 1023425 1014247 1005814 997020 987161 976472 966261 
1942.571 958441 954740 956032 962679 975229 994730 1023496 1064221 1118145 
1946.911 1183779 1255358 1323708 1377920 1408509 1410289 1384071 1336433 
1950.768 1277833 1219579 1171033 1137574 1120625 1118482 1128052 1146198 
1954.625 1170530 1198933 1229318 1258630 1283136 1298699 1301298 1288563 
1958.483 1259997 1217434 1165663 1111346 1062239 1026326 1010275 1017904 
1962.340 1049342 1100311 1163124 1227526 1282943 1320980 1336813 1330294 
1966.198 1305963 1271527 1235898 1206693 1187375 1175980 1164541 1140771 
1970.055 1090884 1003657 874902 709518 522191 334703 170939 52356 -6461 -235 
1974.877 68371 190299 352673 541209 741329 938226 1117923 1267772 1379533 
1979.217 1451408 1487411 1496546 1488911 1472959 1453356 1431411 1406603 
1983.074 1380048 1355197 1339228 1339847 1361704 1403534 1456010 1504551 
1986.931 1533137 1530211 1493094 1428972 1352689 1281013 1226593 1193741 
1990.789 1177159 1163066 1135274 1079468 988123 862806 714163 559998 421359 
1995.128 318243 266129 272177 333985 439390 569186 700708 813160 891952 
1999.468 931519 934309 908135 861706 800308 725219 634873 528760 412288 
2003.808 297787 203729 149021 145656 192586 273137 357801 414044 416964 
2008.147 358660 251244 123295 10900 -52523 -45399 37794 185821 374438 571787 
2012.969 745284 867489 921243 901352 814931 678803 514996 345220 186050 
2017.309 45889 -75258 -183013 -283899 -381315 -471900 -546930 -593882 
2021.166 -601173 -562484 -479599 -361539 -222512 -78167 58316 178158 277791 
2025.506 357070 416695 456187 471256 454209 394810 284497 119338 -95069 
2029.845 -342830 -597771 -827699 -1000949 -1092563 -1091612 -1002800 -846512 
2033.703 -653427 -456561 -285163 -158276 -83464 -57916 -71180 -108745 
2037.560 -155627 -197311 -222012 -220313 -186602 -119903 -23280 95809 226894 
2041.900 358187 478170 577073 647533 685538 690813 667627 624044 572248 
2046.239 526138 498885 500605 535083 599399 683763 774457 857840 923226 
2050.579 965246 983528 980859 961961 931849 894677 854481 814950 779490 
2054.918 751126 731787 722145 721325 727060 736954 748932 762009 776416 
2059.258 793124 813423 837892 866101 896483 926304 952447 971797 981900 
2063.598 981617 971891 955779 938875 928203 931387 954423 999772 1064960 
2067.937 1142354 1220093 1284903 1325259 1334331 1311844 1264347 1203123 
2071.795 1141231 1089568 1054531 1036721 1032070 1034131 1037236 1038590 
2075.652 1039033 1041946 1051181 1068465 1092134 1117381 1138072 1149589 
2079.510 1150860 1145222 1139156 1139504 1150594 1172010 1198468 1221833 
2083.367 1234073 1230020 1209236 1175689 1135744 1095512 1059077 1027800 
2087.224 1001057 977904 958368 943512 934414 930474 928093 920617 900654 
2091.564 862495 805513 735387 663487 604095 570025 569263 602304 662985 
2095.904 740927 824810 905595 977785 1038900 1088172 1125164 1149156 1159503 
2100.243 1156562 1142533 1121347 1097829 1076696 1061246 1052938 1051607 
2104.101 1055974 1064342 1074727 1084651 1090965 1090063 1078466 1054221 
2107.958 1018006 973578 927662 887774 860707 850190 855926 873733 896688 
2112.298 917143 928609 927060 911985 886132 854661 824232 801542 791986 
2116.637 798434 820652 855285 896543 937463 971551 993747 1001095 992452 
2120.977 967989 928696 875993 812307 741290 667865 597496 535085 482815 
2125.316 439493 400643 359903 311993 254573 189901 123966 63942 15732 -18484 
2130.138 -40967 -56442 -69480 -82205 -93233 -99042 -97038 -88537 -80744 
2134.478 -84408 -110501 -164437 -242615 -331779 -412751 -466424 -479792 
2138.335 -449954 -384052 -296491 -204019 -121675 -59645 -23600 -15631 -35878 
2142.675 -83108 -154023 -242648 -339801 -433452 -511926 -567092 -596134 
2146.532 -602755 -595730 -585647 -581896 -590183 -612769 -648904 -697075 
2150.390 -756615 -828018 -913052 -1013810 -1132641 -1271248 -1431531 
2153.765 -1614767 -1819704 -2042022 -2270473 -2486677 -2664404 -2773259 
2157.140 -2783669 -2674953 -2443499 -2107123 -1703499 -1282977 -893891 
2160.515 -571192 -330597 -168565 -68740 -8453 33472 71232 110474 148910 
2164.855 178646 192344 187368 168210 145660 132684 138331 163466 198332 
2169.195 224877 222945 177247 84455 -45286 -189025 -318408 -407652 -441115 
2173.534 -418208 -352963 -270131 -197876 -159712 -168787 -226032 -320855 
2177.392 -435260 -548746 -642312 -702077 -719640 -693455 -628142 -532570 
2181.249 -419203 -301089 -190200 -96335 -25711 18479 35588 27110 -3598 
2185.589 -51254 -108683 -167599 -219282 -257069 -277945 -283588 -280563 
2189.446 -277702 -283819 -304204 -338403 -379605 -417084 -438689 -434475 
2193.303 -400508 -339219 -259798 -175029 -98255 -40061 -5522 6084 669 -13229 
2198.125 -27044 -34493 -33262 -25255 -15364 -9681 -13672 -29638 -56721 
2202.465 -89940 -121959 -144119 -148722 -130792 -88922 -25935 51655 135301 
2206.804 215775 285003 337529 371632 388862 393738 392450 391535 396585 
2211.144 411172 436838 472700 515983 562734 608207 647620 676855 692664 
2215.484 693798 680935 656835 626750 597105 575292 568075 580172 613312 
2219.823 665078 729102 796015 854383 893945 907011 890564 846750 782508 
2224.163 707807 633613 569388 522318 496317 492399 509587 545487 596775 
2228.502 659226 727845 796825 860494 913691 953360 978544 990103 990384 
2232.842 981271 964210 939814 908717 873075 836840 806086 787368 785453 
2237.182 801854 833772 874401 915731 950900 976472 993297 1005488 1018437 
2241.521 1036204 1059906 1087749 1115769 1139801 1156499 1164385 1162859 
2245.379 1151801 1130780 1099412 1058347 1010534 961926 920510 894342 888961 
2249.718 904730 936519 974664 1008319 1029062 1033664 1025324 1012049 
2253.576 1003522 1007751 1028240 1062986 1105702 1148356 1183963 1208522 
2257.433 1221495 1225217 1223176 1218564 1213633 1209344 1206349 1205120 
2261.291 1206371 1210899 1219004 1229929 1241824 1252321 1259228 1261738 
2265.148 1260836 1259074 1259837 1266053 1278984 1297570 1318886 1338860 
2269.005 1353518 1360407 1358927 1350453 1337644 1323480 1310717 1301260 
2272.863 1296393 1296981 1303729 1317323 1338166 1366023 1399681 1437023 
2276.720 1475312 1512000 1545467 1574987 1601174 1624854 1646913 1667303 
2280.578 1685239 1699357 1708452 1712136 1711013 1706488 1700252 1693491 
2284.435 1686373 1678251 1668009 1655014 1639682 1623622 1609499 1599869 
2288.292 1596470 1599426 1607001 1616299 1624129 1627957 1626857 1621488 
2292.150 1613702 1605719 1599216 1594464 1590574 1585494 1577020 1563660 
2296.007 1545205 1523037 1499760 1478664 1462919 1454672 1454729 1462347 
2299.865 1475475 1491101 1505954 1517021 1522125 1520252 1511747 1498306 
2303.722 1482427 1467041 1454711 1446971 1443988 1444452 1446297 1447228 
2307.580 1445692 1441386 1435580 1430463 1428604 1431845 1440849 1454751 
2311.437 1471552 1488782 1504265 1516683 1525722 1531979 1536433 1540172 
2315.294 1543951 1548215 1553175 1558939 1565666 1573697 1583715 1596922 
2319.152 1614992 1640111 1674422 1719293 1774196 1835801 1897626 1950679 
2323.009 1985005 1992075 1966834 1909249 1824241 1720882 1610398 1503957 
2326.867 1410724 1336439 1282789 1247990 1227737 1216868 1210565 1205487 
2330.724 1199813 1193239 1186325 1180082 1175447 1173125 1173562 1176856 
2334.582 1182671 1190406 1199046 1207501 1214770 1220255 1223862 1226122 
2338.439 1227888 1230134 1233517 1238127 1243586 1248993 1253428 1255980 
2342.296 1256364 1254776 1251820 1248453 1245620 1243981 1243718 1244595 
2346.154 1245890 1246665 1246063 1243382 1238448 1231574 1223525 1215441 
2350.011 1208623 1204284 1203381 1206410 1213470 1224021 1237408 1252619 
2353.869 1268706 1284779 1300157 1314208 1326321 1335767 1341784 1343531 
2357.726 1340553 1332895 1321324 1307327 1292883 1279852 1269715 1262997 
2361.583 1259255 1257389 1255863 1253472 1249614 1244366 1238538 1233160 
2365.441 1229160 1227174 1227194 1228896 1231456 1234002 1235675 1235751 
2369.298 1233842 1230001 1224831 1219532 1215702 1214987 1218662 1227294 
2373.156 1240458 1256917 1274827 1292324 1307847 1320262 1328998 1333734 
2377.013 1334372 1331044 1324187 1314894 1304926 1296617 1292296 1293652 
2380.871 1301008 1313193 1327638 1341051 1350417 1353730 1350563 1341913 
2384.728 1329899 1316937 1305203 1296124 1290325 1287623 1287354 1288471 
2388.585 1289821 1290258 1288867 1285014 1278650 1270279 1260926 1251964 
2392.443 1244771 1240545 1240024 1243549 1250985 1261766 1275034 1289371 
2396.300 1303055 1314012 1320221 1320036 1312754 1298821 1279856 1258440 
2400.158 1237582 1219996 1207742 1201714 1201657 1206263 1213529 1221217 
2404.015 1227297 1230453 1230345 1227745 1224369 1222219 1223166 1228172 
2407.873 1236959 1248043 1259108 1267714 1271895 1270436 1263107 1250294 
2411.730 1232706 1211428 1187801 1163773 1141949 1125400 1117029 1118699 
2415.587 1130337 1149653 1172404 1193509 1208476 1214536 1211536 1201700 
2419.445 1188578 1175996 1166734 1161881 1160807 1161671 1162332 1161094 
2423.302 1157064 1150474 1142298 1134055 1127475 1123913 1124397 1129187 
2427.160 1137711 1148881 1160992 1172467 1181880 1188269 1191078 1189783 
2431.017 1183714 1172120 1154307 1130421 1101856 1071747 1044510 1024950 
2434.875 1016868 1021958 1038973 1064109 1091880 1116780 1134601 1143497 
2438.732 1143879 1138019 1128881 1119119 1110530 1103893 1099149 1095924 
2442.589 1093737 1092300 1091305 1090286 1088512 1085126 1079283 1070490 
2446.447 1058912 1045529 1032158 1021085 1014857 1015401 1023720 1039470 
2450.304 1060606 1084027 1105812 1122390 1131084 1130798 1121918 1106144 
2454.162 1085602 1062435 1038352 1014651 992359 972511 956494 945707 941168 
2458.501 943185 950973 962744 976019 988197 996933 1000717 998748 991137 
2462.841 978739 963126 946645 932020 922013 918816 923173 934143 948910 
2467.180 963735 974929 979906 978092 970960 961201 951885 945051 941461 
2471.520 940521 940878 941409 941750 942272 943820 946767 950649 953904 
2475.860 954462 950608 941869 929360 915812 904803 899754 902836 914437 
2480.199 932874 954787 975966 992112 999908 997777 986214 967731 946529 
2484.539 927731 915862 914104 923236 941589 965371 989784 1010184 1023296 
2488.878 1027815 1024384 1015222 1003376 991668 982464 977239 976620 980534 
2493.218 988385 999166 1011578 1024255 1035737 1044978 1051184 1054127 
2497.075 1054046 1051367 1046874 1041300 1035416 1030056 1026098 1024206 
2500.933 1024855 1027997 1033108 1039040 1044607 1048636 1050421 1049894 
2504.790 1047582 1044558 1042127 1041581 1043886 1049614 1058751 1070669 
2508.648 1084037 1096967 1107416 1113493 1113976 1108819 1099306 1087681 
2512.505 1076876 1069692 1068038 1072575 1082599 1096264 1111215 1124995 
2516.363 1135724 1142278 1144502 1142985 1139081 1134392 1130645 1129014 
2520.220 1130099 1133505 1138035 1141900 1143444 1141661 1136718 1129965 
2524.077 1123768 1120687 1122609 1130085 1142097 1156255 1169617 1179641 
2527.935 1184980 1185926 1184170 1182176 1182207 1185568 1192142 1200543 
2531.792 1208616 1214360 1216636 1215493 1212024 1207899 1204631 1202873 
2535.650 1202176 1201165 1198028 1191271 1180271 1165656 1149329 1133882 
2539.507 1122273 1116926 1119409 1130065 1147924 1170960 1196435 1221321 
2543.365 1243035 1259663 1270458 1275825 1277064 1276035 1274519 1273864 
2547.222 1274779 1277335 1281283 1286335 1292226 1298898 1306094 1313208 
2551.079 1319306 1323269 1324143 1321749 1316657 1310417 1304816 1301466 
2554.937 1301069 1303276 1306975 1310727 1313572 1315423 1317077 1319719 
2558.794 1324420 1331380 1339785 1348100 1354460 1357584 1357263 1354305 
2562.652 1350503 1347947 1348484 1353286 1362607 1375975 1392379 1410212 
2566.509 1427857 1443555 1455650 1462923 1464698 1461032 1452793 1441301 
2570.366 1428079 1414441 1401230 1388982 1377792 1367919 1359942 1354690 
2574.224 1353105 1355880 1363216 1374339 1387895 1401977 1414854 1425065 
2578.081 1432115 1436251 1438492 1440285 1443091 1448021 1455628 1465570 
2581.939 1476705 1487410 1495745 1500222 1500077 1495584 1487948 1478965 
2585.796 1470378 1463464 1458510 1454987 1451957 1448588 1444783 1441264 
2589.654 1439447 1440740 1445895 1454373 1464403 1473298 1478594 1478712 
2593.511 1473868 1465983 1458227 1453820 1455127 1462769 1475564 1490946 
2597.368 1506013 1518384 1526955 1531960 1534549 1535986 1537066 1537648 
2601.226 1536937 1533962 1528278 1520476 1512095 1505434 1502723 1505414 
2605.083 1513950 1527512 1544529 1563009 1581139 1597377 1610757 1620583 
2608.941 1626600 1629032 1628623 1626765 1625275 1626050 1630485 1638899 
2612.798 1650426 1663145 1674701 1682903 1686713 1686224 1682753 1678075 
2616.656 1673844 1671108 1669920 1669726 1669549 1668579 1666447 1663230 
2620.513 1659422 1655701 1652789 1651400 1652171 1655711 1662436 1672366 
2624.370 1685142 1699830 1715064 1729431 1741632 1750877 1756944 1759946 
2628.228 1760277 1758336 1754518 1749169 1742871 1736350 1730588 1726381 
2632.085 1724219 1724083 1725355 1727133 1728583 1729219 1729110 1728681 
2635.943 1728457 1728649 1728992 1728767 1727113 1723356 1717582 1710395 
2639.800 1702985 1696610 1692187 1689965 1689607 1690280 1691210 1691848 
2643.657 1692094 1692243 1692667 1693651 1695081 1696591 1697603 1697672 
2647.515 1696566 1694489 1691974 1689602 1687976 1687481 1688252 1690119 
2651.372 1692922 1696422 1700414 1704683 1708973 1712897 1715949 1717707 
2655.230 1717885 1716473 1713908 1710896 1708187 1706343 1705526 1705308 
2659.087 1704732 1702708 1698186 1690560 1679854 1666667 1652072 1637231 
2662.945 1623175 1610610 1599876 1590982 1583760 1577968 1573293 1569423 
2666.802 1566035 1562753 1559407 1555863 1552291 1549058 1546577 1545125 
2670.659 1544750 1545110 1545514 1545201 1543452 1539970 1534862 1528657 
2674.517 1522271 1516672 1512779 1511246 1512336 1515951 1521589 1528489 
2678.374 1535661 1542133 1547152 1550346 1551723 1551678 1550777 1549553 
2682.232 1548282 1547002 1545524 1543693 1541564 1539389 1537764 1537211 
2686.089 1538037 1540207 1543054 1545686 1547064 1546376 1543286 1537992 
2689.947 1531143 1523668 1516661 1511098 1507709 1506751 1508096 1511069 
2693.804 1514594 1517433 1518356 1516719 1512466 1506340 1499595 1493590 
2697.661 1489512 1487687 1487899 1489252 1490668 1491315 1490874 1489608 
2701.519 1488197 1487439 1488067 1490391 1494503 1500178 1507152 1515083 
2705.376 1523670 1532561 1541364 1549708 1557301 1563851 1569313 1573622 
2709.234 1576594 1577867 1576937 1573231 1566529 1557057 1545816 1534308 
2713.091 1524354 1517512 1514767 1516184 1520964 1527668 1534868 1541222 
2716.948 1546074 1549395 1551623 1553413 1555386 1557935 1561069 1564515 
2720.806 1567917 1570881 1573334 1575313 1577164 1579272 1582040 1585640 
2724.663 1590002 1594895 1599964 1604999 1609852 1614487 1618996 1623195 
2728.521 1626708 1628948 1629227 1627167 1622859 1617147 1611451 1607377 
2732.378 1606349 1609184 1615766 1625223 1636109 1646862 1656185 1663242 
2736.236 1667700 1669695 1669621 1668158 1666115 1664394 1664015 1665836 
2740.093 1670382 1677748 1687328 1698128 1708776 1718000 1724894 1729108 
2743.950 1730795 1730592 1729401 1728182 1727830 1729075 1732389 1737717 
2747.808 1744572 1751854 1758141 1761889 1761976 1758022 1750681 1741517 
2751.665 1732683 1726335 1724083 1726681 1733934 1744774 1757758 1771275 
2755.523 1783910 1794612 1802685 1807786 1809948 1809596 1807574 1804930 
2759.380 1802833 1802340 1803992 1807863 1813390 1819671 1825638 1830371 
2763.238 1833266 1834153 1833245 1830951 1827782 1824147 1820390 1816575 
2767.095 1812750 1808905 1805133 1801592 1798656 1796613 1795696 1795775 
2770.952 1796442 1796988 1796666 1795095 1792312 1788967 1786145 1784878 
2774.810 1785748 1788672 1792688 1796547 1799119 1799861 1799268 1798571 
2778.667 1799275 1802485 1808416 1816219 1824306 1830965 1834997 1836214 
2782.525 1835428 1834079 1833769 1835586 1839950 1846602 1854943 1864272 
2786.382 1874186 1884469 1894991 1905565 1915721 1924830 1932449 1938437 
2790.240 1943112 1947356 1952232 1958848 1967817 1979311 1992813 2007356 
2794.097 2021849 2035144 2046448 2055486 2062445 2068078 2073384 2079398 
2797.954 2086820 2095943 2106390 2117313 2127864 2137313 2145520 2152862 
2801.812 2160035 2167609 2175752 2183984 2191406 2196986 2200202 2201318 
2805.669 2201441 2202236 2205455 2212170 2222572 2235802 2250375 2264470 
2809.527 2276713 2286238 2292902 2297063 2299431 2300794 2301967 2303692 
2813.384 2306680 2311512 2318503 2327635 2338359 2349686 2360362 2369253 
2817.241 2375559 2379211 2380780 2381540 2383118 2387098 2394890 2407174 
2821.099 2424049 2444871 2468507 2493550 2518653 2542786 2565585 2587162 
2824.956 2608186 2629536 2652093 2676317 2702431 2730273 2759692 2790604 
2828.814 2823232 2857942 2895303 2935780 2979667 3026967 3077581 3131294 
2832.671 3187995 3247643 3310125 3375449 3443350 3513668 3586353 3661620 
2836.529 3740252 3823546 3913241 4011093 4118681 4236940 4366112 4505649 
2840.386 4654585 4811746 4976204 5147494 5325723 5511377 5705226 5907653 
2844.243 6118678 6337482 6562649 6792206 7024088 7256361 7487400 7715882 
2848.101 7940443 8159606 8371430 8573604 8763694 8939600 9099888 9243942 
2851.958 9371994 9484492 9581994 9664421 9731086 9780993 9813251 9827484 
2855.816 9824216 9804836 9771106 9724707 9666704 9597361 9516448 9423586 
2859.673 9319027 9204043 9081113 8953609 8825343 8699699 8579121 8464858 
2863.531 8356861 8254229 8155507 8059405 7964938 7871694 7779935 7690347 
2867.388 7603924 7521594 7444112 7371877 7304882 7242778 7185039 7131123 
2871.245 7080678 7033699 6990485 6951632 6917818 6889666 6867670 6852007 
2875.103 6842632 6839411 6842229 6851119 6866284 6888256 6917484 6954541 
2878.960 6999582 7052513 7112736 7179463 7251638 7328342 7408985 7493307 
2882.818 7581281 7672940 7768264 7866670 7967262 8068702 8169558 8268498 
2886.675 8364599 8457570 8547567 8635133 8720961 8805591 8889357 8972303 
2890.532 9054132 9134321 9212202 9286854 9357124 9421677 9479215 9528550 
2894.390 9569123 9601140 9625861 9645394 9662440 9679739 9699568 9723251 
2898.247 9751149 9782943 9817952 9855892 9897135 9942754 9994396 10053518 
2902.105 10121147 10197151 10280465 10369294 10461731 10556140 10651723 
2905.480 10748363 10846428 10946213 11047886 11150976 11254790 11358681 
2908.855 11462516 11566976 11673562 11784364 11901616 12027016 12161393 
2912.230 12304366 12454496 12609434 12766464 12922956 13076937 13227342 
2915.606 13374022 13517664 13659404 13800158 13940343 14079514 14216357 
2918.981 14349174 14476231 14596359 14709193 14815103 14915031 15009809 
2922.356 15099968 15185523 15266107 15341209 15410624 15474389 15533027 
2925.731 15586931 15636286 15680806 15719829 15752587 15778652 15798110 
2929.107 15811810 15820777 15825975 15827878 15826136 15819666 15807179 
2932.482 15787515 15760273 15725800 15685457 15641026 15594541 15547706 
2935.857 15501764 15457241 15414084 15371518 15328452 15283485 15235186 
2939.232 15182273 15123960 15059714 14989589 14913905 14833024 14747377 
2942.608 14657255 14562941 14464705 14363046 14258271 14151001 14041525 
2945.983 13930054 13816667 13701507 13584921 13467537 13350269 13233973 
2949.358 13119350 13006395 12894481 12782401 12668973 12553047 12434223 
2952.733 12312848 12189893 12066717 11944764 11825186 11708773 11595966 
2956.109 11486769 11380780 11277199 11175007 11072747 10968935 10862435 
2959.484 10752494 10638960 10522297 10403237 10282435 10160243 10036621 
2962.859 9911398 9784519 9656531 9528525 9402181 9279282 9161229 9048512 
2966.717 8940724 8836541 8734294 8632381 8529688 8425605 8320156 8213600 
2970.574 8106363 7998784 7891242 7784247 7678593 7575230 7475110 7378909 
2974.431 7286636 7197561 7110132 7022360 6932167 6837868 6738487 6633958 
2978.289 6525308 6414165 6302751 6193439 6088428 5989459 5897564 5812761 
2982.146 5734256 5660400 5589059 5518242 5446389 5372883 5298294 5224126 
2986.004 5152416 5085139 5023645 4968158 4917674 4870411 4824137 4776970 
2989.861 4727814 4676606 4624098 4571430 4519577 4468879 4419056 4369236 
2993.719 4318590 4266767 4214294 4162532 4113458 4068945 4030116 3997021 
2997.576 3968439 3942229 3915965 3887538 3855731 3820378 3782179 3742200 
3001.433 3701523 3660694 3619844 3578696 3537029 3495207 3454100 3415202 
3005.291 3380022 3349642 3324134 3302320 3282128 3260962 3236543 3207545 
3009.148 3174059 3137446 3099769 3063194 3029252 2998288 2969488 2941234 
3013.006 2911754 2879667 2844405 2806386 2766652 2726530 2687325 2649955 
3016.863 2614981 2582808 2553845 2528549 2507389 2490599 2477823 2468083 
3020.720 2459625 2450268 2437940 2421050 2398945 2372074 2341926 2310592 
3024.578 2280419 2253586 2231595 2215166 2204251 2197841 2194417 2192084 
3028.435 2189005 2183557 2174946 2163188 2149275 2134817 2121785 2111875 
3032.293 2106075 2104245 2105407 2107774 2109499 2109180 2106204 2101255 
3036.150 2095589 2090914 2088659 2089522 2093208 2098716 2104523 2109389 
3040.008 2112671 2114593 2116464 2120169 2127746 2140970 2160728 2187055 
3043.865 2219057 2255242 2293870 2333528 2373487 2413800 2455279 2499252 
3047.722 2546930 2598830 2654435 2712113 2769224 2822600 2869485 2907876 
3051.580 2937256 2958223 2972642 2982629 2990239 2996725 3002550 3007372 
3055.437 3010384 3010703 3007657 3000993 2990878 2977869 2962775 2946704 
3059.295 2931106 2917432 2907207 2901581 2901261 2906031 2914888 2926145 
3063.152 2938091 2949138 2958550 2966231 2972773 2978807 2984709 2990124 
3067.010 2994044 2995097 2992189 2984976 2974361 2962163 2950898 2942896 
3070.867 2939769 2941760 2948070 2956879 2966160 2974017 2979399 2981668 
3074.724 2980969 2977488 2971661 2963863 2954677 2944926 2935714 2928126 
3078.582 2923154 2921077 2921462 2923234 2925131 2926079 2925567 2923749 
3082.439 2921054 2917836 2913855 2908077 2898840 2884537 2864163 2837760 
3086.297 2806529 2772341 2737119 2702301 2668380 2635239 2602576 2570506 
3090.154 2540092 2513140 2491944 2478340 2473092 2475419 2483278 2493783 
3094.011 2504260 2512746 2518591 2522390 2525459 2529333 2535080 2543015 
3097.869 2552594 2562670 2571901 2579094 2583683 2585812 2586110 2585726 
3101.726 2585761 2586813 2588881 2591181 2592296 2590780 2585489 2576065 
3105.584 2563062 2547886 2532423 2518373 2506859 2498142 2491627 2486033 
3109.441 2479787 2471282 2459344 2443132 2422456 2397705 2369865 2340427 
3113.299 2311219 2284283 2261374 2243771 2232092 2226225 2225405 2228563 
3117.156 2234304 2241087 2247431 2251939 2253590 2251900 2247234 2240917 
3121.013 2234924 2231348 2231756 2236381 2244111 2252369 2258220 2259075 
3124.871 2253623 2242274 2226912 2210241 2194915 2182775 2174646 2170273 
3128.728 2168764 2168941 2169612 2169440 2167140 2161202 2150540 2134595 
3132.586 2114113 2091161 2068807 2050499 2038722 2034449 2036523 2042352 
3136.443 2048552 2052265 2052179 2048716 2043721 2039507 2037846 2039151 
3140.301 2042453 2045629 2046408 2043151 2035380 2023920 2010417 1996699 
3144.158 1984258 1973674 1964737 1956823 1949362 1942227 1936042 1931865 
3148.015 1930933 1933842 1940265 1948765 1957099 1962893 1964443 1961355 
3151.873 1954748 1946847 1940449 1937715 1939718 1946035 1955100 1964901 
3155.730 1973739 1980661 1985516 1988706 1990496 1990672 1988555 1983209 
3159.588 1974102 1961531 1946822 1931759 1918393 1908052 1901299 1897775 
3163.445 1896778 1897461 1899291 1901973 1905048 1907827 1909128 1907738 
3167.302 1902943 1894974 1885366 1876574 1871165 1870843 1875876 1884926 
3171.160 1895470 1904825 1911221 1914091 1914232 1913201 1912564 1913196 
3175.017 1915172 1917778 1920171 1921689 1922131 1921643 1920472 1918713 
3178.875 1916377 1913357 1909908 1906533 1904226 1903831 1905915 1910383 
3182.732 1916564 1923431 1930183 1936424 1942484 1948954 1956592 1965625 
3186.590 1975871 1986432 1996246 2004243 2009465 2011195 2008969 2002560 
3190.447 1992364 1979366 1965615 1953631 1946257 1945403 1951566 1963215 
3194.304 1977123 1989221 1996019 1995579 1988306 1976628 1964086 1954239 
3198.162 1949548 1950712 1957058 1966965 1978542 1990146 2000559 2008694 
3202.019 2013679 2014768 2011787 2005479 1997757 1991295 1988934 1992433 
3205.877 2001730 2014619 2027383 2035894 2037214 2030412 2017007 2000321 
3209.734 1984116 1971458 1963803 1960828 1961177 1963176 1965759 1968937 
3213.592 1973401 1979994 1989203 2000771 2013663 2026548 2038162 2047704 
3217.449 2054815 2059429 2061556 2061172 2058309 2053323 2046940 2040403 
3221.306 2034969 2031537 2030389 2030921 2031983 2032395 2031399 2029101 
3225.164 2026304 2024069 2023168 2023774 2025216 2026430 2026353 2024430 
3229.021 2020902 2016481 2012310 2009190 2007557 2007313 2008352 2010444 
3232.879 2013666 2018151 2023886 2030385 2036744 2041605 2043824 2042757 
3236.736 2038514 2032005 2024494 2017079 2010304 2003974 1997424 1990110 
3240.594 1982152 1974291 1968267 1966000 1969060 1978113 1992576 2010674 
3244.451 2029969 2047767 2061949 2071226 2075485 2075531 2072913 2069552 
3248.308 2067118 2066780 2068922 2073174 2078596 2084052 2088723 2092280 
3252.166 2095095 2097888 2101481 2106180 2111690 2117017 2120877 2122133 
3256.023 2120378 2116070 2110545 2105665 2103204 2104480 2109789 2118377 
3259.881 2128766 2138808 2146462 2150082 2148896 2143113 2134167 2124198 
3263.738 2115786 2111159 2111592 2117075 2126141 2136342 2144974 2149654 
3267.595 2149169 2143462 2133763 2121907 2110015 2099968 2093218 2090623 
3271.453 2092625 2098940 2108768 2120569 2132331 2142169 2148587 2151260 
3275.310 2151191 2150285 2150700 2153893 2160020 2167571 2174021 2176922 
3279.168 2174727 2167622 2157414 2146873 2138758 2134845 2135501 2139987 
3283.025 2147049 2155625 2165154 2175714 2187273 2199466 2211232 2220934 
3286.883 2227244 2229418 2227753 2223543 2218314 2213249 2208735 2204287 
3290.740 2199296 2193462 2187404 2182430 2180069 2181231 2185461 2190968 
3294.597 2195135 2195567 2191220 2182836 2172843 2164399 2160323 2162026 
3298.455 2169188 2179947 2191920 2202954 2211926 2218847 2224536 2230028 
3302.312 2235932 2242105 2247735 2251510 2252239 2249108 2241973 2231443 
3306.170 2218841 2205881 2194486 2186394 2182684 2183559 2188219 2195151 
3310.027 2202497 2208755 2213342 2216696 2220083 2225054 2232757 2243440 
3313.885 2256258 2269559 2281471 2290486 2295864 2297605 2296509 2293437 
3317.742 2289348 2284900 2280697 2277274 2275080 2274650 2276042 2279022 
3321.599 2282852 2286717 2289924 2292359 2294638 2297813 2303104 2311285 
3325.457 2322178 2334744 2347201 2357602 2364377 2366770 2365073 2360359 
3329.314 2354277 2348641 2345056 2344779 2348495 2356217 2367286 2380324 
3333.172 2393444 2404436 2411332 2412725 2408052 2397804 2383397 2366773 
3337.029 2350034 2335045 2323290 2315635 2312394 2313425 2318302 2326272 
3340.886 2336507 2348218 2360699 2373545 2386474 2399363 2411897 2423477 
3344.744 2433134 2439582 2441726 2438865 2431188 2419710 2406255 2392855 
3348.601 2381459 2373173 2368213 2365971 2365183 2364418 2362433 2358551 
3352.459 2352524 2344621 2335282 2325117 2314611 2303978 2293298 2282469 
3356.316 2271332 2260001 2248792 2238654 2230908 2227161 2228667 2236074 
3360.174 2248797 2265041 2281914 2296224 2305188 2307205 2302420 2292618 
3364.031 2280572 2269294 2261127 2257113 2256780 2258576 2260463 2260707 
3367.888 2258322 2253296 2246467 2238831 2231317 2224392 2218156 2212418 
3371.746 2206985 2202196 2198598 2197199 2198897 2204421 2213952 2227109 
3375.603 2242996 2260365 2277787 2293830 2307229 2316996 2322694 2324402 
3379.461 2322788 2319013 2314485 2310502 2307930 2307098 2307506 2308348 
3383.318 2308631 2307593 2305030 2301200 2296948 2293378 2291562 2292276 
3387.176 2295908 2302312 2310952 2320907 2330968 2340039 2347242 2352199 
3391.033 2355239 2357229 2359357 2362685 2367682 2374108 2380913 2386715 
3394.890 2390209 2390834 2389012 2386001 2383412 2382766 2384775 2389244 
3398.748 2395374 2402078 2408796 2415573 2423119 2432592 2444774 2459675 
3402.605 2476428 2493404 2508770 2521114 2529835 2535358 2538759 2541644 
3406.463 2545494 2551481 2560331 2572423 2587886 2606585 2628281 2652424 
3410.320 2678224 2704656 2730663 2755403 2778333 2799512 2819188 2837962 
3414.177 2856271 2874344 2892263 2909774 2926761 2943211 2959390 2975853 
3418.035 2993258 3012161 3032898 3055435 3079360 3103780 3127690 3150210 
3421.892 3170561 3188582 3204639 3219484 3234057 3248961 3264183 3278992 
3425.750 3291858 3301084 3305135 3303418 3296637 3286662 3276487 3269213 
3429.607 3267558 3273036 3285568 3303533 3324096 3343796 3359270 3368048 
3433.465 3368882 3361861 3348274 3330287 3310177 3289938 3270940 3253616 
3437.322 3237883 3223253 3209272 3195742 3182733 3170304 3158420 3146486 
3441.179 3133561 3118304 3099505 3076464 3049242 3018710 2986267 2953647 
3445.037 2922469 2893907 2868845 2847657 2830550 2817316 2807513 2800246 
3448.894 2794246 2787954 2779959 2769320 2755802 2739928 2722841 2705751 
3452.752 2689706 2675068 2661639 2648882 2636158 2623164 2610027 2597109 
3456.609 2584817 2573304 2562313 2551215 2539263 2525946 2511134 2495223 
3460.467 2478938 2463266 2449073 2437022 2427475 2420479 2415849 2413176 
3464.324 2411740 2410652 2408981 2405932 2400981 2394313 2386674 2379314 
3468.181 2373668 2370951 2371935 2376667 2384566 2394395 2404636 2413642 
3472.039 2420114 2422999 2421979 2417298 2409962 2401442 2393330 2386830 
3475.896 2382505 2380039 2378309 2375924 2371747 2365298 2357114 2348437 
3479.754 2340683 2334801 2330955 2328256 2325217 2320466 2313254 2303836 
3483.611 2293468 2283848 2276440 2272195 2271150 2272801 2276410 2281569 
3487.469 2288300 2296841 2307380 2319518 2332177 2343689 2352352 2357082 
3491.326 2357701 2355136 2351008 2347184 2344957 2344705 2345969 2347704 
3495.183 2348851 2348740 2347475 2345823 2344934 2346081 2350195 2357770 
3499.041 2368810 2382845 2399100 2416527 2433938 2450129 2464085 2475181 
3502.898 2483355 2489017 2492924 2495922 2498603 2501001 2502679 2502976 
3506.756 2501442 2498160 2493979 2490399 2488969 2490823 2495941 2503140 
3510.613 2510153 2514436 2514072 2508431 2498720 2487741 2479173 2476425 
3514.470 2481746 2495262 2515199 2538153 2560239 2578163 2589966 2595632 
3518.328 2596521 2595015 2593509 2593615 2595952 2600032 2604803 2609171 
3522.185 2612520 2614884 2617047 2619816 2623951 2629466 2635446 2640393 
3526.043 2642490 2640319 2633405 2622708 2610450 2600034 2594895 2597795 
3529.900 2609998 2630712 2657316 2686109 2713224 2735871 2752820 2764792 
3533.758 2773776 2782227 2792052 2804027 2817450 2830841 2842280 2850260 
3537.615 2854111 2853808 2850004 2843321 2834463 2824121 2813239 2803407 
3541.472 2796726 2795482 2801504 2815382 2836129 2861046 2886465 2908615 
3545.330 2924585 2932849 2933727 2928760 2920355 2910893 2902412 2896408 
3549.187 2893735 2894727 2899183 2906602 2915796 2925330 2933440 2938648 
3553.045 2939815 2936374 2928432 2916552 2901440 2884058 2865461 2846956 
3556.902 2830154 2816878 2808785 2806800 2810734 2818801 2828192 2835483 
3560.760 2837585 2832537 2819845 2800529 2776582 2750242 2723238 2696832 
3564.617 2671734 2648230 2627140 2609458 2596725 2590358 2591177 2598992 
3568.474 2612292 2628472 2644380 2656805 2663290 2662602 2654777 2641159 
3572.332 2623747 2604695 2585773 2567895 2550893 2534081 2516268 2496585 
3576.189 2474660 2450819 2426084 2401719 2378928 2358759 2341910 2328814 
3580.047 2319773 2314727 2313461 2315206 2318733 2322515 2325081 2325563 
3583.904 2323935 2321138 2318810 2318471 2321110 2326765 2334364 2342507 
3587.761 2349882 2355906 2360943 2365751 2371141 2377051 2382492 2385748 
3591.619 2384787 2378424 2366538 2350503 2332641 2315720 2301985 2292878 
3595.476 2288979 2289963 2295167 2303807 2315003 2327811 2340975 2353090 
3599.334 2362824 2369256 2372322 2372809 2372255 2372500 2375144 2381158 
3603.191 2390725 2403435 2418648 2435662 2453919 2473081 2492543 2511513 
3607.049 2528887 2543329 2553668 2559174 2559917 2556539 2550426 2543265 
3610.906 2536784 2532355 2530882 2532545 2536715 2542115 2547030 2549755 
3614.763 2548988 2544202 2536056 2526105 2516616 2509815 2507544 2510667 
3618.621 2518908 2531136 2545660 2560736 2574892 2587285 2597436 2605517 
3622.478 2611746 2616609 2620595 2624069 2627348 2630641 2634020 2637461 
3626.336 2641037 2644736 2648718 2653018 2657588 2662172 2666219 2668909 
3630.193 2669765 2668395 2665103 2660623 2656106 2652774 2651486 2652511 
3634.051 2655508 2659620 2663721 2666818 2668397 2668456 2667536 2666664 
3637.908 2666993 2669529 2674750 2682598 2692165 2701797 2709566 2713386 
3641.765 2711806 2704186 2691015 2673864 2654869 2636302 2619806 2606229 
3645.623 2595376 2586190 2577383 2567813 2556779 2544442 2531549 2519280 
3649.480 2508717 2500571 2494635 2490013 2484873 2477225 2465138 2447641 
3653.338 2425004 2398615 2371020 2344897 2322507 2304612 2290536 2278265 
3657.195 2265463 2250434 2233201 2215671 2201089 2193130 2194218 2204738 
3661.052 2222383 2242705 2260315 2270434 2270241 2259558 2240808 2218018 
3664.910 2195656 2177157 2164417 2157264 2154174 2152609 2150158 2144873 
3668.767 2135681 2122434 2105673 2086372 2065737 2044976 2025224 2007353 
3672.625 1992005 1979279 1968904 1960130 1952043 1943967 1935545 1927058 
3676.482 1919372 1913545 1910220 1909397 1910067 1910355 1908076 1901553 
3680.340 1890215 1875075 1858576 1843974 1834354 1831645 1836020 1845829 
3684.197 1857999 1868975 1875853 1876975 1872489 1863935 1853871 1844807 
3688.054 1838547 1835437 1834317 1832739 1827724 1816733 1798543 1773697 
3691.912 1744681 1715305 1689858 1671802 1662832 1662282 1667261 1673578 
3695.769 1676988 1674213 1664233 1647953 1627994 1607401 1588748 1573199 
3699.627 1560557 1549545 1538544 1526575 1513762 1501381 1491547 1486577 
3703.484 1488381 1497840 1514574 1537064 1562811 1588606 1611050 1627002 
3707.342 1634026 1630727 1617324 1595468 1568384 1540169 1515339 1498026 
3711.199 1491134 1495771 1511111 1534453 1561605 1587887 1609059 1622035 
3715.056 1625602 1620478 1608999 1594272 1579655 1567584 1559342 1554842 
3718.914 1553339 1553529 1554626 1556383 1559236 1563969 1571294 1581548 
3722.771 1594507 1609328 1625038 1640380 1654281 1665804 1674264 1679096 
3726.629 1680199 1677672 1672098 1664253 1654945 1644613 1633254 1620384 
3730.486 1605401 1587931 1568375 1547991 1528891 1513533 1504053 1501550 
3734.344 1505828 1515177 1527091 1538583 1547129 1551142 1550354 1545678 
3738.201 1538788 1531596 1525704 1522048 1520931 1522078 1525214 1530304 
3742.058 1537848 1548786 1563973 1583560 1606375 1629888 1650640 1665207 
3745.916 1671452 1669247 1660670 1649432 1639735 1634803 1635967 1642313 
3749.773 1651083 1658752 1662518 1661087 1655222 1647046 1639559 1635411 
3753.631 1636250 1642616 1654086 1669431 1687195 1705582 1722654 1736424 
3757.488 1745178 1747705 1744028 1735075 1722735 1709020 1695567 1682956 
3761.345 1670833 1658305 1644742 1630434 1616980 1606785 1602368 1605521 
3765.203 1616422 1633641 1654596 1676328 1696341 1712931 1725274 1732838 
3769.060 1735370 1732411 1723872 1710231 1693369 1676113 1662011 1654332 
3772.918 1654758 1662901 1676162 1690286 1700725 1703950 1698302 1684614 
3776.775 1665576 1645032 1626722 1613529 1606907 1606859 1612085 1620803 
3780.633 1630953 1640701 1648706 1654169 1656823 1657148 1655928 1654430 
3784.490 1654134 1656169 1661257 1669148 1678662 1687787 1694138 1695571 
3788.347 1690930 1680454 1666159 1651214 1639451 1634268 1637787 1650189 
3792.205 1669614 1692714 1715519 1734319 1746596 1751392 1749162 1741390 
3796.062 1729995 1716754 1702887 1689311 1676508 1665013 1655473 1648868 
3799.920 1646216 1648319 1655372 1666637 1680451 1694231 1705062 1710079 
3803.777 1707417 1696606 1678953 1657351 1636000 1619231 1610560 1611719 
3807.635 1622051 1638706 1657533 1674213 1685429 1689710 1687603 1681247 
3811.492 1673691 1667614 1664813 1665598 1669025 1673346 1676583 1677421 
3815.349 1675551 1671676 1667456 1664894 1666012 1671972 1683096 1698481 
3819.207 1716197 1733638 1747914 1756501 1757772 1751429 1738584 1721617 
3823.064 1703674 1687878 1676905 1672189 1674000 1681189 1691798 1703449 
3826.922 1713950 1721905 1726645 1728362 1727477 1724388 1719002 1710795 
3830.779 1699175 1683744 1665221 1645284 1626910 1613329 1607478 1610990 
3834.636 1623726 1643832 1668078 1692783 1714840 1732242 1744254 1751502 
3838.494 1755050 1756068 1755183 1752498 1747780 1740824 1731758 1721390 
3842.351 1711008 1701923 1695331 1691942 1691794 1694413 1699078 1704968 
3846.209 1711387 1717821 1723702 1728452 1731477 1732016 1729463 1723777 
3850.066 1715436 1705507 1695744 1687758 1682903 1681838 1684201 1688797 
3853.924 1693871 1697553 1698462 1695784 1689492 1680050 1668270 1655171 
3857.781 1641864 1629625 1620057 1614630 1614819 1621361 1633988 1651194 
3861.638 1670420 1688439 1702340 1710129 1711429 1707361 1700331 1693183 
3865.496 1688413 1687499 1690879 1697820 1707131 1717442 1727782 1737296 
3869.353 1745531 1752135 1756694 1758883 1758441 1755601 1750855 1745018 
3873.211 1739115 1733807 1729407 1725835 1722560 1719129 1715243 1710941 
3877.068 1706613 1702931 1700430 1699318 1699659 1701130 1703432 1706332 
3880.926 1709700 1713446 1717518 1721552 1725119 1727633 1728875 1729011 
3884.783 1728823 1729415 1731945 1736856 1743707 1750859 1756009 1756851 
3888.640 1751875 1741195 1726673 1711458 1699391 1693482 1695202 1703865 
3892.498 1716974 1731246 1743516 1751879 1756124 1757489 1757798 1758785 
3896.355 1761168 1764556 1767658 1769038 1767808 1764033 1758651 1753033 
3900.213 1748262 1744561 1741329 1737339 1731728 1724392 1716440 1710199 
3904.070 1708188 1712385 1723222 1739305 1757681 1774952 1787899 1794779 
3907.927 1795825 1792526 1787525 1783073 1780504 1779755 1779634 1778544 
3911.785 1775240 1769434 1762041 1754608 1748890 1745882 1745638 1747321 
3915.642 1749660 1751697 1753316 1755145 1758482 1764286 1772702 1782485 
3919.500 1791497 1797019 1796938 1790582 1779026 1764999 1752111 1743739 
3923.357 1742391 1748581 1761184 1777574 1794338 1807993 1815774 1816208 
3927.215 1809093 1795703 1778458 1760264 1744277 1732798 1727104 1727198 
3931.072 1731883 1739162 1747193 1754489 1760457 1765084 1768738 1771694 
3934.929 1773702 1774105 1772108 1767239 1759799 1750894 1742014 1734687 
3938.787 1729864 1727676 1727479 1728521 1730223 1732756 1736820 1743458 
3942.644 1753424 1766626 1782117 1798299 1813470 1826479 1837087 1845782 
3946.502 1853463 1860814 1867798 1873527 1876493 1875056 1868168 1855696 
3950.359 1838618 1818772 1798581 1780542 1766867 1759250 1758604 1764854 
3954.217 1777008 1793020 1810215 1825482 1836303 1841045 1839480 1832906 
3958.074 1823692 1814318 1806864 1802205 1800025 1799223 1798434 1796797 
3961.931 1794256 1791649 1790143 1790612 1793431 1798069 1803478 1808331 
3965.789 1811923 1813870 1814568 1814404 1813787 1812759 1811092 1808628 
3969.646 1805631 1802940 1801882 1803644 1808888 1817048 1826486 1834770 
3973.504 1839636 1839740 1835158 1827515 1819297 1813008 1810273 1811371 
3977.361 1815159 1819734 1823072 1823639 1820956 1815300 1807325 1797855 
3981.219 1787344 1776017 1764183 1752253 1741161 1732079 1726209 1724405 
3985.076 1726814 1732905 1741732 1752256 1763677 1775515 1787571 1799910 
3988.933 1812267 1824267 1835255 1844696 1852163 1857559 1861086 1863249 
3992.791 1864383 1864983 1865208 1865153 1864909 1864465 1863834 1862894 
3996.648 1861447 1859248 1856072 1851784 1846558 1840473 1833812 1826787 
4000.506 1819721 
##END=
