##TITLE=3D-Fillies_PLA-Rainbow_Purple_Filament_r2_ATR-Corrected
##JCAMP-DX=5.01  $$ Nicolet v. 1
##DATATYPE=INFRARED SPECTRUM
##ORIGIN=Curtin University
##OWNER=Nicolet
##LONGDATE=2024/07/18
##TIME=13:50:06
##SPECTROMETER/DATA SYSTEM=Nicolet iS50
##DATA PROCESSING=
Ratio against background
%Transmittance->Absorbance
ATR Correction
Truncated
ElementMultiply or ElementDivide
##COMMENTS=
Number of sample scans: 32
Collection length: 47.27 sec
Sample gain: 1.0
Background collected on: Thu Jul 18 13:46:34 2024 (GMT+08:00);
Number of background scans: 32
Background gain: 1.0
Sample spacing:  1.000
Number of scan points: 16672
Resolution points: 8192
Number of FFT points: 65536
Apodization: N-B strong;
Phase correction: Mertz;
Laser frequency: 15798.3 cm-1
Number of rejected sample scans: 0
Number of rejected background scans: 0
Bench serial number: AUP1200105;
##RESOLUTION=4.000
##XUNITS=1/CM
##YUNITS=ABSORBANCE
##FIRSTX=400.163452
##LASTX=4000.187744
##FIRSTY=0.059418
##MAXX=4000.187744
##MINX=400.163452
##MAXY=0.905036
##MINY=-0.023809
##XFACTOR=1.000000
##YFACTOR=1.000000E-009
##NPOINTS=7468
##DELTAX=0.482125
##ZPD=8192
##XYDATA=(X++(Y..Y))
400.163 59418008 59105188 58810000 58530160 58233840 57889152 57464508 
403.538 56939592 56309240 55580928 54765880 53870976 52894280 51830600 
406.913 50680468 49460880 48210520 46988528 45864828 44908044 44170620 
410.288 43678200 43421972 43357144 43409316 43485556 43491028 43347176 
413.663 43008648 42473408 41781852 41004088 40218096 39486156 38838416 
417.038 38270876 37756060 37264308 36782756 36326152 35930152 35632904 
420.412 35451756 35368408 35326452 35248384 35058312 34707856 34190976 
423.787 33546072 32841768 32158856 31569756 31127708 30861470 30779534 
427.162 30872968 31118496 31478524 31901758 32326068 32687944 32933298 
430.537 33028696 32968306 32772038 32477510 32127540 31761382 31408188 
433.912 31086616 30809402 30586496 30426352 30334454 30311322 30351150 
437.286 30445160 30585112 30767220 30991144 31254984 31546604 31837926 
440.661 32084412 32235988 32251902 32118428 31856910 31520844 31179858 
444.036 30897224 30709544 30617028 30587348 30571790 30525160 30421292 
447.411 30259428 30058696 29845826 29643334 29461846 29302140 29161178 
450.786 29040336 28948716 28900752 28908162 28972438 29079194 29201376 
454.161 29306016 29364714 29361040 29294004 29174430 29020272 28849996 
457.535 28679250 28519974 28381442 28271124 28193886 28149328 28130080 
460.910 28120132 28097922 28040884 27931408 27761056 27529924 27251444 
464.285 26941628 26617714 26295704 25990506 25716580 25488606 25320454 
467.660 25222140 25195868 25233330 25315200 25413976 25500048 25547956 
471.035 25542762 25482758 25379296 25253074 25128196 25025700 24957844 
474.409 24924738 24913898 24903384 24868260 24787372 24651296 24465372 
477.784 24250196 24036008 23854432 23729786 23672532 23677404 23727246 
481.159 23798814 23871562 23932276 23977776 24011394 24039422 24065206 
484.534 24087808 24101762 24100938 24081588 24045768 24000640 23957096 
487.909 23925694 23914068 23924766 23956022 24002814 24059472 24120858 
491.284 24183496 24245392 24306368 24367612 24432428 24506080 24593132 
494.658 24701340 24833962 24989026 25157940 25325618 25473620 25583348 
498.033 25641762 25643844 25594828 25508476 25403190 25296466 25200490 
501.408 25117866 25042464 24961442 24861000 24731366 24570836 24385920 
504.783 24188574 23991012 23800778 23617470 23433702 23238758 23024732 
508.158 22791768 22550464 22319622 22121786 21975836 21892108 21869148 
511.532 21895594 21953318 22022802 22086440 22130720 22145600 22124290 
514.907 22062366 21958882 21817934 21650306 21472422 21303954 21162340 
518.282 21057980 20990538 20949056 20914756 20867130 20789328 20673142 
521.657 20520010 20340222 20149342 19964724 19801524 19670442 19576290 
525.032 19516478 19485218 19471648 19463604 19450822 19427232 19393132 
528.406 19353842 19316978 19288154 19267120 19245924 19210380 19144210 
531.781 19034958 18878390 18681234 18459226 18233416 18024418 17848432 
535.156 17713458 17619214 17557942 17516048 17476294 17420550 17332530 
538.531 17201804 17027396 16820364 16602738 16403705 16251342 16164880 
541.906 16147619 16186221 16254488 16322302 16364837 16370205 16340058 
545.281 16286848 16225213 16165908 16111586 16058765 16002756 15944175 
548.655 15892586 15865320 15881561 15954860 16085813 16260214 16451953 
552.030 16630627 16769569 16853196 16879242 16857482 16804676 16739573 
555.405 16678339 16631857 16607333 16606487 16626542 16660921 16699640 
558.780 16731100 16744524 16733263 16696278 16638765 16569845 16499218 
562.155 16433595 16375490 16323410 16274869 16228735 16187945 16158074 
565.529 16145745 16154978 16186319 16236834 16302869 16382916 16479965 
568.904 16599596 16746404 16919246 17107766 17292262 17449054 17557258 
572.279 17606596 17600976 17557332 17499264 17448442 17417108 17405148 
575.654 17402910 17398170 17384178 17365470 17358074 17384472 17465352 
579.029 17611710 17818744 18066972 18326956 18567466 18763080 18899578 
582.404 18974992 18997426 18980492 18939284 18887296 18835020 18790572 
585.778 18760100 18748188 18757370 18787404 18833890 18889170 18942838 
589.153 18985094 19008858 19012842 19001548 18984302 18972584 18975396 
592.528 18996428 19032026 19072316 19104640 19118658 19110496 19085750 
595.903 19058290 19046294 19066100 19126560 19225000 19347800 19474328 
599.278 19583912 19661188 19700846 19707044 19690684 19663910 19635488 
602.652 19608506 19581570 19552176 19520696 19492842 19479648 19493874 
606.027 19545880 19639062 19769410 19926216 20097234 20273030 20450790 
609.402 20634142 20830798 21047248 21284692 21536422 21789166 22027218 
612.777 22238032 22417410 22571206 22714070 22864650 23039162 23246500 
616.152 23485224 23744250 24006606 24254800 24475460 24662120 24815584 
619.527 24942568 25052070 25153610 25255300 25363838 25484726 25623044 
622.901 25783072 25967296 26175196 26402966 26643802 26890398 27137378 
626.276 27384104 27635070 27898690 28183680 28495046 28830460 29178944 
629.651 29522130 29838168 30106364 30311848 30448490 30519948 30537904 
633.026 30519948 30485640 30453814 30439690 30453448 30499040 30574878 
636.401 30674816 30790902 30915144 31042958 31173498 31309872 31456366 
639.775 31616588 31790830 31975220 32162830 32346454 32521200 32686416 
643.150 32845930 33006474 33174500 33354688 33548004 33752540 33964908 
646.525 34181968 34401476 34622568 34844280 35065900 35286632 35507508 
649.900 35732156 35968084 36224600 36509896 36826788 37169936 37524108 
653.275 37867704 38176808 38431576 38620076 38740792 38800200 38810068 
656.650 38783116 38730904 38663568 38590940 38524104 38475508 38457264 
660.024 38478672 38542656 38645236 38775876 38921224 39068492 39209440 
663.399 39341196 39466412 39590212 39719104 39858272 40011600 40181344 
666.774 40368648 40572616 40789852 41013796 41235700 41445960 41637780 
670.149 41809084 41964708 42114236 42269864 42441848 42635640 42849868 
673.524 43078580 43313200 43546388 43774044 43995684 44212760 44426744 
676.898 44637116 44841492 45036056 45217676 45384800 45538804 45681724 
680.273 45816452 45945560 46070844 46193896 46316996 46443396 46576776 
683.648 46720132 46874724 47038968 47209184 47380344 47548080 47709724 
687.023 47865260 48017004 48169120 48327236 48497904 48687908 48903740 
690.398 49149672 49426956 49731564 50055072 50385776 50712984 51029684 
693.773 51336188 51639460 51950908 52281896 52639252 53023288 53428304 
697.147 53846392 54272280 54706600 55156736 55633636 56147552 56701692 
700.522 57290520 57899308 58508364 59097840 59652336 60163044 60627100 
703.897 61045556 61420860 61755524 62052884 62318060 62559440 62787644 
707.272 63013524 63244372 63481620 63719720 63948372 64156704 64338164 
710.647 64492912 64629056 64759336 64897120 65051168 65223544 65409960 
714.021 65603240 65797992 65996356 66210268 66463188 66788600 67228208 
717.396 67830712 68652528 69759608 71231224 73162888 75666864 78867648 
720.771 82893360 87860976 93857888 100922128 109024152 118052400 127806976 
724.146 138003840 148290672 158274032 167555776 175771792 182627904 
727.039 187925136 191571888 193579248 194046512 193136144 191046384 
729.931 187984560 184144832 179692480 174757408 169435536 163796240 
732.824 157893472 151776240 145495248 139105856 132666272 126234768 
735.717 119866944 113616424 107536616 101683568 96117344 90900448 86092040 
739.091 81741128 77878272 74510936 71622520 69176216 67122776 65409528 
742.466 63988828 62824308 61892252 61180044 60681036 60389776 60295956 
745.841 60382572 60624852 60992972 61455636 61984668 62558384 63162908 
749.216 63791596 64441868 65111772 65796540 66486748 67169232 67829232 
752.591 68453216 69031144 69556280 70023232 70424520 70747632 70974312 
755.966 71082432 71050536 70863352 70515944 70015064 69377584 68625272 
759.340 67780000 66858472 65870784 64821004 63710288 62540472 61317880 
762.715 60054284 58767764 57479812 56213432 54988620 53820248 52714776 
766.090 51670092 50676044 49717656 48778796 47846788 46915404 45985924 
769.465 45065844 44166096 43297340 42467344 41680580 40938432 40242200 
772.840 39593816 38995324 38447684 37947636 37486224 37048676 36617636 
776.214 36177456 35719168 35242444 34756152 34273764 33808252 33367128 
779.589 32949806 32547810 32148436 31738580 31309142 30855358 30377360 
782.964 29877436 29358820 28824386 28278480 27727784 27183648 26661456 
786.339 26179790 25756764 25407204 25139724 24956422 24852406 24818450 
789.714 24841852 24908484 25002736 25108896 25210974 25294204 25345162 
793.089 25353760 25312914 25219062 25071554 24872792 24628268 24347430 
796.463 24043404 23733232 23435462 23168354 22945730 22775666 22659338 
799.838 22592104 22566190 22573468 22607344 22663556 22738498 22827780 
803.213 22925126 23021398 23105398 23166710 23197012 23192736 23154048 
806.588 23084988 22991086 22878300 22751724 22615894 22474350 22331002 
809.963 22189194 22052468 21923500 21804486 21696836 21602160 21522536 
813.337 21460550 21419486 21402220 21410476 21443922 21499624 21572710 
816.712 21656702 21744752 21830988 21911238 21983182 22047208 22105372 
820.087 22160708 22216388 22274472 22335568 22398670 22461170 22520940 
823.462 22575982 22626280 22673366 22720200 22770228 22826776 22892390 
826.837 22969004 23058356 23161826 23280914 23416770 23569612 23738240 
830.212 23920138 24111754 24309496 24511174 24716326 24926730 25146172 
833.586 25379830 25633634 25912342 26219172 26554824 26916924 27300642 
836.961 27699674 28108366 28523880 28948438 29389966 29860748 30374878 
840.336 30943708 31572696 32259092 32991976 33755148 34530240 35300252 
843.711 36051500 36773288 37456860 38094348 38677824 39200848 39659636 
847.086 40055424 40394196 40686296 40944048 41180268 41408284 41643620 
850.460 41906872 42226108 42636288 43176080 43881124 44777388 45875456 
853.835 47170036 48642660 50268936 52025648 53896104 55871520 57948584 
857.210 60123276 62385992 64717384 67088680 69464040 71805984 74080672 
860.585 76261592 78332048 80284616 82120152 83844512 85466040 86992024 
863.960 88426840 89770888 91020968 92172560 93223000 94174944 95037256 
867.335 95825120 96556312 97246680 97904320 98526768 99098288 99591736 
870.709 99971224 100196736 100227496 100026344 99562384 98813744 97769552 
874.084 96431848 94815072 92945088 90856216 88586896 86176072 83660136 
877.459 81071776 78440696 75794784 73162440 70572264 68053392 65632588 
880.834 63332840 61171236 59158352 57299176 55594972 54045428 52650632 
884.209 51412504 50335156 49423948 48684288 48118648 47723448 47486164 
887.583 47383612 47382904 47444916 47530992 47609700 47662604 47687148 
890.958 47693900 47700796 47724488 47774072 47846324 47927824 47999772 
894.333 48044036 48049304 48013568 47943088 47848808 47741688 47630440 
897.708 47519288 47409956 47303348 47200916 47104092 47013576 46927244 
901.083 46840488 46746844 46641164 46522100 46394296 46267060 46152116 
904.458 46059112 45993252 45952640 45930916 45919456 45911836 45906752 
907.832 45908440 45925204 45966404 46038716 46144296 46279944 46438688 
911.207 46612084 46792892 46976868 47164036 47357336 47562356 47785516 
914.582 48032236 48305568 48605888 48929480 49269176 49614412 49953100 
917.957 50273492 50566488 50827232 51057060 51262568 51454576 51645260 
921.332 51845428 52061424 52294116 52539300 52789396 53036148 53274296 
924.706 53502448 53724168 53946756 54178564 54427864 54700544 54999860 
928.081 55327432 55683340 56066748 56474984 56902812 57341108 57777280 
931.456 58196752 58586388 58937660 59248860 59525488 59777868 60016572 
934.831 60249200 60477036 60695560 60896448 61071828 61217552 61334964 
938.206 61430000 61510792 61584260 61654368 61721580 61784876 61844724 
941.581 61904944 61973360 62061220 62179704 62338184 62541984 62792852 
944.955 63090056 63432196 63818664 64249688 64725676 65246424 65810232 
948.330 66414332 67055724 67731952 68441560 69182448 69949768 70733536 
951.705 71517264 72278152 72989488 73623992 74157896 74573048 74856976 
955.080 75002496 75004664 74859304 74561920 74109896 73502856 72746680 
958.455 71854344 70846368 69748528 68590920 67403760 66217004 65058196 
961.829 63952580 62922112 61985312 61155832 60441920 59845628 59363096 
965.204 58985884 58702948 58502608 58374420 58309788 58302024 58345192 
968.579 58433024 58558784 58714936 58894584 59092240 59304228 59528900 
971.954 59764568 60008736 60255608 60497436 60724860 60930644 61112124 
975.329 61274076 61427732 61588752 61772192 61987944 62236860 62511152 
978.703 62795840 63075000 63337220 63579848 63809916 64041784 64291760 
982.078 64572624 64888740 65234460 65596648 65959176 66308884 66639512 
985.453 66953636 67261256 67575488 67908296 68266512 68651824 69060104 
988.828 69486584 69928616 70387920 70870360 71383848 71934048 72521824 
992.203 73141088 73780720 74427304 75070336 75705888 76339056 76982248 
995.578 77652536 78367288 79140096 79979104 80887016 81862696 82902632 
998.952 84002168 85154520 86349520 87572224 88803176 90021968 91211408 
1002.327 92364248 93487080 94602528 95746456 96963040 98296768 99786504 
1005.702 101460392 103335016 105417432 107709784 110213856 112936624 
1008.595 115893336 119110912 122628936 126500128 130787848 135562736 
1011.487 140894800 146842976 153441760 160687232 168522864 176828912 
1014.380 185418176 194039024 202389088 210140848 216975472 222623168 
1017.273 226900432 229738688 231195008 231444576 230752848 229439280 
1020.166 227835840 226250656 224940688 224098288 223846592 224244992 
1023.058 225299552 226974320 229204880 231910960 235007472 238415776 
1025.951 242072416 245934448 249981136 254210800 258633648 263263456 
1028.844 268110816 273178688 278464064 283961504 289668160 295587712 
1031.737 301728448 308099840 314704224 321530240 328548672 335714240 
1034.630 342969408 350251776 357499584 364654240 371659936 378461184 
1037.523 385000416 391218784 397059424 402471584 407414272 411856960 
1040.417 415776032 419151520 421962656 424188480 425810560 426819328 
1043.310 427217632 427022112 426261312 424970752 423188768 420956928 
1046.203 418320512 415333120 412058816 408571360 404947872 401262656 
1049.096 397579040 393946400 390399424 386962784 383655264 380493344 
1051.989 377491776 374662560 372011616 369538368 367236256 365096512 
1054.882 363111616 361280128 359608352 358111584 356813408 355745888 
1057.775 354949440 354474848 354382240 354741728 355629440 357122816 
1060.668 359295232 362211616 365924032 370471232 375877920 382156672 
1063.561 389308128 397322368 406178560 415846656 426287616 437456224 
1066.454 449302944 461775808 474821216 488385216 502412256 516848608 
1069.347 531643200 546752256 562140352 577780992 593651712 609728832 
1072.240 625978048 642352320 658790848 675226432 691593088 707834496 
1075.133 723905024 739766208 755375616 770678848 785601280 800049408 
1078.026 813919040 827106816 839517312 851070272 861696832 871336128 
1080.919 879922944 887387840 893651328 898628032 902231680 904386240 
1083.813 905036160 904159808 901780032 897969088 892841472 886543616 
1086.706 879233344 871065664 862178880 852694784 842719680 832350976 
1089.599 821678656 810785408 799741248 788601344 777406272 766187584 
1092.492 754974336 743797760 732691392 721685440 710797760 700029248 
1095.385 689363264 678773312 668233472 657727680 647252352 636813376 
1098.278 626416192 616057728 605721024 595379776 585006848 574584512 
1101.171 564110016 553596864 543068224 532550272 522066048 511637792 
1104.064 501291328 491065056 481013856 471209600 461733952 452669632 
1106.957 444091744 436064288 428639552 421863104 415777728 410424992 
1109.850 405841248 402052224 399064448 396860448 395397888 394612480 
1112.743 394424096 394744768 395483936 396552320 397865152 399343872 
1115.636 400919104 402535104 404152992 405752384 407330016 408894592 
1118.529 410460928 412043040 413650624 415287456 416953024 418644032 
1121.422 420354592 422076224 423795168 425490272 427130048 428673248 
1124.315 430069312 431260128 432183072 432773568 432969824 432718304 
1127.208 431979264 430733440 428983776 426754720 424086144 421024256 
1130.102 417610720 413875488 409832064 405479808 400807072 395798688 
1132.995 390441120 384726112 378651968 372223424 365448832 358339136 
1135.888 350907552 343169280 335143296 326855520 318340224 309642304 
1138.781 300817280 291928896 283045280 274235072 265562528 257086224 
1141.674 248858720 240926704 233334880 226125728 219338000 213005536 
1144.567 207153936 201798752 196944992 192589664 188723920 185337280 
1147.460 182419440 179960544 177949456 176372640 175211616 174443664 
1150.353 174041552 173975856 174216544 174733536 175496864 176476992 
1153.246 177644112 178969456 180427136 181995520 183658592 185405984 
1156.139 187231344 189131088 191102144 193142080 195249328 197424624 
1159.032 199670464 201992304 204396384 206889312 209477104 212167312 
1161.925 214970464 217903760 220991232 224263488 227753808 231495632 
1164.818 235518608 239850176 244518048 249556048 255008880 260935632 
1167.711 267407744 274504896 282308416 290895104 300334208 310686336 
1170.604 322004032 334334240 347716416 362180096 377737120 394375872 
1173.498 412053728 430691968 450171904 470332800 490968864 511826816 
1176.391 532603968 552950400 572475072 590763776 607398720 621987904 
1179.284 634190912 643744192 650479296 654333120 655350656 653677952 
1182.177 649546880 643252032 635123264 625500544 614711552 603059264 
1185.070 590815488 578219136 565476544 552762048 540217600 527952608 
1187.963 516047296 504558080 493525440 482981504 472953792 463465760 
1190.856 454533472 446159904 438332416 431023200 424194976 417809856 
1193.749 411836864 406259104 401071328 396277920 391884640 387892896 
1196.642 384295456 381077536 378218464 375695712 373487680 371574656 
1199.535 369936992 368555360 367408736 366475008 365731104 365154720 
1202.428 364723552 364414784 364204128 364065248 363970976 363893792 
1205.321 363807456 363688032 363513408 363262432 362914816 362450624 
1208.214 361852544 361107264 360207232 359149024 357931808 356554368 
1211.107 355012128 353298880 351409216 349343136 347109600 344726848 
1214.000 342220160 339615808 336936320 334196512 331404512 328565536 
1216.894 325685376 322776064 319854144 316939520 314050624 311200544 
1219.787 308395904 305637984 302925536 300258432 297639488 295073856 
1222.680 292567040 290122720 287740128 285415296 283141632 280912576 
1225.573 278722912 276570336 274454112 272375840 270337888 268343920 
1228.466 266398784 264509296 262683120 260929488 259258272 257680096 
1231.359 256207712 254855904 253641728 252582944 251695360 250990368 
1234.252 250472368 250139360 249985504 250004768 250193600 250553216 
1237.145 251087344 251798656 252684000 253731904 254922032 256228560 
1240.038 257625280 259089264 260602320 262149936 263715952 265279152 
1242.931 266810240 268272816 269628160 270840384 271881152 272733792 
1245.824 273392096 273859872 274149120 274278912 274275168 274170944 
1248.717 274004192 273815648 273643328 273518624 273462464 273485312 
1251.610 273588032 273766880 274015808 274329920 274706368 275143712 
1254.503 275640704 276196288 276808992 277478240 278203904 278987552 
1257.396 279830240 280732768 281695072 282714848 283789344 284914272 
1260.290 286083840 287289280 288516352 289745472 290951776 292107328 
1263.183 293184384 294159072 295012000 295727200 296289504 296679872 
1266.076 296874432 296843520 296554688 295977728 295088960 293874368 
1268.969 292329760 290458400 288269152 285772512 282979680 279902816 
1271.862 276556896 272960480 269137408 265116064 260927712 256603952 
1274.755 252173520 247661920 243089344 238472688 233826400 229164736 
1277.648 224502976 219857776 215246544 210687344 206197168 201791808 
1280.541 197485808 193292176 189222672 185286880 181491904 177841168 
1283.434 174335184 170972128 167749872 164667728 161728208 158937120 
1286.327 156301040 153826032 151513936 149361280 147359200 145495392 
1289.220 143757744 142137216 140629792 139236592 137961552 136808624 
1292.113 135777712 134862704 134050832 133323568 132660136 132040008 
1295.006 131446648 130870104 130307216 129762160 129244608 128766656 
1297.899 128339704 127971424 127663312 127410320 127202032 127025216 
1300.792 126867160 126718416 126573664 126431184 126290336 126149688 
1303.686 126003968 125844600 125661088 125443144 125183048 124876640 
1306.579 124523256 124123984 123680192 123192520 122660952 122085704 
1309.472 121468264 120810464 120113984 119377880 118597952 117766320 
1312.365 116874264 115915312 114889440 113804632 112677224 111529224 
1315.258 110384248 109263904 108185400 107161136 106199440 105305136 
1318.151 104480784 103724352 103029928 102385136 101773936 101178760 
1321.044 100585376 99986480 99383736 98787168 98210888 97668976 97170904 
1324.419 96719648 96313256 95947616 95619840 95331512 95088592 94900008 
1327.794 94775272 94721960 94745448 94849024 95036512 95312848 95684704 
1331.170 96159184 96741136 97431600 98226328 99117024 100092472 101141056 
1334.545 102251976 103414504 104617128 105845808 107082528 108306360 
1337.438 109495168 110628832 111691936 112676056 113580224 114410072 
1340.331 115175632 115889944 116567040 117221224 117867808 118522752 
1343.224 119203304 119927656 120712584 121573360 122519832 123556768 
1346.117 124683328 125894632 127183688 128544152 129971312 131463336 
1349.010 133018744 134635936 136309888 138030784 139784288 141552560 
1351.903 143315552 145053376 146746928 148379024 149933584 151396992 
1354.796 152757280 154006256 155140224 156159920 157070000 157877312 
1357.689 158588352 159209136 159744432 160199728 160582720 160904832 
1360.583 161180480 161426288 161658336 161888976 162125232 162368480 
1363.476 162612976 162847472 163054160 163208784 163280256 163231968 
1366.369 163024096 162617456 161978000 161080928 159912928 158474464 
1369.262 156779744 154857776 152753248 150528880 148264400 146056400 
1372.155 144012896 142246560 140864960 139962176 139610608 139855472 
1375.048 140712032 142164960 144168704 146649216 149506480 152619152 
1377.941 155851872 159065168 162126976 164922992 167362608 169380496 
1380.834 170932192 171987824 172526864 172535600 172008576 170951040 
1383.727 169382384 167334976 164852192 161983424 158779216 155289248 
1386.620 151560816 147640608 143573936 139405392 135175616 130919832 
1389.513 126664800 122429344 118224896 114060696 109946200 105895312 
1392.406 101927152 98066336 94339984 90775776 87398008 84226536 81275216 
1395.781 78552280 76061008 73801240 71768792 69956936 68355728 66952744 
1399.157 65734512 64687908 63802144 63071108 62494288 62076764 61828624 
1402.532 61764100 61897648 62241708 62802008 63573636 64536528 65653540 
1405.907 66869208 68112824 69302552 70353344 71183536 71723368 71920880 
1409.282 71745904 71192648 70279272 69045008 67547048 65853888 64039164 
1412.658 62176088 60330940 58558764 56900976 55383140 54016132 52797452 
1416.033 51715028 50751144 49887320 49108176 48405460 47777536 47229896 
1419.408 46770164 46405096 46135864 45956796 45855200 45814736 45818652 
1422.783 45853020 45908384 45979620 46063816 46158296 46259044 46361844 
1426.159 46463644 46565820 46675564 46806356 46976792 47207848 47519324 
1429.534 47928804 48449888 49093144 49867156 50778556 51831952 53029636 
1432.909 54371052 55854672 57478760 59244640 61157880 63228032 65468856 
1436.284 67895544 70523832 73369112 76447720 79777784 83379200 87272952 
1439.660 91477440 96004176 100854840 106017936 111468800 117171056 123077800 
1443.035 129134480 135279104 141445584 147564096 153565008 159380544 
1445.928 164947264 170206688 175106528 179602272 183660112 187259664 
1448.821 190396464 193080480 195331136 197170176 198614560 199672480 
1451.714 200344272 200625904 200514960 200012448 199123296 197852000 
1454.607 196199056 194158512 191720544 188877120 185628208 181985952 
1457.500 177974720 173627280 168979488 164068640 158932000 153610176 
1460.393 148148064 142594752 136999984 131408576 125857712 120375280 
1463.286 114982904 109699864 104547888 99550568 94733408 90118488 85722696 
1466.662 81556048 77623600 73928552 70474904 67267264 64309232 61600620 
1470.037 59134144 56894772 54860896 53007836 51311564 49751476 48311640 
1473.412 46979432 45745012 44597664 43526672 42520112 41566580 40656296 
1476.787 39782088 38939160 38125020 37338092 36576536 35837428 35116364 
1480.163 34407712 33705700 33004846 32302358 31598848 30898554 30209344 
1483.538 29541226 28903822 28304992 27747888 27231832 26751732 26300616 
1486.913 25871636 25459988 25063512 24684088 24324622 23989454 23681324 
1490.288 23401410 23148564 22920384 22714042 22527700 22361104 22216194 
1493.664 22096526 22006394 21949870 21929848 21947530 22002804 22095096 
1497.039 22224822 22394396 22608672 22874776 23200692 23593062 24055564 
1500.414 24586100 25176624 25811566 26468554 27118304 27726798 28255504 
1503.789 28666408 28924268 29002278 28886406 28580110 28104324 27495612 
1507.165 26799780 26064334 25330400 24629058 23979064 23389846 22863838 
1510.540 22400224 21997840 21655640 21372450 21145256 20968756 20834484 
1513.915 20731988 20650146 20578780 20510472 20441460 20371108 20301444 
1517.290 20236508 20178900 20130230 20089668 20054172 20019532 19982062 
1520.666 19939534 19892768 19844728 19799984 19762022 19732664 19710826 
1524.041 19692664 19673398 19649948 19621436 19591026 19564084 19546660 
1527.416 19542410 19550976 19566792 19580270 19580130 19556232 19502244 
1530.791 19417880 19307876 19181312 19048844 18921330 18806408 18708414 
1534.167 18627570 18561216 18504760 18453082 18401638 18347596 18288866 
1537.542 18225228 18157266 18086800 18015932 17947904 17886442 17835742 
1540.917 17798222 17775524 17766396 17767122 17771994 17774764 17769760 
1544.292 17753556 17725206 17685946 17638516 17585220 17527946 17467954 
1547.667 17406406 17345714 17290094 17245134 17215946 17205972 17214116 
1551.043 17236180 17263584 17288206 17303234 17305548 17296398 17280266 
1554.418 17262802 17248760 17240416 17238252 17241160 17247982 17258616 
1557.793 17273544 17293190 17317298 17344174 17371486 17397438 17421858 
1561.168 17446558 17475096 17510286 17553782 17603632 17655692 17704590 
1564.544 17746496 17780282 17808550 17837148 17873012 17922328 17988896 
1567.919 18073910 18176598 18295380 18428720 18574302 18730212 18893254 
1571.294 19060128 19228422 19397924 19571910 19757684 19963694 20197122 
1574.669 20460170 20747678 21046030 21336114 21596840 21810290 21963906 
1578.045 22052472 22075630 22036990 21940612 21791932 21597850 21367554 
1581.420 21114016 20853392 20603138 20379396 20194222 20053776 19957580 
1584.795 19899544 19869974 19856874 19848626 19835616 19809982 19767600 
1588.170 19707322 19631850 19546482 19458466 19375502 19304418 19249174 
1591.546 19211470 19190224 19182420 19185028 19195446 19212224 19235308 
1594.921 19265790 19305476 19356820 19423100 19507486 19613650 19744130 
1598.296 19900970 20084056 20291950 20522084 20771160 21036596 21316670 
1601.671 21611412 21922444 22251836 22601976 22973854 23366760 23777158 
1605.047 24199042 24624516 25044088 25448366 25828404 26177518 26490814 
1608.422 26764716 26996440 27182634 27319720 27403914 27432214 27405226 
1611.797 27327844 27208722 27060772 26897102 26729810 26567186 26413554 
1615.172 26269254 26132004 25999036 25867790 25737042 25607016 25478552 
1618.548 25353864 25235912 25129026 25037884 24967228 24920402 24898314 
1621.923 24897760 24912680 24934400 24954180 24965156 24964706 24954156 
1625.298 24939192 24927338 24926748 24943462 24980232 25035240 25102910 
1628.673 25174366 25240380 25292620 25326972 25343588 25347666 25347258 
1632.049 25350546 25363302 25386610 25417046 25447722 25471176 25483014 
1635.424 25482890 25475398 25468468 25470234 25485048 25513422 25550640 
1638.799 25589286 25620910 25639482 25641614 25628302 25602914 25570744 
1642.174 25537254 25507182 25482960 25466056 25456082 25452086 25452940 
1645.550 25458818 25471192 25493410 25528810 25580694 25650372 25735778 
1648.925 25832398 25934174 26035282 26132550 26225112 26315124 26406214 
1652.300 26501228 26601582 26706728 26815066 26925134 27037490 27154142 
1655.675 27278390 27413672 27561540 27722300 27893856 28074682 28263144 
1659.051 28459120 28663102 28876466 29100090 29334964 29582196 29844288 
1662.426 30124182 30426118 30752900 31105558 31480986 31873700 32276242 
1665.801 32682468 33088330 33494114 33903300 34321392 34753696 35203728 
1669.176 35672352 36157812 36655908 37160788 37665060 38160848 38640944 
1672.552 39100384 39538172 39959528 40374372 40796360 41238556 41711000 
1675.927 42215776 42749616 43304064 43871088 44444936 45025052 45614096 
1679.302 46216144 46833312 47463736 48101948 48741220 49375788 50004020 
1682.677 50628516 51255724 51893020 52546868 53221852 53919748 54640104 
1686.052 55381780 56142756 56921040 57714292 58521528 59343840 60187248 
1689.428 61062532 61984708 62970064 64033672 65184980 66428260 67764112 
1692.803 69193168 70719736 72353336 74108496 75999968 78039280 80232736 
1696.178 82582584 85093160 87776624 90659160 93781544 97195368 100953592 
1699.553 105102984 109676864 114696840 120176352 126133800 132600488 
1702.447 139627136 147281136 155639120 164777616 174764208 185651344 
1705.340 197475424 210256352 223999088 238690288 254296816 270761888 
1708.233 288007776 305940736 324462208 343474048 362880544 382578208 
1711.126 402441408 422306496 441966240 461173632 479661984 497167904 
1714.019 513456896 528342848 541700800 553475200 563685056 572421376 
1716.912 579836608 586120384 591467136 596042112 599960704 603283648 
1719.805 606032768 608211840 609830272 610912192 611497792 611632192 
1722.698 611359040 610717440 609747520 608497408 607029440 605414592 
1725.591 603721984 602004800 600291840 598587968 596885632 595177984 
1728.484 593470592 591783424 590143552 588572992 587082112 585670784 
1731.377 584339584 583102912 582002304 581105280 580497792 580263424 
1734.270 580469120 581156288 582345920 584052672 586304512 589150528 
1737.163 592663488 596928448 602030080 608037440 614999680 622945472 
1740.056 631889792 641838400 652787968 664720640 677596096 691343296 
1742.949 705861632 721024320 736685632 752684480 768842432 784956096 
1745.843 800793536 816097984 830604352 844064448 856269504 867060416 
1748.736 876323584 883972160 889928192 894113536 896459072 896918528 
1751.629 895486400 892198976 887121664 880328384 871882944 861836608 
1754.522 850237568 837151040 822677056 806953088 790145088 772428032 
1757.415 753969600 734918848 715410560 695571392 675529472 655417216 
1760.308 635367168 615504576 595941760 576776384 558093056 539966528 
1763.201 522461952 505630432 489501984 474079424 459339936 445241888 
1766.094 431739872 418797568 406399456 394547520 383252864 372518528 
1768.987 362326592 352630720 343361120 334437184 325784192 317345536 
1771.880 309089408 301002752 293083072 285325248 277714432 270224096 
1774.773 262820752 255469952 248144304 240823760 233496208 226153424 
1777.666 218789984 211402016 203990560 196564560 189144240 181759376 
1780.559 174447056 167244528 160186144 153298384 146602128 140113136 
1783.452 133846160 127814504 122030368 116501776 111231328 106216176 
1786.345 101451408 96931856 92657264 88629696 84854328 81332800 78061016 
1789.721 75025992 72208112 69583664 67129768 64825988 62657596 60614528 
1793.096 58692940 56892748 55219456 53680372 52284084 51033428 49923644 
1796.471 48937992 48049956 47228400 46446108 45685236 44941808 44222124 
1799.846 43535704 42886584 42269220 41667956 41064068 40444424 39809120 
1803.222 39172616 38560284 37998744 37506252 37086680 36729548 36414080 
1806.597 36116744 35817492 35502708 35164840 34800068 34406532 33984872 
1809.972 33539258 33079080 32617432 32169442 31744920 31346836 30968796 
1813.347 30598990 30226728 29848698 29471716 29111758 28787464 28514294 
1816.723 28298098 28134630 28012538 27918422 27840434 27770962 27701392 
1820.098 27620240 27511130 27354938 27136608 26852398 26512318 26139610 
1823.473 25763522 25410566 25095574 24818604 24568348 24328454 24084016 
1826.848 23827988 23560494 23287460 23014876 22747730 22487646 22234924 
1830.224 21988322 21746720 21506622 21262854 21008376 20739636 20458568 
1833.599 20178764 19922212 19714830 19575310 19507034 19491526 19492028 
1836.974 19463156 19365212 19174596 18891112 18533248 18130720 17712350 
1840.349 17299594 16904282 16534491 16199242 15914083 15700227 15578286 
1843.725 15559378 15638586 15791707 15980545 16160347 16290218 16339427 
1847.100 16293541 16151376 15926959 15643531 15332271 15026337 14756945 
1850.475 14544940 14397621 14304515 14241534 14176091 14079189 13934138 
1853.850 13742051 13521794 13305482 13126850 13015401 12987032 13042796 
1857.226 13168267 13336997 13512608 13656211 13730363 13709294 13583350 
1860.601 13365913 13091264 12807420 12564003 12398485 12323475 12325788 
1863.976 12369109 12409505 12405938 12335593 12195489 12002802 11784017 
1867.351 11569572 11382183 11236542 11136298 11077262 11047088 11030966 
1870.727 11011756 10978021 10925788 10865044 10816407 10807369 10860038 
1874.102 10980641 11149432 11323816 11446019 11463208 11343710 11093601 
1877.477 10756132 10402060 10109772 9942078 9928430 10058282 10284678 
1880.852 10539529 10751450 10864581 10847647 10700999 10450396 10140655 
1884.228 9821584 9540698 9331468 9213290 9189544 9252645 9388763 9581349 
1888.085 9811237 10056002 10287018 10471924 10576655 10578654 10474039 
1891.460 10285804 10060837 9859614 9735950 9719957 9803328 9941889 10066434 
1895.318 10107709 10017256 9787068 9447991 9062165 8702569 8433676 8296136 
1899.175 8301230 8433045 8657955 8932051 9212109 9461556 9656683 9789693 
1903.032 9872952 9933093 10004948 10117087 10279971 10475831 10663453 
1906.408 10786640 10798586 10677756 10442737 10147883 9869689 9679703 
1909.783 9624404 9708093 9895356 10119933 10310691 10406054 10374089 
1913.158 10212986 9954420 9645823 9346936 9112027 8983432 8978505 9086682 
1917.016 9268206 9463351 9603866 9634831 9528432 9293944 8973559 8630444 
1920.873 8325803 8104873 7979801 7935828 7933701 7928421 7879641 7763332 
1924.730 7571428 7312740 7006971 6682310 6368614 6099513 5903235 5801332 
1928.588 5800852 5896980 6072240 6305801 6575579 6864927 7155679 7426333 
1932.445 7642543 7763375 7745722 7565826 7229424 6785443 6312792 5906440 
1936.303 5641191 5554677 5629203 5805327 5999683 6139761 6183422 6136989 
1940.160 6043269 5970040 5983312 6133953 6441788 6899836 7473117 8107532 
1944.018 8734992 9287596 9705752 9960011 10056493 10048413 10014674 10041833 
1947.875 10185335 10447604 10764950 11030940 11126284 10970017 10548351 
1951.250 9928077 9228780 8589305 8110082 7831319 7716057 7677780 7613152 
1955.108 7443604 7133841 6705339 6216174 5746896 5375154 5174445 5197590 
1958.965 5486514 6056393 6890652 7922400 9033053 10053238 10803350 11119757 
1962.823 10909502 10171473 9009358 7603562 6178741 4944327 4061320 3610138 
1966.680 3590935 3932295 4528608 5248638 5975275 6595250 7018766 7170941 
1970.537 7006470 6509316 5717495 4718719 3656102 2701559 2041120 1827734 
1974.395 2164878 3076783 4520769 6379206 8500855 10708236 12835852 14734896 
1978.252 16302522 17476912 18255290 18668132 18781842 18659118 18357430 
1981.627 17906130 17315798 16574567 15683660 14653722 13535504 12402191 
1985.003 11342056 10430786 9716194 9197067 8839074 8581675 8366988 8150656 
1988.860 7921703 7680130 7445891 7232349 7058521 6943968 6926757 7052737 
1992.718 7376672 7924923 8682663 9570555 10457908 11184666 11615401 11670490 
1996.575 11364205 10792337 10114434 9496165 9083102 8949441 9107100 9497359 
2000.432 10023006 10555258 10963577 11121661 10931305 10339567 9362683 
2003.808 8091730 6697545 5391071 4388167 3839508 3795166 4179463 4825075 
2007.665 5521612 6091123 6423915 6508547 6402852 6222797 6097229 6161362 
2011.522 6528107 7285914 8459510 9993118 11710986 13333924 14505262 14883890 
2015.380 14225279 12482052 9814267 6575884 3212047 150100 -2308594 -4024722 
2019.237 -5024118 -5414001 -5325948 -4839443 -3987866 -2777634 -1248224 
2022.613 498658 2284736 3897766 5140816 5894804 6136431 5935515 5407527 
2026.470 4672224 3812734 2877180 1888509 881978 -98541 -987235 -1743104 
2030.327 -2351701 -2850718 -3290085 -3705176 -4062629 -4260937 -4141467 
2033.703 -3564552 -2473389 -951701 794135 2479730 3848395 4742241 5162203 
2037.560 5229702 5141079 5061117 5068293 5113939 5065660 4768691 4143073 
2041.417 3228166 2203013 1317003 820856 862861 1447748 2421091 3539946 
2045.275 4546507 5275149 5695039 5918693 6143330 6569183 7304166 8319252 
2049.132 9447878 10443575 11064645 11161773 10708896 9809905 8658448 7491824 
2052.990 6531243 5940337 5784522 6028374 6537514 7127154 7606363 7836791 
2056.847 7760534 7417592 6924615 6446105 6138630 6112796 6393516 6923303 
2060.705 7571663 8186262 8629267 8823292 8759240 8494673 8118146 7719047 
2064.562 7355178 7042043 6758795 6473781 6162873 5829801 5502762 5224894 
2068.419 5031401 4939313 4933088 4981749 5048854 5113579 5176751 5261222 
2072.277 5393535 5593165 5852733 6143142 6418688 6641191 6792635 6888108 
2076.134 6966443 7081781 7272524 7553699 7902807 8271532 8599129 8835146 
2079.992 8953284 8961624 8894558 8805736 8746760 8757704 8854992 9030625 
2083.849 9250736 9469043 9629347 9683669 9597830 9365775 9010341 8583392 
2087.707 8150446 7779054 7515305 7375786 7339798 7362575 7386200 7367648 
2091.564 7286703 7160943 7031231 6954862 6978691 7129855 7399828 7753305 
2095.421 8129845 8463397 8691187 8769431 8674910 8412817 8014955 7542201 
2099.279 7071996 6689349 6465267 6442848 6619272 6950021 7356656 7755016 
2103.136 8072952 8276492 8369352 8389569 8386704 8403621 8458012 8543848 
2106.994 8631844 8691128 8698192 8648279 8553273 8438485 8328876 8245899 
2110.851 8199375 8192001 8215687 8262262 8315218 8357391 8364880 8314619 
2114.708 8181060 7947567 7602206 7148348 6596532 5972005 5307675 4647615 
2118.566 4038912 3530411 3157033 2936463 2854249 2867868 2908499 2903518 
2122.423 2789764 2538005 2156721 1693499 1214724 789951 466839 264019 167964 
2126.763 145097 151686 154188 130386 79347 11569 -49390 -78971 -54495 32339 
2131.585 174599 338640 471255 505585 384694 80394 -387748 -959887 -1549308 
2135.924 -2085665 -2538238 -2940829 -3364947 -3890782 -4548475 -5294010 
2139.300 -5999848 -6503368 -6666216 -6444597 -5922782 -5304416 -4843459 
2142.675 -4767497 -5180973 -6040243 -7155398 -8269580 -9145302 -9653910 
2146.050 -9807715 -9751857 -9699842 -9860299 -10360736 -11221723 -12358127 
2149.425 -13621688 -14832585 -15828907 -16477745 -16691655 -16434558 
2152.318 -15744306 -14735020 -13625251 -12691148 -12247323 -12547296 
2155.211 -13720210 -15691953 -18180402 -20713846 -22752954 -23808698 
2158.104 -23618254 -22216186 -19955948 -17360970 -14957030 -13088607 
2160.998 -11879129 -11242167 -10998123 -10943498 -10931560 -10867041 
2163.891 -10708079 -10421511 -9982793 -9364049 -8562172 -7613522 -6609525 
2167.266 -5676737 -4955394 -4537783 -4465921 -4693424 -5128834 -5653153 
2170.641 -6166411 -6602189 -6939830 -7181231 -7339758 -7415395 -7410897 
2174.016 -7323561 -7184197 -7044608 -6977987 -7036710 -7235939 -7526377 
2177.392 -7820004 -8011433 -8040043 -7901589 -7663787 -7422952 -7266039 
2180.767 -7214728 -7217616 -7162321 -6937341 -6479735 -5827836 -5097340 
2184.142 -4457935 -4050497 -3948731 -4122008 -4463170 -4820433 -5063270 
2187.517 -5110813 -4947310 -4604698 -4143032 -3609757 -3041303 -2451192 
2190.893 -1849371 -1245380 -661639 -124346 329974 669953 859088 872593 
2194.750 695355 350273 -97769 -524927 -782437 -720198 -255029 593885 1678361 
2199.090 2760089 3567996 3900056 3681315 3005643 2099273 1255678 736431 
2202.947 699266 1156141 1996709 3033111 4079233 4991429 5701587 6199997 
2206.804 6512987 6669931 6695475 6604771 6426731 6200907 5988960 5851671 
2210.662 5835042 5948208 6167921 6438987 6700721 6896689 6991713 6962348 
2214.519 6805870 6521291 6123198 5633667 5095592 4566959 4113493 3789435 
2218.377 3631403 3643999 3812946 4111170 4520695 5032785 5653442 6379614 
2222.234 7195803 8053876 8887881 9620491 10190715 10560897 10731498 10724130 
2226.092 10577978 10326720 10000713 9620779 9214974 8819071 8481641 8246167 
2229.949 8146241 8179826 8316375 8496184 8652675 8731187 8709485 8598034 
2233.806 8437870 8280053 8170874 8130815 8156995 8219201 8280466 8306621 
2237.664 8284933 8225990 8166502 8150083 8220306 8394843 8665574 8992022 
2241.521 9320596 9599154 9798805 9919673 9993444 10058540 10146132 10255867 
2245.379 10360472 10409324 10361160 10199606 9953006 9681165 9457794 9335398 
2249.236 9325963 9392908 9470349 9488191 9408738 9233457 9007373 8787723 
2253.094 8623681 8532050 8499296 8497423 8513032 8561966 8694929 8968971 
2256.951 9420537 10031852 10725863 11376601 11855089 12065245 11983003 
2260.326 11657055 11195222 10721521 10338034 10093868 9984985 9964311 
2263.701 9976360 9981290 9973484 9976290 10032406 10176696 10427695 10771280 
2267.559 11170214 11571607 11921597 12174583 12304312 12302358 12182952 
2270.934 11974630 11719273 11461209 11242473 11090326 11017424 11018617 
2274.309 11079171 11180229 11310466 11463963 11645857 11861145 12115217 
2277.685 12404762 12723260 13060048 13408723 13765784 14133159 14510408 
2281.060 14891334 15260124 15594335 15867857 16061226 16163660 16178381 
2284.435 16117020 15997395 15836725 15652161 15458552 15274363 15118291 
2287.810 15010658 14964330 14982648 15050639 15139616 15212763 15237235 
2291.186 15191110 15073659 14899973 14697411 14493186 14307189 14147433 
2294.561 14012235 13896890 13798550 13720232 13670658 13655938 13678174 
2297.936 13727049 13786754 13836446 13859897 13848895 13806822 13742168 
2301.311 13667126 13589819 13515888 13448964 13395940 13369503 13384835 
2304.687 13455199 13585125 13762367 13960630 14143354 14278811 14347329 
2308.062 14352811 14317480 14275150 14255933 14277386 14336351 14415151 
2311.437 14489790 14543019 14570460 14583293 14600799 14640789 14711378 
2314.812 14807915 14915478 15017489 15103268 15173503 15238002 15313135 
2318.188 15414818 15555483 15743289 15986016 16290773 16664375 17105998 
2321.563 17598716 18102764 18555766 18881958 19009342 18886498 18498700 
2324.938 17870698 17061810 16151985 15227115 14361982 13611178 13002568 
2328.313 12541290 12213646 11997017 11865548 11797546 11773815 11779610 
2331.688 11803698 11836391 11869568 11898147 11918128 11928027 11926888 
2335.064 11915183 11894625 11868810 11842751 11822320 11812381 11814659 
2338.439 11826187 11840153 11847454 11841112 11819311 11786908 11754100 
2341.814 11733444 11733897 11758457 11799282 11842090 11870066 11868811 
2345.189 11831949 11763304 11676476 11590797 11525929 11496834 11509106 
2348.565 11559241 11634034 11715477 11783571 11823568 11826701 11794528 
2351.940 11736169 11667147 11601965 11553162 11522559 11504644 11487196 
2355.315 11455931 11399235 11313789 11204232 11082408 10961810 10854283 
2358.690 10763942 10688181 10618637 10544879 10458533 10355723 10237074 
2362.066 10107324 9969951 9828824 9683627 9534676 9384024 9238551 9110909 
2365.923 9018659 8979368 9007381 9106152 9267426 9468704 9679529 9865990 
2369.781 10000155 10066818 10068232 10022997 9962986 9922635 9930128 
2373.156 10000025 10127614 10292209 10463653 10611660 10716483 10772988 
2376.531 10791644 10791923 10794749 10811348 10840936 10869497 10876959 
2379.906 10844261 10763492 10639982 10493000 10348449 10232878 10163590 
2383.281 10148344 10181502 10251851 10344819 10449245 10557475 10667518 
2386.657 10777455 10886488 10991576 11087521 11169431 11233136 11276863 
2390.032 11302271 11314241 11319567 11326014 11341037 11368807 11410776 
2393.407 11462142 11513210 11551145 11563499 11541994 11486369 11403110 
2396.782 11305132 11203832 11105875 11008367 10902234 10774626 10620557 
2400.158 10443956 10264345 10109671 10008542 9979296 10023974 10125348 
2403.533 10254678 10380372 10479657 10545585 10586021 10618581 10662111 
2406.908 10728379 10819497 10927829 11042263 11150625 11246128 11322628 
2410.283 11375915 11399589 11389188 11342353 11266013 11175993 11096206 
2413.659 11049448 11051009 11099461 11177617 11256536 11307979 11313879 
2417.034 11274123 11203590 11127527 11066660 11032501 11019794 11012755 
2420.409 10991936 10942982 10861506 10753576 10629155 10498133 10365614 
2423.784 10234275 10106468 9990143 9899415 9852059 9861400 9931453 10050166 
2427.642 10194279 10334404 10446810 10518301 10552666 10562729 10567104 
2431.017 10578637 10602054 10631911 10660314 10676758 10677326 10660789 
2434.392 10628275 10580184 10513088 10423311 10310601 10180902 10049700 
2437.768 9937214 9864812 9846129 9883397 9967596 10082361 10208447 10333619 
2441.625 10450358 10557835 10655396 10740898 10805666 10838885 10829321 
2445.000 10774255 10679144 10561907 10444717 10352626 10303493 10306177 
2448.375 10357762 10445588 10550252 10650708 10727015 10765544 10759707 
2451.751 10713163 10637799 10553055 10479200 10433971 10424937 10449406 
2455.126 10490396 10525075 10527059 10478246 10370884 10213346 10025680 
2458.501 9837975 9680152 9578115 9545045 9581625 9673839 9798110 9922360 
2462.359 10017111 10057125 10029684 9937220 9797842 9639477 9494834 9391113 
2466.216 9342338 9345401 9381779 9422460 9440470 9418138 9355772 9268791 
2470.073 9184588 9129663 9122116 9164197 9245043 9344018 9442875 9532440 
2473.931 9615839 9704656 9811965 9941758 10084949 10217028 10308497 10333208 
2477.788 10281011 10160995 10000737 9835467 9697767 9606208 9563049 9555949 
2481.646 9568590 9587211 9609404 9641072 9693506 9773285 9877777 9991040 
2485.503 10091476 10155707 10169817 10131950 10054719 9958081 9867651 
2488.878 9803988 9782336 9809703 9886872 10007972 10161958 10330945 10493851 
2492.736 10625066 10702954 10711364 10648508 10523532 10359460 10183583 
2496.111 10025359 9908087 9848549 9853790 9924601 10054508 10231121 10437176 
2499.969 10649954 10845286 11002050 11106315 11155355 11156249 11124133 
2503.344 11073234 11014610 10949763 10878103 10795861 10708138 10626260 
2506.719 10571109 10561734 10610917 10714664 10853635 10995449 11106000 
2510.094 11157623 11137999 11050964 10913051 10746271 10572309 10407218 
2513.469 10262852 10147705 10071284 10042856 10071278 10159021 10301007 
2516.845 10479430 10668900 10838338 10960078 11014442 10995471 10909709 
2520.220 10776530 10620884 10470681 10347934 10268174 10235800 10245688 
2523.595 10283599 10334780 10383871 10422341 10448067 10466537 10485184 
2526.970 10513220 10554457 10610931 10679524 10757034 10839315 10924343 
2530.346 11006951 11083837 11148049 11194237 11220186 11229867 11234549 
2533.721 11250257 11292775 11370947 11483444 11617812 11752928 11866699 
2537.096 11942456 11973623 11962721 11919933 11856125 11782004 11704884 
2540.471 11631653 11569969 11529959 11520402 11545741 11600716 11667042 
2543.847 11718401 11727778 11675295 11559729 11397601 11222652 11073317 
2547.222 10981992 10964633 11017271 11116845 11233952 11339340 11417714 
2550.597 11467686 11504272 11548901 11623284 11737696 11889353 12055884 
2553.972 12206246 12302512 12314676 12226855 12045694 11799347 11533787 
2557.348 11299691 11142336 11088103 11139087 11272663 11449148 11625555 
2560.723 11767071 11855822 11896055 11908934 11924049 11968697 12058953 
2564.098 12194083 12358150 12525306 12668047 12765792 12810769 12809648 
2567.473 12782024 12753355 12748435 12781735 12855609 12957680 13066689 
2570.849 13157135 13210636 13218977 13188598 13136558 13085279 13053564 
2574.224 13051525 13077443 13119515 13160051 13183243 13179146 13146102 
2577.599 13090408 13024243 12961682 12916388 12898142 12913436 12961604 
2580.974 13036693 13125747 13211467 13274017 13297885 13275511 13211804 
2584.350 13123131 13036422 12979670 12976368 13038342 13162341 13331589 
2587.725 13520016 13698212 13840204 13927203 13952294 13918399 13838264 
2591.100 13731771 13622729 13533213 13480961 13474167 13510674 13578513 
2594.475 13659428 13734110 13789155 13818793 13828502 13828892 13833548 
2597.851 13851454 13885225 13929732 13975649 14012427 14033781 14038477 
2601.226 14031654 14021688 14017215 14023481 14043107 14073394 14108850 
2604.601 14143268 14170972 14186793 14189153 14178401 14159769 14139733 
2607.976 14126861 14127634 14145302 14176715 14213661 14242735 14252371 
2611.352 14234066 14188148 14123722 14058579 14012959 14005463 14048122 
2614.727 14143423 14283082 14452117 14630023 14795985 14931279 15022261 
2618.102 15060449 15044764 14981234 14883303 14770044 14664226 14587758 
2621.477 14558508 14584766 14664282 14782741 14918690 15048366 15150077 
2624.853 15211560 15230131 15214323 15178761 15140271 15113325 15105158 
2628.228 15117194 15143886 15177294 15209923 15236024 15253745 15264227 
2631.603 15269497 15270880 15269878 15267015 15262827 15260313 15262664 
2634.978 15274394 15298338 15334861 15380867 15430964 15477186 15515717 
2638.354 15544604 15565081 15581841 15598696 15617062 15634816 15648404 
2641.729 15653657 15650302 15641440 15634440 15637027 15654175 15685100 
2645.104 15721897 15752843 15766114 15755206 15720470 15670689 15619559 
2648.479 15580066 15559772 15559313 15571041 15584467 15588104 15573753 
2651.854 15538561 15483935 15412813 15329377 15236202 15136941 15034091 
2655.230 14933080 14840244 14761462 14700131 14656344 14625831 14602709 
2658.605 14580824 14557059 14530610 14502097 14470450 14431112 14375334 
2661.980 14292571 14174328 14018727 13833260 13634271 13442299 13277617 
2665.355 13153985 13075432 13038128 13031373 13043828 13067281 13097181 
2668.731 13132725 13173470 13217271 13257957 13288009 13300254 13290747 
2672.106 13260907 13217443 13169485 13125991 13092071 13068622 13050810 
2675.481 13030483 12998044 12947927 12876990 12789707 12695852 12610041 
2678.856 12548877 12526549 12550433 12618763 12719711 12832832 12934593 
2682.232 13005843 13034608 13021486 12976712 12917715 12861127 12818284 
2685.607 12793058 12781316 12775153 12766285 12749579 12724496 12692650 
2688.982 12657279 12619104 12578123 12532263 12482154 12429684 12380711 
2692.357 12341909 12319505 12315759 12329600 12355622 12386798 12416451 
2695.733 12438801 12449695 12446683 12427230 12391153 12339252 12276220 
2699.108 12209828 12150913 12110601 12097214 12113931 12157423 12218752 
2702.483 12286530 12348360 12395008 12421211 12426233 12412328 12384194 
2705.858 12348167 12310500 12277531 12254249 12243558 12245555 12256986 
2709.234 12273046 12288382 12299373 12304373 12305564 12305210 12306943 
2712.609 12311403 12318676 12327318 12336867 12348147 12363522 12385265 
2715.984 12413290 12444327 12471551 12486870 12484260 12461628 12423873 
2719.359 12378911 12338581 12311442 12302419 12309977 12328924 12351522 
2722.735 12371759 12385437 12392465 12394475 12395303 12398408 12407991 
2726.110 12427073 12458484 12501868 12555316 12612526 12664736 12701519 
2729.485 12714184 12698786 12656954 12595999 12527341 12461954 12409082 
2732.860 12373575 12356085 12354327 12365294 12385055 12410498 12437692 
2736.236 12461961 12477992 12481658 12470381 12446451 12414626 12383614 
2739.611 12360572 12351556 12358960 12381047 12413329 12451774 12492068 
2742.986 12532377 12571602 12608906 12644024 12674370 12697279 12710178 
2746.361 12709741 12693854 12660386 12610070 12544833 12471015 12396993 
2749.737 12335467 12298041 12294213 12327403 12393402 12480248 12572842 
2753.112 12654601 12713522 12743229 12743710 12719184 12675185 12616496 
2756.487 12545791 12464730 12375243 12281210 12188902 12105343 12038196 
2759.862 11992825 11971551 11973550 11996153 12034388 12083543 12137526 
2763.238 12189954 12233798 12263321 12274529 12267042 12245485 12216974 
2766.613 12191694 12178723 12184178 12211131 12258292 12322251 12397819 
2769.988 12480558 12565929 12648828 12723227 12783172 12822064 12835995 
2773.363 12822624 12783986 12724987 12653150 12576371 12503468 12440861 
2776.739 12394037 12366998 12361243 12376593 12409528 12453546 12501022 
2780.114 12543120 12572569 12585084 12579910 12560201 12532013 12502693 
2783.489 12480351 12472170 12484116 12520120 12581035 12664731 12764135 
2786.864 12869831 12970346 13055311 13117896 13156594 13174749 13180764 
2790.240 13184071 13192610 13212374 13244485 13288111 13340548 13399646 
2793.615 13463635 13531390 13600295 13666983 13724981 13767447 13787253 
2796.990 13782131 13752730 13707471 13659761 13625916 13623198 13664384 
2800.365 13753719 13886926 14048264 14214654 14359611 14461122 14504965 
2803.740 14491761 14434551 14356733 14286976 14250118 14260282 14320406 
2807.116 14419985 14541163 14663146 14769643 14850556 14904646 14936988 
2810.491 14956329 14971529 14990221 15017031 15053945 15100870 15155745 
2813.866 15214884 15273383 15324729 15364664 15391198 15406399 15417732 
2817.241 15434929 15468675 15526355 15609787 15714064 15829744 15945468 
2820.617 16050924 16141649 16218388 16287485 16356604 16432863 16518539 
2823.992 16611643 16705735 16793032 16865938 16921690 16959706 16985296 
2827.367 17004816 17025478 17053276 17090586 17137984 17192722 17251376 
2830.742 17310148 17365898 17417668 17466700 17515366 17566910 17623802 
2834.118 17685572 17749848 17811664 17865118 17906290 17935366 17957584 
2837.493 17982482 18021222 18082688 18169660 18276720 18391940 18499472 
2840.868 18586122 18644994 18679610 18703524 18735478 18795664 18899204 
2844.243 19050832 19246946 19475420 19720404 19968098 20208354 20437222 
2847.619 20655750 20867676 21078554 21291456 21507730 21725746 21942624 
2850.994 22153840 22356118 22547240 22727378 22898652 23064894 23230444 
2854.369 23396174 23560908 23718684 23861772 23983308 24080870 24157616 
2857.744 24224642 24296808 24389480 24513876 24673120 24862118 25068802 
2861.120 25278488 25478994 25662748 25829544 25985090 26140312 26307336 
2864.495 26499828 26729752 27007340 27339910 27729976 28174890 28665310 
2867.870 29187604 29726828 30269386 30808750 31343936 31880214 32423924 
2871.245 32979186 33543960 34108388 34657116 35175412 35651080 36081416 
2874.621 36472308 36837464 37194192 37557720 37939060 38341368 38758204 
2877.996 39177964 39582048 39950264 40262724 40502836 40658764 40725912 
2881.371 40706600 40608460 40442152 40219672 39951888 39648680 39318408 
2884.746 38971660 38620164 38278992 37963536 37688456 37463512 37292840 
2888.122 37175356 37104476 37073304 37074060 37101360 37150948 37218224 
2891.497 37297948 37384020 37470428 37553696 37635820 37720336 37814972 
2894.872 37925752 38054368 38195108 38336500 38462908 38560472 38621136 
2898.247 38646276 38646372 38638828 38643280 38675068 38742144 38843156 
2901.623 38967992 39101024 39225964 39329324 39404540 39452080 39478792 
2904.998 39495472 39513452 39540772 39580516 39629716 39681020 39725580 
2908.373 39757228 39774856 39785032 39801180 39840508 39919176 40049332 
2911.748 40234412 40469900 40744264 41042408 41350780 41658932 41962364 
2915.124 42261164 42558440 42859268 43167764 43487332 43821084 44171552 
2918.499 44539460 44924108 45320836 45719908 46110404 46479860 46821412 
2921.874 47134240 47427832 47717960 48024252 48363612 48746056 49172244 
2925.249 49634080 50119328 50617712 51121712 51632420 52155724 52699632 
2928.625 53273176 53883000 54534748 55235180 55992548 56817596 57720880 
2932.000 58711356 59791804 60957704 62200744 63509448 64876592 66300108 
2935.375 67785360 69342520 70982616 72713496 74537112 76449288 78439744 
2938.750 80495008 82597744 84729472 86868120 88987200 91057064 93047280 
2942.125 94926952 96667976 98245216 99637624 100825280 101788928 102513168 
2945.501 102987448 103210816 103195656 102966696 102559416 102013912 
2948.394 101366512 100645480 99868848 99044416 98173384 97255312 96292936 
2951.769 95292336 94264824 93224552 92187976 91171224 90190176 89257624 
2955.144 88382944 87569176 86811944 86101336 85422624 84763856 84117336 
2958.520 83484552 82872480 82290928 81747080 81237456 80748976 80260320 
2961.895 79747688 79194168 78593880 77953816 77291360 76626320 75975904 
2965.270 75346760 74737296 74139288 73542928 72941864 72336424 71730456 
2968.645 71129168 70535544 69949176 69366432 68784480 68205408 67637328 
2972.021 67095644 66597476 66156992 65779536 65459512 65182568 64928816 
2975.396 64679688 64424104 64161552 63902596 63665688 63471632 63340648 
2978.771 63288824 63327052 63461728 63696116 64031048 64464808 64992936 
2982.146 65607592 66298776 67057548 67876688 68756128 69701416 70723752 
2985.521 71834888 73043512 74350432 75748456 77221944 78750992 80314744 
2988.897 81894560 83472232 85029464 86543064 87984328 89318280 90507320 
2992.272 91516984 92321480 92907272 93274184 93433512 93403576 93204320 
2995.647 92854928 92369336 91759840 91035552 90204360 89273640 88249656 
2999.022 87137968 85944432 84671936 83325152 81908224 80425016 78880600 
3002.398 77281168 75633440 73946664 72232608 70506096 68781760 67074164 
3005.773 65393716 63746296 62132092 60549664 58996384 57474692 55987680 
3009.148 54542232 53142192 51786268 50466168 49168324 47875600 46575912 
3012.523 45263460 43944900 42635816 41358548 40135792 38986440 37922172 
3015.899 36946620 36054076 35233328 34467024 33735292 33017590 32295846 
3019.274 31558912 30805046 30041446 29285426 28555582 27869994 27237908 
3022.649 26660194 26130576 25639818 25180450 24750196 24352412 23992300 
3026.024 23672388 23387770 23126804 22870906 22603350 22311670 21993432 
3029.400 21656402 21313020 20979316 20667616 20384658 20132376 19908718 
3032.775 19711552 19539642 19392894 19270398 19169088 19082350 19001708 
3036.150 18917472 18822400 18712398 18588898 18457308 18324158 18196286 
3039.525 18077470 17968736 17868964 17776006 17687216 17604016 17529580 
3042.901 17469532 17431428 17421318 17441350 17488476 17553000 17622248 
3046.276 17681912 17720410 17732422 17718346 17684814 17641134 17595502 
3049.651 17552718 17513306 17476950 17441198 17407692 17379192 17359498 
3053.026 17350146 17348784 17346504 17332732 17298452 17240160 17164516 
3056.402 17087008 17026712 17002520 17022850 17084754 17171322 17258740 
3059.777 17320718 17339268 17306660 17230990 17130736 17030460 16952670 
3063.152 16913608 16916374 16954196 17011370 17069592 17112296 17130940 
3066.527 17123342 17096390 17060372 17026708 17003540 16995604 17001876 
3069.903 17020722 17048846 17082850 17119650 17155430 17183592 17196602 
3073.278 17186096 17147220 17081304 16996798 16908964 16834216 16784942 
3076.653 16766410 16771724 16785916 16790094 16768970 16715296 16633200 
3080.028 16535170 16439801 16362393 16314004 16296294 16305462 16332414 
3083.404 16367028 16399270 16421903 16426539 16406341 16355813 16271524 
3086.779 16155750 16017795 15872151 15738074 15631502 15564049 15537586 
3090.154 15543325 15565019 15583714 15581686 15547948 15480510 15386517 
3093.529 15279958 15179179 15102536 15064964 15074674 15132624 15230124 
3096.905 15353606 15483260 15600298 15686642 15731048 15727783 15679210 
3100.280 15595293 15489948 15380315 15282713 15209934 15170503 15163711 
3103.655 15182602 15213772 15242248 15253145 15239073 15199287 15142627 
3107.030 15082310 15033842 15007751 15008309 15032195 15070260 15110107 
3110.406 15142255 15158881 15158519 15141372 15109516 15066279 15012605 
3113.781 14951922 14886948 14820913 14757886 14697660 14639295 14577575 
3117.156 14507068 14423701 14329145 14229758 14136094 14060576 14010523 
3120.531 13987619 13987377 14001139 14021485 14043824 14069518 14101281 
3123.906 14141001 14184712 14222054 14237748 14218698 14158508 14062716 
3127.282 13948053 13837449 13751107 13701289 13686333 13693571 13705215 
3130.657 13707221 13694766 13676544 13667957 13687464 13744726 13838607 
3134.032 13952877 14063202 14142292 14170082 14137614 14048757 13919345 
3137.407 13771530 13627890 13507529 13422222 13376071 13364676 13377974 
3140.783 13401779 13421181 13423660 13400591 13350496 13278089 13192835 
3144.158 13107140 13032360 12977657 12947662 12944069 12963313 12999402 
3147.533 13043510 13085099 13112800 13118496 13098801 13057925 13007445 
3150.908 12966645 12954190 12984424 13062435 13181182 13323710 13468198 
3154.284 13595009 13691045 13751529 13780138 13783301 13767658 13736056 
3157.659 13687856 13621463 13536772 13437998 13334127 13236579 13157187 
3161.034 13104213 13083369 13095411 13137396 13203303 13284898 13370438 
3164.409 13447429 13503273 13529371 13523488 13491645 13446125 13403668 
3167.785 13377622 13375949 13398657 13440244 13492665 13552207 13617180 
3171.160 13690454 13772029 13855758 13926774 13966484 13956181 13890525 
3174.535 13779493 13649947 13538542 13479393 13490577 13570434 13693270 
3177.910 13822111 13917814 13953756 13921929 13832735 13708399 13573715 
3181.286 13447620 13340766 13254538 13187984 13141643 13119142 13126666 
3184.661 13169345 13245491 13346283 13456170 13558102 13637359 13688163 
3188.036 13713916 13724738 13734177 13753863 13789033 13838626 13893363 
3191.411 13943631 13977678 13989725 13978054 13949280 13912371 13878769 
3194.787 13857557 13853660 13864307 13881907 13894700 13893586 13872886 
3198.162 13835167 13788980 13747063 13720869 13717904 13737321 13772701 
3201.537 13813127 13848532 13871622 13880355 13875904 13860410 13834510 
3204.912 13797769 13746968 13681564 13604557 13524206 13451130 13397676 
3208.288 13370067 13368642 13383748 13402402 13409678 13398157 13368803 
3211.663 13335896 13320598 13347422 13433369 13584282 13788169 14018069 
3215.038 14236237 14405958 14498337 14502989 14427623 14299251 14153084 
3218.413 14025519 13943384 13920370 13953594 14030153 14131097 14240166 
3221.789 14345715 14442133 14527475 14600867 14657986 14691377 14692279 
3225.164 14653334 14571185 14450134 14299898 14136025 13974822 13832708 
3228.539 13722320 13652529 13627555 13645801 13700471 13780239 13870849 
3231.914 13957812 14028691 14076006 14097798 14098169 14082952 14059828 
3235.290 14033451 14007606 13983594 13962606 13946596 13936972 13934064 
3238.665 13935814 13935830 13926411 13899647 13852488 13788724 13719630 
3242.040 13661256 13631071 13640258 13693505 13783774 13896114 14010236 
3245.415 14105391 14163318 14174007 14134495 14052048 13941653 13825688 
3248.791 13728503 13673035 13673652 13733854 13841714 13974744 14102709 
3252.166 14198725 14242739 14230478 14169979 14082238 13990013 13915083 
3255.541 13871393 13864843 13892282 13945557 14012913 14080942 14134712 
3258.916 14160577 14148056 14093205 14001573 13890502 13784423 13712147 
3262.292 13695732 13745346 13852403 13994664 14140256 14257499 14325171 
3265.667 14337339 14302839 14242088 14176623 14125464 14098566 14097366 
3269.042 14115963 14146383 14180969 14212718 14235613 14244060 14232255 
3272.417 14195695 14132509 14047624 13950447 13855880 13778268 13728032 
3275.792 13709123 13717935 13744946 13780190 13816318 13852241 13890476 
3279.168 13938157 13998256 14070884 14150125 14227194 14292649 14342749 
3282.543 14379241 14409373 14440721 14477132 14514987 14542626 14543002 
3285.918 14502683 14415496 14289792 14144260 14008818 13908887 13864824 
3289.293 13879073 13941640 14030760 14121895 14194994 14238493 14249831 
3292.669 14233626 14195270 14140148 14070026 13987867 13896098 13804091 
3296.044 13722534 13661800 13627514 13618256 13623117 13629300 13624341 
3299.419 13605364 13579758 13564193 13576110 13628335 13721441 13841866 
3302.794 13966535 14070138 14132658 14146441 14117100 14061104 13999448 
3306.170 13951384 13929304 13938081 13974973 14033897 14105128 14179152 
3309.545 14247218 14302238 14337999 14353936 14351484 14336615 14315536 
3312.920 14293786 14271695 14246828 14211525 14159910 14089537 14005499 
3316.295 13919669 13848573 13808529 13811203 13859496 13947330 14060621 
3319.671 14180285 14285330 14358405 14386496 14365799 14303519 14216545 
3323.046 14130439 14072998 14066812 14121572 14229084 14364788 14493753 
3326.421 14582912 14612081 14581348 14510845 14433975 14382599 14377105 
3329.796 14416962 14483575 14545975 14576734 14558995 14494527 14400044 
3333.172 14299852 14215810 14160749 14136132 14134495 14144461 14157557 
3336.547 14168867 14176833 14180891 14178807 14166336 14139225 14095906 
3339.922 14039951 13977053 13914811 13857915 13806818 13758392 13709952 
3343.297 13662506 13623770 13604596 13615060 13657521 13722041 13786133 
3346.673 13823045 13808133 13731519 13601252 13443975 13294281 13187118 
3350.048 13144663 13171421 13253424 13366047 13480056 13573810 13634295 
3353.423 13661490 13663454 13653526 13643485 13642304 13651896 13669572 
3356.798 13688149 13699548 13696463 13674956 13635470 13583729 13527818 
3360.174 13476050 13434383 13404280 13382147 13362371 13338428 13307620 
3363.549 13271066 13232704 13199056 13175185 13162783 13162081 13170606 
3366.924 13188478 13215922 13254181 13303380 13359686 13414887 13458047 
3370.299 13477665 13467758 13429216 13372175 13311399 13262895 13237050 
3373.675 13237363 13255275 13276574 13282419 13257344 13191517 13085488 
3377.050 12948962 12801231 12664763 12564282 12518312 12535457 12610999 
3380.425 12728254 12860466 12979954 13063651 13102598 13102657 13082471 
3383.800 13067028 13078507 13127664 13212827 13319071 13426823 13517968 
3387.176 13581960 13618330 13633300 13635918 13634346 13630844 13625754 
3390.551 13618510 13610354 13607072 13616720 13645086 13694569 13759383 
3393.926 13829781 13893163 13939531 13963203 13965980 13951605 13925752 
3397.301 13892618 13853681 13810300 13766111 13728166 13707714 13716141 
3400.677 13761641 13844235 13955531 14080744 14200998 14301369 14372966 
3404.052 14414067 14430573 14430111 14420989 14407532 14391795 14374112 
3407.427 14355857 14338962 14325711 14317133 14311743 14303385 14286586 
3410.802 14256314 14215197 14171897 14142397 14143712 14188866 14280284 
3414.177 14408967 14557004 14701099 14823415 14915479 14981273 15034963 
3417.553 15093822 15172944 15278074 15404522 15538689 15664777 15767885 
3420.928 15839297 15875675 15879055 15852185 15798140 15718976 15619737 
3424.303 15507635 15395854 15299755 15233908 15206580 15217092 15255486 
3427.678 15306394 15353644 15386679 15402847 15408114 15411887 15424388 
3431.054 15451252 15496273 15557737 15635198 15727738 15835948 15957188 
3434.429 16086290 16211070 16318057 16394351 16434869 16444081 16436372 
3437.804 16428888 16434534 16453657 16473128 16466565 16405951 16270528 
3441.179 16056366 15778791 15471004 15172175 14921257 14744051 14651393 
3444.555 14639384 14693879 14796347 14927683 15070253 15209530 15330739 
3447.930 15423254 15479321 15497184 15482264 15446778 15405971 15375089 
3451.305 15363719 15375340 15405916 15448865 15495647 15542552 15588780 
3454.680 15636988 15688101 15742354 15794076 15835861 15859487 15860075 
3458.056 15837973 15800692 15759002 15727147 15715785 15731299 15771266 
3461.431 15826890 15882764 15921727 15926957 15886616 15797090 15663935 
3464.806 15502452 15335840 15190891 15094053 15066917 15122618 15262362 
3468.181 15475992 15743475 16037686 16328078 16586175 16786598 16913018 
3471.557 16957938 16925976 16829432 16692031 16541686 16408769 16320396 
3474.932 16297290 16349137 16473647 16657243 16877372 17106100 17318372 
3478.307 17493656 17620964 17699566 17738298 17751022 17754414 17761892 
3481.682 17783960 17824130 17883810 17959034 18047250 18144726 18249360 
3485.058 18358004 18467620 18572478 18668602 18752356 18825612 18897132 
3488.433 18981668 19097132 19262282 19487572 19772710 20102984 20451124 
3491.808 20782428 21063680 21269366 21388386 21424680 21396170 21326434 
3495.183 21240362 21157320 21091524 21050032 21038604 21060774 21122904 
3498.559 21228662 21380310 21573288 21796460 22032666 22262848 22468880 
3501.934 22639188 22767750 22855238 22904452 22920570 22906514 22864284 
3505.309 22795280 22703622 22594732 22478506 22364498 22262850 22179814 
3508.684 22118582 22076322 22045494 22015134 21973198 21906824 21808568 
3512.060 21675118 21512020 21329062 21140294 20959288 20796310 20654912 
3515.435 20534848 20432238 20344834 20272286 20217558 20183598 20169002 
3518.810 20166806 20163896 20146690 20106316 20041462 19961352 19879092 
3522.185 19806626 19744076 19679732 19591966 19460540 19276348 19051330 
3525.561 18817884 18621664 18504174 18491920 18581038 18743308 18931442 
3528.936 19099758 19211892 19258456 19247938 19204610 19152258 19108190 
3532.311 19074660 19043840 19001522 18935244 18838842 18714444 18571288 
3535.686 18424790 18291184 18187910 18129794 18125980 18177202 18273166 
3539.062 18392772 18509696 18596618 18637144 18628166 18582244 18519570 
3542.437 18461748 18420064 18394892 18373272 18341072 18286992 18213764 
3545.812 18134814 18069038 18031310 18026390 18042514 18060192 18057292 
3549.187 18021082 17953088 17870680 17798732 17761990 17774160 17835626 
3552.563 17931874 18041024 18138888 18208664 18242714 18247214 18234434 
3555.938 18224864 18236156 18281086 18359772 18459962 18556004 18618426 
3559.313 18617848 18540986 18391060 18192874 17983202 17801678 17676226 
3562.688 17616058 17608176 17627156 17641248 17630254 17587000 17522354 
3566.063 17454938 17405914 17387590 17402610 17443460 17496870 17550900 
3569.439 17595252 17622750 17627284 17603102 17545762 17453818 17334806 
3572.814 17203564 17082232 16991880 16948558 16954676 16999716 17063454 
3576.189 17123616 17161150 17167058 17143246 17099290 17046450 16996478 
3579.564 16955844 16927550 16910762 16902362 16896364 16884958 16857358 
3582.940 16804666 16719440 16601071 16457113 16303051 16157964 16041297 
3586.315 15965303 15932873 15935494 15955171 15967883 15950091 15882673 
3589.690 15756130 15573339 15352191 15120447 14911738 14756825 14676139 
3593.065 14671979 14729714 14820767 14914130 14987080 15032991 15060869 
3596.441 15091042 15142160 15223622 15327497 15435022 15521387 15570438 
3599.816 15578548 15558105 15529221 15512865 15519280 15547154 15584196 
3603.191 15618474 15641548 15657149 15674682 15705494 15755620 15820727 
3606.566 15888866 15946042 15981259 15992936 15985532 15966767 15940996 
3609.942 15906515 15855955 15783390 15690260 15588410 15498626 15445330 
3613.317 15444733 15504106 15613932 15758513 15919842 16086070 16252359 
3616.692 16421132 16590573 16755352 16898864 17001944 17046270 17026722 
3620.067 16951152 16844042 16735092 16654979 16621904 16643766 16713917 
3623.443 16820006 16946398 17082058 17218368 17353758 17486644 17617386 
3626.818 17745256 17868796 17983016 18082682 18161580 18213986 18238428 
3630.193 18238780 18225140 18213442 18221096 18261252 18338314 18446698 
3633.568 18569368 18688790 18785342 18850482 18881750 18886814 18873222 
3636.944 18851092 18824200 18797054 18775272 18770316 18796966 18874998 
3640.319 19017990 19231488 19508580 19828922 20162852 20479702 20751204 
3643.694 20958838 21094488 21161282 21172158 21147662 21111038 21085550 
3647.069 21087234 21121984 21182838 21251916 21307290 21333024 21323952 
3650.445 21294898 21271108 21282374 21349444 21475776 21642268 21816672 
3653.820 21960700 22045360 22058580 22007460 21911258 21794278 21673598 
3657.195 21556328 21439404 21317668 21189518 21062580 20949864 20868946 
3660.570 20829550 20832538 20867364 20913628 20951176 20965128 20947470 
3663.946 20902504 20839444 20774276 20718816 20686472 20681566 20702992 
3667.321 20740550 20775040 20779742 20725088 20588154 20357476 20040704 
3670.696 19664556 19265746 18885156 18552186 18279020 18057394 17867498 
3674.071 17681638 17479870 17253092 17008190 16761540 16535172 16344713 
3677.447 16196569 16085321 15997689 15914964 15820399 15702670 15557829 
3680.822 15389444 15208229 15027477 14862461 14725249 14626190 14568985 
3684.197 14555248 14579820 14633726 14702925 14770177 14813405 14813121 
3687.572 14751680 14622770 14432304 14204074 13970268 13770347 13635260 
3690.948 13582531 13609097 13691678 13795509 13885055 13932537 13928431 
3694.323 13880122 13808467 13739634 13694126 13680970 13699925 13736799 
3697.698 13776648 13802541 13805578 13780305 13729067 13655930 13569917 
3701.073 13479190 13394625 13325504 13278876 13256978 13254128 13257956 
3704.448 13251885 13218586 13148515 13039440 12904346 12762791 12640402 
3707.824 12556120 12521475 12533380 12578607 12637597 12692018 12730348 
3711.199 12752450 12765882 12784525 12819536 12873657 12937836 12994593 
3714.574 13020226 12996726 12914898 12781180 12616038 12450129 12312612 
3717.949 12227573 12203091 12233723 12300499 12382693 12461433 12530012 
3721.325 12591649 12658900 12744688 12855866 12986604 13119125 13225692 
3724.700 13281154 13268313 13185903 13050954 12894451 12750618 12650696 
3728.075 12610757 12630688 12694580 12777796 12855306 12906055 12920929 
3731.450 12899545 12850363 12785589 12719305 12664848 12632447 12632458 
3734.826 12669257 12744359 12849921 12971366 13087234 13176051 13221697 
3738.201 13219158 13177780 13117533 13063517 13037595 13050520 13100808 
3741.576 13172481 13245548 13299259 13321729 13310690 13276012 13231318 
3744.951 13193619 13174676 13182753 13216107 13271250 13338550 13407247 
3748.327 13462438 13492848 13486819 13442329 13363505 13264992 13164706 
3751.702 13083071 13030866 13012740 13020929 13044164 13069412 13090150 
3755.077 13106380 13124620 13151143 13188590 13229812 13262131 13266596 
3758.452 13230009 13146082 13021834 12875841 12732212 12615805 12546342 
3761.828 12531749 12570033 12649663 12754572 12865297 12966629 13048251 
3765.203 13106887 13146673 13176659 13206778 13244453 13289187 13332045 
3768.578 13356785 13345528 13284406 13169378 13009626 12827812 12651513 
3771.953 12510448 12424896 12405953 12450116 12546579 12676088 12820136 
3775.329 12960576 13083661 13180679 13246569 13279800 13281749 13256184 
3778.704 13207519 13140415 13060294 12972332 12884981 12807840 12753535 
3782.079 12734451 12761083 12837615 12961298 13121416 13303583 13491509 
3785.454 13671911 13835304 13973703 14077598 14135334 14130677 14048924 
3788.830 13882588 13637991 13337797 13018344 12721019 12483665 12329944 
3792.205 12263538 12271427 12328570 12406753 12484324 12546591 12588856 
3795.580 12612377 12620443 12616722 12604508 12587979 12573346 12566701 
3798.955 12576412 12606168 12659021 12734093 12830002 12945361 13080942 
3802.331 13233714 13397459 13559232 13699963 13799561 13843767 13828867 
3805.706 13767811 13682580 13603053 13550981 13534000 13541567 13549642 
3809.081 13530743 13464379 13344550 13184358 13008488 12847736 12726923 
3812.456 12661708 12655797 12704887 12799831 12933270 13097707 13284246 
3815.832 13480796 13670277 13830245 13940906 13986674 13962926 13876783 
3819.207 13746986 13597006 13452359 13333213 13252707 13214816 13214440 
3822.582 13242532 13286466 13333219 13370916 13390485 13384891 13350678 
3825.957 13288724 13205035 13111234 13022907 12958596 12936706 12970424 
3829.333 13065019 13214892 13401790 13598733 13774245 13900791 13959259 
3832.708 13945010 13865314 13740266 13592144 13442971 13306966 13193227 
3836.083 13102267 13032557 12979358 12940241 12912137 12892740 12879749 
3839.458 12871751 12868879 12876780 12902248 12954788 13038514 13152289 
3842.833 13282016 13406262 13499353 13538796 13512369 13425705 13299206 
3846.209 13163952 13052694 12991642 12992372 13051692 13152154 13271416 
3849.584 13385313 13477902 13539907 13571315 13574173 13552712 13508216 
3852.959 13441830 13353811 13248399 13134729 13025546 12935906 12878433 
3856.334 12858929 12875344 12920483 12981092 13045324 13103390 13149356 
3859.710 13181803 13198532 13197731 13175786 13128687 13056560 12965977 
3863.085 12870086 12788239 12735525 12722794 12745414 12788685 12828357 
3866.460 12844283 12824196 12774279 12714537 12674797 12684902 12762953 
3869.835 12908597 13104301 13318303 13516095 13668175 13757314 13777784 
3873.211 13736027 13645224 13524124 13391358 13267107 13169754 13112503 
3876.586 13101319 13130654 13185500 13242305 13278404 13277723 13237787 
3879.961 13171284 13101528 13054952 13050092 13093061 13174283 13274848 
3883.336 13373499 13456224 13518735 13567512 13612278 13661469 13714566 
3886.712 13764042 13796655 13801872 13776829 13727750 13667618 13611113 
3890.087 13566806 13536782 13514290 13491270 13463437 13436115 13421788 
3893.462 13436843 13491435 13584542 13699922 13810131 13886149 13907000 
3896.837 13867457 13780650 13671299 13565969 13483923 13430118 13394663 
3900.213 13360891 13312395 13245128 13164167 13086448 13028518 13001330 
3903.588 13004108 13026178 13051773 13069684 13075470 13076041 13082350 
3906.963 13104184 13141939 13186621 13221787 13231771 13207297 13151615 
3910.338 13077119 12999999 12933570 12884103 12848208 12820271 12795333 
3913.714 12776921 12772876 12794966 12849212 12931972 13028873 13119659 
3917.089 13185490 13219814 13227330 13223330 13224827 13239541 13263028 
3920.464 13279059 13267470 13217641 13134283 13041346 12973276 12964129 
3923.839 13032400 13174327 13363347 13559384 13721529 13822353 13851858 
3927.215 13819322 13745718 13655437 13567368 13492930 13437371 13401879 
3930.590 13387249 13395453 13426637 13480279 13548908 13624386 13695944 
3933.965 13756619 13801931 13832404 13847377 13846443 13824212 13777121 
3937.340 13702272 13605714 13500321 13405828 13342094 13323073 13350755 
3940.716 13414365 13494314 13568361 13620443 13645547 13649059 13647171 
3944.091 13654373 13683047 13734788 13802353 13871255 13924756 13947419 
3947.466 13932248 13877509 13793220 13693484 13598082 13527196 13497714 
3950.841 13516775 13582291 13677780 13780296 13861716 13900112 13883455 
3954.217 13815545 13713943 13606248 13518874 13472568 13472756 13512057 
3957.592 13573043 13634969 13680389 13702813 13704745 13696630 13691153 
3960.967 13696262 13713010 13733069 13741756 13725428 13675346 13594409 
3964.342 13495715 13403096 13343159 13338028 13397655 13517168 13674743 
3967.718 13840717 13982492 14077250 14117542 14115014 14094449 14087936 
3971.093 14120953 14205983 14334166 14480304 14607904 14684428 14687271 
3974.468 14615349 14485771 14330672 14184184 14075126 14016127 14004409 
3977.843 14023113 14052056 14073028 14078720 14072185 14067641 14079851 
3981.219 14120786 14192322 14287294 14388677 14477583 14536166 14554165 
3984.594 14528769 14465685 14374631 14266511 14150384 14033171 13916735 
3987.969 13803342 13696058 13602471 13534046 13507437 13539448 13643698 
3991.344 13822756 14067208 14350962 14636430 14879313 15041400 15096747 
3994.719 15042896 14899583 14705913 14507944 14347870 14251725 14223932 
3998.095 14248886 14297889 14339557 14351708 14327380 14274985 
##END=
