##TITLE=3D-Fillies_PLA-Rainbow_Salmon-Pink_Filament_r4_ATR-Corrected
##JCAMP-DX=5.01  $$ Nicolet v. 1
##DATATYPE=INFRARED SPECTRUM
##ORIGIN=Curtin University
##OWNER=Nicolet
##LONGDATE=2024/07/18
##TIME=16:43:09
##SPECTROMETER/DATA SYSTEM=Nicolet iS50
##DATA PROCESSING=
Ratio against background
%Transmittance->Absorbance
ATR Correction
Truncated
ElementMultiply or ElementDivide
##COMMENTS=
Number of sample scans: 32
Collection length: 47.29 sec
Sample gain: 1.0
Background collected on: Thu Jul 18 16:40:48 2024 (GMT+08:00);
Number of background scans: 32
Background gain: 1.0
Sample spacing:  1.000
Number of scan points: 16672
Resolution points: 8192
Number of FFT points: 65536
Apodization: N-B strong;
Phase correction: Mertz;
Laser frequency: 15798.3 cm-1
Number of rejected sample scans: 0
Number of rejected background scans: 0
Bench serial number: AUP1200105;
##RESOLUTION=4.000
##XUNITS=1/CM
##YUNITS=ABSORBANCE
##FIRSTX=400.163452
##LASTX=4000.187744
##FIRSTY=0.053687
##MAXX=4000.187744
##MINX=400.163452
##MAXY=0.896959
##MINY=-0.026477
##XFACTOR=1.000000
##YFACTOR=1.000000E-009
##NPOINTS=7468
##DELTAX=0.482125
##ZPD=8192
##XYDATA=(X++(Y..Y))
400.163 53687444 54098036 54510228 54834180 55010164 55016172 54843164 
403.538 54479944 53909408 53112832 52084108 50840596 49429500 47924400 
406.913 46416868 45001628 43762708 42759712 42019088 41530832 41251000 
410.288 41110192 41027312 40924200 40740904 40444828 40034520 39534404 
413.663 38984404 38425920 37890220 37392360 36931480 36495244 36065968 
417.038 35625532 35157280 34647068 34084772 33467926 32806814 32127604 
420.412 31472762 30894184 30441288 30147024 30016520 30023926 30119204 
423.787 30242080 30339872 30379960 30354352 30274240 30159048 30024582 
427.162 29876310 29708030 29507644 29263542 28971126 28634200 28264766 
430.537 27879524 27497704 27140306 26829642 26586378 26433834 26386626 
433.912 26448850 26610614 26850442 27139348 27448826 27757168 28052342 
437.286 28329944 28588774 28824888 29029122 29187108 29283338 29305364 
440.661 29247654 29111130 28902970 28634092 28318744 27974900 27625794 
444.036 27298592 27021398 26816148 26691524 26638740 26632288 26636436 
447.411 26616422 26549466 26431994 26279628 26120846 25986338 25899576 
450.786 25869580 25891556 25950172 26026690 26104710 26174444 26233372 
454.161 26284650 26334524 26389714 26454990 26532310 26619074 26708818 
457.535 26791042 26853288 26882964 26869846 26806878 26690942 26521962 
460.910 26302638 26039890 25746812 25445036 25165414 24940804 24808260 
464.285 24788456 24880174 25055570 25265146 25449136 25554710 25551216 
467.660 25438016 25242228 25006854 24774476 24572850 24407344 24264120 
471.035 24120316 23957564 23771980 23577874 23402102 23273392 23210786 
474.409 23215574 23269726 23341864 23395994 23402396 23344676 23223458 
477.784 23054700 22865424 22687238 22550160 22477090 22480214 22558354 
481.159 22697304 22871190 23046472 23187442 23262168 23248584 23139460 
484.534 22944268 22689708 22415316 22167848 21993126 21927408 21989504 
487.909 22176492 22463168 22807282 23158542 23471038 23713060 23874320 
491.284 23965590 24013814 24052124 24110242 24206704 24346114 24519880 
494.658 24716310 24921746 25126270 25325432 25518502 25704864 25881632 
498.033 26041968 26176518 26275820 26333292 26346944 26319304 26254754 
501.408 26157170 26027830 25865308 25667508 25435568 25176976 24906804 
504.783 24645620 24415212 24231798 24101740 24019040 23968262 23930368 
508.158 23889686 23839186 23781728 23726494 23682524 23652332 23628764 
511.532 23596822 23539282 23444836 23313786 23159336 23003280 22867688 
514.907 22766814 22701208 22658114 22616112 22553504 22455818 22320210 
518.282 22155204 21977606 21806654 21659714 21548460 21477954 21445098 
521.657 21439638 21443896 21435244 21389310 21286340 21116742 20885644 
525.032 20610736 20322972 20053150 19824992 19649404 19524328 19438860 
528.406 19380396 19340580 19316750 19308968 19314842 19324804 19321892 
531.781 19286762 19205594 19077816 18919474 18758996 18628450 18552272 
535.156 18538946 18579428 18651994 18731188 18797184 18840540 18861962 
538.531 18867394 18862198 18847140 18818480 18771160 18703146 18618356 
541.906 18525852 18436936 18360852 18301834 18259128 18228968 18207348 
545.281 18191856 18181598 18175444 18170534 18162406 18146914 18123450 
548.655 18097022 18077534 18076348 18100856 18150314 18214870 18279128 
552.030 18327684 18351674 18350712 18331500 18301990 18265354 18217298 
555.405 18147894 18048160 17920598 17781598 17661400 17595396 17612158 
558.780 17720880 17906490 18131674 18348054 18510236 18588800 18576792 
562.155 18488560 18351972 18198278 18053598 17935114 17851620 17807188 
565.529 17804390 17845880 17931774 18057206 18209274 18368016 18510150 
568.904 18615628 18673150 18684198 18661532 18625512 18597618 18595344 
572.279 18628654 18700584 18808082 18944952 19102726 19270860 19436328 
575.654 19583654 19696698 19763126 19778368 19749130 19693160 19635920 
579.029 19603808 19617206 19685408 19804886 19962052 20138626 20316056 
582.404 20479552 20617666 20722032 20784802 20799952 20765138 20685388 
585.778 20575898 20461062 20369644 20327252 20349014 20434864 20570180 
589.153 20731758 20895502 21044074 21169656 21272300 21354950 21417850 
592.528 21455990 21461382 21427200 21353770 21250962 21136382 21029488 
595.903 20944932 20887604 20852618 20829910 20810444 20791424 20777982 
599.278 20779572 20804082 20853056 20919096 20989224 21049162 21089844 
602.652 21109458 21112348 21105222 21093010 21077914 21061054 21047080 
606.027 21047544 21080662 21166466 21319066 21539194 21811536 22108742 
609.402 22400206 22663630 22892508 23096868 23297786 23515972 23762460 
612.777 24032238 24306822 24561238 24773726 24933280 25042592 25114492 
616.152 25166926 25216130 25273572 25346172 25438040 25553126 25695496 
619.527 25868032 26070484 26296634 26535378 26772892 26995680 27194212 
622.901 27364424 27507300 27628450 27736544 27842738 27960644 28105204 
626.276 28290430 28525658 28811572 29138234 29486550 29832416 30153514 
629.651 30435368 30673598 30872844 31041536 31186166 31307508 31400922 
633.026 31460252 31483342 31476282 31453818 31435534 31439714 31477456 
636.401 31549632 31648484 31762202 31880942 32000952 32125786 32263574 
639.775 32422942 32609064 32821414 33054314 33298492 33543858 33781064 
643.150 34002644 34203064 34379404 34531708 34664252 34784988 34905056 
646.525 35035836 35186364 35361076 35559412 35777552 36011644 36260256 
649.900 36526064 36814524 37131008 37477648 37850628 38240280 38632468 
653.275 39011276 39361596 39670276 39926408 40120768 40246296 40298832 
656.650 40279824 40197428 40067336 39911108 39753032 39615584 39516444 
660.024 39466316 39469484 39525196 39629572 39777048 39960248 40170272 
663.399 40395820 40624832 40845552 41049656 41233012 41396964 41546956 
666.774 41689964 41832460 41978696 42130504 42288976 42456080 42636496 
670.149 42837308 43065920 43326796 43618248 43929896 44243260 44535064 
673.524 44782692 44970712 45095840 45168984 45212448 45254548 45320772 
676.898 45426820 45574432 45751708 45938996 46116272 46271436 46403076 
680.273 46520976 46640056 46773192 46925120 47089996 47254032 47401840 
683.648 47523484 47618804 47698084 47778028 47875144 47999920 48153652 
687.023 48329276 48515424 48701092 48880140 49052252 49222392 49397808 
690.398 49586184 49793612 50024488 50281184 50563956 50870040 51192904 
693.773 51522660 51848000 52159760 52454976 52739640 53028268 53340324 
697.147 53694736 54103440 54568300 55080120 55622340 56176280 56725900 
700.522 57261268 57778732 58278968 58764460 59236980 59697364 60144936 
703.897 60579012 60998472 61401056 61782752 62137128 62456488 62734440 
707.272 62968188 63161076 63322284 63464372 63599580 63735708 63873908 
710.647 64008496 64130164 64229048 64299240 64340660 64359404 64366812 
714.021 64377436 64407788 64475104 64597876 64796992 65096652 65526276 
717.396 66122860 66933268 68017896 69452768 71332088 73766048 76876352 
720.771 80786880 85609896 91429224 98281416 106138952 114895112 124357424 
724.146 134249456 144226336 153901664 162884624 170821712 177433056 
727.039 182537920 186061568 188025776 188527440 187711776 185748368 
729.931 182812176 179070944 174677520 169764720 164443728 158803328 
732.824 152913056 146828528 140598672 134272496 127904312 121555752 
735.717 115295056 109193688 103322448 97747368 92526768 87708608 83328480 
739.091 79408720 75957440 72969344 70427224 68304384 66569016 65186100 
742.466 64119660 63333428 62791296 62456352 62292012 62263712 62341260 
745.841 62501312 62729368 63019000 63370256 63786044 64268640 64816840 
749.216 65424724 66081488 66772960 67482880 68194320 68890856 69557200 
752.591 70179432 70745040 71243536 71665472 72002648 72247328 72392056 
755.966 72429504 72353112 72157272 71837808 71391968 70818640 70118368 
759.340 69294120 68352416 67304232 66165828 64957620 63702068 62420884 
762.715 61131760 59847560 58576384 57323784 56094552 54894912 53731476 
766.090 52609768 51531500 50493220 49487152 48503684 47535556 46580836 
769.465 45644184 44735348 43865220 43042436 42270988 41549628 40875264 
772.840 40244484 39654704 39103676 38586896 38094720 37611328 37117368 
776.214 36594384 36031336 35428928 34800936 34170628 33563740 33001476 
779.589 32494396 32040864 31629000 31241750 30862204 30477522 30080312 
782.964 29668856 29245050 28813784 28381966 27958602 27553536 27176114 
786.339 26832710 26524120 26245416 25987356 25739984 25497852 25262888 
789.714 25045564 24862060 24728992 24657340 24648152 24691108 24767064 
793.089 24852110 24923524 24963208 24959492 24906652 24803160 24650476 
796.463 24452776 24217904 23958552 23692836 23443024 23232040 23079890 
799.838 22998516 22990082 23046452 23151376 23284576 23425726 23557970 
803.213 23670372 23756920 23815550 23846384 23850932 23830838 23788808 
806.588 23728472 23654580 23571856 23483918 23391306 23290352 23174110 
809.963 23034380 22864700 22664324 22440070 22206182 21981856 21786712 
813.337 21635796 21535796 21483636 21468474 21475064 21488768 21499538 
816.712 21503848 21504512 21508480 21523322 21555488 21607836 21679714 
820.087 21767764 21866616 21970478 22073516 22170740 22259208 22337672 
823.462 22408504 22476740 22549120 22632612 22731910 22848094 22977676 
826.837 23114304 23251060 23383260 23510390 23636198 23767092 23908656 
830.212 24062614 24225858 24390870 24549190 24695630 24832660 24971242 
833.586 25129104 25327642 25584676 25909506 26300154 26743822 27220694 
836.961 27708860 28190032 28653326 29096364 29525642 29953102 30394352 
840.336 30865432 31380434 31949616 32577150 33259212 33983996 34732424 
843.711 35481568 36208884 36897736 37540048 38136972 38695484 39223532 
847.086 39724180 40192788 40618172 40987944 41296040 41549388 41771072 
850.460 41998292 42275768 42646512 43144552 43790676 44593968 45556860 
853.835 46681260 47973128 49443212 51102724 52957904 55002964 57217016 
857.210 59564160 61997500 64466232 66921352 69321448 71634512 73839096 
860.585 75923104 77883184 79722864 81451848 83083496 84632008 86109992 
863.960 87525656 88882560 90179976 91415856 92589248 93701568 94757088 
867.335 95760416 96714864 97619504 98467704 99246488 99936152 100510376 
870.709 100936208 101174576 101182464 100917544 100344432 99440352 98201016 
874.084 96641304 94793208 92698976 90403904 87949992 85373232 82703872 
877.459 79969744 77200504 74429336 71693504 69031064 66477172 64060384 
880.834 61799928 59706824 57785652 56037228 54461472 53058492 51828024 
884.209 50768204 49873948 49135948 48541500 48075560 47722848 47469440 
887.583 47303908 47216752 47198924 47241052 47331552 47457100 47603280 
890.958 47756784 47906660 48045804 48170232 48277800 48365560 48428300 
894.333 48457712 48444440 48380696 48264796 48103208 47910872 47708084 
897.708 47515460 47347620 47209508 47095256 46991452 46882688 46758756 
901.083 46619048 46473884 46341636 46242608 46192712 46198048 46253192 
904.458 46342972 46447048 46545944 46625256 46678816 46708012 46719640 
907.832 46722996 46726252 46734556 46749812 46771884 46799932 46834740 
911.207 46879800 46941352 47027332 47146080 47303712 47502808 47741724 
914.582 48015444 48316592 48636740 48967956 49303000 49634440 49954652 
917.957 50254860 50526072 50760868 50955220 51110716 51235184 51340868 
921.332 51442732 51554644 51687084 51845828 52032204 52244916 52481572 
924.706 52739904 53018432 53315460 53628836 53955520 54292652 54637880 
928.081 54990756 55353068 55727564 56116404 56518984 56931032 57344788 
931.456 57750312 58137956 58500708 58835296 59141904 59423248 59683040 
934.831 59923052 60143700 60342108 60513648 60652160 60751828 60808364 
938.206 60821516 60795688 60741132 60673276 60610408 60570696 60568292 
941.581 60611484 60701464 60834476 61003424 61202312 61427552 61678780 
944.955 61957540 62265696 62603688 62971108 63367500 63795588 64262100 
948.330 64778784 65359712 66017860 66760496 67586288 68483664 69431544 
951.705 70401912 71362616 72279936 73120264 73852024 74446008 74877432 
955.080 75127568 75184200 75043192 74706856 74183352 73484264 72625032 
958.455 71624264 70505296 69297176 68034128 66753268 65491228 64279468 
961.829 63140580 62086988 61122268 60244336 59449928 58738300 58112380 
965.204 57578984 57145548 56818028 56597772 56480884 56457484 56512912 
968.579 56629136 56785920 56962612 57140728 57306268 57452112 57579656 
971.954 57698300 57823360 57971180 58155064 58381012 58646412 58941092 
975.329 59251584 59565192 59874276 60177864 60480620 60790888 61115660 
978.703 61458780 61818892 62190104 62564328 62933824 63293844 63643620 
982.078 63986132 64327268 64673060 65029032 65398180 65781324 66176928 
985.453 66582636 66995912 67414600 67837384 68263208 68691776 69121648 
988.828 69551576 69981472 70412304 70847656 71293136 71755984 72244216 
992.203 72764800 73322816 73921384 74562472 75247336 75978112 76757320 
995.578 77587800 78471576 79408736 80397432 81434080 82514168 83632824 
998.952 84785160 85965016 87164672 88374104 89582408 90780768 91965520 
1002.327 93141624 94323576 95534736 96802712 98155480 99617568 101208320 
1005.702 102943160 104836712 106906152 109172352 111659248 114390840 
1008.595 117388560 120670064 124251928 128155824 132415488 137081632 
1011.487 142221552 147910704 154216368 161176256 168775328 176926112 
1014.380 185458416 194121120 202598464 210540992 217606656 223506848 
1017.273 228047696 231158592 232899040 233447792 233070224 232079344 
1020.166 230793888 229503616 228444512 227788160 227640048 228047520 
1023.058 229010816 230497280 232453328 234816336 237523712 240520176 
1025.951 243762560 247221584 250881248 254737056 258790768 263047840 
1028.844 267514592 272197504 277103392 282239968 287615296 293235424 
1031.737 299101568 305207456 311537088 318065856 324762176 331591680 
1034.630 338517984 345502176 352500864 359462528 366327168 373027904 
1037.523 379496416 385670752 391500544 396948384 401985024 406582976 
1040.417 410707744 414316000 417358112 419787808 421573120 422704768 
1043.310 423196704 423080352 422394752 421175968 419453792 417254656 
1046.203 414608672 411559104 408166688 404508288 400669856 396736448 
1049.096 392783776 388874240 385055488 381363552 377825216 374458496 
1051.989 371271424 368261632 365416224 362715168 360137536 357667808 
1054.882 355301504 353046816 350924288 348964384 347204256 345686688 
1057.775 344460384 343581664 343114848 343132192 343711296 344931968 
1060.668 346872992 349608896 353207616 357727296 363212640 369691040 
1063.561 377167840 385625408 395023616 405307584 416415424 428288832 
1066.454 440879936 454152992 468080352 482634336 497778816 513463552 
1069.347 529624448 546187648 563075584 580211968 597521984 614931712 
1072.240 632364416 649740672 666983040 684021440 700798720 717269696 
1075.133 733395072 749129984 764416320 779182016 793349824 806849600 
1078.026 819630656 831664000 842927552 853389568 862986880 871620416 
1080.919 879162816 885482816 890470912 894057856 896217920 896959104 
1083.813 896307520 894298112 890975872 886405312 880677888 873914624 
1086.706 866255488 857842560 848804032 839248192 829266048 818943168 
1089.599 808368384 797637760 786846464 776077312 765387840 754804736 
1092.492 744329216 733945536 723635072 713383680 703182400 693023744 
1095.385 682895808 672779008 662649984 652487744 642281024 632033280 
1098.278 621761024 611487744 601234560 591015040 580830400 570671616 
1101.171 560522112 550362816 540174912 529943808 519661376 509331104 
1104.064 498972256 488624032 478347680 468223840 458346976 448817472 
1106.957 439733920 431187488 423258720 416015872 409515456 403800320 
1109.850 398897984 394818816 391554048 389076864 387344064 386300672 
1112.743 385882752 386021600 386644800 387677408 389043232 390666752 
1115.636 392476992 394412672 396425440 398482656 400565760 402667200 
1118.529 404785152 406920032 409071712 411239520 413423104 415622784 
1121.422 417838080 420064160 422287392 424481984 426607712 428610752 
1124.315 430427520 431989088 433226656 434076000 434480928 434397472 
1127.208 433796384 432665504 431009824 428849664 426216224 423145216 
1130.102 419671808 415825248 411627040 407091872 402228768 397042016 
1132.995 391533216 385701152 379541344 373048256 366216576 359043360 
1135.888 351532640 343696512 335557088 327147072 318509120 309695232 
1138.781 300764928 291782976 282817024 273933824 265196256 256661952 
1141.674 248382080 240402368 232765184 225510672 218675696 212293232 
1144.567 206389296 200980336 196071488 191658192 187727952 184264992 
1147.460 181253456 178679680 176532976 174803296 173479312 172546480 
1150.353 171985344 171772800 171882928 172289296 172965632 173886992 
1153.246 175028640 176366128 177874656 179529152 181305872 183182992 
1156.139 185141616 187166384 189245328 191369488 193533296 195735104 
1159.032 197977088 200266032 202612704 205030816 207535488 210142304 
1161.925 212865920 215720768 218721664 221884272 225228048 228775872 
1164.818 232556064 236602064 240953264 245655520 250760224 256324704 
1167.711 262410704 269083392 276410208 284459584 293300576 303000448 
1170.604 313624576 325233920 337882112 351612608 366453632 382412992 
1173.498 399472864 417581024 436642272 456508992 476973344 497762048 
1176.391 518537632 538907840 558443392 576702336 593259008 607729664 
1179.284 619796224 629221888 635863168 639675776 640715200 639130752 
1182.177 635153792 629074880 621218496 611918464 601494912 590242624 
1185.070 578424768 566272448 553985088 541731904 529652192 517854560 
1187.963 506418528 495398144 484827200 474726336 465107456 455977664 
1190.856 447340224 439194656 431536096 424355584 417641312 411380160 
1193.749 405559040 400164896 395183904 390601184 386400864 382566848 
1196.642 379084544 375942304 373132064 370646624 368478016 366613536 
1199.535 365034528 363716160 362629888 361746080 361036160 360474240 
1202.428 360036128 359698144 359436704 359227200 359047392 358877408 
1205.321 358699520 358497088 358251680 357939904 357532704 356997184 
1208.214 356300992 355417920 354332096 353039136 351544224 349857920 
1211.107 347991392 345954816 343756832 341405984 338913280 336291680 
1214.000 333556000 330719904 327794848 324790432 321716704 318586976 
1216.894 315419776 312238656 309068576 305932288 302845920 299818048 
1219.787 296850656 293943392 291096896 288315104 285604480 282971712 
1222.680 280420800 277951616 275559488 273237920 270981888 268788320 
1225.573 266656704 264587552 262579888 260630720 258735680 256891392 
1228.466 255098192 253361456 251692112 250103296 248608656 247220032 
1231.359 245947520 244800880 243790768 242930256 242233280 241712576 
1234.252 241376192 241225232 241254720 241454688 241814816 242327360 
1237.145 242989520 243803968 244776048 245911744 247214160 248680688 
1240.038 250301600 252057696 253919776 255848768 257797696 259715232 
1242.931 261553264 263271664 264844752 266261760 267524512 268641408 
1245.824 269620384 270464704 271171904 271738016 272162944 272456896 
1248.717 272642432 272753440 272830016 272911328 273030080 273209152 
1251.610 273461728 273793376 274204544 274693280 275257088 275892896 
1254.503 276597664 277368576 278203776 279101952 280062560 281085088 
1257.396 282167840 283307456 284500064 285740576 287025248 288350272 
1260.290 289711424 291101536 292508384 293913920 295295648 296629056 
1263.183 297890112 299057632 300112256 301033632 301798080 302375360 
1266.076 302730848 302827040 302629024 302108640 301247296 300036032 
1268.969 298473856 296565344 294319616 291749216 288870944 285706368 
1271.862 282280832 278621984 274756960 270711648 266508784 262169296 
1274.755 257711776 253154464 248514688 243809056 239052080 234258000 
1277.648 229440368 224614944 219799552 215015312 210284256 205627648 
1280.541 201063536 196605536 192263184 188043280 183952880 179999792 
1283.434 176192720 172540688 169050720 165726896 162570064 159578784 
1286.327 156751648 154088016 151588704 149255120 147087312 145082576 
1289.220 143234896 141535104 139972608 138537104 137219584 136011936 
1292.113 134907248 133898096 132977440 132138176 131374296 130681408 
1295.006 130056096 129494888 128992064 128539384 128126280 127741648 
1297.899 127377776 127030912 126703840 126403736 126138328 125913400 
1300.792 125729112 125579952 125455856 125345040 125237064 125123632 
1303.686 124999200 124859016 124697952 124510000 124287744 124024272 
1306.579 123714192 123354592 122944856 122486160 121980240 121429600 
1309.472 120836288 120202952 119531680 118823928 118078824 117293064 
1312.365 116460760 115575848 114634656 113639016 112598616 111530496 
1315.258 110457272 109403944 108393224 107442880 106563392 105758520 
1318.151 105025056 104354832 103736200 103155144 102597648 102051680 
1321.044 101509224 100968064 100431736 99908520 99408544 98941480 98513656 
1324.419 98127792 97784096 97482144 97222256 97007504 96841672 96728816 
1327.794 96671920 96672704 96731800 96851904 97037896 97297544 97639744 
1331.170 98071576 98596120 99211232 99910504 100685968 101530576 102439712 
1334.545 103409832 104436616 105511344 106619176 107739512 108848808 
1337.438 109924984 110950832 111916024 112816672 113653224 114428128 
1340.331 115144680 115807440 116423672 117005928 117570912 118140016 
1343.224 118735280 119377296 120083088 120866408 121738032 122708448 
1346.117 123787872 124986200 126310480 127762320 129335240 131015208 
1349.010 132781312 134609840 136477136 138362208 140247936 142120160 
1351.903 143966640 145775216 147533648 149229056 150848384 152379536 
1354.796 153811872 155136224 156345088 157433360 158397792 159237376 
1357.689 159954016 160552016 161038592 161423424 161717760 161934192 
1360.583 162085744 162185232 162245776 162279584 162297664 162309248 
1363.476 162319520 162328208 162327392 162299712 162217936 162046544 
1366.369 161744192 161268736 160581840 159653520 158466544 157018720 
1369.262 155323888 153413168 151333680 149149504 146939088 144794112 
1372.155 142813872 141101824 139757392 138869440 138509264 138724656 
1375.048 139535216 140930288 142868192 145278640 148065024 151110944 
1377.941 154287232 157461360 160506704 163311456 165783856 167853536 
1380.834 169468848 170592928 171199568 171271184 170799312 169786464 
1383.727 168248096 166213280 163723136 160828160 157584272 154050352 
1386.620 150284480 146342448 142275040 138127632 133936928 129731920 
1389.513 125534000 121358560 117216784 113118736 109075304 105100016 
1392.406 101210456 97427768 93776296 90281608 86968728 83858600 80966712 
1395.781 78301272 75863376 73648584 71648536 69853736 68255368 66846312 
1399.157 65621860 64579496 63717544 63035228 62531376 62205956 62059540 
1402.532 62094624 62315524 62726840 63330784 64122676 65086140 66189176 
1405.907 67382608 68601568 69770144 70807744 71637960 72195440 72431608 
1409.282 72317912 71847920 71035040 69911480 68524608 66932128 65198988 
1412.658 63391188 61572468 59799724 58119808 56567060 55163064 53916300 
1416.033 52824024 51874680 51051152 50334196 49706144 49152432 48663872 
1419.408 48236520 47870132 47566356 47326780 47151472 47038632 46984356 
1422.783 46983396 47029544 47115212 47231396 47367840 47513120 47657080 
1426.159 47792120 47915608 48031276 48149076 48285268 48460460 48697616 
1429.534 49020892 49453392 50015540 50723180 51585652 52605092 53776920 
1432.909 55091552 56539500 58115420 59820836 61665740 63667356 65845556 
1436.284 68219464 70805592 73617528 76668400 79973600 83552016 87424344 
1439.660 91609304 96117888 100949240 106088240 111506704 117165576 123017728 
1443.035 129009712 135081856 141168352 147198032 153096880 158791616 
1445.928 164214720 169306528 174018336 178312768 182164208 185559728 
1448.821 188499472 190994832 193065280 194734352 196023232 196947776 
1451.714 197516048 197729520 197585248 197078016 196201456 194947840 
1454.607 193308240 191273648 188837120 185998432 182765808 179157488 
1457.500 175199728 170923088 166359824 161543552 156510048 151300320 
1460.393 145960704 140541376 135091488 129654408 124263432 118942528 
1463.286 113708904 108578200 103568328 98700856 93999776 89488256 85185904 
1466.662 81107656 77264264 73663272 70310688 67209784 64360060 61754544 
1470.037 59379672 57215440 55237716 53421892 51745000 50188104 48735992 
1473.412 47376380 46099212 44896164 43759616 42682796 41660504 40686888 
1476.787 39756108 38861356 37995548 37151860 36325344 35514960 34723008 
1480.163 33954536 33215474 32509792 31837448 31194452 30572922 29964414 
1483.538 29361448 28760670 28163160 27574298 27001510 26452720 25933888 
1486.913 25448098 24995096 24572640 24177280 23806474 23459332 23137070 
1490.288 22842898 22581094 22354930 22166648 22015688 21899246 21811856 
1493.664 21747916 21701644 21669320 21650498 21648412 21669946 21724506 
1497.039 21822548 21974186 22186804 22465554 22812384 23227618 23709642 
1500.414 24255008 24856910 25502926 26172562 26835824 27453214 27979480 
1503.789 28368476 28581032 28591860 28394932 28006232 27460476 26804938 
1507.165 26091178 25365916 24665498 24013766 23423214 22897458 22434494 
1510.540 22029170 21675176 21365740 21094744 20858094 20653340 20481164 
1513.915 20342344 20237820 20165436 20119722 20091380 20069330 20043644 
1517.290 20007622 19959344 19901652 19840084 19780458 19726550 19679410 
1520.666 19637584 19597862 19557696 19515794 19472512 19429514 19388932 
1524.041 19352430 19321054 19294858 19273118 19255004 19238754 19222382 
1527.416 19203708 19181370 19154374 19123504 19091048 19059924 19032694 
1530.791 19010508 18992220 18974854 18954136 18926346 18889184 18842692 
1534.167 18788378 18729486 18669144 18609394 18552648 18500316 18453972 
1537.542 18415454 18386450 18367270 18356518 18350736 18345782 18336996 
1540.917 18321956 18300606 18275406 18250240 18228526 18211838 18199708 
1544.292 18188726 18174846 18153738 18122728 18081068 18029850 17971228 
1547.667 17907734 17841196 17772938 17703376 17632458 17560026 17486182 
1551.043 17411242 17336370 17263306 17195212 17135736 17088634 17056814 
1554.418 17041452 17040714 17050440 17064766 17076770 17080792 17073590 
1557.793 17054212 17025178 16990304 16955404 16925782 16906794 16902634 
1561.168 16916126 16948938 17000872 17069508 17150460 17237952 17325712 
1564.544 17408484 17483012 17548596 17606978 17660656 17712772 17765184 
1567.919 17819440 17876452 17937662 18006276 18086102 18182010 18297606 
1571.294 18435110 18594392 18773992 18972116 19187784 19420972 19671982 
1574.669 19939668 20219654 20503254 20777768 21028472 21241200 21405038 
1578.045 21513326 21563618 21556274 21493138 21376880 21211848 21005386 
1581.420 20768886 20518010 20271504 20047504 19859406 19713852 19608314 
1584.795 19532646 19472834 19415146 19349850 19274092 19191048 19107578 
1588.170 19031802 18969030 18920292 18883104 18852608 18824150 18795024 
1591.546 18765824 18739800 18721408 18714550 18720972 18739770 18767528 
1594.921 18799264 18830910 18859696 18886046 18914206 18951406 19007022 
1598.296 19090754 19210864 19372310 19576082 19818814 20093434 20391592 
1601.671 20704916 21027372 21355800 21690546 22034690 22391722 22764680 
1605.047 23153166 23553812 23958500 24355772 24732362 25075038 25372764 
1608.422 25617494 25806080 25938538 26018166 26049988 26038846 25989900 
1611.797 25907838 25797304 25663822 25513602 25352622 25187424 25022664 
1615.172 24861894 24706494 24556196 24409220 24263960 24118808 23973266 
1618.548 23828444 23686894 23552554 23430310 23325882 23243892 23187784 
1621.923 23158416 23153746 23169072 23198024 23233938 23271428 23306992 
1625.298 23339570 23368874 23395690 23419896 23440546 23456580 23467320 
1628.673 23474436 23480992 23492132 23513210 23548646 23600362 23668262 
1632.049 23749454 23840764 23938632 24040254 24142844 24242758 24335228 
1635.424 24414408 24473944 24510288 24523736 24518720 24503362 24486078 
1638.799 24473728 24468840 24468896 24469286 24465002 24454858 24442848 
1642.174 24437132 24447628 24481620 24540376 24618558 24705198 24787714 
1645.550 24856902 24909418 24948688 24982778 25020222 25066446 25122258 
1648.925 25184270 25248070 25311400 25376468 25449506 25538466 25650284 
1652.300 25786918 25944372 26114446 26287664 26456410 26617316 26772148 
1655.675 26924924 27080612 27242912 27414062 27595046 27786560 27990346 
1659.051 28207616 28439250 28684538 28940804 29204580 29472604 29743404 
1662.426 30018406 30300964 30594422 30900408 31217918 31542998 31870530 
1665.801 32197006 32521442 32846480 33178258 33523966 33890816 34284544 
1669.176 34709152 35166992 35658204 36180152 36727160 37289096 37853348 
1672.552 38406304 38936828 39439324 39915080 40372040 40821904 41277040 
1675.927 41746408 42234512 42742056 43268152 43811724 44374024 44956632 
1679.302 45560984 46184412 46821400 47463216 48101104 48728516 49343548 
1682.677 49949044 50550444 51154632 51766772 52390464 53027316 53678276 
1686.052 54345624 55033012 55745284 56487736 57265300 58082304 58942724 
1689.428 59851120 60812024 61830352 62909836 64053884 65265796 66549696 
1692.803 67913760 69369704 70933032 72620424 74446432 76420656 78547552 
1696.178 80828368 83267888 85880304 88690856 91740320 95076816 98752344 
1699.553 102815128 107305144 112255512 117696264 123661008 130193920 
1702.447 137350464 145196496 153799952 163226752 173533056 184765056 
1705.340 196958704 210141040 224327904 239518080 255686256 272774848 
1708.233 290691680 309316032 328507264 348118816 368003008 388012064 
1711.126 407989152 427758560 447120032 465850048 483713184 500477792 
1714.019 515933760 529907936 542280192 552998400 562090304 569666816 
1716.912 575912512 581057216 585334272 588941248 592011136 594611776 
1719.805 596761536 598460032 599714368 600550592 601011456 601141440 
1722.698 600972864 600522176 599795328 598804352 597580544 596178560 
1725.591 594667264 593114560 591570112 590057088 588576768 587119360 
1728.484 585678784 584263488 582893824 581597376 580398528 579315200 
1731.377 578359744 577547328 576902912 576466560 576288640 576423616 
1734.270 576920832 577822912 579168640 581001984 583382080 586383616 
1737.163 590093184 594596160 599964032 606246144 613468288 621641344 
1740.056 630768448 640852416 651891136 663867264 676731712 690393600 
1742.949 704720192 719546944 734693248 749977856 765223168 780251328 
1745.843 794873152 808884352 822069184 834217664 845145600 854709952 
1748.736 862809472 869374144 874348224 877680448 879322432 879242560 
1751.629 877439232 873945664 868822656 862141952 853964608 844333888 
1754.522 833277760 820827904 807037568 791999488 775844864 758734464 
1757.415 740839808 722326656 703346624 684033600 664510272 644894464 
1760.308 625301824 605847424 586641216 567785792 549371328 531472736 
1763.201 514147808 497437440 481363968 465933952 451140864 436970912 
1766.094 423408160 410438944 398053824 386244992 375000384 364298336 
1768.987 354102912 344364672 335025696 326027712 317320192 308867104 
1771.880 300645600 292642880 284846944 277239072 269789792 262458560 
1774.773 255200928 247976304 240755888 233526560 226289696 219055920 
1777.666 211838864 204648048 197487904 190358624 183261072 176202624 
1780.559 169198736 162274944 155461648 148791136 142293312 135993440 
1783.452 129911560 124064272 118463568 113118056 108031456 103202760 
1786.345 98625456 94291288 90192488 86324224 82684880 79276064 76098720 
1789.721 73150856 70424560 67906728 65578960 63421048 61412396 59536460 
1793.096 57780672 56138428 54606568 53184768 51871752 50663108 49548616 
1796.471 48513620 47539900 46610764 45715048 44849112 44017232 43226900 
1799.846 42484056 41787400 41127232 40488148 39854160 39217208 38580640 
1803.222 37959376 37375260 36848100 36388292 35992332 35644496 35321924 
1806.597 35002260 34670604 34320388 33953640 33575924 33193630 32810320 
1809.972 32430184 32057344 31699162 31363632 31056358 30776894 30516048 
1813.347 30257898 29984904 29684826 29358368 29019586 28693370 28407924 
1816.723 28185240 28032186 27938786 27881292 27828824 27753294 27635836 
1820.098 27470064 27260592 27017910 26755014 26483390 26211156 25943798 
1823.473 25685446 25438712 25206830 24991874 24794334 24612152 24439400 
1826.848 24265288 24075266 23853482 23586154 23265676 22895944 22492260 
1830.224 22079782 21686316 21336028 21041918 20802782 20604220 20425664 
1833.599 20247246 20056370 19850794 19636066 19421408 19213736 19012738 
1836.974 18812434 18603290 18376954 18130496 17867042 17595314 17325960 
1840.349 17068148 16829466 16614903 16430305 16281908 16178006 16125841 
1843.725 16128626 16181599 16270591 16373115 16461531 16508227 16492177 
1847.100 16402844 16244134 16033145 15799114 15573218 15383864 15246681 
1850.475 15160056 15106763 15058382 14985969 14869575 14705428 14507278 
1853.850 14299256 14107875 13951080 13832439 13742149 13663020 13578850 
1857.226 13482568 13376797 13272922 13182716 13114009 13066749 13034875 
1860.601 13009748 12986237 12962275 12940618 12922210 12905171 12883230 
1863.976 12849855 12801904 12743698 12686593 12644093 12625001 12626942 
1867.351 12633976 12622905 12570460 12463725 12304631 12110209 11903976 
1870.727 11707935 11534230 11383865 11249864 11126826 11015190 10925406 
1874.102 10874537 10879224 10947881 11077554 11251363 11445661 11634237 
1877.477 11795367 11913931 11983745 12003815 11981113 11925849 11853366 
1880.852 11779585 11718863 11678099 11654268 11633905 11597580 11526107 
1884.228 11409716 11250611 11064483 10873364 10700238 10561693 10466797 
1887.603 10417403 10413854 10455489 10541586 10666613 10816911 10968768 
1890.978 11093297 11164604 11170119 11117481 11033543 10953894 10913124 
1894.353 10926143 10988156 11073245 11148705 11187139 11178519 11131914 
1897.729 11069930 11017480 10991208 10992532 11010758 11027973 11030579 
1901.104 11013716 10984521 10958823 10955214 10989361 11071466 11200487 
1904.479 11369189 11559195 11744344 11890609 11961285 11922198 11753025 
1907.854 11451504 11038635 10554403 10050682 9580747 9190195 8911033 8763198 
1911.712 8755038 8887681 9153096 9532210 9990291 10475311 10923125 11271510 
1915.569 11471489 11503148 11379281 11144901 10864188 10604220 10418794 
1918.944 10338174 10363178 10473221 10628696 10783181 10889590 10909546 
1922.320 10816917 10606422 10292905 9915043 9523747 9175510 8913888 8762592 
1926.177 8716546 8746917 8811243 8868375 8890157 8867257 8807207 8729171 
1930.034 8652330 8592711 8558596 8557434 8595915 8685844 8838150 9060942 
1933.892 9349080 9683811 10032140 10353260 10607948 10766336 10811787 
1937.267 10742768 10564295 10289486 9934812 9526761 9103568 8722986 8452790 
1941.125 8365441 8510338 8898569 9482611 10158558 10781569 11199065 11287894 
1944.982 10989736 10330293 9416739 8408489 7479427 6766054 6341393 6196115 
1948.839 6258793 6423736 6596605 6723086 6808403 6906154 7093752 7437745 
1952.697 7967305 8655459 9430245 10192288 10844267 11314545 11573656 
1956.072 11628939 11519236 11293178 10999002 10670752 10329464 9981053 
1959.447 9626114 9256771 8864370 8443020 7993073 7523928 7064646 6657753 
1963.305 6358722 6221586 6294771 6597050 7124697 7833861 8658985 9508632 
1967.162 10281230 10865979 11166350 11100032 10636127 9800207 8698655 
1970.537 7510644 6466545 5796080 5681798 6189374 7254973 8679871 10187708 
1974.395 11499679 12425639 12922459 13120621 13271243 13667822 14523727 
1977.770 15890596 17622234 19423644 20946424 21907254 22155248 21705764 
1981.145 20705574 19382872 17976268 16686808 15634079 14851615 14298769 
1984.521 13899085 13570745 13263282 12966867 12712289 12539551 12490749 
1987.896 12569561 12739006 12921941 13021823 12950157 12654329 12131665 
1991.271 11439040 10663989 9912496 9266661 8773889 8437964 8236203 8135520 
1995.128 8120472 8191982 8371102 8672210 9084753 9558915 10014542 10356701 
1998.986 10516056 10464950 10236594 9905611 9565547 9288921 9111176 9010267 
2002.843 8938013 8833143 8665132 8438333 8200820 8025283 7979594 8103209 
2006.701 8398334 8824017 9321242 9818309 10254954 10577069 10745819 10736531 
2010.558 10550096 10213397 9782576 9325554 8903982 8543766 8218611 7854304 
2014.416 7356025 6647757 5716487 4634674 3553415 2665853 2154506 2127007 
2018.273 2601431 3485269 4622728 5825390 6931230 7833478 8492679 8927122 
2022.130 9191832 9347421 9437386 9465320 9403315 9194656 8773812 8100435 
2025.988 7186089 6108091 5019554 4105544 3560922 3513725 3990294 4883327 
2029.845 5979242 6997430 7686258 7877382 7544803 6801916 5871142 5005132 
2033.703 4431727 4274965 4552945 5174204 5990309 6837532 7582308 8142420 
2037.560 8494146 8663681 8711021 8708850 8725378 8812563 8994379 9267125 
2041.417 9610574 9984965 10353046 10675282 10926769 11083818 11135130 
2044.793 11068605 10885426 10593744 10224453 9820719 9447007 9161288 9010355 
2048.650 9000888 9105887 9262271 9395003 9437176 9352586 9141941 8841974 
2052.508 8513268 8232105 8066368 8067575 8252059 8601356 9058064 9542202 
2056.365 9961855 10238782 10314891 10173997 9838595 9366325 8836273 8327501 
2060.222 7895631 7566292 7326767 7144068 6977088 6802074 6618611 6454864 
2064.080 6347890 6331460 6415698 6579879 6778925 6961963 7092174 7164255 
2067.937 7203705 7262656 7393030 7628720 7970089 8386587 8827236 9244520 
2071.795 9605922 9908901 10169755 10413983 10653385 10883220 11076264 
2075.170 11197387 11216281 11124866 10937862 10692310 10433412 10205803 
2078.545 10043252 9969943 9998100 10136657 10381278 10714539 11095478 
2081.920 11462567 11740154 11857186 11769434 11477662 11028824 10504461 
2085.296 9992874 9563678 9244189 9016765 8832796 8640680 8406268 8130749 
2089.153 7841223 7578744 7372419 7228392 7127337 7042726 6956618 6881584 
2093.010 6855709 6934447 7159363 7538991 8033506 8569021 9060557 9448634 
2096.868 9715004 9889964 10029334 10183411 10371625 10570516 10721672 
2100.243 10761592 10647793 10383327 10015952 9626386 9296908 9087881 9015841 
2104.101 9057545 9157658 9256768 9305540 9283071 9194390 9067602 8937390 
2107.958 8837950 8790600 8802346 8864481 8958343 9053457 9121851 9138206 
2111.815 9088635 8973951 8814415 8643458 8501928 8426098 8437709 8533847 
2115.673 8688981 8855398 8980063 9014693 8934136 8738556 8457633 8135088 
2119.530 7815769 7525802 7266034 7008841 6717615 6363769 5952000 5526715 
2123.388 5170127 4973535 5009128 5293090 5773949 6334062 6826844 7113025 
2127.245 7107393 6797612 6245403 5556677 4843334 4184582 3612367 3113060 
2131.103 2656281 2221963 1820634 1489996 1273470 1182661 1179955 1166484 
2134.960 1018381 624385 -57744 -984367 -2025783 -3011305 -3777918 -4224392 
2138.817 -4327766 -4141906 -3760355 -3287467 -2792698 -2317539 -1867063 
2142.193 -1446779 -1074478 -796862 -676609 -776991 -1132435 -1734663 
2145.568 -2524877 -3408294 -4269611 -5002039 -5520988 -5782401 -5787024 
2148.943 -5579984 -5245273 -4901858 -4688185 -4755247 -5231835 -6215621 
2152.318 -7743962 -9791699 -12263387 -15015877 -17865602 -20615082 -23058928 
2155.694 -24990706 -26198444 -26477122 -25645102 -23611514 -20428980 
2158.587 -16366569 -11891272 -7587243 -3995428 -1480380 -137244 184999 
2161.962 -188441 -872251 -1513084 -1878109 -1872732 -1555405 -1072489 
2165.337 -618145 -361521 -413760 -791300 -1445932 -2267717 -3130750 -3913095 
2169.195 -4537870 -4973961 -5254182 -5446427 -5642294 -5903204 -6245374 
2172.570 -6602943 -6849321 -6836113 -6455974 -5698044 -4692319 -3680620 
2175.945 -2962667 -2782086 -3247727 -4279139 -5629925 -6950011 -7898153 
2179.320 -8228298 -7857528 -6857774 -5420754 -3775352 -2120799 -581488 
2182.696 786708 1977564 2989054 3811034 4414526 4774953 4886199 4778225 
2186.553 4499289 4110487 3651824 3150413 2613636 2059409 1522990 1072275 
2190.410 787600 737501 945498 1381966 1961114 2571902 3106066 3492879 
2194.268 3703307 3757412 3685950 3526909 3298675 3007019 2651594 2250821 
2198.125 1843912 1499813 1300137 1321148 1603746 2144169 2880046 3705627 
2201.983 4485957 5092572 5426147 5447160 5185114 4734667 4230963 3824135 
2205.840 3633624 3729667 4109162 4713027 5437655 6168892 6800543 7256306 
2209.698 7488590 7480925 7240541 6808704 6249122 5658143 5146052 4820586 
2213.555 4754859 4968451 5410599 5981992 6555377 7023216 7325789 7466390 
2217.412 7496889 7494743 7524669 7623888 7794397 8023740 8296200 8613097 
2221.270 8986539 9426815 9917318 10412077 10834894 11107070 11172993 
2224.645 11027117 10709058 10292288 9849586 9432224 9053370 8702350 8364488 
2228.502 8050867 7802131 7686096 7765882 8074453 8592183 9254160 9970290 
2232.360 10661677 11284397 11841039 12357458 12864996 13362202 13806090 
2235.735 14118452 14217951 14051532 13624270 13000359 12296148 11637784 
2239.110 11135360 10852206 10800881 10944561 11221935 11558277 11887278 
2242.486 12153110 12320305 12369398 12302712 12142630 11933262 11729647 
2245.861 11593000 11569431 11681978 11918565 12238338 12574041 12854440 
2249.236 13009812 12995679 12792381 12416374 11910559 11345164 10801433 
2252.611 10362163 10091760 10028139 10166936 10468123 10859427 11258761 
2255.987 11588085 11795372 11857153 11782622 11599883 11348441 11066454 
2259.362 10789269 10545649 10362379 10262927 10266481 10382187 10605313 
2262.737 10914467 11273832 11638792 11964477 12210936 12351384 12368913 
2266.112 12260393 12032327 11705702 11315511 10912620 10558343 10317381 
2269.488 10243440 10367520 10686929 11170403 11763293 12402217 13031524 
2272.863 13613392 14128835 14573882 14946024 15241460 15446515 15545452 
2276.238 15525531 15390977 15163370 14885999 14611882 14395867 14279625 
2279.613 14287243 14417883 14654722 14965601 15316932 15677214 16026324 
2282.989 16355626 16669406 16978176 17293946 17620890 17950620 18259228 
2286.364 18512718 18672102 18707624 18606062 18378414 18055276 17679446 
2289.739 17293568 16929134 16598638 16299365 16017340 15739674 15461122 
2293.114 15188161 14936684 14726661 14573916 14487321 14464128 14496959 
2296.490 14573965 14682675 14811215 14946239 15071827 15170181 15224106 
2299.865 15222114 15163243 15059931 14935142 14818135 14736162 14709359 
2303.240 14744579 14839461 14980498 15151536 15334459 15512604 15669351 
2306.615 15791483 15866771 15888963 15856856 15776094 15658703 15520836 
2309.990 15378423 15247085 15140195 15071206 15051414 15091104 15194218 
2313.366 15356609 15563389 15788760 16002348 16178491 16302491 16376082 
2316.741 16416786 16449232 16496992 16575770 16690357 16839772 17023974 
2320.116 17250506 17531400 17877138 18281328 18710300 19098218 19358790 
2323.491 19405574 19177286 18657942 17883636 16937542 15929079 14969866 
2326.867 14150167 13521694 13092650 12832507 12687640 12600635 12524932 
2330.242 12434197 12323341 12200726 12079951 11973837 11891074 11836281 
2333.617 11812442 11822552 11870305 11956517 12078321 12226116 12385278 
2336.992 12537395 12666306 12758494 12807807 12813118 12778239 12709670 
2340.368 12614618 12499982 12374716 12248467 12132941 12039925 11979475 
2343.743 11957346 11973638 12021848 12091470 12169300 12244572 12310041 
2347.118 12364047 12408160 12446617 12481232 12511371 12531905 12535267 
2350.493 12515054 12468180 12397869 12313491 12227431 12152622 12097356 
2353.869 12064322 12048481 12040685 12030991 12012918 11984495 11949894 
2357.244 11915518 11887924 11869486 11857763 11843659 11817451 11768528 
2360.619 11690949 11584705 11454371 11308968 11157591 11008704 10866825 
2363.994 10733611 10608830 10490347 10379110 10277261 10190189 10124471 
2367.370 10087088 10082803 10113463 10176395 10265994 10373325 10489753 
2370.745 10606479 10718023 10821444 10916896 11005796 11091083 11174266 
2374.120 11255737 11333907 11405827 11467991 11517604 11553780 11579141 
2377.495 11598935 11621445 11655363 11708584 11784794 11882573 11993884 
2380.871 12107728 12210449 12292298 12347345 12377567 12388464 12388811 
2384.246 12384760 12378390 12365057 12337640 12287332 12212520 12115996 
2387.621 12011679 11915655 11844974 11810216 11812921 11843977 11888427 
2390.996 11929689 11957021 11967369 11968980 11975001 12000196 12055007 
2394.372 12142030 12254301 12377872 12495320 12590889 12652340 12673056 
2397.747 12650436 12586224 12483944 12350023 12193700 12028568 11870316 
2401.122 11737930 11647670 11612987 11639224 11725538 11863357 12041534 
2404.497 12246089 12463344 12679600 12880974 13051626 13177389 13243277 
2407.873 13239546 13165106 13028498 12848777 12653660 12474100 12340244 
2411.248 12273678 12286481 12375466 12523305 12699869 12869327 12993043 
2414.623 13042051 13001150 12874749 12686898 12475831 12284007 12147808 
2417.998 12084990 12093723 12150697 12222943 12276565 12289315 12256624 
2421.374 12192186 12118636 12060239 12031136 12031337 12042585 12040025 
2424.749 11997077 11897876 11741835 11546662 11343809 11170171 11057779 
2428.124 11025180 11072254 11180838 11318520 11450251 11544436 11584511 
2431.499 11569460 11513753 11439532 11370257 11321494 11300508 11302747 
2434.875 11320967 11344903 11368684 11389213 11405993 11417720 11422835 
2438.250 11419296 11409222 11398489 11399434 11423835 11481104 11567916 
2441.625 11669819 11762033 11820002 11827082 11782834 11702875 11615843 
2445.000 11550325 11527865 11554142 11623942 11722381 11836036 11954914 
2448.375 12075570 12194158 12303523 12388637 12431567 12418156 12347227 
2451.751 12235596 12117524 12032128 12012297 12070075 12194000 12351145 
2455.126 12500060 12603687 12642313 12615475 12539200 12435225 12323885 
2458.501 12216222 12113716 12010436 11900947 11779308 11644285 11495207 
2461.876 11334305 11163142 10988228 10820283 10675383 10571343 10524343 
2465.252 10540423 10615420 10734605 10876057 11019152 11150008 11260106 
2468.627 11347280 11409272 11442596 11440693 11400154 11324520 11227675 
2472.002 11131548 11061129 11034313 11057579 11122592 11211161 11304907 
2475.377 11393060 11475204 11559952 11656854 11767158 11878510 11969411 
2478.753 12014673 11999815 11927465 11820361 11713643 11642871 11630173 
2482.128 11676909 11762246 11852698 11914153 11923454 11875583 11785571 
2485.503 11678718 11583905 11522950 11506864 11531668 11585977 11652724 
2488.878 11716416 11767213 11803101 11828408 11852476 11883894 11928349 
2492.254 11983087 12038853 12079272 12087121 12050520 11969190 11854569 
2495.629 11732647 11632839 11584423 11603802 11692359 11833842 12001591 
2499.004 12164910 12299249 12391763 12444601 12470803 12488130 12511501 
2502.379 12547459 12591069 12629573 12647448 12635950 12595144 12539967 
2505.755 12493166 12480618 12519062 12611468 12741831 12879065 12983649 
2509.130 13019631 12962894 12809617 12574508 12290810 11999340 11743671 
2512.505 11558634 11467706 11476049 11572866 11730521 11912520 12079449 
2515.880 12199851 12256064 12250738 12202732 12142480 12097137 12084351 
2519.256 12103205 12140553 12175046 12192830 12191615 12185412 12194587 
2522.631 12236980 12314133 12409164 12488761 12517119 12468232 12339693 
2526.006 12150781 11939323 11744660 11600231 11522202 11514156 11569103 
2529.381 11679888 11839189 12040016 12268599 12501642 12706392 12851325 
2532.757 12914392 12895451 12816539 12717300 12637231 12603781 12619350 
2536.132 12666119 12714009 12739131 12733642 12711561 12699259 12723882 
2539.507 12797115 12912528 13042559 13155445 13224578 13238082 13201294 
2542.882 13129534 13039420 12940920 12836250 12724389 12608057 12498347 
2546.258 12412411 12369110 12379220 12440548 12536398 12643481 12739677 
2549.633 12812674 12861595 12896000 12925034 12952453 12973037 12974801 
2553.008 12946187 12883496 12793048 12691361 12597261 12526682 12486653 
2556.383 12475559 12485023 12508116 12539012 12579354 12633258 12704679 
2559.759 12797151 12911803 13047886 13205158 13381234 13572185 13768912 
2563.134 13958352 14123890 14251739 14335324 14379255 14397457 14408171 
2566.509 14426297 14459250 14500747 14539326 14559903 14553667 14519487 
2569.884 14465022 14400357 14334381 14270365 14207280 14142532 14077416 
2573.260 14018757 13978469 13967703 13993726 14055788 14146828 14255542 
2576.635 14373128 14493102 14611833 14723442 14817954 14880903 14897631 
2580.010 14862646 14785028 14691094 14619054 14604628 14669853 14810546 
2583.385 14998496 15189493 15340925 15426182 15445388 15421861 15392072 
2586.760 15388515 15427882 15504035 15594131 15667567 15700499 15680714 
2590.136 15611231 15502049 15366113 15212130 15047142 14878895 14721756 
2593.511 14597480 14531066 14541516 14632882 14788067 14972348 15143128 
2596.886 15265064 15321893 15322820 15296428 15280241 15303678 15378811 
2600.261 15494594 15624054 15733475 15798282 15808638 15773268 15711734 
2603.637 15647380 15596393 15564806 15547651 15533023 15510073 15473372 
2607.012 15425622 15376195 15338308 15323535 15339075 15385375 15454925 
2610.387 15534585 15607876 15657077 15668038 15633106 15553846 15441732 
2613.762 15315721 15198979 15111615 15067340 15067922 15105133 15162563 
2617.138 15221860 15268616 15297364 15310647 15321293 15343905 15392660 
2620.513 15474875 15590050 15728969 15876848 16016431 16133424 16219085 
2623.888 16272862 16301781 16317923 16334862 16362924 16406005 16462434 
2627.263 16524011 16581986 16629646 16667342 16700540 16739499 16793502 
2630.639 16868050 16960324 17061310 17157824 17238534 17295538 17328826 
2634.014 17343338 17346868 17345612 17341602 17333518 17317974 17292846 
2637.389 17258930 17221096 17186176 17159584 17143902 17136912 17132938 
2640.764 17126300 17114946 17098970 17082810 17071884 17070022 17076428 
2644.140 17087186 17095372 17095196 17082388 17057384 17023378 16985006 
2647.515 16945812 16908566 16873178 16840536 16810466 16785282 16767308 
2650.890 16758597 16759237 16766209 16773358 16773909 16760102 16727371 
2654.265 16674733 16605483 16526032 16446386 16375370 16320579 16284790 
2657.641 16266670 16258992 16251577 16232634 16192863 16126623 16034175 
2661.016 15920958 15794573 15662165 15527845 15392333 15253833 15110292 
2664.391 14963498 14819351 14688496 14581223 14505585 14462849 14446851 
2667.766 14445703 14446613 14439734 14422107 14397484 14374019 14359235 
2671.142 14356452 14362270 14367819 14362791 14339020 14295422 14237730 
2674.517 14178490 14130805 14104282 14103144 14122648 14154281 14186103 
2677.892 14209137 14219151 14217127 14207556 14196541 14188488 14184656 
2681.267 14183160 14180855 14174768 14164632 14152328 14142540 14140582 
2684.643 14148884 14166283 14188373 14206322 14212568 14201330 14172241 
2688.018 14130342 14085544 14048756 14029812 14033678 14059561 14100973 
2691.393 14148176 14190159 14217893 14226491 14214495 14184247 14140071 
2694.768 14086845 14029629 13972570 13918660 13870608 13830948 13801587 
2698.144 13785148 13783539 13798310 13829462 13874389 13927932 13981855 
2701.519 14026293 14052714 14055042 14034074 13996691 13954494 13920985 
2704.894 13907236 13917787 13948389 13986264 14014802 14017117 13983844 
2708.269 13914328 13819274 13716748 13627362 13570018 13555623 13584840 
2711.645 13649696 13734030 13820675 13893893 13943581 13967075 13968190 
2715.020 13955199 13937101 13921183 13909995 13901076 13888969 13867925 
2718.395 13834663 13791000 13743400 13701622 13675966 13672552 13691943 
2721.770 13727941 13769792 13806730 13830443 13838921 13836529 13831857 
2725.146 13835582 13854565 13891745 13943102 14001704 14058224 14105252 
2728.521 14140499 14164499 14182104 14198706 14218333 14241998 14267960 
2731.896 14291730 14309098 14316754 14314974 14305580 14292697 14279905 
2735.271 14269764 14262281 14256170 14249229 14240819 14233688 14232338 
2738.646 14244395 14277211 14336317 14421538 14527384 14643298 14755765 
2742.022 14850345 14916442 14947959 14945987 14916391 14869666 14816380 
2745.397 14765935 14723213 14689317 14659282 14627023 14584982 14528459 
2748.772 14456891 14375070 14291103 14215872 14158696 14125573 14117257 
2752.147 14129509 14155424 14186982 14218732 14248922 14279125 14313124 
2755.523 14354068 14402878 14456328 14509247 14554322 14586282 14602615 
2758.898 14604611 14596800 14585280 14576720 14576211 14587553 14612240 
2762.273 14650086 14699254 14755759 14812933 14862159 14894242 14900362 
2765.648 14875781 14821124 14743717 14656633 14575372 14514233 14483338 
2769.024 14485120 14513552 14557508 14602688 14636916 14652665 14648983 
2772.399 14632748 14613627 14603518 14610989 14639673 14687443 14747521 
2775.774 14809388 14864760 14907300 14936531 14955712 14972006 14991662 
2779.149 15019156 15053558 15089936 15120723 15137154 15133154 15108335 
2782.525 15066054 15015728 14966973 14929785 14909579 14908238 14923900 
2785.900 14951154 14985802 15024574 15065602 15109547 15157529 15209460 
2789.275 15263934 15319084 15373225 15425418 15477165 15531457 15591769 
2792.650 15661100 15738333 15819348 15897674 15965333 16015947 16046584 
2796.026 16058454 16057000 16049251 16043190 16044356 16056141 16080897 
2799.401 16118348 16168315 16231839 16309494 16401293 16505923 16619164 
2802.776 16734147 16841832 16933364 17001848 17043410 17059344 17055488 
2806.151 17040224 17024196 17015238 17019292 17038254 17070340 17112814 
2809.527 17162480 17217924 17278864 17347200 17424346 17509932 17601508 
2812.902 17694540 17784112 17867380 17944340 18019152 18097214 18184396 
2816.277 18283260 18391166 18502434 18608440 18701026 18775728 18833384 
2819.652 18878064 18916874 18956078 18999094 19047060 19098654 19152544 
2823.028 19208070 19266660 19329542 19397492 19469076 19539928 19604528 
2826.403 19657450 19696208 19722604 19741484 19761612 19791078 19836270 
2829.778 19899776 19979696 20070708 20164520 20251402 20322584 20370794 
2833.153 20392206 20386894 20360860 20322986 20285854 20261514 20260660 
2836.529 20289898 20352118 20445422 20567066 20711136 20872204 21043012 
2839.904 21214474 21377108 21521430 21641096 21735902 21812718 21885634 
2843.279 21972200 22089966 22249908 22454738 22698366 22967864 23249230 
2846.654 23529506 23801278 24061174 24308700 24543554 24762638 24963818 
2850.030 25143986 25303812 25450014 25591842 25740106 25903386 26083546 
2853.405 26276526 26472500 26660840 26836318 26999308 27158694 27328308 
2856.780 27522586 27750640 28014454 28305630 28609272 28907178 29182262 
2860.155 29423050 29626204 29795758 29942576 30080802 30225012 30388446 
2863.531 30579170 30802190 31057616 31344034 31659152 32002502 32375012 
2866.906 32779932 33220432 33698824 34214468 34762360 35334436 35920456 
2870.281 36510768 37098024 37678984 38254112 38826552 39399836 39975436 
2873.656 40552264 41125724 41688092 42231100 42745816 43224320 43659436 
2877.031 44044284 44372672 44638196 44835652 44962116 45018296 45009916 
2880.407 44946316 44838084 44696584 44529420 44339576 44125836 43885552 
2883.782 43616552 43320204 43003848 42680956 42369596 42088680 41854892 
2887.157 41680604 41571552 41526464 41539136 41598016 41690068 41802456 
2890.532 41923592 42045280 42162948 42276896 42388716 42501660 42617244 
2893.908 42735040 42852092 42964428 43069656 43167880 43262764 43361156 
2897.283 43469332 43590756 43722976 43858928 43986968 44095276 44175052 
2900.658 44223296 44242404 44238004 44216980 44183784 44141316 44089872 
2904.033 44030928 43967896 43907920 43860988 43835172 43837756 43868960 
2907.409 43924408 43996232 44076176 44156528 44234424 44309852 44385600 
2910.784 44466080 44556268 44660680 44784736 44934032 45114704 45332168 
2914.159 45589676 45886972 46219884 46580052 46957176 47340248 47720756 
2917.534 48092640 48452912 48802240 49141016 49471544 49794504 50110700 
2920.910 50421448 50728824 51038092 51354888 51687188 52041992 52423844 
2924.285 52831996 53261824 53703964 54148316 54587792 55021292 55456684 
2927.660 55908780 56398304 56945284 57564864 58263280 59038148 59879484 
2931.035 60775200 61714448 62691212 63704476 64758828 65860024 67015276 
2934.411 68231944 69517720 70883840 72342728 73910552 75600656 77422040 
2937.786 79373472 81442216 83604136 85826640 88072680 90304440 92487368 
2941.161 94590208 96584696 98445272 100146296 101663952 102977200 104068688 
2944.536 104927576 105551056 105944224 106117768 106088360 105873536 
2947.429 105492488 104961224 104296352 103511184 102620816 101642224 
2950.323 100595560 99504944 98395712 97293656 96220960 95194704 94224432 
2953.698 93313400 92457672 91650400 90882176 90142944 89422904 88714400 
2957.073 88011000 87311632 86620088 85946200 85303792 84707896 84168408 
2960.448 83687296 83253944 82846656 82436640 81994408 81498968 80940600 
2963.823 80324936 79668192 78992256 78317208 77655232 77009480 76373216 
2967.199 75736544 75090824 74432408 73764968 73097856 72442232 71807560 
2970.574 71198776 70613272 70045952 69490024 68939984 68396640 67865192 
2973.949 67355200 66877192 66439688 66048056 65703504 65404892 65151372 
2977.324 64944296 64789040 64693196 64665696 64712792 64835468 65029724 
2980.700 65286168 65594496 65947876 66345140 66797384 67323616 67950440 
2984.075 68706496 69616696 70695240 71941848 73341936 74865248 76473088 
2987.450 78123064 79776152 81403600 82986176 84515456 85989200 87405184 
2990.825 88754912 90021688 91179360 92196248 93040032 93684760 94113656 
2994.201 94321536 94312416 94098528 93694840 93118952 92389304 91524024 
2997.576 90542560 89463328 88303232 87074440 85782656 84430120 83015952 
3000.951 81539616 80005696 78424008 76808712 75175744 73539808 71910560 
3004.326 70291992 68685424 67091980 65515496 63963324 62444500 60967808 
3007.702 59534972 58141728 56775652 55421720 54065140 52698428 51324332 
3011.077 49954868 48608788 47306512 46064980 44892640 43790556 42750032 
3014.452 41758172 40799412 39860112 38930048 38004564 37083976 36173504 
3017.827 35282692 34422600 33604968 32839600 32133594 31488728 30902184 
3021.203 30367034 29871984 29406554 28959980 28524680 28096136 27674050 
3024.578 27260760 26859130 26471616 26098206 25736848 25384066 25035660 
3027.953 24688776 24342278 24000050 23665886 23347738 23051740 22783196 
3031.328 22544556 22337560 22160462 22011738 21887198 21782352 21689644 
3034.704 21601100 21507324 21400742 21277166 21137512 20988522 20840114 
3038.079 20703950 20589224 20501680 20440802 20402206 20378540 20364374 
3041.454 20355632 20351078 20351028 20354766 20360040 20362244 20356352 
3044.829 20337242 20305014 20262626 20218488 20182122 20162966 20166468 
3048.205 20192422 20236742 20290618 20343692 20387754 20414788 20421092 
3051.580 20405018 20369428 20319344 20262568 20208448 20165822 20141774 
3054.955 20139200 20156664 20189144 20229858 20273052 20317394 20364010 
3058.330 20419078 20486726 20567774 20658430 20747266 20820990 20865378 
3061.706 20870726 20834950 20762992 20667200 20562624 20466472 20394528 
3065.081 20359482 20371242 20434690 20548092 20701790 20876408 21046450 
3068.456 21181864 21256994 21256922 21181826 21049452 20889868 20738006 
3071.831 20624354 20566706 20567450 20612970 20681056 20746574 20789354 
3075.207 20797476 20768856 20709178 20628362 20538830 20451654 20377090 
3078.582 20322910 20294292 20291880 20311322 20343204 20375100 20391348 
3081.957 20380748 20334892 20252934 20140050 20006600 19863998 19723752 
3085.332 19595406 19484976 19396202 19328988 19281058 19248160 19224802 
3088.708 19205586 19186054 19163298 19137728 19112046 19089578 19074786 
3092.083 19069658 19075854 19092858 19118500 19149346 19179890 19203684 
3095.458 19212394 19200716 19165826 19111258 19047928 18991766 18959950 
3098.833 18964252 19007716 19080672 19164384 19236352 19278324 19283508 
3102.208 19257836 19217970 19185188 19175130 19192296 19229292 19269116 
3105.584 19292566 19288776 19256270 19204962 19152384 19112850 19093774 
3108.959 19090048 19087890 19070470 19024620 18948336 18851648 18753788 
3112.334 18676814 18636938 18639932 18677544 18731070 18777920 18798408 
3115.709 18780908 18725712 18642970 18548686 18458464 18384242 18329480 
3119.085 18292094 18265272 18242948 18221876 18202056 18188516 18185664 
3122.460 18197382 18224630 18264782 18314070 18368314 18424144 18477794 
3125.835 18524318 18557204 18568050 18550114 18501082 18429230 18351060 
3129.210 18288950 18266438 18299000 18387292 18516520 18659374 18785236 
3132.586 18870212 18904166 18893810 18857658 18820018 18799636 18805586 
3135.961 18834074 18874062 18912266 18938990 18950862 18949558 18939396 
3139.336 18922264 18898798 18867734 18829376 18788480 18752946 18732918 
3142.711 18733474 18751548 18776180 18789726 18776656 18728934 18652984 
3146.087 18567086 18497332 18468354 18494546 18574872 18693192 18825628 
3149.462 18945310 19034034 19082458 19093634 19076442 19041874 18998296 
3152.837 18949302 18895634 18836654 18775008 18718224 18677952 18667660 
3156.212 18699666 18779604 18904216 19060600 19227972 19381302 19497108 
3159.588 19559226 19562638 19514530 19432634 19340302 19259956 19207216 
3162.963 19185702 19189266 19202820 19209144 19194424 19153320 19090296 
3166.338 19017254 18950680 18905054 18888670 18902080 18936466 18978842 
3169.713 19014632 19032008 19028084 19006798 18980814 18966334 18977632 
3173.089 19023364 19101098 19198476 19295894 19371468 19409088 19403392 
3176.464 19361402 19300190 19242376 19207926 19208388 19244512 19306610 
3179.839 19379412 19445720 19492596 19512440 19503956 19470878 19419284 
3183.214 19357630 19295952 19246242 19220056 19227670 19274466 19356486 
3186.590 19461666 19570848 19662070 19719474 19736168 19719648 19689082 
3189.965 19669436 19684740 19747232 19854040 19986640 20115532 20207872 
3193.340 20239160 20199482 20098910 19964484 19834544 19747428 19732684 
3196.715 19802270 19948816 20147876 20366596 20571860 20739130 20856748 
3200.091 20924792 20953028 20952520 20933710 20902508 20862144 20815624 
3203.466 20767366 20724482 20693768 20678776 20677252 20682302 20683148 
3206.841 20672672 20650864 20625924 20611980 20621226 20658212 20715606 
3210.216 20774316 20812524 20812952 20774386 20711182 20653794 20634312 
3213.592 20676528 20785766 20945206 21122338 21279860 21387780 21434598 
3216.967 21428718 21395126 21363798 21360070 21395216 21465140 21552530 
3220.342 21636482 21699654 21734664 21746914 21750710 21763402 21800066 
3223.717 21864186 21949270 22037314 22105200 22130654 22100298 22012922 
3227.093 21880778 21726778 21577310 21455510 21374636 21336760 21333428 
3230.468 21350630 21376858 21406140 21440428 21485930 21549934 21633976 
3233.843 21731104 21826746 21903584 21947786 21953452 21926340 21880374 
3237.218 21833192 21799732 21787068 21792604 21806636 21817840 21817162 
3240.594 21804926 21787996 21780328 21797420 21851290 21946534 22078932 
3243.969 22236486 22400984 22553318 22677186 22760664 22800120 22797818 
3247.344 22762608 22707590 22646982 22593798 22559082 22549194 22565010 
3250.719 22602940 22653582 22704672 22741654 22750830 22723094 22655482 
3254.094 22554216 22434852 22317872 22226284 22177962 22182234 22236160 
3257.470 22324534 22423462 22506850 22553294 22550266 22499724 22415800 
3260.845 22322860 22249762 22223518 22263696 22378450 22562564 22798948 
3264.220 23061048 23318000 23540418 23705834 23801882 23827296 23792618 
3267.595 23716094 23618742 23522252 23442914 23391090 23370308 23377498 
3270.971 23406178 23447090 23492648 23535570 23572772 23603486 23628908 
3274.346 23650478 23669076 23685026 23696460 23702152 23702218 23698642 
3277.721 23696386 23700538 23716612 23746942 23790212 23843106 23900662 
3281.096 23957900 24013054 24066020 24115566 24160042 24194352 24211402 
3284.472 24204224 24169806 24110586 24036064 23959198 23893726 23847058 
3287.847 23820426 23807194 23798162 23785034 23765468 23744452 23731306 
3291.222 23736666 23766426 23820478 23891188 23968692 24043886 24113006 
3294.597 24177148 24240862 24307824 24378248 24447034 24506054 24547090 
3297.973 24567690 24570946 24566642 24565340 24576158 24601332 24636298 
3301.348 24672390 24698144 24705978 24693334 24661308 24614130 24556582 
3304.723 24489438 24412704 24325474 24229422 24132238 24047730 23993072 
3308.098 23986314 24039968 24155632 24322072 24516694 24708496 24865216 
3311.474 24961048 24982880 24932918 24828444 24696248 24565818 24461936 
3314.849 24399812 24383028 24406574 24460192 24534500 24622026 24718530 
3318.224 24818866 24916332 24999504 25055846 25074598 25052490 24997010 
3321.599 24924726 24858018 24818174 24814942 24846548 24898556 24949234 
3324.975 24978524 24973400 24933408 24866608 24787680 24711200 24648720 
3328.350 24603834 24577334 24567540 24571326 24586106 24608184 24631282 
3331.725 24648994 24653570 24641304 24615550 24584512 24560874 24558132 
3335.100 24583714 24637512 24712016 24793966 24870766 24933534 24978316 
3338.476 25005556 25017722 25016830 25004344 24981040 24949966 24916400 
3341.851 24887894 24870080 24864766 24866098 24862588 24841824 24794456 
3345.226 24720124 24628530 24533756 24450802 24387450 24342574 24306374 
3348.601 24266556 24215216 24154388 24096246 24058068 24054534 24092654 
3351.977 24166690 24261416 24357194 24437750 24493924 24525584 24537026 
3355.352 24532750 24514568 24479638 24425928 24354444 24273670 24201586 
3358.727 24157880 24161914 24222420 24336602 24488984 24656824 24815438 
3362.102 24944656 25031190 25069922 25061836 25013612 24933968 24833890 
3365.478 24726080 24623576 24538744 24479188 24447866 24441492 24452482 
3368.853 24472098 24494104 24513620 24528934 24537440 24534702 24513336 
3372.228 24462874 24376950 24253852 24101412 23936332 23780766 23657330 
3375.603 23583766 23569404 23613466 23705646 23830040 23965742 24091820 
3378.979 24189490 24245078 24251950 24214308 24144654 24063250 23991852 
3382.354 23946750 23933874 23945718 23965194 23971120 23949228 23895300 
3385.729 23820950 23747718 23698644 23689474 23722046 23781552 23842898 
3389.104 23880414 23875252 23823852 23739566 23646350 23572870 23541960 
3392.479 23564036 23636954 23745424 23866390 23977910 24061230 24105698 
3395.855 24109576 24077886 24020106 23946636 23866058 23785226 23707924 
3399.230 23637934 23580052 23541158 23528698 23549552 23604996 23688516 
3402.605 23785014 23873060 23930188 23942062 23905558 23832590 23748478 
3405.980 23683036 23664258 23709242 23820092 23983880 24177916 24376058 
3409.356 24555324 24700540 24805488 24872542 24909622 24926934 24935284 
3412.731 24942836 24953948 24968288 24981822 24985694 24972998 24938314 
3416.106 24883482 24816776 24752356 24704502 24683922 24692588 24721640 
3419.481 24755996 24777578 24773464 24739616 24683172 24619214 24565278 
3422.857 24536106 24538870 24571506 24625254 24687678 24746652 24794796 
3426.232 24828068 24848416 24861038 24873540 24893206 24926280 24974958 
3429.607 25035898 25099864 25153210 25181142 25171154 25119410 25032500 
3432.982 24926600 24823686 24747002 24712646 24726530 24782772 24865540 
3436.358 24954926 25031954 25084224 25105928 25100182 25075430 25044180 
3439.733 25018144 25008318 25020750 25056026 25107658 25163482 25207720 
3443.108 25223896 25199582 25131396 25024666 24893768 24759134 24639448 
3446.483 24548058 24488806 24454496 24430862 24400950 24349308 24267110 
3449.859 24152598 24011344 23853804 23692164 23538166 23402036 23292134 
3453.234 23215560 23179288 23186940 23239932 23333280 23456432 23591022 
3456.609 23716124 23812062 23864962 23872366 23843678 23799612 23764154 
3459.984 23758848 23795242 23871016 23971520 24073810 24155030 24198734 
3463.360 24200704 24167686 24114834 24059398 24013282 23983490 23969440 
3466.735 23965306 23964204 23959830 23948104 23926442 23893920 23848772 
3470.110 23792050 23728308 23665946 23617596 23596334 23610712 23662618 
3473.485 23743058 23836268 23922030 23983366 24010212 24004648 23975328 
3476.861 23937808 23906482 23892004 23899064 23927196 23973498 24034332 
3480.236 24107372 24191212 24284692 24384886 24488744 24592756 24697268 
3483.611 24804752 24921074 25054218 25210536 25392518 25595122 25808502 
3486.986 26016794 26203190 26353090 26456816 26511762 26522132 26497436 
3490.362 26451790 26400012 26356226 26331964 26334778 26369736 26437914 
3493.737 26537446 26663990 26810612 26968134 27125948 27271906 27396688 
3497.112 27493312 27560240 27600502 27621658 27631488 27637892 27645128 
3500.487 27656374 27674474 27704634 27757484 27844982 27977894 28159686 
3503.863 28382352 28623924 28851276 29029004 29127474 29131008 29041104 
3507.238 28875858 28661440 28425556 28189526 27964364 27752908 27553386 
3510.613 27364374 27188122 27030554 26896522 26788052 26700048 26620318 
3513.988 26534172 26428454 26297364 26144802 25982260 25828342 25700934 
3517.364 25610956 25563028 25550410 25558538 25567492 25557124 25509628 
3520.739 25413962 25265742 25069806 24837670 24586648 24337016 24108594 
3524.114 23919630 23784724 23713014 23708188 23767314 23880216 24029480 
3527.489 24191026 24336716 24438390 24473806 24430692 24310574 24128872 
3530.865 23911268 23688162 23486060 23323142 23205466 23127110 23074284 
3534.240 23028696 22975016 22901464 22803882 22684040 22549550 22409926 
3537.615 22276452 22159252 22066050 22000066 21960240 21939910 21930166 
3540.990 21919706 21901388 21871994 21836398 21806272 21797574 21826022 
3544.365 21901292 22023764 22180236 22346900 22493000 22586446 22602036 
3547.741 22528294 22370206 22149824 21899600 21658886 21462868 21337200 
3551.116 21293810 21329868 21429302 21568392 21718518 21852096 21946186 
3554.491 21984882 21962178 21884746 21767744 21637216 21521126 21445046 
3557.866 21423094 21454922 21523828 21600408 21652250 21652314 21587652 
3561.242 21462076 21293528 21107004 20926794 20769050 20639994 20534970 
3564.617 20446552 20366854 20291212 20219500 20152918 20094102 20043774 
3567.992 20001818 19969788 19950688 19948350 19965182 19996878 20033496 
3571.367 20058498 20056646 20020866 19959060 19894358 19859144 19885576 
3574.743 19991188 20169558 20390124 20605016 20764634 20834574 20805070 
3578.118 20694098 20539252 20381740 20253872 20163596 20097328 20024440 
3581.493 19910910 19732808 19487020 19190720 18879378 18595294 18376792 
3584.868 18249352 18221640 18283830 18412410 18573502 18732126 18857002 
3588.244 18926200 18931032 18878084 18785402 18680662 18591068 18538662 
3591.619 18534286 18573026 18636590 18697040 18723768 18692176 18591154 
3594.994 18426354 18219466 18004954 17820670 17698064 17655476 17690270 
3598.369 17782352 17897982 17999538 18058052 18057934 18002548 17909130 
3601.745 17801808 17701952 17620784 17558672 17506448 17454450 17395558 
3605.120 17331580 17271088 17223994 17198148 17194040 17207578 17232356 
3608.495 17264276 17305510 17360542 17433612 17520732 17606430 17667830 
3611.870 17680716 17631636 17525048 17387812 17262050 17193284 17216044 
3615.246 17343320 17561976 17839128 18131070 18396102 18602908 18735792 
3618.621 18790826 18776582 18706146 18598920 18478806 18375176 18318018 
3621.996 18334786 18440440 18632730 18891072 19178322 19451844 19672458 
3625.371 19816044 19876224 19863046 19798152 19708540 19619884 19554210 
3628.747 19529056 19554048 19632018 19754098 19901924 20047118 20160188 
3632.122 20214912 20200528 20120428 19995200 19850678 19711014 19586688 
3635.497 19474412 19360526 19230640 19078536 18915670 18766196 18662072 
3638.872 18629412 18680438 18809340 18993576 19203160 19411602 19600460 
3642.248 19762628 19900166 20019780 20127576 20229050 20328472 20431964 
3645.623 20546870 20679680 20831146 20994662 21151256 21276670 21344538 
3648.998 21339392 21258392 21118176 20947420 20783010 20656080 20589796 
3652.373 20590554 20653596 20762520 20896622 21033966 21155030 21244104 
3655.749 21293062 21299060 21267860 21208404 21133952 21055554 20982910 
3659.124 20919836 20865586 20818082 20773640 20730908 20692220 20660282 
3662.499 20639888 20634740 20648768 20683584 20739440 20813028 20896484 
3665.874 20975778 21032694 21046662 21002028 20891390 20721624 20512310 
3669.250 20292256 20089288 19923480 19800368 19711100 19637088 19556524 
3672.625 19454270 19325880 19175906 19017412 18864554 18729414 18619506 
3676.000 18539760 18492040 18477702 18495658 18541476 18602966 18661884 
3679.375 18695780 18683306 18609758 18474388 18288040 18071316 17849504 
3682.750 17643954 17469216 17331836 17230334 17159412 17112912 17083308 
3686.126 17064560 17048890 17027908 16993338 16939372 16863780 16770633 
3689.501 16668076 16568840 16486380 16430592 16409755 16424747 16473366 
3692.876 16545855 16626773 16697206 16736733 16725808 16655620 16526897 
3696.251 16354853 16163725 15983216 15838554 15744722 15703589 15706006 
3699.627 15735907 15779551 15828038 15880877 15942272 16015952 16097831 
3703.002 16175518 16227204 16229812 16165473 16028343 15830562 15599651 
3706.377 15372308 15186221 15070284 15037150 15080777 15178618 15299814 
3709.752 15412613 15495535 15541989 15561761 15576946 15609643 15676381 
3713.128 15776681 15894035 15999619 16062357 16060833 15990932 15866928 
3716.503 15717784 15575330 15465307 15397171 15364715 15350909 15337847 
3719.878 15315324 15287694 15270013 15283318 15342561 15451622 15598329 
3723.253 15758416 15902609 16007351 16057655 16053999 16005961 15932353 
3726.629 15852371 15784217 15741488 15733922 15763523 15828442 15916962 
3730.004 16011124 16088590 16126001 16106235 16023900 15888099 15721552 
3733.379 15554729 15415730 15324919 15288173 15297145 15334479 15379446 
3736.754 15417051 15442915 15465411 15501042 15570824 15690159 15863456 
3740.130 16079368 16312512 16526841 16686145 16761322 16742935 16639847 
3743.505 16482862 16312070 16168691 16079171 16046399 16050095 16054416 
3746.880 16019626 15918372 15742626 15509303 15255390 15024522 14857440 
3750.255 14778351 14790283 14878975 15015491 15168865 15311501 15423679 
3753.631 15494712 15522066 15508990 15463005 15395400 15321502 15258643 
3757.006 15224165 15232777 15292671 15403237 15555958 15734388 15920553 
3760.381 16094079 16237464 16337724 16386146 16381195 16325623 16229236 
3763.756 16106386 15972931 15846256 15738579 15657833 15603148 15567475 
3767.132 15540486 15510594 15470233 15416753 15354943 15294756 15249055 
3770.507 15232471 15252577 15310654 15397255 15493853 15578362 15628945 
3773.882 15631827 15587618 15511961 15430984 15374108 15362179 15401781 
3777.257 15480809 15573253 15648538 15682891 15666690 15610405 15535274 
3780.633 15468846 15432755 15435861 15474637 15534932 15600684 15656710 
3784.008 15691487 15697157 15665609 15588215 15459399 15281176 15068865 
3787.383 14852606 14672402 14568785 14568613 14673951 14861171 15086478 
3790.758 15300590 15464320 15562156 15603201 15618378 15643707 15707748 
3794.134 15819903 15969038 16128762 16267074 16355643 16379571 16337309 
3797.509 16238874 16101155 15943719 15783839 15637027 15513573 15418817 
3800.884 15351375 15304380 15267290 15230957 15191688 15158008 15146319 
3804.259 15179148 15275347 15442707 15670843 15933063 16189402 16399730 
3807.635 16531132 16566999 16508428 16369415 16174303 15948953 15720012 
3811.010 15511562 15344507 15236572 15198342 15231499 15326896 15464026 
3814.385 15617659 15760627 15874283 15950453 15993448 16016027 16032863 
3817.760 16053662 16080728 16109202 16128231 16128350 16102396 16051129 
3821.135 15980421 15901262 15826814 15769739 15740784 15745198 15782868 
3824.511 15844600 15915686 15977968 16014023 16015273 15985928 15942490 
3827.886 15912104 15921149 15987705 16112698 16280012 16459566 16617510 
3831.261 16726531 16774546 16765499 16715534 16645158 16568482 16490124 
3834.636 16404049 16300378 16171537 16019318 15858350 15711984 15605381 
3838.012 15559467 15580932 15662748 15784780 15918797 16037313 16119115 
3841.387 16153783 16141029 16090995 16019998 15945129 15878731 15828518 
3844.762 15791539 15760083 15722442 15670130 15600569 15520955 15447762 
3848.137 15401443 15402214 15463222 15587582 15764909 15977068 16198842 
3851.513 16403947 16567623 16669735 16695803 16636899 16493775 16277641 
3854.888 16011838 15729891 15470870 15273330 15167695 15166882 15266545 
3858.263 15444934 15668811 15903227 16119659 16299751 16437927 16536357 
3861.638 16600184 16633529 16637675 16614802 16568528 16508795 16450342 
3865.014 16408818 16394826 16410584 16446650 16485574 16508207 16501592 
3868.389 16462877 16401505 16332738 16272373 16228825 16199769 16174721 
3871.764 16141120 16090930 16026868 15962403 15918653 15912991 15955534 
3875.139 16042288 16156809 16275261 16373254 16435478 16454643 16433725 
3878.515 16382828 16312452 16232587 16149722 16067490 15989134 15917253 
3881.890 15853927 15800063 15753981 15712172 15670741 15629174 15590453 
3885.265 15564325 15562619 15596127 15669547 15778607 15909281 16040651 
3888.640 16150597 16221419 16244119 16222449 16171230 16113104 16073186 
3892.016 16071403 16117662 16206775 16321182 16433410 16513228 16537556 
3895.391 16497897 16402448 16275698 16150750 16059803 16022678 16042395 
3898.766 16103841 16181480 16247792 16283460 16282734 16252905 16206622 
3902.141 16155632 16104110 16046178 15970869 15867213 15732201 15573269 
3905.517 15405697 15249458 15118920 15022054 14958736 14923356 14911349 
3908.892 14923640 14964419 15041412 15156462 15304367 15468665 15625827 
3912.267 15751772 15828686 15851706 15828792 15779695 15728490 15698614 
3915.642 15706047 15756955 15846910 15962305 16083764 16190190 16262172 
3919.018 16286066 16257390 16182290 16076628 15962420 15862221 15794925 
3922.393 15771028 15791200 15850738 15940471 16053859 16185261 16332727 
3925.768 16491668 16653284 16804056 16926224 17002956 17023972 16988328 
3929.143 16905482 16793164 16670963 16556630 16462134 16393134 16350161 
3932.519 16330460 16331412 16348282 16375553 16405722 16431162 16445553 
3935.894 16446117 16436150 16423151 16415151 16418217 16432345 16449906 
3939.269 16459562 16451955 16424445 16382428 16339213 16309438 16302729 
3942.644 16319362 16349450 16375983 16383398 16363760 16321557 16270762 
3946.020 16231176 16218375 16239762 16290732 16358616 16428366 16487967 
3949.395 16535955 16578540 16626552 16689645 16771002 16864938 16959700 
3952.770 17040862 17098896 17129560 17136940 17127912 17108696 17080200 
3956.145 17038202 16975936 16889028 16781848 16668689 16573120 16520839 
3959.521 16532255 16613223 16751450 16920072 17082784 17205908 17267012 
3962.896 17262346 17205824 17122758 17039942 16978072 16944842 16932574 
3966.271 16924946 16901386 16846366 16752439 16621061 16460853 16285218 
3969.646 16108634 15945695 15811678 15723443 15697997 15750239 15889227 
3973.021 16112495 16402967 16731441 17058730 17343588 17552184 17662506 
3976.397 17670236 17587322 17438764 17257702 17078746 16931978 16839506 
3979.772 16812786 16850910 16941918 17064922 17194360 17303846 17373384 
3983.147 17391750 17359460 17286896 17192186 17097190 17022048 16980228 
3986.522 16977480 17009682 17064572 17125748 17174930 17197028 17183754 
3989.898 17136832 17066938 16991554 16928572 16893760 16892058 16918010 
3993.273 16955726 16983962 16982672 16940618 16856450 16741522 16615212 
3996.648 16499443 16414799 16375598 16389742 16458320 16578550 16743768 
4000.023 16942366 17158702 
##END=
