##TITLE=3D-Fillies_PLA+_Blue_Filament_r2_ATR-Corrected
##JCAMP-DX=5.01  $$ Nicolet v. 1
##DATATYPE=INFRARED SPECTRUM
##ORIGIN=Curtin University
##OWNER=Nicolet
##LONGDATE=2024/07/18
##TIME=09:27:26
##SPECTROMETER/DATA SYSTEM=Nicolet iS50
##DATA PROCESSING=
Ratio against background
%Transmittance->Absorbance
ATR Correction
Truncated
ElementMultiply or ElementDivide
##COMMENTS=
Number of sample scans: 32
Collection length: 47.27 sec
Sample gain: 1.0
Background collected on: Thu Jul 18 09:23:13 2024 (GMT+08:00);
Number of background scans: 32
Background gain: 1.0
Sample spacing:  1.000
Number of scan points: 16672
Resolution points: 8192
Number of FFT points: 65536
Apodization: N-B strong;
Phase correction: Mertz;
Laser frequency: 15798.3 cm-1
Number of rejected sample scans: 0
Number of rejected background scans: 0
Bench serial number: AUP1200105;
##RESOLUTION=4.000
##XUNITS=1/CM
##YUNITS=ABSORBANCE
##FIRSTX=400.163452
##LASTX=4000.187744
##FIRSTY=0.062935
##MAXX=4000.187744
##MINX=400.163452
##MAXY=1.179536
##MINY=-0.020364
##XFACTOR=1.000000
##YFACTOR=1.000000E-008
##NPOINTS=7468
##DELTAX=0.482125
##ZPD=8192
##XYDATA=(X++(Y..Y))
400.163 6293544 6253066 6175772 6055480 5897281 5717333 5536582 5373619 
404.020 5239613 5136616 5059646 5000716 4952903 4912648 4879667 4854623 
407.877 4836686 4821984 4804114 4776311 4734199 4677476 4610020 4537731 
411.734 4465840 4396418 4327598 4254760 4172906 4079143 3974176 3862157 
415.591 3749090 3640692 3540894 3451209 3371374 3300639 3238861 3186832 
419.448 3145794 3116202 3096794 3084201 3073594 3060007 3039967 3012548 
423.305 2979534 2944481 2911143 2881807 2856327 2832176 2805609 2773321 
427.162 2734283 2690550 2647248 2611320 2589538 2586451 2602898 2635592 
431.019 2678037 2722278 2761068 2789529 2806166 2812151 2810352 2803797 
434.876 2794446 2782502 2766782 2745541 2717693 2683659 2645558 2606673 
438.733 2570450 2539547 2515137 2497027 2484231 2475947 2472337 2474755 
442.590 2485256 2505452 2535156 2571494 2608811 2639593 2656379 2653874 
446.447 2630743 2590344 2540066 2489369 2447071 2418709 2405042 2402075 
450.304 2402785 2399750 2387826 2366063 2337834 2309537 2288219 2279021 
454.161 2283459 2299160 2320958 2342853 2360002 2369843 2372245 2368557 
458.017 2360384 2348462 2332284 2310642 2282614 2248632 2211049 2173964 
461.874 2142328 2120641 2111741 2115731 2130768 2152551 2175624 2194460 
465.731 2204654 2203797 2191973 2171721 2147355 2123811 2105237 2093724 
469.588 2088706 2087081 2084240 2075726 2058755 2033189 2001578 1968119 
473.445 1937170 1911734 1892735 1879178 1869116 1860850 1853844 1848866 
477.302 1847386 1850472 1857827 1867395 1875737 1879099 1874625 1861331 
481.159 1840397 1814720 1788105 1764273 1746109 1735290 1732311 1736536 
485.016 1746476 1759930 1774302 1786931 1795637 1799151 1797393 1791348 
488.873 1782628 1772699 1762337 1751335 1738811 1723823 1706111 1686568 
492.730 1667201 1650537 1638777 1632876 1632805 1637116 1643762 1650774 
496.587 1656716 1660815 1662743 1662315 1659300 1653542 1645277 1635427 
500.444 1625718 1618321 1615234 1617592 1625181 1636446 1649020 1660461 
504.301 1669082 1674348 1676875 1678018 1679265 1681708 1685745 1691083 
508.158 1696958 1702344 1706309 1708067 1707215 1703806 1698464 1692328 
512.015 1686824 1683221 1682082 1682856 1683775 1682264 1675814 1662867 
515.871 1643611 1620065 1595560 1573615 1556781 1545728 1539127 1534185 
519.728 1527821 1517769 1503426 1485960 1467820 1451810 1440150 1433844 
523.585 1432553 1434879 1438943 1442821 1445459 1446364 1445783 1444515 
527.442 1443691 1444439 1447584 1453355 1461187 1469713 1477060 1481304 
531.299 1481053 1475864 1466365 1453976 1440366 1426827 1413955 1401669 
535.156 1389667 1377962 1367329 1359297 1355652 1357593 1365041 1376226 
539.013 1388046 1396897 1399894 1395756 1385242 1370773 1355538 1342335 
542.870 1332713 1326617 1322743 1319252 1314642 1308335 1300849 1293513 
546.727 1287938 1285464 1286788 1291821 1299824 1309561 1319573 1328376 
550.584 1334734 1337900 1337829 1335315 1331869 1329336 1329227 1332177 
554.441 1337525 1343354 1347144 1346477 1340400 1329590 1316577 1305012 
558.298 1298668 1300317 1310941 1329528 1353456 1379238 1403425 1423360 
562.155 1437464 1445319 1447411 1444838 1439009 1431427 1423542 1416553 
566.012 1411277 1408040 1406696 1406810 1407929 1409942 1413171 1418385 
569.869 1426426 1437813 1452309 1468833 1485560 1500448 1511790 1518723 
573.725 1521423 1520979 1518943 1516790 1515528 1515467 1516370 1517721 
577.582 1519117 1520505 1522160 1524617 1528331 1533454 1539723 1546502 
581.439 1553063 1558868 1563838 1568475 1573790 1581040 1591359 1605406 
585.296 1623130 1643678 1665556 1686946 1706075 1721512 1732446 1738741 
589.153 1740888 1739818 1736735 1732886 1729431 1727254 1726885 1728382 
593.010 1731341 1734934 1738074 1739727 1739200 1736357 1731740 1726396 
596.867 1721598 1718416 1717466 1718720 1721667 1725557 1729810 1734321 
600.724 1739539 1746325 1755650 1768140 1783802 1801881 1821009 1839556 
604.581 1856147 1870052 1881483 1891610 1902257 1915404 1932654 1954655 
608.438 1980919 2009834 2039103 2066367 2089860 2108912 2124044 2136730 
612.295 2148826 2161860 2176551 2192592 2208903 2224184 2237555 2249002 
616.152 2259550 2270890 2284845 2302607 2324391 2349189 2375248 2400563 
620.009 2423633 2443953 2462118 2479616 2498271 2519579 2544251 2571894 
623.866 2601211 2630329 2657383 2681013 2700715 2716874 2730562 2743146 
627.723 2755861 2769520 2784369 2800243 2816791 2833789 2851280 2869644 
631.579 2889358 2910737 2933728 2957797 2982045 3005494 3027368 3047341 
635.436 3065576 3082561 3098848 3114834 3130639 3146188 3161409 3176455 
639.293 3191765 3207961 3225586 3244834 3265311 3286131 3306160 3324451 
643.150 3340577 3354830 3368121 3381629 3396390 3412934 3431173 3450477 
647.007 3470010 3489029 3507203 3524652 3541872 3559520 3578197 3598240 
650.864 3619678 3642190 3665185 3687874 3709409 3729029 3746265 3761096 
654.721 3774054 3786119 3798479 3812151 3827577 3844415 3861597 3877683 
658.578 3891439 3902370 3911041 3919024 3928443 3941256 3958675 3980699 
662.435 4006235 4033464 4060544 4086172 4109947 4132280 4154037 4175957 
666.292 4198253 4220399 4241309 4259702 4274613 4285693 4293399 4298797 
670.149 4303320 4308365 4315011 4323861 4335024 4348180 4362723 4377863 
674.006 4392839 4406967 4419815 4431274 4441638 4451521 4461787 4473391 
677.863 4487194 4503802 4523450 4545973 4570717 4596581 4622164 4645845 
681.720 4666090 4681756 4692370 4698411 4701281 4703070 4706081 4712303 
685.577 4722915 4738069 4756972 4778279 4800592 4822890 4844827 4866616 
689.433 4888778 4911647 4935084 4958230 4979659 4997641 5010677 5017883 
693.290 5019370 5016363 5011050 5006219 5004747 5008957 5020101 5038018 
697.147 5061183 5087060 5112740 5135752 5154653 5169314 5180788 5190750 
701.004 5200792 5211740 5223391 5234572 5243674 5249186 5250305 5247112 
704.861 5240487 5231715 5222084 5212562 5203651 5195504 5188039 5181057 
708.718 5174259 5167142 5158902 5148468 5134619 5116333 5093047 5064801 
712.575 5032170 4995968 4956881 4915166 4870481 4821999 4768683 4709644 
716.432 4644392 4573026 4496171 4414846 4330297 4243760 4156350 4068954 
720.289 3982144 3896157 3810914 3726159 3641660 3557459 3474087 3392671 
724.146 3314902 3242770 3178286 3123155 3078607 3045303 3023420 3012817 
728.003 3013202 3024293 3045869 3077845 3120304 3173458 3237671 3313329 
731.860 3400682 3499653 3609635 3729390 3857158 3990790 4128071 4266947 
735.717 4405700 4542904 4677357 4807948 4933680 5053787 5167946 5276489 
739.574 5380443 5481327 5580730 5679830 5779074 5877958 5975315 6069727 
743.431 6160053 6245829 6327391 6405785 6482398 6558607 6635509 6713894 
747.287 6794262 6877012 6962558 7051307 7143621 7239555 7338773 7440409 
751.144 7543108 7645043 7744036 7837623 7923213 7998079 8059624 8105528 
755.001 8134065 8144220 8135909 8109837 8067374 8010199 7939967 7858005 
758.858 7765141 7661706 7547649 7422829 7287290 7141478 6986447 6823863 
762.715 6655958 6485287 6314523 6146167 5982392 5824840 5674628 5532294 
766.572 5397879 5271007 5150958 5036697 4927020 4820593 4716129 4612592 
770.429 4509351 4406351 4304174 4203927 4107140 4015358 3929838 3851234 
774.286 3779410 3713404 3651496 3591558 3531302 3468718 3402427 3331918 
778.143 3257644 3180907 3103626 3027876 2955529 2887759 2824908 2766418 
782.000 2711038 2657193 2603384 2548526 2492188 2434537 2376227 2318105 
785.857 2260926 2205109 2150720 2097464 2044867 1992502 1940209 1888215 
789.714 1837186 1788136 1742259 1700684 1664243 1633263 1607543 1586360 
793.571 1568626 1553086 1538536 1523933 1508578 1492092 1474443 1455920 
797.428 1437091 1418741 1401727 1386845 1374610 1365139 1358067 1352647 
801.285 1347977 1343227 1337899 1331830 1325370 1318955 1312989 1307675 
805.141 1303000 1298849 1295222 1292339 1290683 1290763 1292892 1296908 
808.998 1302045 1307052 1310536 1311307 1308763 1303032 1294913 1285578 
812.855 1276292 1268137 1261868 1257996 1256870 1258800 1264001 1272532 
816.712 1284099 1297914 1312748 1327055 1339344 1348488 1354048 1356403 
820.569 1356619 1356212 1356708 1359267 1364399 1371792 1380498 1389176 
824.426 1396564 1401817 1404855 1406390 1407723 1410354 1415516 1423714 
828.283 1434598 1447006 1459382 1470235 1478592 1484234 1487684 1489960 
832.140 1492241 1495520 1500512 1507605 1517223 1529783 1545917 1566321 
835.997 1591623 1622215 1658110 1699036 1744567 1794315 1848041 1905667 
839.854 1967058 2031904 2099548 2169091 2239623 2310500 2381640 2453501 
843.711 2526840 2602178 2679336 2756995 2832731 2903379 2965742 3017444 
847.568 3057580 3086956 3108004 3124229 3139513 3157489 3181192 3213035 
851.425 3255031 3309125 3377480 3462466 3566503 3691608 3839069 4009134 
855.282 4201001 4412970 4642712 4887530 5144519 5410536 5682104 5955369 
859.139 6226108 6489990 6742952 6981645 7203825 7408520 7595952 7767205 
862.995 7923738 8066898 8197553 8315862 8421365 8513110 8590031 8651195 
866.852 8696043 8724491 8736872 8733713 8715443 8682115 8633275 8567978 
870.709 8485035 8383487 8263021 8124257 7968852 7799129 7617576 7426297 
874.566 7226654 7019178 6803888 6580831 6350618 6114758 5875756 5636815 
878.423 5401415 5172848 4953842 4746397 4551799 4370652 4203076 4048797 
882.280 3907415 3778566 3662189 3558702 3469014 3394302 3335633 3293484 
886.137 3267324 3255449 3255171 3263322 3276831 3293322 3311361 3330463 
889.994 3350682 3372185 3394863 3418146 3441093 3462655 3481979 3498602 
893.851 3512414 3523529 3532016 3537730 3540331 3539354 3534584 3526267 
897.708 3515305 3503194 3491800 3482933 3477911 3477131 3479926 3484668 
901.565 3489073 3490828 3488149 3480238 3467554 3451609 3434593 3418763 
905.422 3405887 3396912 3391901 3390266 3391154 3393839 3397950 3403479 
909.279 3410559 3419227 3429202 3439780 3449988 3458722 3465093 3468545 
913.136 3469000 3466824 3462708 3457568 3452362 3447914 3444818 3443277 
916.993 3443047 3443509 3443803 3443020 3440446 3435667 3428647 3419570 
920.849 3408720 3396302 3382418 3367122 3350515 3332927 3314879 3296999 
924.706 3279834 3263658 3248413 3233793 3219488 3205416 3191882 3179543 
928.563 3169167 3161324 3156097 3152979 3151024 3149144 3146488 3142757 
932.420 3138180 3133413 3129156 3125842 3123446 3121465 3119189 3115976 
936.277 3111576 3106267 3100847 3096407 3094102 3094900 3099410 3107926 
940.134 3120440 3136811 3156801 3180183 3206642 3235796 3267157 3300121 
943.991 3334152 3368816 3403962 3439728 3476574 3515094 3555898 3599477 
947.848 3646103 3695828 3748573 3804183 3862485 3923316 3986432 4051409 
951.705 4117579 4184016 4249513 4312685 4371968 4425618 4471632 4507723 
955.562 4531359 4539946 4531131 4503214 4455469 4388298 4303255 4202736 
959.419 4089700 3967341 3838929 3707755 3577135 3450359 3330479 3220069 
963.276 3120774 3033214 2956886 2890566 2832739 2782143 2738092 2700563 
967.133 2669931 2646595 2630580 2621303 2617664 2618265 2621770 2627166 
970.990 2633878 2641649 2650342 2659796 2669726 2679869 2690164 2700906 
974.847 2712876 2727133 2744826 2766802 2793351 2824029 2857783 2893108 
978.703 2928431 2962449 2994343 3023928 3051646 3078386 3105264 3133375 
982.560 3163599 3196404 3231860 3269647 3309234 3349989 3391356 3432905 
986.417 3474462 3516043 3557884 3600444 3644247 3689886 3737901 3788608 
990.274 3841986 3897648 3954902 4013012 4071371 4129843 4188819 4249135 
994.131 4311890 4378105 4448383 4522868 4601219 4682740 4766743 4852621 
997.988 4940032 5028884 5119252 5211396 5305774 5403047 5504130 5610088 
1001.845 5721965 5840480 5965896 6097926 6235947 6379302 6527729 6681607 
1005.702 6841949 7010229 7187876 7375896 7574656 7783894 8003034 8231681 
1009.559 8469943 8718607 8979039 9252802 9541311 9845448 10165519 10501318 
1013.416 10852339 11217995 11597764 11991061 12397204 12815194 13243708 
1016.791 13681127 14125761 14575972 15030356 15487796 15947227 16407593 
1020.166 16867668 17325900 17780558 18229764 18671758 19105134 19528938 
1023.540 19942818 20346956 20742054 21129266 21510230 21887210 22263188 
1026.916 22642032 23028550 23428172 23846648 24289416 24761066 25264912 
1030.291 25802884 26375592 26982676 27623224 28295916 28999144 29730660 
1033.666 30487398 31265136 32058480 32861030 33665728 34465216 35252080 
1037.041 36018844 36757876 37461396 38121448 38730408 39281420 39769136 
1040.417 40189924 40542160 40825864 41042204 41193004 41280244 41305776 
1043.792 41271308 41178520 41029336 40826224 40572612 40273012 39933164 
1047.167 39559896 39160712 38743336 38315164 37882764 37451672 37026128 
1050.542 36609132 36202592 35807376 35423548 35050552 34687504 34333576 
1053.917 33988316 33651908 33325290 33010230 32709148 32425132 32161864 
1057.293 31923678 31715720 31544078 31415694 31338366 31320426 31370426 
1060.668 31496828 31707662 32010106 32410142 32912106 33518368 34229020 
1064.043 35041912 35952892 36956532 38046680 39217268 40462564 41777272 
1067.418 43155988 44592680 46080240 47610340 49173852 50761636 52365316 
1070.794 53977876 55593724 57208288 58817316 60416292 62000172 63563488 
1074.169 65100552 66605692 68073320 69497544 70872064 72190424 73446408 
1077.544 74634696 75751472 76794256 77760968 78648752 79452696 80165560 
1080.919 80778352 81281864 81668456 81933328 82074968 82094712 81995664 
1084.295 81781704 81457176 81026688 80495336 79869184 79155264 78361784 
1087.670 77498016 76574568 75603168 74596248 73566112 72523584 71476696 
1091.045 70429904 69384176 68338048 67289208 66236128 65179164 64120644 
1094.420 63064088 62013024 60969924 59935672 58909772 57891076 56878544 
1097.796 55871952 54872000 53880060 52897696 51926224 50966412 50018416 
1101.171 49081840 48155956 47239916 46332984 45434860 44546004 43667824 
1104.546 42802824 41954520 41127060 40324812 39551956 38812260 38109072 
1107.921 37445328 36823708 36246600 35716128 35233860 34800772 34417144 
1111.297 34082736 33796944 33558896 33367478 33221198 33118006 33055254 
1114.672 33029762 33038222 33077740 33146358 33243370 33369250 33525330 
1118.047 33713220 33934188 34188852 34477020 34797732 35149556 35530592 
1121.422 35938336 36369452 36819400 37282156 37750112 38214248 38664528 
1124.798 39090388 39481292 39827132 40118800 40348580 40510684 40601544 
1128.173 40619976 40566936 40445040 40257892 40009196 39702292 39339744 
1131.548 38923356 38454208 37932924 37359880 36735428 36060196 35335416 
1134.923 34563164 33746448 32889256 31996208 31072268 30122364 29151240 
1138.299 28163550 27163946 26157498 25149708 24146608 23154524 22179812 
1141.674 21228576 20306336 19418066 18567878 17758986 16993680 16273297 
1145.049 15598324 14968567 14383489 13842417 13344765 12890072 12477857 
1148.424 12107390 11777497 11486358 11231612 11010446 10819905 10657088 
1151.800 10519357 10404357 10310084 10234816 10177134 10135911 10110405 
1155.175 10100360 10105855 10127328 10165448 10220902 10294382 10386466 
1158.550 10497659 10628360 10778978 10949913 11141629 11354801 11590398 
1161.925 11849835 12135099 12448835 12794302 13175339 13596232 14061660 
1165.301 14576636 15146551 15777197 16474774 17245882 18097368 19036252 
1168.676 20069554 21204192 22446930 23804226 25282084 26885790 28619450 
1172.051 30485478 32484004 34612116 36863436 39227240 41687824 44223772 
1175.426 46807264 49403688 51971864 54465168 56833696 59027344 60999500 
1178.802 62710400 64129596 65237408 66025172 66494656 66657208 66532648 
1182.177 66147924 65535188 64729608 63767016 62681836 61505632 60266400 
1185.552 58988456 57692592 56396168 55113460 53855456 52630252 51443376 
1188.927 50298496 49198196 48144624 47139844 46185784 45284004 44435296 
1192.302 43639376 42894952 42199856 41551540 40947484 40385476 39863756 
1195.678 39381020 38936160 38528176 38155864 37817816 37512184 37236840 
1199.053 36989336 36767176 36567920 36389400 36229788 36087468 35960820 
1202.428 35848056 35746860 35654568 35568084 35484420 35400772 35314652 
1205.803 35223888 35126380 35019816 34901716 34769312 34619828 34450800 
1209.179 34260152 34046288 33807880 33543826 33253202 32935446 32590610 
1212.554 32219598 31824264 31407130 30971134 30519062 30053458 29576546 
1215.929 29090450 28597438 28100032 27600854 27102294 26606124 26113274 
1219.304 25623998 25138178 24655912 24177862 23705368 23240264 22784426 
1222.680 22339292 21905582 21483260 21071788 20670508 20278914 19896862 
1226.055 19524526 19162286 18810500 18469552 18139732 17821392 17514930 
1229.430 17220786 16939344 16670820 16415069 16171686 15939942 15719028 
1232.805 15508071 15306401 15113555 14929339 14753748 14587051 14429580 
1236.181 14281656 14143367 14014508 13894446 13782215 13676664 13576676 
1239.556 13481404 13390476 13303863 13221805 13144574 13072237 13004626 
1242.931 12941368 12882081 12826587 12775068 12728004 12686087 12650013 
1246.306 12620240 12596928 12579958 12569042 12563838 12564190 12570125 
1249.682 12581867 12599745 12624064 12654971 12692423 12736066 12785339 
1253.057 12839544 12898017 12960260 13026053 13095449 13168688 13246004 
1256.432 13327488 13412893 13501656 13593063 13686372 13781029 13876694 
1259.807 13973166 14070177 14167127 14263025 14356448 14445813 14529549 
1263.183 14606448 14675643 14736615 14788957 14832239 14865869 14889212 
1266.558 14901550 14902335 14891121 14867570 14831334 14782086 14719498 
1269.933 14643422 14553969 14451614 14337040 14210895 14073451 13924481 
1273.308 13763243 13588761 13400273 13197513 12980998 12751932 12511928 
1276.684 12262700 12005798 11742520 11473995 11201359 10925875 10648984 
1280.059 10372138 10096689 9823743 9554232 9288991 9029000 8775569 8530338 
1283.916 8295180 8071984 7862426 7667792 7488957 7326488 7180752 7052155 
1287.774 6941078 6848017 6773440 6717679 6680847 6662729 6662737 6679837 
1291.631 6712577 6759108 6817211 6884460 6958395 7036616 7116921 7197345 
1295.489 7276134 7351771 7422899 7488490 7547864 7600814 7647549 7688717 
1299.346 7725180 7757776 7787198 7813878 7838010 7859646 7878846 7895717 
1303.203 7910461 7923250 7934258 7943486 7950850 7956142 7959138 7959636 
1307.061 7957536 7952851 7945784 7936706 7926166 7914842 7903366 7892248 
1310.918 7881675 7871487 7861257 7850525 7839027 7826995 7815095 7804405 
1314.776 7796037 7790794 7788867 7789752 7792411 7795635 7798376 7800091 
1318.633 7800816 7801049 7801465 7802625 7804709 7807488 7810442 7812940 
1322.490 7814550 7815154 7815078 7815081 7816161 7819479 7826064 7836747 
1326.348 7852061 7872214 7897157 7926778 7960929 7999599 8042888 8090998 
1330.205 8144130 8202321 8265427 8333049 8404627 8479563 8557359 8637645 
1334.063 8720289 8805380 8893191 8984165 9078809 9177714 9281398 9390225 
1337.920 9504309 9623463 9747329 9875437 10007443 10143378 10283518 10428511 
1341.778 10579086 10735924 10899436 11069874 11247285 11431748 11623326 
1345.153 11822173 12028281 12241413 12460963 12686114 12915950 13149767 
1348.528 13387227 13628256 13872787 14120334 14369689 14618702 14864445 
1351.903 15103620 15333040 15550096 15752934 15940374 16111818 16266741 
1355.279 16404773 16525388 16628121 16712631 16778788 16826742 16857026 
1358.654 16870496 16868486 16852728 16825346 16788658 16744921 16696040 
1362.029 16643456 16587941 16529751 16468816 16404849 16337360 16265704 
1365.404 16188817 16105138 16012539 15908459 15790142 15654950 15500769 
1368.780 15326387 15131889 14919104 14691959 14456786 14222404 13999830 
1372.155 13801624 13640894 13530129 13480057 13498591 13590184 13755536 
1375.530 13991594 14291723 14646116 15042147 15464972 15898226 16325009 
1378.905 16729034 17095756 17413138 17672030 17866006 17990944 18044650 
1382.281 18026378 17936862 17778234 17554012 17268844 16928280 16538398 
1385.656 16105661 15636761 15138647 14618365 14082898 13538685 12991250 
1389.031 12444828 11902296 11365320 10834768 10311245 9795561 9289090 
1392.406 8793982 8313147 7849987 7408124 6990934 6601175 6240628 5909983 
1396.264 5608861 5336033 5089704 4867798 4668218 4488902 4327946 4183524 
1400.121 4053924 3937486 3832684 3738125 3652687 3575483 3505855 3443306 
1403.979 3387432 3337726 3293561 3254088 3218385 3185507 3154651 3125288 
1407.836 3097262 3070698 3045928 3023339 3003246 2985779 2970837 2958145 
1411.693 2947302 2937897 2929522 2921844 2914698 2907984 2901796 2896307 
1415.551 2891777 2888474 2886683 2886667 2888712 2893181 2900485 2911091 
1419.408 2925350 2943380 2964932 2989347 3015670 3042858 3070054 3096838 
1423.266 3123313 3150044 3177895 3207815 3240635 3277043 3317617 3362894 
1427.123 3413489 3469994 3532948 3602595 3678906 3761568 3850188 3944536 
1430.980 4044718 4151305 4265249 4387789 4520363 4664561 4822262 4995701 
1434.838 5187512 5400743 5638516 5903908 6199704 6528330 6892055 7293038 
1438.695 7733416 8215075 8739229 9305834 9913114 10557498 11233640 11934820 
1442.553 12653497 13381521 14110535 14832087 15537812 16219769 16870734 
1445.928 17484390 18055512 18579968 19054644 19477514 19847754 20165718 
1449.303 20432914 20651562 20824186 20953008 21039778 21085514 21090814 
1452.678 21055984 20981098 20865948 20709854 20511662 20269988 19983772 
1456.054 19652968 19278916 18864398 18413102 17928838 17415104 16874816 
1459.429 16310802 15726359 15125735 14514098 13897121 13280199 12667879 
1462.804 12063548 11469677 10888325 10321608 9772048 9242376 8735211 8252604 
1466.662 7795794 7365185 6960615 6581582 6227522 5897826 5591814 5308630 
1470.519 5047198 4806107 4583778 4378424 4188274 4011612 3847012 3693451 
1474.376 3550411 3417854 3296119 3185592 3086456 2998404 2920584 2851700 
1478.234 2790263 2734890 2684511 2638394 2596101 2557315 2521672 2488710 
1482.091 2457973 2429021 2401579 2375538 2350939 2327884 2306418 2286664 
1485.949 2268627 2252342 2237826 2224992 2213581 2203215 2193425 2183753 
1489.806 2173943 2164021 2154272 2145044 2136624 2129027 2122110 2115526 
1493.664 2109062 2102665 2096597 2091164 2086619 2082885 2079511 2075741 
1497.521 2070826 2064289 2056159 2046949 2037555 2028939 2021904 2016932 
1501.378 2014132 2013244 2013788 2015060 2016287 2016647 2015422 2012191 
1505.236 2007029 2000517 1993732 1987886 1983957 1982341 1982682 1984062 
1509.093 1985259 1985233 1983355 1979552 1974184 1967836 1961087 1954382 
1512.951 1948033 1942363 1937702 1934412 1932728 1932608 1933627 1935039 
1516.808 1935959 1935726 1934041 1931123 1927477 1923668 1919981 1916281 
1520.666 1912143 1906965 1900341 1892234 1882976 1873111 1863179 1853558 
1524.523 1844436 1835876 1828090 1821444 1816432 1813532 1812924 1814298 
1528.380 1816842 1819415 1820822 1820187 1817092 1811738 1804723 1796875 
1532.238 1789028 1781730 1775310 1769814 1765031 1760678 1756473 1752203 
1536.095 1747801 1743343 1739080 1735291 1732237 1730034 1728561 1727517 
1539.953 1726482 1725079 1723089 1720406 1717065 1713019 1708117 1702042 
1543.810 1694494 1685331 1674795 1663581 1652766 1643573 1636996 1633567 
1547.667 1633183 1635211 1638538 1642009 1644667 1645873 1645485 1643722 
1551.525 1641130 1638347 1636031 1634636 1634448 1635366 1637103 1639078 
1555.382 1640716 1641500 1641163 1639594 1636962 1633535 1629619 1625441 
1559.240 1621234 1617226 1613676 1610913 1609249 1608888 1609771 1611588 
1563.097 1613782 1615649 1616513 1615961 1613761 1610073 1605213 1599655 
1566.955 1593934 1588598 1584131 1580932 1579216 1578945 1579755 1581092 
1570.812 1582339 1583049 1583145 1582943 1583119 1584368 1587164 1591531 
1574.669 1596943 1602459 1607048 1609860 1610519 1609208 1606463 1603031 
1578.527 1599596 1596647 1594542 1593496 1593730 1595476 1598870 1603880 
1582.384 1610251 1617421 1624724 1631468 1637158 1641597 1644889 1647370 
1586.242 1649415 1651430 1653709 1656496 1659996 1664334 1669591 1675677 
1590.099 1682334 1689135 1695622 1701405 1706381 1710732 1714897 1719356 
1593.957 1724484 1730297 1736472 1742515 1747851 1752171 1755565 1758473 
1597.814 1761583 1765564 1770867 1777647 1785715 1794778 1804572 1814933 
1601.671 1825911 1837601 1850024 1862991 1876017 1888452 1899579 1908922 
1605.529 1916297 1921965 1926574 1930984 1936103 1942709 1951292 1962030 
1609.386 1974706 1988846 2003699 2018438 2032275 2044644 2055300 2064389 
1613.244 2072417 2080118 2088228 2097307 2107622 2119026 2131149 2143403 
1617.101 2155191 2166036 2175639 2183844 2190648 2196122 2200459 2204044 
1620.958 2207388 2211149 2215921 2222044 2229492 2237766 2246028 2253296 
1624.816 2258756 2262006 2263094 2262531 2260998 2259146 2257376 2255750 
1628.673 2254090 2252115 2249649 2246691 2243401 2240149 2237224 2234821 
1632.531 2233031 2231731 2230747 2229819 2228650 2226959 2224485 2221058 
1636.388 2216673 2211524 2206003 2200663 2196003 2192405 2189969 2188568 
1640.246 2187794 2187148 2186198 2184558 2182063 2178596 2174189 2168882 
1644.103 2162893 2156591 2150567 2145567 2142329 2141394 2142887 2146422 
1647.960 2151175 2156093 2160198 2162795 2163664 2162994 2161225 2158992 
1651.818 2156886 2155400 2155059 2156235 2159314 2164576 2172089 2181698 
1655.675 2192920 2205055 2217363 2229159 2240022 2249798 2258583 2266540 
1659.533 2273883 2280675 2287005 2292912 2298624 2304470 2310894 2318385 
1663.390 2327293 2337801 2349985 2363738 2378945 2395498 2413125 2431423 
1667.248 2449753 2467261 2483142 2496826 2508207 2517781 2526466 2535277 
1671.105 2545023 2555928 2567667 2579528 2590761 2601000 2610471 2619982 
1674.962 2630649 2643432 2658854 2676720 2696289 2716439 2736161 2754732 
1678.820 2771896 2787807 2802869 2817605 2832533 2848200 2865200 2884115 
1682.677 2905528 2929814 2957031 2986813 3018367 3050698 3082856 3114165 
1686.535 3144420 3173710 3202514 3231437 3261224 3292602 3326229 3362598 
1690.392 3401860 3443737 3487534 3532221 3576795 3620618 3663729 3706965 
1694.250 3751732 3799678 3852119 3909578 3971679 4037321 4105179 4174183 
1698.107 4244015 4315078 4388421 4465333 4547056 4634492 4728098 4828082 
1701.964 4934396 5046892 5165329 5289358 5418575 5552545 5691105 5834477 
1705.822 5983329 6138657 6301525 6472663 6652311 6840244 7035953 7239070 
1709.679 7449605 7668099 7895594 8133084 8381465 8641053 8911631 9192598 
1713.537 9483119 9782337 10089406 10403489 10723810 11049454 11379704 
1716.912 11713984 12052118 12394272 12741010 13093056 13451380 13817172 
1720.287 14191930 14577749 14977150 15393074 15828525 16286415 16769353 
1723.662 17279948 17820994 18396010 19009484 19666890 20374452 21138620 
1727.038 21965688 22861252 23830148 24876322 26003184 27213848 28511652 
1730.413 29900864 31387470 32979458 34686920 36521000 38492272 40608288 
1733.788 42871816 45279864 47824772 50496792 53287224 56190968 59206672 
1737.163 62334924 65574692 68919472 72354888 75858400 79401408 82952472 
1740.539 86480120 89953872 93343720 96618616 99746248 102694192 105432800 
1743.914 107937696 110190632 112178112 113888528 115310288 116432056 
1746.807 117245616 117749976 117953624 117873752 117532504 116951776 
1749.700 116149488 115138792 113930080 112534248 110965136 109239336 
1752.593 107374152 105384776 103282360 101074448 98767160 96368344 93889544 
1755.968 91346696 88758608 86144760 83522840 80907592 78310880 75742440 
1759.344 73210912 70724712 68292096 65920888 63618176 61390228 59242220 
1762.719 57178384 55201840 53314276 51515704 49804340 48176904 46629192 
1766.094 45156872 43756232 42424436 41159272 39958564 38819296 37737084 
1769.469 36706196 35719880 34771252 33854188 32963884 32097066 31251684 
1772.844 30426162 29618770 28827068 28047702 27276868 26510682 25745920 
1776.220 24980534 24213706 23445984 22678732 21913784 21153030 20398172 
1779.595 19650522 18911178 18181070 17460988 16751751 16054322 15369940 
1782.970 14700279 14047509 13414311 12803538 12217958 11659710 11130106 
1786.345 10629489 10157426 9712974 9295008 8902302 8533745 8188203 7864592 
1790.203 7561873 7279306 7016334 6772600 6547615 6340672 6150407 5974973 
1794.060 5812231 5660192 5517329 5382865 5256528 5138328 5027975 4924825 
1797.918 4827850 4735946 4648411 4565132 4486548 4413410 4346131 4284456 
1801.775 4227239 4172766 4119167 4065086 4010008 3954405 3899354 3846280 
1805.633 3796308 3750059 3707510 3668104 3630855 3594715 3558679 3521957 
1809.490 3484162 3445375 3405973 3366589 3327586 3288908 3249822 3209133 
1813.347 3165611 3118713 3069088 3018837 2971241 2929947 2897906 2876529 
1817.205 2865111 2861124 2860928 2861043 2858920 2853453 2844824 2833904 
1821.062 2821648 2808667 2794988 2780397 2764499 2747014 2727722 2706348 
1824.920 2682554 2655896 2626088 2593192 2557713 2520611 2482914 2445402 
1828.777 2408451 2371904 2335323 2298447 2261194 2223852 2186758 2150111 
1832.635 2113760 2077476 2041152 2005518 1972137 1943505 1922171 1910008 
1836.492 1907312 1912407 1921858 1931408 1936832 1935174 1925167 1907377 
1840.349 1883688 1856598 1828491 1801204 1775746 1752530 1731380 1711916 
1844.207 1693614 1676037 1658816 1641989 1625769 1610611 1597090 1585711 
1848.064 1576689 1569936 1565036 1561489 1558627 1555964 1552949 1549076 
1851.922 1543744 1536213 1525744 1511843 1494325 1473499 1450151 1425422 
1855.779 1400687 1377399 1356921 1340479 1329050 1323249 1323054 1327974 
1859.636 1336788 1347781 1359100 1368941 1375732 1378435 1376533 1369945 
1863.494 1359129 1345144 1329571 1314552 1302191 1294361 1291780 1293792 
1867.351 1298326 1302308 1302676 1297331 1285810 1269647 1251654 1235115 
1871.209 1222625 1215329 1212695 1213102 1214555 1215592 1215728 1215638 
1875.066 1216568 1219732 1225724 1234359 1244564 1254927 1263906 1270211 
1878.924 1272782 1270660 1263009 1249168 1228805 1202414 1171383 1138178 
1882.781 1105741 1077005 1053980 1037525 1027173 1021642 1019455 1019855 
1886.638 1023186 1030735 1044020 1064044 1090177 1119897 1149001 1172585 
1890.496 1186469 1188342 1178454 1159615 1136194 1112915 1093444 1079696 
1894.353 1071659 1067817 1066142 1065007 1063604 1062270 1061973 1064071 
1898.211 1069827 1080111 1095459 1116035 1141439 1170881 1202694 1234560 
1902.068 1263645 1287255 1303196 1310619 1309996 1303007 1291925 1279030 
1905.926 1266002 1253727 1242371 1231735 1221467 1211292 1200945 1190094 
1909.783 1178244 1164907 1149743 1133167 1115797 1099064 1084053 1071232 
1913.640 1060321 1049721 1037491 1022013 1002650 980320 957439 937142 922672 
1917.980 916324 918862 929630 946746 967748 990331 1012750 1033949 1053635 
1922.320 1071910 1089185 1105670 1121392 1135877 1148225 1157308 1161933 
1926.177 1161091 1154372 1141578 1123220 1099457 1070486 1036114 996394 
1930.034 952030 905346 860319 822648 798436 792863 808358 843727 893885 
1934.374 951169 1007268 1055329 1091523 1115481 1129663 1137595 1142375 
1938.231 1145700 1147463 1146901 1143343 1137378 1130629 1125005 1121633 
1942.089 1120060 1117840 1112246 1101340 1085822 1069217 1056770 1052868 
1945.946 1058998 1071460 1082185 1080571 1057329 1008175 935663 849130 
1949.804 761959 687772 636357 611525 610699 626969 651406 676012 695260 
1954.143 705753 705972 694952 671655 635776 587752 530303 468247 408286 
1958.483 358183 325440 316462 336011 386281 466762 573693 699127 831924 
1962.823 958626 1066191 1144508 1189463 1202892 1192338 1167292 1136571 
1966.680 1104988 1073414 1039605 1000925 957052 911235 870133 842241 835583 
1971.020 856860 909921 996237 1114733 1260871 1425137 1593096 1745193 
1974.877 1859692 1918481 1911485 1841985 1727240 1595486 1478749 1403671 
1978.734 1383597 1416614 1487445 1573468 1652158 1705639 1723080 1702276 
1982.592 1648222 1571203 1484064 1399538 1327433 1272632 1235242 1210822 
1986.449 1192976 1175125 1153058 1125715 1094737 1062855 1032596 1003895 
1990.307 974769 942238 903476 858561 810929 766798 734149 720711 731592 
1994.646 768593 829057 906574 991790 1073909 1142521 1189296 1210310 1207238 
1998.986 1186961 1160179 1138334 1129181 1134665 1148853 1159978 1153676 
2002.843 1117864 1046585 942204 814334 678028 549124 441700 365404 324233 
2007.183 317383 340582 387078 450103 523055 600915 680862 761284 841205 
2011.522 918220 986743 1038098 1061803 1049377 998683 916715 819924 730581 
2015.862 669791 651117 675027 728719 790995 839194 857629 842634 802313 
2020.202 753579 714885 700669 717299 761617 822800 886092 934977 955258 
2024.541 936467 874433 772136 640545 496832 362214 256473 194035 180740 
2028.881 214253 286824 389612 517020 666947 838389 1026910 1220088 1397425 
2033.220 1533969 1607889 1609026 1542825 1429134 1296965 1174085 1079975 
2037.078 1022462 998538 999075 1015488 1042520 1079785 1128994 1190132 
2040.935 1259010 1326051 1378783 1405374 1398307 1356171 1284226 1192293 
2044.793 1092654 997302 917258 861876 838281 851729 903208 988852 1098523 
2049.132 1217258 1327825 1415002 1469070 1487684 1474612 1438179 1388087 
2052.990 1332552 1276722 1221867 1165793 1105323 1038238 965319 891517 
2056.847 824908 774942 749873 754574 788823 847197 920425 997391 1067370 
2061.187 1121881 1155946 1167914 1159734 1135709 1102509 1067485 1037959 
2065.044 1019937 1016832 1028424 1051453 1079994 1107926 1130412 1145910 
2068.902 1156078 1165453 1178926 1200088 1229458 1264105 1298531 1326150 
2072.759 1341633 1342335 1329029 1306081 1280374 1259647 1250923 1258586 
2076.616 1282967 1320171 1362118 1398732 1419811 1417902 1390036 1338340 
2080.474 1269305 1192053 1115859 1048730 996268 961925 947359 952881 977077 
2084.813 1016455 1064271 1111364 1147329 1163245 1154310 1121705 1072265 
2088.671 1016761 966072 928110 905631 896438 895357 896900 897947 898539 
2093.010 901190 909125 924101 945676 971238 997372 1021489 1042462 1060336 
2097.350 1075795 1088681 1098451 1104440 1107010 1107983 1110287 1116235 
2101.208 1126026 1136917 1143983 1142334 1129896 1109263 1087638 1074481 
2105.065 1077663 1100260 1138734 1184290 1226040 1255404 1269046 1269577 
2108.922 1264193 1261024 1266174 1281494 1304911 1331608 1356337 1374732 
2112.780 1383716 1380897 1363973 1330632 1279341 1210811 1129023 1041116 
2116.637 956293 883216 827670 791108 770539 760024 753103 744741 732587 
2120.977 716683 698493 679577 660436 640632 618981 594252 566105 534825 
2125.316 501579 467990 435694 405963 379441 355406 331692 304344 268366 
2129.656 219003 153242 71085 -23615 -124511 -224230 -317056 -400473 -475196 
2133.996 -543925 -608827 -669043 -720141 -755162 -767576 -753972 -715704 
2137.853 -658718 -591330 -521255 -454488 -394448 -343916 -306420 -286978 
2141.710 -291202 -322437 -378947 -452438 -528412 -590480 -624886 -625669 
2145.568 -597194 -553472 -513884 -498392 -520554 -585022 -685739 -807923 
2149.425 -931695 -1036736 -1106571 -1132316 -1115118 -1066668 -1007159 
2152.801 -961995 -955417 -1005005 -1116618 -1282493 -1482546 -1688653 
2156.176 -1869159 -1993541 -2036411 -1979420 -1814055 -1545605 -1193132 
2159.551 -790678 -381012 -6757 297591 512741 636817 683035 675897 644878 
2163.891 615942 607512 625133 661289 699094 716793 694726 621377 496876 
2168.230 333597 153332 -17441 -154314 -241820 -276400 -267897 -234610 
2172.088 -197161 -170565 -159147 -155098 -143446 -108446 -43126 46559 141655 
2176.427 216534 248215 225864 154117 53077 -48535 -121913 -146056 -112948 
2180.767 -28658 90083 221604 345624 448415 525648 582462 630156 682604 
2185.106 751405 841200 948295 1059814 1157714 1223060 1242079 1210651 
2188.964 1135840 1033096 922475 821758 742852 689562 659588 647951 651202 
2193.303 669090 704532 760212 835123 922102 1008147 1077424 1116342 1118627 
2197.643 1088171 1038560 989446 961029 967070 1011340 1086042 1173384 
2201.500 1251354 1299147 1303174 1260288 1178224 1072871 963103 865701 
2205.358 791421 743368 718876 712271 718535 735106 762239 799789 846158 
2209.698 895509 939295 968557 978337 969934 951713 936366 936718 960876 
2214.037 1010525 1080410 1161910 1246674 1329383 1407989 1481851 1548388 
2217.895 1601774 1632714 1632097 1595626 1527181 1439840 1353451 1288460 
2221.752 1260239 1274523 1326093 1401313 1483146 1555603 1607683 1634263 
2225.609 1634595 1610933 1566398 1504693 1430702 1351188 1274923 1211472 
2229.467 1169221 1153075 1162883 1193593 1237033 1283762 1326035 1358659 
2233.324 1379620 1389122 1388723 1380100 1364970 1345471 1325067 1308248 
2237.182 1300800 1308196 1333509 1376140 1430658 1487007 1533377 1558891 
2241.039 1557566 1530331 1485553 1436577 1397819 1379881 1386353 1412270 
2244.896 1446380 1475387 1488585 1482285 1460656 1433847 1414160 1410865 
2248.754 1427195 1458925 1496402 1527842 1543456 1538028 1512329 1471959 
2252.611 1426046 1384374 1355783 1346722 1360150 1394910 1445766 1503781 
2256.469 1557966 1597853 1616198 1611098 1586891 1552788 1520103 1498544 
2260.326 1493328 1503960 1524885 1548031 1566135 1574939 1574673 1569140 
2264.184 1564147 1565326 1576419 1598565 1630701 1669942 1712990 1756037 
2268.041 1795776 1829269 1854222 1869435 1874830 1871525 1861679 1847895 
2271.898 1832826 1818866 1808030 1801816 1801454 1807331 1819030 1834919 
2275.756 1852401 1868424 1880144 1886002 1886032 1881600 1875120 1868783 
2279.613 1864329 1862830 1865026 1872043 1885474 1907213 1938628 1979464 
2283.471 2027098 2076891 2122887 2159383 2182399 2190517 2184946 2168702 
2287.328 2145522 2118946 2091646 2065348 2041199 2019949 2002248 1988499 
2291.186 1978850 1972900 1969891 1968826 1968705 1968515 1967556 1965093 
2295.043 1960558 1953702 1944711 1934358 1924174 1915623 1910119 1907857 
2298.900 1908040 1908797 1907947 1903802 1895857 1884777 1872257 1860222 
2302.758 1850243 1843021 1838648 1836770 1837186 1839904 1845183 1853119 
2306.615 1863432 1875270 1887612 1899455 1910368 1920272 1929448 1937911 
2310.473 1945348 1951031 1954366 1955399 1955205 1955722 1959155 1967068 
2314.330 1979872 1996548 2015190 2033866 2051519 2068180 2084818 2102783 
2318.188 2123041 2146208 2172851 2204115 2242105 2289320 2347288 2414592 
2322.045 2485399 2549347 2593277 2604439 2574170 2500515 2389096 2251753 
2325.902 2103760 1960348 1833691 1730804 1653244 1598069 1559841 1532980 
2329.760 1513205 1498277 1487498 1480908 1478275 1478471 1480000 1481145 
2333.617 1480808 1478619 1475141 1471230 1467805 1465288 1463714 1462696 
2337.475 1461922 1461194 1460528 1460083 1460014 1460307 1460789 1461223 
2341.332 1461414 1461290 1460757 1459679 1457727 1454230 1448455 1439676 
2345.189 1427561 1412384 1395194 1377480 1361227 1348272 1339949 1337031 
2349.047 1339395 1346193 1356032 1367273 1378195 1387386 1393737 1396749 
2352.904 1396316 1392910 1387259 1380300 1372881 1365490 1358318 1350915 
2356.762 1342615 1332619 1320372 1305835 1289411 1272056 1254926 1239067 
2360.619 1225198 1213566 1203870 1195524 1187762 1179807 1171113 1161268 
2364.477 1150310 1138691 1127267 1117361 1110518 1108200 1111304 1119730 
2368.334 1132453 1147405 1161999 1173822 1181170 1183437 1181166 1175667 
2372.191 1168776 1162168 1157100 1154401 1154436 1157185 1162441 1169706 
2376.049 1178432 1187926 1197695 1207494 1217592 1228596 1241376 1256446 
2379.906 1273830 1292710 1311593 1328592 1342043 1350863 1354816 1354386 
2383.764 1350571 1344554 1337486 1330392 1324312 1320143 1318912 1321133 
2387.621 1326929 1335524 1345414 1354578 1361165 1363742 1362003 1356491 
2391.479 1348673 1340121 1332386 1326423 1322715 1321230 1321962 1325001 
2395.336 1330581 1339163 1350949 1365775 1382637 1399863 1415157 1426132 
2399.193 1430924 1428802 1420463 1408106 1394851 1384003 1378039 1377896 
2403.051 1382691 1390174 1397573 1402528 1404077 1402662 1400197 1398829 
2406.908 1400564 1406285 1415898 1428420 1442623 1457384 1471869 1485236 
2410.766 1496705 1505214 1509933 1510430 1507285 1502006 1496814 1493851 
2414.623 1494336 1498109 1503750 1509020 1512026 1511832 1509005 1505023 
2418.480 1501730 1500388 1501020 1502515 1503213 1501364 1496178 1487784 
2422.338 1477206 1465729 1454582 1444434 1435658 1428240 1422138 1417371 
2426.195 1413888 1411635 1410245 1409359 1408791 1408606 1409253 1411229 
2430.053 1414667 1419029 1423066 1425046 1423459 1417508 1407774 1395904 
2433.910 1384365 1375561 1371093 1371438 1375855 1382563 1389716 1395498 
2437.768 1398778 1399095 1396793 1392639 1387771 1383286 1380102 1378678 
2441.625 1378885 1380158 1381717 1382859 1383427 1383783 1384794 1387423 
2445.482 1392400 1399909 1409712 1421312 1434372 1448572 1463858 1479728 
2449.340 1495021 1507837 1515816 1516954 1510671 1498058 1482228 1467210 
2453.197 1456951 1453677 1457458 1465849 1475077 1481034 1480830 1473471 
2457.055 1459877 1442369 1423684 1405928 1390223 1376536 1364052 1351703 
2460.912 1338972 1326039 1314002 1304556 1299740 1301192 1309694 1324622 
2464.770 1344263 1365826 1386384 1403642 1416553 1425494 1431913 1437455 
2468.627 1443240 1449326 1454735 1458072 1458489 1456168 1452559 1449638 
2472.484 1449090 1451225 1454989 1458064 1458215 1454269 1446862 1438315 
2476.342 1431835 1429943 1433723 1442181 1453047 1463494 1471523 1476357 
2480.199 1478802 1480048 1481227 1482523 1483395 1482883 1480652 1477060 
2484.057 1473651 1472151 1473814 1478792 1485909 1493021 1498182 1500252 
2487.914 1499791 1498652 1499511 1504869 1516061 1532731 1552800 1572914 
2491.771 1589362 1598820 1599112 1589739 1571904 1548114 1521763 1496137 
2495.629 1473894 1456365 1443594 1434642 1428153 1422860 1418279 1414342 
2499.486 1411678 1410733 1411870 1415055 1420181 1427149 1436211 1447597 
2503.344 1461140 1475968 1490198 1501297 1507014 1506083 1499200 1488938 
2507.201 1479296 1474216 1476437 1486359 1501892 1519084 1533401 1541162 
2511.059 1540521 1532040 1518163 1502452 1488585 1479272 1475892 1478091 
2514.916 1484313 1492184 1499332 1503998 1505588 1504658 1502832 1502020 
2518.773 1503611 1507961 1514141 1520230 1524188 1524734 1521950 1517377 
2522.631 1513405 1512304 1515085 1521319 1529141 1536076 1540255 1540999 
2526.488 1539333 1537189 1536693 1539059 1544322 1551109 1557771 1562625 
2530.346 1565057 1565449 1564803 1564156 1564003 1563978 1563186 1560529 
2534.203 1555426 1548125 1539791 1532084 1526786 1525142 1527767 1534289 
2538.061 1543876 1555156 1566952 1578191 1588334 1597047 1604457 1610503 
2541.918 1615047 1617533 1617199 1613290 1605625 1594777 1582462 1571008 
2545.775 1563076 1560711 1564824 1574827 1589039 1604938 1620261 1633124 
2549.633 1642615 1648423 1650587 1649175 1644441 1636866 1627742 1619046 
2553.490 1613489 1613459 1620505 1634322 1652796 1672166 1688209 1697266 
2557.348 1697346 1688493 1672702 1653370 1634482 1619885 1612753 1615089 
2561.205 1627654 1649545 1678300 1709892 1739452 1762006 1773964 1773814 
2565.063 1762914 1745060 1725561 1709694 1701440 1702433 1711824 1726802 
2568.920 1743837 1759557 1771530 1778620 1780884 1778950 1773960 1767071 
2572.777 1759625 1753061 1748747 1747905 1751204 1758475 1768739 1780309 
2576.635 1791216 1799655 1804392 1804877 1801490 1795106 1787105 1778875 
2580.492 1771989 1767803 1767499 1771766 1780876 1794391 1811304 1829992 
2584.350 1848612 1865178 1877946 1885492 1887081 1882622 1872853 1859106 
2588.207 1843473 1828159 1815308 1806535 1802676 1803753 1809123 1817731 
2592.064 1828613 1840827 1853763 1866688 1878797 1888857 1895704 1898182 
2595.922 1895849 1889107 1879212 1867915 1857053 1847779 1840508 1834827 
2599.779 1829993 1825509 1821442 1818732 1818728 1822762 1831574 1844773 
2603.637 1861066 1878463 1894903 1908631 1918686 1924671 1926784 1925225 
2607.494 1920432 1912869 1903290 1893059 1883924 1877819 1876442 1880509 
2611.352 1889583 1901969 1915259 1926926 1935287 1939829 1941385 1941778 
2615.209 1942982 1946629 1953178 1962005 1971604 1979963 1985447 1986996 
2619.066 1984642 1979196 1972176 1965260 1960055 1957800 1959141 1964143 
2622.924 1972488 1983198 1995328 2007730 2019394 2029610 2037971 2044263 
2626.781 2048572 2051102 2052063 2051837 2050857 2049841 2049791 2051728 
2630.639 2056692 2065200 2077182 2091648 2106921 2120752 2131078 2136297 
2634.496 2135825 2130195 2121012 2110521 2101022 2094447 2091760 2093015 
2638.354 2097262 2102952 2108368 2112219 2113915 2113606 2112289 2111212 
2642.211 2111526 2113811 2117765 2122291 2125712 2126297 2122872 2115197 
2646.068 2104126 2091409 2079216 2069484 2063572 2061777 2063538 2067533 
2649.926 2072244 2076448 2079321 2080602 2080418 2079068 2076708 2073273 
2653.783 2068502 2062109 2053897 2043935 2032638 2020584 2008375 1996440 
2657.641 1984834 1973323 1961442 1948688 1934677 1919336 1902800 1885534 
2661.498 1867951 1850463 1833248 1816353 1799795 1783663 1768361 1754436 
2665.355 1742677 1733677 1727687 1724403 1722903 1721895 1720026 1716272 
2669.213 1710299 1702467 1693842 1685663 1679035 1674534 1672043 1670862 
2673.070 1669978 1668481 1665826 1662099 1657804 1653796 1650920 1649733 
2676.928 1650381 1652604 1655835 1659338 1662491 1664762 1665962 1666100 
2680.785 1665535 1664690 1664043 1663936 1664596 1665788 1667097 1667902 
2684.643 1667579 1665623 1661932 1656697 1650548 1644208 1638534 1634195 
2688.500 1631597 1630869 1631866 1634201 1637332 1640601 1643445 1645367 
2692.357 1646060 1645450 1643654 1641034 1638042 1635039 1632452 1630507 
2696.215 1629395 1629242 1629950 1631374 1633134 1634578 1634924 1633312 
2700.072 1629032 1621883 1612192 1600910 1589372 1578982 1570950 1565929 
2703.930 1563984 1564608 1566985 1570089 1573131 1575593 1577264 1578309 
2707.787 1579062 1579907 1581280 1583345 1586065 1589123 1592010 1594178 
2711.645 1595381 1595637 1595374 1595330 1596124 1598084 1600939 1603750 
2715.502 1605284 1604319 1600216 1593072 1583901 1574180 1565624 1559430 
2719.359 1556182 1555764 1557620 1561029 1565426 1570501 1576099 1581900 
2723.217 1587502 1592100 1594916 1595308 1593229 1589218 1584419 1580149 
2727.074 1577645 1577576 1580108 1584703 1590563 1596866 1602961 1608489 
2730.932 1613276 1617405 1620865 1623703 1625889 1627352 1628125 1628201 
2734.789 1627606 1626322 1624266 1621345 1617567 1612990 1608024 1603176 
2738.646 1599154 1596741 1596405 1598407 1602434 1607751 1613189 1617488 
2742.504 1619597 1618978 1615900 1611346 1606947 1604335 1604847 1608882 
2746.361 1615953 1624604 1632963 1639277 1642288 1641625 1637702 1631468 
2750.219 1624014 1616215 1608590 1601461 1594959 1589388 1585119 1582595 
2754.076 1582104 1583399 1585840 1588329 1589819 1589449 1587136 1583433 
2757.934 1579441 1576430 1575251 1576166 1578618 1581637 1584036 1585045 
2761.791 1584580 1583206 1582008 1582107 1584146 1587958 1592579 1596450 
2765.648 1597852 1595604 1589343 1579708 1568250 1556955 1547702 1541737 
2769.506 1539579 1540842 1544671 1550064 1556129 1562493 1569130 1576189 
2773.363 1583882 1592092 1600426 1608194 1614596 1618987 1621151 1621284 
2777.221 1620139 1618667 1617977 1618911 1621954 1626996 1633413 1640139 
2781.078 1645953 1649807 1650990 1649370 1645421 1640135 1634725 1630510 
2784.936 1628604 1629925 1634875 1643543 1655602 1670326 1686733 1703438 
2788.793 1719036 1732129 1741655 1747067 1748354 1746123 1741404 1735267 
2792.650 1728781 1722837 1717962 1714531 1712789 1712784 1714488 1717715 
2796.508 1722053 1726899 1731644 1735825 1739247 1742181 1745294 1749322 
2800.365 1755044 1762784 1772354 1783002 1793617 1802963 1810155 1814681 
2804.223 1816832 1817474 1817815 1819212 1822706 1828814 1837295 1847413 
2808.080 1858055 1868050 1876621 1883409 1888630 1892822 1896637 1900501 
2811.938 1904640 1908781 1912705 1916101 1918892 1921210 1923500 1926217 
2815.795 1929741 1934309 1939950 1946588 1953998 1962027 1970514 1979385 
2819.652 1988582 1998134 2008079 2018438 2029209 2040098 2050593 2059903 
2823.510 2067114 2071540 2072921 2071685 2068878 2066079 2064756 2065984 
2827.367 2070090 2076599 2084673 2093255 2101717 2109944 2118279 2127390 
2831.225 2137698 2149441 2162470 2176422 2191000 2206159 2222137 2239184 
2835.082 2257539 2277024 2297130 2317438 2337526 2357710 2378815 2402299 
2838.939 2429794 2462805 2502355 2548943 2602562 2662860 2729368 2801713 
2842.797 2879609 2962947 3051929 3147067 3249305 3359913 3480268 3611215 
2846.654 3752563 3902442 4056920 4210334 4355765 4486205 4595569 4679635 
2850.512 4736561 4766790 4772485 4756825 4723153 4674344 4612760 4540220 
2854.369 4458464 4369426 4275487 4179347 4083836 3991282 3903307 3820405 
2858.227 3742020 3667112 3594428 3523225 3453481 3386100 3322482 3264093 
2862.084 3211871 3166045 3125932 3090466 3058296 3028709 3001629 2977949 
2865.941 2959050 2946477 2941400 2944268 2954619 2971203 2992292 3016188 
2869.799 3041517 3067708 3095093 3124697 3158084 3196753 3241796 3293360 
2873.656 3350682 3412003 3475030 3537472 3597326 3653442 3705370 3753396 
2877.514 3797910 3839306 3877600 3912387 3943028 3968773 3989131 4003920 
2881.371 4013235 4017446 4016847 4011768 4002270 3988449 3970521 3948890 
2885.229 3924327 3898015 3871345 3845726 3822549 3802713 3786689 3774371 
2889.086 3765226 3758702 3754229 3751638 3751169 3753423 3759093 3768647 
2892.943 3782254 3799434 3819457 3841330 3864202 3887481 3910861 3934322 
2896.801 3957774 3981051 4003793 4025546 4046040 4065283 4083702 4102020 
2900.658 4121120 4141879 4164774 4190016 4217469 4246815 4277812 4310148 
2904.516 4343639 4378156 4413839 4450831 4489540 4530680 4575103 4623732 
2908.373 4677495 4736991 4802552 4874358 4952356 5036809 5128164 5227226 
2912.230 5335113 5452787 5581008 5720094 5869591 6028427 6194865 6366522 
2916.088 6540551 6713835 6883114 7045180 7197036 7336079 7460268 7567993 
2919.945 7658350 7730926 7786039 7824637 7848203 7858778 7858539 7849604 
2923.803 7833712 7812026 7785162 7753362 7716966 7676592 7633224 7588433 
2927.660 7543934 7501474 7462326 7427449 7397435 7372788 7354074 7342115 
2931.518 7337921 7342483 7356649 7380789 7414911 7458607 7511303 7572487 
2935.375 7641960 7719726 7806293 7902232 8008270 8124813 8251955 8388891 
2939.232 8534002 8684720 8837584 8988536 9133326 9267803 9388330 9491834 
2943.090 9575853 9638392 9677821 9692992 9683232 9648685 9590401 9510418 
2946.947 9411627 9297267 9170581 9034191 8890101 8739528 8583274 8422080 
2950.805 8256887 8089160 7920851 7754175 7591215 7433813 7283048 7139452 
2954.662 7002803 6872612 6748198 6628979 6514773 6405512 6301395 6202616 
2958.520 6109288 6021167 5937761 5858499 5782677 5709892 5639995 5573280 
2962.377 5510174 5451422 5397449 5348631 5304830 5265553 5230092 5197494 
2966.234 5166878 5137508 5109024 5081428 5054923 5029960 5007048 4986435 
2970.092 4968181 4952193 4938083 4925629 4914766 4905783 4899345 4896323 
2973.949 4897659 4904237 4916550 4934849 4959118 4989211 5024969 5066319 
2977.807 5113206 5165618 5223432 5286441 5354408 5426982 5504060 5585829 
2981.664 5672812 5766049 5867044 5977524 6099458 6234656 6384526 6549647 
2985.521 6729635 6923044 7127600 7340342 7558305 7778728 7999447 8218855 
2989.379 8435721 8648824 8856388 9056071 9244829 9419070 9575360 9710713 
2993.236 9822950 9911114 9975013 10015235 10032819 10028794 10004400 9960835 
2997.094 9899517 9822112 9730522 9626520 9511761 9387445 9254256 9112676 
3000.951 8963115 8806304 8643322 8475739 8305201 8133068 7960082 7786344 
3004.809 7611485 7434942 7256774 7077709 6899424 6723983 6553447 6389259 
3008.666 6231685 6080071 5932750 5788061 5644405 5500924 5357493 5214737 
3012.523 5073586 4935271 4801014 4672038 4549531 4434269 4326591 4225964 
3016.381 4131138 4040156 3950959 3861991 3772768 3684266 3598645 3518540 
3020.238 3446370 3383376 3329130 3281727 3238101 3195061 3150032 3101762 
3024.096 3050419 2997357 2944628 2894230 2847533 2804967 2766006 2729287 
3027.953 2693120 2656009 2617239 2576912 2536360 2497383 2461966 2431734 
3031.811 2407228 2387875 2372090 2357845 2343179 2326862 2308556 2288867 
3035.668 2268836 2249773 2232601 2217820 2205563 2195648 2187807 2181552 
3039.525 2176471 2171994 2167464 2162349 2156403 2149758 2143050 2137088 
3043.383 2132518 2129464 2127331 2124766 2120182 2112232 2100240 2084513 
3047.240 2066444 2047921 2031178 2018022 2009705 2006750 2008812 2014968 
3051.098 2023806 2033735 2042888 2049723 2053190 2052805 2049019 2042826 
3054.955 2035790 2029470 2024948 2022800 2022872 2024539 2026957 2029324 
3058.813 2031136 2032115 2032208 2031314 2029317 2025961 2020831 2013537 
3062.670 2003820 1991691 1977477 1962003 1946475 1932541 1921675 1915144 
3066.527 1913518 1916365 1922420 1929734 1936268 1940307 1940911 1937955 
3070.385 1932087 1924235 1915288 1905977 1896890 1888555 1881881 1877921 
3074.242 1877812 1882312 1891298 1903594 1917168 1929474 1938331 1942359 
3078.100 1941411 1936583 1929527 1922201 1915897 1911434 1908824 1907590 
3081.957 1907173 1907037 1906796 1906359 1905672 1904944 1904558 1904959 
3085.814 1906791 1910523 1916257 1923581 1931447 1938393 1943045 1944356 
3089.672 1942084 1936622 1928873 1919751 1909878 1899442 1888360 1876692 
3093.529 1864939 1854347 1846456 1842793 1844151 1850147 1859277 1869304 
3097.387 1877983 1883843 1886531 1886835 1886004 1885204 1884737 1883894 
3101.244 1881259 1875528 1866138 1853837 1840680 1829333 1822319 1821049 
3105.102 1825388 1833765 1843940 1853586 1861273 1866729 1870590 1873783 
3108.959 1877029 1880266 1882616 1882929 1880263 1874586 1866932 1859077 
3112.816 1853133 1850513 1851657 1855626 1860632 1864498 1865405 1862542 
3116.674 1856193 1847665 1838705 1831083 1826025 1824087 1825249 1828967 
3120.531 1834511 1841230 1848549 1855902 1862670 1868161 1871492 1871886 
3124.389 1868764 1862041 1852324 1840904 1829660 1820556 1815418 1815120 
3128.246 1819791 1828392 1839088 1849619 1857947 1862618 1862989 1859289 
3132.104 1852411 1843680 1834495 1826043 1819242 1814743 1812812 1813438 
3135.961 1816381 1821052 1826851 1833084 1839394 1845536 1851713 1858133 
3139.818 1865073 1872395 1879666 1886107 1890903 1893484 1893838 1892608 
3143.676 1890860 1889872 1890405 1892755 1896374 1900068 1902442 1902247 
3147.533 1898721 1891905 1882506 1871678 1860794 1851072 1843431 1838369 
3151.391 1836048 1836318 1839087 1844111 1851308 1860424 1871122 1882683 
3155.248 1894121 1904142 1911527 1915361 1915389 1912117 1906743 1900763 
3159.105 1895535 1891684 1888990 1886412 1882655 1876560 1868020 1857886 
3162.963 1848068 1840787 1837965 1840349 1847335 1856907 1866419 1873126 
3166.820 1875262 1872452 1865619 1856849 1848618 1843100 1841603 1844321 
3170.678 1850542 1858896 1867848 1876208 1883312 1888981 1893521 1897199 
3174.535 1900282 1902618 1903899 1903676 1901799 1898331 1893742 1888670 
3178.393 1883716 1879111 1874644 1869739 1863700 1855960 1846521 1835829 
3182.250 1824825 1814524 1805812 1799139 1794624 1792148 1791607 1792991 
3186.107 1796534 1802293 1810012 1819070 1828379 1836812 1843589 1848569 
3189.965 1852415 1856262 1861268 1868119 1876623 1885676 1893757 1899471 
3193.822 1902192 1902115 1900385 1898428 1897480 1898046 1899900 1902184 
3197.680 1904049 1904938 1905000 1904911 1905606 1907785 1911717 1916962 
3201.537 1922736 1928156 1932578 1935678 1937486 1938133 1937757 1936380 
3205.395 1934022 1930931 1927592 1924941 1924034 1925703 1930292 1937406 
3209.252 1946064 1954822 1962267 1967255 1969374 1968623 1965551 1960859 
3213.109 1955301 1949538 1944107 1939312 1935401 1932375 1929943 1927650 
3216.967 1925064 1921991 1918551 1915465 1913730 1914536 1918629 1926002 
3220.824 1935920 1946859 1957065 1965012 1969887 1971774 1971624 1970836 
3224.682 1970751 1972357 1975871 1980828 1986318 1991104 1994146 1994563 
3228.539 1991942 1986326 1978060 1967850 1956432 1944600 1933036 1922273 
3232.396 1912789 1905050 1899655 1897398 1899060 1905176 1915870 1930295 
3236.254 1946890 1963404 1977423 1987008 1991265 1990419 1985839 1979516 
3240.111 1973507 1969173 1967354 1967886 1970248 1973668 1977677 1981753 
3243.969 1985568 1988611 1990204 1989518 1985964 1979583 1971171 1962442 
3247.826 1955466 1952275 1954115 1961052 1971880 1984403 1996167 2004821 
3251.684 2009085 2008629 2004106 1996827 1988267 1979585 1971667 1965026 
3255.541 1959968 1956890 1956305 1958739 1964511 1973219 1983868 1994662 
3259.398 2003424 2008288 2008048 2002680 1993508 1982635 1972483 1964893 
3263.256 1960689 1959542 1960040 1960593 1959895 1957398 1953551 1949296 
3267.113 1945634 1943100 1941498 1939974 1937734 1934341 1930300 1926970 
3270.971 1926200 1929560 1937614 1949594 1963514 1976669 1986518 1991421 
3274.828 1990999 1986098 1978422 1969699 1961381 1954283 1948757 1944948 
3278.686 1943230 1944176 1948428 1956405 1967790 1981383 1995378 2007857 
3282.543 2017451 2023804 2027820 2031130 2035513 2041972 2050300 2058796 
3286.400 2065052 2066615 2062144 2051903 2037992 2023580 2012050 2005856 
3290.258 2005818 2010933 2018792 2026356 2031089 2031386 2027036 2018799 
3294.115 2008059 1996055 1983716 1971342 1959031 1946884 1935387 1925460 
3297.973 1918488 1915778 1918329 1926387 1939468 1956179 1974592 1992492 
3301.830 2007847 2018992 2025202 2026497 2023928 2019039 2013759 2009544 
3305.688 2007383 2007220 2008202 2009028 2008276 2005135 1999569 1992312 
3309.545 1984798 1978460 1974411 1973041 1974030 1976498 1979333 1981714 
3313.402 1983215 1983938 1984438 1985295 1987076 1989927 1993703 1997960 
3317.260 2002139 2005797 2008652 2010628 2011934 2012662 2012954 2012711 
3321.117 2011675 2009401 2005496 1999648 1991889 1982555 1972314 1962004 
3324.975 1952641 1945062 1940072 1938254 1939864 1944872 1952887 1963162 
3328.832 1974594 1985839 1995600 2002848 2006964 2007993 2006348 2002787 
3332.689 1998028 1992484 1986311 1979375 1971743 1963661 1955969 1949754 
3336.547 1946349 1946675 1950992 1958672 1968294 1977819 1985227 1988823 
3340.404 1987707 1981800 1972165 1960475 1949040 1940341 1936681 1939666 
3344.262 1949985 1966979 1988722 2012250 2034113 2051060 2060883 2062878 
3348.119 2057910 2048192 2036671 2026071 2018282 2013867 2012097 2011294 
3351.977 2009692 2005837 1999356 1990825 1981739 1973923 1968856 1967234 
3355.834 1968835 1972511 1976808 1980384 1982484 1983107 1982929 1982785 
3359.691 1983296 1984517 1985930 1986656 1985958 1983680 1980543 1977833 
3363.549 1977157 1979632 1985543 1994044 2003440 2011630 2016973 2018405 
3367.406 2016047 2010747 2003884 1996691 1990086 1984474 1979857 1976031 
3371.264 1972793 1970018 1967616 1965542 1963727 1962059 1960595 1959583 
3375.121 1959308 1960075 1961806 1963980 1965723 1965890 1963698 1959112 
3378.979 1953027 1947224 1943621 1943853 1948443 1956475 1965918 1974149 
3382.836 1978894 1978983 1974891 1968388 1962190 1958957 1960362 1966667 
3386.693 1976738 1988269 1998837 2006370 2010047 2010345 2008786 2007501 
3390.551 2008344 2012126 2018370 2025197 2029940 2029705 2022436 2007494 
3394.408 1985972 1960559 1934757 1912097 1895385 1886033 1884225 1888894 
3398.266 1898559 1911787 1927359 1944511 1962561 1980663 1997744 2012388 
3402.123 2023380 2029896 2031990 2030391 2026586 2021990 2017816 2014418 
3405.980 2011523 2008365 2004106 1998131 1990506 1981677 1972434 1963533 
3409.838 1955568 1948815 1943331 1939117 1936436 1935564 1937064 1941336 
3413.695 1948544 1958435 1970279 1983010 1995378 2006111 2014254 2019060 
3417.553 2020366 2018275 2013382 2006375 1998229 1989795 1981944 1975366 
3421.410 1970682 1968248 1968319 1970917 1975792 1982256 1989410 1996096 
3425.268 2001208 2003962 2004130 2002110 1998905 1995572 1993182 1992219 
3429.125 1992534 1993482 1994165 1993904 1992583 1990685 1989260 1989355 
3432.982 1991790 1996497 2002519 2008232 2011652 2011138 2005952 1996471 
3436.840 1984404 1972253 1962743 1958078 1959380 1966236 1976801 1988247 
3440.697 1997652 2002519 2001621 1995279 1985144 1973700 1963630 1957037 
3444.555 1955022 1957701 1964221 1973415 1984197 1995840 2008100 2021082 
3448.412 2034880 2049447 2064286 2078493 2091036 2100789 2106938 2109030 
3452.270 2107214 2102032 2094518 2085945 2077730 2071382 2068004 2068374 
3456.127 2072795 2080911 2091840 2104294 2116800 2127845 2136301 2141320 
3459.984 2142641 2140568 2135922 2129939 2124302 2120665 2120670 2125399 
3463.842 2135473 2150416 2169057 2189266 2208668 2224861 2236000 2241161 
3467.699 2240633 2235731 2228577 2221492 2216446 2214700 2216618 2221583 
3471.557 2228662 2236759 2245185 2253614 2262186 2271076 2280471 2290092 
3475.414 2299599 2308559 2316821 2324582 2332439 2341165 2351321 2362991 
3479.271 2375801 2388990 2401833 2413883 2425293 2436601 2448675 2462043 
3483.129 2476952 2493018 2509546 2525858 2541530 2556527 2571130 2585632 
3486.986 2600151 2614323 2627407 2638554 2647235 2653389 2657768 2661643 
3490.844 2666589 2674198 2685589 2701294 2721082 2744059 2768803 2793522 
3494.701 2816446 2835983 2851125 2861480 2867282 2869437 2868923 2866708 
3498.559 2863512 2859690 2855452 2851096 2847270 2844826 2844816 2848139 
3502.416 2855200 2865669 2878897 2893822 2909640 2925724 2941790 2957460 
3506.273 2971998 2984148 2992225 2994474 2989836 2978392 2961552 2941816 
3510.131 2922327 2905715 2893702 2886439 2882922 2881172 2879029 2874738 
3513.988 2867362 2856686 2843160 2827603 2810880 2793668 2776429 2759414 
3517.846 2742597 2725978 2709322 2692770 2676488 2661022 2647036 2635150 
3521.703 2625717 2618337 2611964 2604924 2595555 2582515 2565483 2545300 
3525.561 2524034 2504061 2487919 2476953 2471507 2470491 2472290 2474980 
3529.418 2477339 2478961 2480334 2482123 2484852 2487974 2490169 2489248 
3533.275 2483223 2470997 2453010 2431474 2409900 2392024 2380915 2377859 
3537.133 2382135 2391174 2401442 2409462 2412827 2410679 2403656 2393379 
3540.990 2381992 2371175 2362310 2355826 2351927 2350328 2350684 2352423 
3544.848 2354961 2357249 2358524 2358105 2356111 2353161 2350652 2350017 
3548.705 2352306 2357677 2365282 2373259 2379639 2382710 2381671 2376736 
3552.563 2368918 2359606 2349968 2340423 2330997 2321006 2309985 2297562 
3556.420 2284204 2270677 2258295 2248195 2241550 2239006 2241045 2247571 
3560.277 2258384 2272864 2290187 2309230 2328915 2347840 2364831 2378735 
3564.135 2388579 2393663 2393555 2388444 2379205 2367443 2355476 2345882 
3567.992 2340954 2341931 2348718 2359445 2371161 2380262 2383827 2380172 
3571.850 2369582 2354159 2337304 2322561 2312778 2309184 2311178 2316540 
3575.707 2322276 2325548 2324478 2318752 2309704 2299500 2290665 2284968 
3579.564 2282917 2283622 2285061 2285008 2281860 2275121 2265913 2256330 
3583.422 2248755 2244842 2245023 2248024 2251496 2252655 2249534 2241421 
3587.279 2229388 2215593 2202783 2192902 2186817 2183878 2182350 2180073 
3591.137 2175419 2167735 2157721 2146824 2137299 2131020 2129556 2133464 
3594.994 2142576 2155847 2171756 2188214 2203059 2214089 2219814 2219434 
3598.852 2213467 2203459 2191864 2181126 2173156 2168595 2166877 2166272 
3602.709 2164891 2161235 2154963 2146886 2138759 2132325 2129050 2129056 
3606.566 2131751 2135634 2139300 2141634 2142381 2141697 2140335 2138875 
3610.424 2138069 2138367 2140362 2144664 2151805 2161728 2173706 2185990 
3614.281 2196179 2201949 2202036 2196584 2187813 2178968 2173620 2174116 
3618.139 2180897 2192190 2204908 2215577 2222136 2224318 2223848 2223426 
3621.996 2225657 2231614 2240713 2250644 2258873 2263498 2264177 2262455 
3625.854 2261111 2263081 2270465 2283691 2301495 2321234 2339942 2355179 
3629.711 2365759 2371946 2375338 2378206 2383200 2392374 2407001 2426951 
3633.568 2450784 2475849 2498833 2516442 2526690 2529228 2525817 2519859 
3637.426 2515626 2516694 2525344 2541495 2563239 2587138 2609758 2628353 
3641.283 2641716 2649943 2654355 2656364 2657341 2658172 2659444 2661761 
3645.141 2665933 2673091 2684367 2700341 2720660 2743802 2767397 2788553 
3648.998 2804820 2814606 2817723 2815226 2808986 2801452 2794913 2791095 
3652.855 2791106 2795121 2802685 2812618 2823466 2833665 2841905 2847595 
3656.713 2850968 2852824 2854521 2857032 2860827 2865277 2868927 2869675 
3660.570 2865854 2856302 2841241 2821964 2800697 2779872 2761551 2747056 
3664.428 2737067 2731498 2729955 2731710 2735974 2741612 2747102 2750703 
3668.285 2750557 2745428 2734831 2719606 2701893 2684202 2668969 2657408 
3672.143 2649357 2643087 2636121 2625727 2610406 2589724 2564895 2538096 
3676.000 2511789 2487905 2467284 2449630 2433952 2418878 2403295 2386706 
3679.857 2369163 2351244 2333583 2316725 2300791 2285523 2270476 2254831 
3683.715 2237959 2219451 2199330 2178118 2156965 2137258 2120555 2108169 
3687.572 2100869 2098457 2100019 2104071 2109114 2113837 2117545 2120028 
3691.430 2121432 2121722 2120710 2117912 2112919 2105643 2096678 2087366 
3695.287 2079588 2075034 2074747 2078479 2084905 2091768 2096819 2098322 
3699.145 2095901 2090226 2082935 2075903 2070609 2067661 2066999 2068001 
3703.002 2070035 2072641 2075721 2079049 2082317 2084577 2084662 2081401 
3706.859 2074406 2064448 2053506 2044490 2040264 2042757 2052271 2067305 
3710.717 2084884 2101311 2113432 2119078 2117733 2110542 2099697 2088076 
3714.574 2078549 2073681 2075060 2083249 2097453 2115454 2134049 2149567 
3718.432 2158760 2159664 2152252 2138280 2121084 2104285 2091081 2083333 
3722.289 2081479 2084672 2091478 2100234 2109507 2118007 2124508 2127673 
3726.146 2126459 2120492 2110508 2098544 2087554 2080429 2079071 2083333 
3730.004 2091163 2099121 2103637 2102569 2096177 2086665 2077714 2072608 
3733.861 2073201 2078958 2087549 2095829 2101303 2103104 2102297 2101213 
3737.719 2102162 2106486 2113860 2122391 2129532 2132845 2131249 2124867 
3741.576 2115069 2103799 2092991 2083852 2077224 2073496 2073022 2076091 
3745.434 2083246 2094690 2110111 2128468 2147926 2166095 2180395 2188631 
3749.291 2189391 2182231 2168119 2148979 2127546 2106689 2089292 2077371 
3753.148 2072109 2073496 2080553 2091429 2103947 2115700 2124758 2129798 
3757.006 2130298 2126762 2120489 2113343 2107281 2103792 2103481 2105808 
3760.863 2109549 2112988 2114698 2113795 2110441 2105407 2099791 2094400 
3764.721 2089552 2085031 2080433 2075543 2070804 2067150 2065936 2067996 
3768.578 2073672 2082108 2091747 2100719 2107555 2111292 2112005 2110275 
3772.436 2107127 2103559 2100434 2098296 2097526 2098009 2099443 2100674 
3776.293 2100334 2096825 2089260 2077623 2063703 2050288 2040926 2038334 
3780.150 2043705 2056052 2072464 2089122 2102625 2110789 2113356 2111467 
3784.008 2107076 2101921 2097070 2092663 2088597 2084848 2081988 2081071 
3787.865 2083255 2089203 2098686 2110372 2122495 2133132 2141063 2145802 
3791.723 2147730 2147583 2146163 2144067 2141679 2139174 2136606 2134063 
3795.580 2131378 2128197 2123880 2117931 2110158 2100931 2091626 2083937 
3799.438 2079523 2079519 2084068 2092354 2102887 2114062 2124615 2133704 
3803.295 2140957 2145926 2148126 2146764 2141276 2131572 2118647 2104391 
3807.152 2091333 2082195 2078818 2082224 2092354 2108278 2128530 2151423 
3811.010 2175106 2197454 2216214 2229232 2234763 2232127 2221894 2205807 
3814.867 2186515 2166709 2148590 2133248 2120875 2111126 2103565 2098207 
3818.725 2095499 2096033 2100078 2107060 2115736 2124402 2131544 2136277 
3822.582 2138779 2139780 2140422 2141603 2143529 2145891 2147973 2148988 
3826.439 2148527 2146473 2142902 2137905 2131442 2123333 2113475 2102098 
3830.297 2089910 2078054 2067917 2060684 2057203 2057706 2062015 2069502 
3834.154 2079409 2090952 2103298 2115532 2126700 2135851 2142249 2145455 
3838.012 2145634 2143237 2139010 2133596 2127408 2120511 2112915 2104712 
3841.869 2096263 2088327 2082014 2078343 2078050 2081276 2087509 2095718 
3845.727 2104728 2113368 2120899 2127116 2132083 2136121 2139566 2142378 
3849.584 2144339 2144814 2143235 2138838 2131377 2120851 2107854 2093278 
3853.441 2078506 2064920 2053892 2046663 2043984 2046296 2053536 2065060 
3857.299 2079836 2096260 2112742 2127507 2139453 2147868 2152774 2154545 
3861.156 2153752 2150833 2145969 2138965 2129731 2118446 2105811 2093122 
3865.014 2081986 2073960 2070017 2070262 2074010 2079899 2086438 2092485 
3868.871 2097639 2101964 2106173 2111006 2117165 2124780 2133606 2143032 
3872.729 2152227 2160372 2166608 2170063 2170203 2166624 2159492 2149459 
3876.586 2137902 2126590 2117500 2112130 2111222 2114373 2120298 2127083 
3880.443 2132777 2136193 2137110 2136268 2135166 2135170 2137103 2140587 
3884.301 2144516 2147076 2146704 2142655 2135566 2127171 2120054 2116730 
3888.158 2118975 2127196 2140235 2155680 2170542 2181896 2187756 2187453 
3892.016 2182029 2173873 2166146 2161881 2163272 2170859 2183324 2197845 
3895.873 2210631 2218151 2218020 2209725 2194757 2176071 2157159 2140927 
3899.730 2129194 2122168 2119029 2118400 2119094 2120325 2121804 2123376 
3903.588 2124673 2125027 2123665 2120259 2115189 2109488 2104742 2102092 
3907.445 2101788 2102821 2103264 2101163 2095469 2086705 2077151 2070023 
3911.303 2068324 2073603 2085406 2101136 2117135 2129554 2135778 2134859 
3915.160 2127582 2115825 2102003 2088363 2076770 2068498 2064417 2064737 
3919.018 2069420 2077443 2087231 2096784 2104183 2108138 2108411 2105867 
3922.875 2102061 2098568 2096575 2096307 2097354 2099073 2101017 2103289 
3926.732 2106564 2111657 2119071 2128595 2139229 2149471 2157843 2163303 
3930.590 2165798 2165918 2164838 2163771 2163588 2164526 2166098 2167235 
3934.447 2166722 2163449 2156808 2147010 2135097 2122719 2111951 2104285 
3938.305 2100513 2100216 2102124 2104601 2106445 2107483 2108613 2111634 
3942.162 2118174 2128868 2142991 2158349 2172469 2183138 2189574 2192569 
3946.020 2194042 2195926 2199267 2203537 2206933 2207083 2202198 2192022 
3949.877 2178015 2162680 2149119 2139625 2135365 2136249 2141588 2150351 
3953.734 2161716 2174862 2188742 2201791 2211962 2217078 2215808 2208136 
3957.592 2195842 2181951 2170090 2163048 2162129 2166684 2174615 2183001 
3961.449 2189328 2192014 2190911 2186922 2181803 2177453 2175669 2177929 
3965.307 2185193 2197541 2214260 2233540 2252908 2269298 2280164 2283919 
3969.164 2280625 2271720 2259854 2247800 2237770 2231003 2227622 2227039 
3973.021 2228482 2231527 2236025 2242073 2249443 2257389 2264496 2269042 
3976.879 2269504 2264986 2255660 2242794 2228336 2214557 2203313 2195927 
3980.736 2192827 2193386 2196351 2199891 2202095 2201359 2196867 2188911 
3984.594 2178882 2169158 2162468 2161125 2166281 2177645 2193334 2210621 
3988.451 2226455 2238411 2245202 2246867 2244406 2239346 2233254 2227267 
3992.309 2222164 2218292 2215880 2215129 2216214 2219256 2223962 2229889 
3996.166 2236327 2242579 2248122 2252687 2256555 2259981 2263207 2266232 
4000.023 2268761 2270323 
##END=
