##TITLE=3D-Fillies_PLA-Flex_Black_Filament_r4_ATR-Corrected
##JCAMP-DX=5.01  $$ Nicolet v. 1
##DATATYPE=INFRARED SPECTRUM
##ORIGIN=Curtin University
##OWNER=Nicolet
##LONGDATE=2024/07/18
##TIME=11:28:16
##SPECTROMETER/DATA SYSTEM=Nicolet iS50
##DATA PROCESSING=
Ratio against background
%Transmittance->Absorbance
ATR Correction
Truncated
ElementMultiply or ElementDivide
##COMMENTS=
Number of sample scans: 32
Collection length: 47.29 sec
Sample gain: 1.0
Background collected on: Thu Jul 18 11:26:50 2024 (GMT+08:00);
Number of background scans: 32
Background gain: 1.0
Sample spacing:  1.000
Number of scan points: 16672
Resolution points: 8192
Number of FFT points: 65536
Apodization: N-B strong;
Phase correction: Mertz;
Laser frequency: 15798.3 cm-1
Number of rejected sample scans: 0
Number of rejected background scans: 0
Bench serial number: AUP1200105;
##RESOLUTION=4.000
##XUNITS=1/CM
##YUNITS=ABSORBANCE
##FIRSTX=400.163452
##LASTX=4000.187744
##FIRSTY=0.033599
##MAXX=4000.187744
##MINX=400.163452
##MAXY=1.322413
##MINY=-0.019346
##XFACTOR=1.000000
##YFACTOR=1.000000E-008
##NPOINTS=7468
##DELTAX=0.482125
##ZPD=8192
##XYDATA=(X++(Y..Y))
400.163 3359900 3335366 3304089 3263452 3214693 3162724 3113236 3070188 
404.020 3034193 3002899 2972580 2940585 2906622 2872940 2842745 2818363 
407.877 2799591 2783625 2766046 2743058 2712969 2677075 2638855 2602420 
411.734 2570804 2545187 2524886 2508677 2495942 2487317 2484489 2488834 
415.591 2500137 2515919 2531576 2542031 2543523 2535324 2520221 2503765 
419.448 2492268 2490804 2501511 2523481 2553378 2587130 2621263 2653917 
423.305 2684776 2714389 2742982 2769719 2792359 2807896 2813561 2808138 
427.162 2792764 2771205 2749071 2732547 2726717 2734280 2754628 2784109 
431.019 2816831 2846187 2866429 2873836 2867781 2850258 2825255 2797767 
434.876 2772589 2753656 2743345 2742453 2750092 2764051 2781073 2797539 
438.733 2810116 2816681 2816806 2812052 2805574 2801272 2802553 2811283 
442.590 2826959 2846820 2866401 2880857 2886206 2880419 2863910 2839431 
446.447 2811377 2784917 2764907 2755156 2757707 2772711 2798475 2831995 
450.304 2869662 2908090 2944646 2977809 3006915 3031700 3051710 3065999 
454.161 3073244 3072392 3063366 3047686 3028382 3009430 2994451 2985598 
458.017 2982795 2983992 2986115 2986621 2984575 2981226 2979400 2982279 
461.874 2991911 3008300 3029183 3050856 3069751 3083409 3091223 3094322 
465.731 3094561 3093510 3091482 3087375 3079207 3065060 3044131 3017436 
469.588 2987835 2959607 2937445 2925522 2926527 2941133 2967756 3002795 
473.445 3041204 3077521 3106838 3125945 3133969 3132542 3125390 3117320 
477.302 3113032 3116081 3128105 3148777 3176091 3207025 3238172 3266395 
481.159 3289198 3305125 3313980 3317121 3317355 3318711 3325706 3342390 
485.016 3371286 3412741 3464768 3523709 3585365 3646300 3704792 3761144 
488.873 3817252 3875754 3939014 4008465 4084356 4166007 4252189 4341501 
492.730 4432444 4523347 4612137 4696388 4773772 4842436 4901545 4951545 
496.587 4993842 5030096 5061345 5087332 5106251 5115217 5110998 5090953 
500.444 5053707 4999451 4929710 4846975 4754113 4654067 4549596 4443257 
504.301 4337278 4233581 4133604 4038282 3948111 3863375 3784414 3711791 
508.158 3646234 3588283 3537821 3493654 3453469 3414213 3372945 3327782 
512.015 3278600 3227293 3177182 3132056 3094890 3066909 3047219 3033275 
515.871 3021854 3010293 2997407 2983805 2971484 2962872 2959711 2962203 
519.728 2968726 2976256 2981239 2980727 2973207 2959026 2940150 2919503 
523.585 2900051 2884120 2872926 2866532 2864266 2864978 2867359 2870204 
527.442 2872344 2872715 2870358 2864672 2855608 2843890 2830880 2818281 
531.299 2807528 2799215 2792776 2786625 2778694 2767389 2752334 2734779 
535.156 2717336 2703226 2695074 2694003 2699101 2707705 2716259 2721461 
539.013 2721205 2715167 2704579 2691679 2678798 2667663 2659026 2652743 
542.870 2648099 2644285 2640605 2636666 2632183 2626897 2620428 2612379 
546.727 2602377 2590282 2576163 2560333 2543213 2525271 2506996 2488911 
550.584 2471506 2455265 2440442 2426986 2414448 2402160 2389552 2376531 
554.441 2363754 2352570 2344552 2340912 2341870 2346324 2352082 2356585 
558.298 2357844 2355224 2349694 2343564 2339509 2339610 2344559 2353506 
562.155 2364466 2375156 2383895 2390118 2394434 2398195 2402877 2409586 
566.012 2418793 2430525 2444616 2461039 2479935 2501436 2525355 2550960 
569.869 2576944 2601724 2623835 2642456 2657554 2669879 2680696 2691345 
573.725 2702948 2716260 2731609 2749021 2768274 2788914 2810236 2831325 
577.582 2851193 2869113 2884890 2899154 2913268 2929072 2948248 2971757 
581.439 2999345 3029452 3059524 3086638 3108255 3122879 3130399 3132030 
585.296 3129894 3126431 3123759 3123179 3125025 3128733 3133284 3137638 
589.153 3141100 3143608 3145551 3147517 3149848 3152329 3154125 3153988 
593.010 3150713 3143643 3132949 3119594 3104964 3090290 3076094 3062015 
596.867 3046913 3029522 3008977 2985425 2960106 2934994 2912197 2893228 
600.724 2878538 2867470 2858629 2850478 2841929 2832717 2823320 2814689 
604.581 2807714 2802854 2799948 2798284 2796959 2795174 2792525 2789086 
608.438 2785251 2781518 2778160 2775067 2771735 2767402 2761327 2753140 
612.295 2743001 2731739 2720566 2710820 2703495 2698928 2696688 2695722 
616.152 2694787 2692898 2689697 2685578 2681466 2678417 2677130 2677733 
620.009 2679715 2682252 2684577 2686325 2687623 2688928 2690637 2692748 
623.866 2694737 2695719 2694841 2691839 2687353 2683051 2681399 2685175 
627.723 2696854 2718157 2749654 2790594 2838888 2891167 2943015 2989381 
631.579 3025206 3046274 3050063 3036392 3007537 2967849 2922780 2877669 
635.436 2836679 2802166 2774589 2753048 2736047 2722350 2711390 2703386 
639.293 2698966 2698687 2702539 2709776 2719013 2728572 2737000 2743401 
643.150 2747644 2750308 2752390 2754975 2758850 2764237 2770732 2777373 
647.007 2782897 2786103 2786139 2782767 2776374 2767823 2758131 2748185 
650.864 2738461 2728990 2719510 2709715 2699578 2689453 2680061 2672281 
654.721 2666808 2663939 2663459 2664747 2667056 2669777 2672604 2675554 
658.578 2678782 2682317 2685865 2688758 2690158 2689383 2686344 2681800 
662.435 2677374 2675309 2677875 2686709 2702251 2723476 2748012 2772670 
666.292 2794236 2810283 2819782 2823372 2823090 2821843 2822577 2827653 
670.149 2838298 2854575 2875504 2899547 2924965 2950213 2974121 2996020 
674.006 3015685 3033349 3049648 3065540 3082220 3100968 3122908 3148779 
677.863 3178761 3212382 3248508 3285468 3321232 3353677 3380867 3401367 
681.720 3414495 3420560 3420838 3417466 3413042 3410170 3410968 3416736 
685.577 3427918 3444255 3465094 3489761 3517776 3548940 3583200 3620515 
689.433 3660715 3703506 3748559 3795635 3844696 3895869 3949402 4005549 
693.290 4064500 4126374 4191280 4259363 4330741 4405451 4483316 4563976 
697.147 4647000 4732198 4819884 4911053 5007236 5110074 5220699 5339170 
701.004 5464170 5593117 5722641 5849253 5969997 6082783 6186483 6280733 
704.861 6365669 6441790 6509941 6571491 6628366 6683123 6738788 6798606 
708.718 6865871 6943791 7035465 7143827 7271492 7420480 7591872 7785738 
712.575 8001262 8237404 8493635 8770730 9071133 9398935 9759513 10159237 
716.432 10605608 11107955 11678526 12333464 13093157 13981491 15024306 
719.807 16247322 17674618 19327984 21227316 23391454 25837692 28578440 
723.182 31612452 34909372 38387528 41888436 45159744 47868000 49666060 
726.556 50311036 49771948 48243644 46054612 43541600 40965436 38485716 
729.931 36173832 34040544 32063522 30208972 28445194 26748776 25105324 
733.306 23507400 21951960 20438792 18970100 17550672 16187958 14891517 
736.681 13671817 12538810 11500644 10562922 9728377 8997039 8366532 7832313 
740.538 7387877 7025066 6734495 6506242 6330701 6199478 6105947 6045394 
744.395 6014617 6011275 6033053 6077143 6139990 6217372 6304703 6397275 
748.252 6490416 6579447 6659656 6726299 6774853 6801361 6802917 6778115 
752.109 6727184 6652111 6556283 6444116 6320464 6190021 6056797 5923631 
755.966 5792084 5662597 5534865 5408501 5283587 5161018 5042526 4930309 
759.823 4826430 4732230 4648002 4572973 4505666 4444400 4387807 4335095 
763.679 4286001 4240530 4198612 4159841 4123481 4088633 4054521 4020799 
767.536 3987633 3955643 3925653 3898394 3874339 3853542 3835740 3820465 
771.393 3807210 3795483 3784953 3775298 3766203 3757333 3748300 3738758 
775.250 3728458 3717390 3705812 3694312 3683773 3675194 3669528 3667415 
779.107 3669013 3673929 3681295 3690041 3699258 3708496 3718015 3728738 
782.964 3741967 3759030 3780831 3807571 3838706 3873194 3909855 3947833 
786.821 3986943 4027758 4071521 4119777 4174066 4235477 4304532 4381081 
790.678 4464452 4553663 4647449 4744417 4842816 4940366 5033980 5119683 
794.535 5192742 5248155 5281407 5289467 5271593 5229877 5169145 5096437 
798.392 5019799 4947090 4884749 4837013 4805613 4790045 4788209 4797294 
802.249 4814469 4837357 4864226 4893644 4924158 4953952 4980869 5002578 
806.106 5017104 5023375 5021679 5013744 5002534 4991663 4984599 4983962 
809.963 4991010 5005398 5025379 5048250 5070919 5090525 5104827 5112474 
813.820 5112985 5106571 5093928 5075966 5053696 5028096 5000136 4970697 
817.677 4940615 4910550 4880983 4852111 4823928 4796263 4768968 4742066 
821.533 4715856 4690909 4667951 4647626 4630324 4615936 4603823 4592912 
825.390 4581877 4569410 4554508 4536724 4516288 4494143 4471853 4451322 
829.247 4434470 4422782 4417009 4416861 4421139 4427947 4435242 4441367 
833.104 4445496 4447763 4449211 4451286 4455417 4462596 4473175 4487014 
836.961 4503626 4522496 4543177 4565252 4588283 4611619 4634478 4656095 
840.818 4676017 4694243 4711343 4728162 4745597 4764172 4783864 4804202 
844.675 4824467 4843998 4862451 4879756 4896010 4911216 4925234 4937766 
848.532 4948611 4957832 4965871 4973349 4980778 4988290 4995426 5001363 
852.389 5005329 5007035 5006975 5006316 5006525 5008799 5013687 5020992 
856.246 5030144 5040699 5052803 5067290 5085439 5108397 5136660 5169947 
860.103 5207381 5248115 5291977 5339869 5393748 5456246 5530151 5617982 
863.960 5721824 5843635 5985517 6150251 6341675 6565133 6827895 7139607 
867.817 7512315 7959659 8494507 9125134 9850061 10652750 11497948 12331456 
871.674 13085246 13688105 14080109 14226644 14126940 13813266 13341457 
875.048 12776424 12178166 11592282 11046273 10551015 10105491 9702234 
878.423 9332140 8987298 8662122 8353173 8058499 7777209 7509295 7255678 
882.280 7018147 6798924 6600038 6422675 6266855 6131548 6015191 5916338 
886.137 5834074 5768122 5718511 5685109 5667252 5663522 5672051 5690757 
889.994 5717854 5751974 5792260 5838246 5889650 5946287 6008057 6074844 
893.851 6146573 6223061 6303951 6388767 6476952 6568107 6662172 6759527 
897.708 6860837 6966777 7077751 7193610 7313711 7437075 7562736 7689950 
901.565 7818243 7947288 8076658 8205646 8333299 8458563 8580656 8699258 
905.422 8814608 8927388 9038537 9149195 9260850 9375574 9496417 9627427 
909.279 9773396 9939209 10128908 10344823 10587008 10852923 11137681 
912.654 11434267 11734033 12026972 12302077 12547910 12753391 12908942 
916.028 13007829 13047270 13029133 12959741 12849154 12709758 12554850 
919.403 12397173 12248033 12116607 12009756 11932097 11886239 11873244 
922.778 11893152 11945482 12029720 12145544 12292852 12471487 12680879 
926.153 12919620 13185228 13474058 13781472 14102054 14429940 14759094 
929.528 15083580 15397868 15697053 15977100 16234888 16468063 16674702 
932.902 16852886 17000448 17114992 17194294 17236894 17242766 17213562 
936.277 17152544 17063990 16952420 16821978 16676179 16517918 16350040 
939.652 16175629 15998259 15821801 15650015 15485917 15331462 15187380 
943.027 15053447 14928843 14812689 14704289 14603300 14509673 14423525 
946.402 14344974 14274098 14210837 14155030 14106356 14064358 14028455 
949.776 13998009 13972361 13950908 13932981 13917784 13904239 13890944 
953.151 13876259 13858564 13836499 13809261 13776638 13738851 13696292 
956.526 13649158 13597493 13541099 13479933 13414374 13345325 13274136 
959.901 13202266 13130906 13060740 12991922 12924303 12857720 12792124 
963.276 12727675 12664440 12602204 12540357 12478004 12414302 12348896 
966.651 12282104 12214843 12148239 12083152 12019724 11957358 11894977 
970.025 11831529 11766483 11700036 11632930 11566065 11500112 11435238 
973.400 11371228 11307945 11245700 11185544 11129219 11078716 11035767 
976.775 11001442 10976075 10959467 10951288 10951455 10960242 10978054 
980.150 11005069 11040806 11083890 11132129 11182847 11233297 11281089 
983.525 11324430 11362109 11393503 11418442 11437207 11450438 11459211 
986.899 11464859 11468925 11472930 11478133 11485553 11495929 11509705 
990.274 11527090 11547972 11571877 11597965 11625045 11651807 11677042 
993.649 11699897 11720002 11737459 11752684 11766268 11778837 11790900 
997.024 11802835 11814826 11826813 11838339 11848613 11856639 11861514 
1000.399 11862913 11861408 11858704 11857513 11861005 11872303 11894061 
1003.774 11928187 11976027 12038839 12118214 12216452 12336724 12482875 
1007.148 12659219 12870164 13119996 13412794 13752453 14143005 14589265 
1010.523 15097906 15678805 16346221 17119292 18020776 19073478 20294184 
1013.898 21685464 23226644 24866100 26517474 28063336 29368394 30302420 
1017.273 30767986 30723926 30194942 29263716 28049160 26680816 25277578 
1020.648 23935036 22721232 21678042 20825564 20167136 19693982 19388948 
1024.022 19229532 19190242 19244476 19365790 19528948 19710260 19887994 
1027.398 20042964 20159238 20225284 20235000 20188234 20090484 19951568 
1030.773 19783800 19599872 19411312 19227470 19055464 18900350 18765622 
1034.148 18653344 18564234 18497496 18450818 18420720 18403126 18394118 
1037.523 18390582 18390458 18392692 18396830 18402602 18409704 18417810 
1040.899 18426738 18436680 18448108 18461588 18477320 18494820 18512764 
1044.274 18529286 18542362 18550466 18552892 18549808 18542076 18530928 
1047.649 18517620 18503384 18489506 18477606 18469796 18468546 18476430 
1051.024 18495632 18527446 18571970 18628040 18693526 18765718 18841872 
1054.400 18919640 18997370 19074194 19150098 19225704 19302074 19380372 
1057.775 19461508 19545834 19632882 19721492 19809956 19896536 19979956 
1061.150 20059850 20136886 20212656 20289264 20368766 20452742 20541962 
1064.525 20636586 20736400 20841432 20952312 21070596 21198740 21339708 
1067.901 21496614 21672196 21868530 22086872 22327812 22591438 22877538 
1071.276 23185730 23515506 23866204 24236908 24626532 25033930 25457924 
1074.651 25897486 26351594 26819096 27298490 27787766 28284388 28785452 
1078.026 29288176 29790250 30290056 30786618 31279290 31767222 32248676 
1081.402 32720790 33179402 33619404 34035172 34421240 34772976 35086960 
1084.777 35361580 35597308 35796924 35965712 36111512 36244428 36376520 
1088.152 36521072 36691876 36902376 37165060 37490980 37889628 38369180 
1091.527 38936768 39598920 40361848 41231432 42213052 43310920 44527464 
1094.903 45862380 47311896 48868136 50518696 52246368 54028976 55839436 
1098.278 57645756 59411448 61096180 62657256 64051712 65238948 66183412 
1101.653 66856932 67240032 67322248 67101336 66582008 65774448 64693092 
1105.028 63356180 61785896 60009484 58060992 55983060 53827788 51656144 
1108.404 49535480 47535464 45723020 44157408 42886056 41941760 41341288 
1111.779 41085260 41159060 41534452 42171676 43021844 44029256 45133980 
1115.154 46274352 47389828 48424016 49327784 50062060 50600124 50928640 
1118.529 51047440 50968188 50711884 50305844 49780408 49165648 48488512 
1121.905 47770832 47028192 46269932 45500064 44718832 43924592 43115368 
1125.280 42290236 41449884 40597020 39736272 38874224 38019144 37180812 
1128.655 36370008 35597896 34875120 34210912 33612388 33084094 32628024 
1132.030 32243902 31929662 31682032 31496856 31369368 31294226 31265464 
1135.406 31276402 31319814 31387926 31472650 31565926 31659994 31747810 
1138.781 31823566 31883052 31924006 31946114 31950780 31940482 31918070 
1142.156 31886104 31846404 31800038 31747594 31689578 31626856 31560790 
1145.531 31493180 31426042 31361378 31301084 31247082 31201624 31167686 
1148.906 31149200 31151158 31179454 31240516 31340886 31486890 31684188 
1152.282 31937612 32250800 32626004 33063754 33562744 34119728 34729724 
1155.657 35386352 36082248 36809508 37559952 38325180 39096568 39865176 
1159.032 40621568 41355888 42058052 42718060 43326404 43874596 44355580 
1162.407 44764172 45097284 45353912 45535012 45643020 45681552 45654984 
1165.783 45568104 45425972 45233840 44997056 44720984 44410888 44071884 
1169.158 43708884 43326636 42929800 42523040 42111008 41698240 41288912 
1172.533 40886512 40493596 40111688 39741276 39382064 39033256 38694076 
1175.908 38363844 38042256 37729184 37424476 37127668 36837784 36553284 
1179.284 36272220 35992508 35712328 35430340 35145724 34858112 34567332 
1182.659 34273068 33974804 33671848 33363578 33049748 32730774 32407748 
1186.034 32082338 31756398 31431740 31109798 30791706 30478370 30170754 
1189.409 29870058 29577682 29295080 29023540 28763876 28516460 28281236 
1192.785 28058118 27847344 27649688 27466548 27299806 27151474 27023352 
1196.160 26916706 26832194 26769846 26729354 26710210 26712054 26734686 
1199.535 26778210 26842896 26929036 27036700 27165454 27314108 27480492 
1202.910 27661234 27851722 28046066 28237232 28417266 28577596 28709492 
1206.286 28804824 28856838 28861172 28816712 28726238 28596536 28437736 
1209.661 28262186 28082740 27911208 27757000 27626580 27523354 27448324 
1213.036 27400860 27379348 27381734 27405610 27448144 27506128 27576044 
1216.411 27654424 27738374 27825976 27916450 28009998 28107416 28209486 
1219.787 28316692 28429028 28546372 28668732 28796828 28932172 29076978 
1223.162 29233834 29405042 29592266 29796300 30017134 30254366 30507686 
1226.537 30777422 31064760 31371990 31702086 32058522 32444802 32864096 
1229.912 33319086 33811928 34344480 34918520 35535996 36199168 36910432 
1233.288 37672228 38486544 39354700 40277152 41253496 42282560 43362664 
1236.663 44491556 45666656 46884688 48141708 49432980 50753064 52095956 
1240.038 53455372 54824616 56196428 57562648 58913948 60239732 61528684 
1243.413 62769340 63950980 65064080 66100400 67052752 67914680 68680352 
1246.789 69345400 69907568 70367920 70731064 71004896 71199096 71323776 
1250.164 71387752 71397896 71359080 71274856 71148208 70982264 70780864 
1253.539 70548592 70290936 70014432 69726720 69436696 69154104 68889000 
1256.914 68651080 68449120 68290720 68182808 68132008 68145416 68230472 
1260.290 68394672 68644184 68982720 69410104 69921768 70508408 71156432 
1263.665 71848328 72563224 73276888 73962280 74590048 75130280 75554352 
1267.040 75837656 75961688 75915488 75695720 75305904 74754664 74054352 
1270.415 73219440 72265760 71209632 70067616 68855736 67589352 66282696 
1273.791 64948912 63599772 62245672 60895432 59556068 58232576 56927960 
1277.166 55643360 54378688 53132916 51904780 50692968 49496364 48313888 
1280.541 47144612 45987604 44842092 43707568 42583920 41471336 40370264 
1283.916 39281120 38204168 37139344 36086340 35044728 34014168 32994608 
1287.292 31986446 30990594 30008600 29042516 28095046 27169314 26268828 
1290.667 25397214 24557998 23754314 22988738 22263132 21578702 20936048 
1294.042 20335324 19776318 19258578 18781156 18342700 17941052 17573474 
1297.417 17236606 16926842 16640668 16375099 16127856 15897390 15682630 
1300.792 15482634 15296249 15122007 14958110 14802672 14654036 14510986 
1304.168 14372838 14239384 14110596 13986546 13867147 13752197 13641386 
1307.543 13534525 13431613 13332941 13239050 13150711 13068768 12994090 
1310.918 12927440 12869556 12821025 12782487 12754655 12738481 12735236 
1314.293 12746528 12774166 12819859 12884817 12969398 13072665 13192265 
1317.669 13324326 13463643 13603793 13737418 13856389 13952222 14016482 
1321.044 14041431 14020811 13950624 13829716 13660064 13446651 13196729 
1324.419 12919037 12622684 12316205 12006975 11700817 11402115 11113877 
1327.794 10838269 10576665 10330062 10099058 9884121 9685535 9503470 9337823 
1331.652 9188249 9054059 8934266 8827733 8733375 8650415 8578533 8517732 
1335.509 8468278 8430252 8403332 8386542 8378473 8377437 8381884 8390798 
1339.367 8403874 8421446 8444350 8473475 8509502 8552653 8602671 8659026 
1343.224 8721174 8788930 8862665 8943398 9032534 9131496 9241126 9361065 
1347.082 9489549 9623197 9757446 9887229 10007819 10115701 10209160 10288414 
1350.939 10355568 10413966 10467637 10520564 10576230 10637201 10705075 
1354.314 10780381 10862778 10951154 11043924 11139295 11235483 11330982 
1357.689 11424657 11515786 11604131 11689761 11773016 11854336 11934195 
1361.065 12012861 12090230 12165599 12237655 12304482 12363917 12413835 
1364.440 12452725 12479807 12495140 12499446 12493600 12478318 12453843 
1367.815 12419924 12376133 12322164 12258305 12185606 12105908 12021597 
1371.190 11935363 11849979 11768155 11692701 11626504 11572567 11533884 
1374.566 11512989 11511701 11530748 11569772 11627463 11701960 11791311 
1377.941 11893798 12008137 12133602 12270003 12417690 12577513 12750821 
1381.316 12939322 13144840 13368911 13612327 13874654 14154105 14447448 
1384.691 14750266 15057334 15363005 15661487 15947105 16214356 16458070 
1388.067 16673495 16856612 17004322 17114910 17188070 17224906 17227660 
1391.442 17199140 17142076 17058642 16950204 16817374 16660409 16479728 
1394.817 16276364 16052347 15810679 15555270 15290855 15022692 14756653 
1398.192 14498982 14256279 14035226 13842407 13684140 13566439 13495253 
1401.568 13476571 13516781 13622424 13799910 14054522 14389291 14803602 
1404.943 15291888 15842830 16439013 17057442 17670670 18248620 18760942 
1408.318 19179402 19480524 19647600 19672174 19554718 19304130 18936344 
1411.693 18472374 17935882 17351008 16740496 16124290 15518621 14935666 
1415.069 14383420 13865986 13384099 12935883 12517720 12125098 11753524 
1418.444 11399161 11059156 10731845 10416460 10112825 9820905 9540469 
1421.819 9271123 9012287 8763594 8525144 8297587 8082254 7880886 7695294 
1425.677 7527127 7377688 7247674 7137387 7046633 6974872 6921170 6884414 
1429.534 6863201 6856117 6861716 6878682 6905767 6941876 6985943 7036966 
1433.391 7093966 7156061 7222476 7292516 7365601 7441222 7518916 7598410 
1437.249 7679712 7763351 7850413 7942489 8041492 8149399 8267896 8398237 
1441.106 8541138 8697074 8866410 9049794 9248129 9462640 9694590 9945223 
1444.964 10215575 10506694 10819665 11155850 11516669 11903084 12314711 
1448.339 12748767 13199045 13655421 14103954 14527933 14909792 15233745 
1451.714 15488602 15670243 15782754 15838031 15853606 15849501 15844636 
1455.089 15853834 15885520 15940423 16011538 16085114 16142796 16164440 
1458.465 16131492 16030045 15853339 15603246 15290235 14931874 14549831 
1461.840 14166245 13800120 13464540 13165455 12901805 12666973 12450908 
1465.215 12242521 12031799 11811218 11576717 11327764 11067127 10800025 
1468.590 10533072 10273061 10025667 9794574 9581047 9384043 9200820 9027785 
1472.448 8861355 8698472 8536889 8374937 8211416 8045242 7875417 7701134 
1476.305 7521897 7337514 7148158 6954105 6755699 6553181 6346894 6137446 
1480.163 5925930 5714026 5503880 5297731 5097623 4905059 4720874 4545377 
1484.020 4378550 4220322 4070785 3930228 3799090 3677839 3566821 3466172 
1487.877 3375813 3295388 3224351 3161990 3107486 3060086 3019319 2985019 
1491.735 2957509 2937359 2925444 2922491 2929130 2945801 2972803 3010556 
1495.592 3059718 3121230 3196274 3286199 3392683 3517939 3665167 3838767 
1499.450 4044178 4286812 4570336 4894225 5251588 5627669 6000112 6340747 
1503.307 6619454 6808638 6888053 6848506 6693733 6439735 6111787 5739704 
1507.165 5352847 4975905 4626582 4315117 4045382 3816624 3625280 3466530 
1511.022 3335204 3226503 3136187 3060757 2997421 2943961 2898589 2859761 
1514.879 2826118 2796436 2769762 2745438 2723271 2703334 2685931 2671292 
1518.737 2659466 2650233 2643254 2638132 2634622 2632767 2632845 2635217 
1522.594 2640258 2648179 2658943 2672213 2687470 2704024 2721097 2737858 
1526.452 2753541 2767481 2779119 2788021 2793844 2796279 2795073 2789986 
1530.309 2780994 2768295 2752476 2734361 2715023 2695477 2676528 2658593 
1534.167 2641667 2625464 2609667 2594039 2578648 2563764 2549831 2537151 
1538.024 2525917 2515978 2507030 2498650 2490444 2482171 2473766 2465256 
1541.881 2456816 2448609 2440887 2433918 2427985 2423284 2419875 2417562 
1545.739 2416007 2414743 2413392 2411785 2410012 2408380 2407280 2407008 
1549.596 2407645 2409033 2410906 2413083 2415522 2418448 2422217 2427242 
1553.454 2433753 2441634 2450530 2459871 2469089 2477785 2485801 2493229 
1557.311 2500313 2507300 2514313 2521283 2527940 2533871 2538717 2542202 
1561.168 2544384 2545578 2546385 2547590 2550006 2554257 2560732 2569440 
1565.026 2580141 2592445 2606052 2620904 2637237 2655704 2677082 2702303 
1568.883 2732184 2767309 2808012 2854276 2905826 2962106 3022498 3086341 
1572.741 3153112 3222430 3293998 3367359 3441669 3515267 3585610 3649328 
1576.598 3702669 3742047 3764752 3769311 3755622 3724773 3678777 3620115 
1580.456 3551612 3476160 3396713 3316281 3237787 3163822 3096468 3036939 
1584.313 2985539 2941675 2904242 2871927 2843814 2819463 2799018 2782920 
1588.170 2771559 2764965 2762697 2763787 2767186 2772003 2777683 2784091 
1592.028 2791388 2799694 2808918 2818616 2828062 2836506 2843304 2848256 
1595.885 2851591 2853847 2855751 2857970 2861012 2865169 2870649 2877595 
1599.743 2886336 2897243 2910747 2927181 2946640 2968897 2993506 3019824 
1603.600 3047305 3075623 3104729 3134976 3166913 3201143 3238091 3277719 
1607.458 3319643 3362872 3406114 3447905 3486920 3522180 3553216 3580060 
1611.315 3603201 3623313 3641041 3656704 3670278 3681410 3689585 3694420 
1615.172 3695878 3694380 3690748 3686068 3681419 3677727 3675682 3675726 
1619.030 3678297 3683791 3692564 3704873 3720571 3739136 3759609 3780859 
1622.887 3801876 3821986 3841095 3859480 3877703 3896214 3915320 3935012 
1626.745 3955158 3975588 3996309 4017463 4039230 4061688 4084739 4108101 
1630.602 4131425 4154466 4177130 4199459 4221604 4243586 4265337 4286641 
1634.459 4307485 4327995 4348596 4369818 4392138 4415640 4439926 4464302 
1638.317 4488028 4510704 4532438 4553860 4575804 4598954 4623511 4649122 
1642.174 4675151 4700941 4726283 4751466 4777161 4804009 4832286 4861657 
1646.032 4891376 4920516 4948536 4975564 5002411 5030289 5060380 5093356 
1649.889 5129312 5167757 5207917 5249016 5290526 5332293 5374525 5417667 
1653.747 5462400 5509498 5559737 5613821 5672212 5735007 5801970 5872595 
1657.604 5946486 6023681 6104888 6191427 6284991 6387079 6498532 6619366 
1661.461 6748837 6885823 7029485 7179580 7336673 7501961 7677035 7863438 
1665.319 8062633 8275813 8504131 8748522 9009709 9287789 9581929 9890199 
1669.176 10209665 10536423 10866210 11194434 11516543 11827998 12124486 
1672.552 12402050 12657560 12889035 13096039 13279608 13442056 13586518 
1675.927 13716491 13835575 13947587 14056762 14168057 14286955 14419149 
1679.302 14569819 14743006 14941245 15165961 15417926 15698157 16008170 
1682.677 16349682 16723830 17130280 17566826 18029692 18514810 19019236 
1686.052 19542218 20085404 20652024 21245808 21869888 22526542 23217344 
1689.428 23943986 24708758 25514754 26365498 27264408 28214666 29219860 
1692.803 30284932 31417156 32626178 33922860 35316788 36814088 38416144 
1696.178 40121048 41927188 43837912 45865156 48030080 50360424 52885020 
1699.553 55627920 58604168 61819108 65271996 68961688 72891520 77069672 
1702.929 81504520 86195320 91122016 96237000 101462032 106690440 111793808 
1706.304 116629136 121045824 124892400 128027032 130333624 131741632 
1709.197 132241264 131885984 130779040 129050792 126835440 124256480 
1712.090 121421472 118423416 115343272 112250624 109201656 106237280 
1714.983 103382656 100650072 98043880 95566056 93220000 91011688 88948096 
1718.358 87034248 85270880 83653760 82174536 80822976 79588672 78462040 
1721.734 77433912 76494840 75634136 74839928 74099752 73401648 72734896 
1725.109 72089920 71457408 70827280 70187864 69526184 68829128 68085256 
1728.484 67286232 66427500 65507840 64527912 63488780 62390936 61233936 
1731.859 60017268 58741188 57408052 56022732 54592508 53125940 51631804 
1735.235 50117372 48587888 47046320 45493968 43931660 42360864 40784648 
1738.610 39208020 37637652 36081184 34546120 33039122 31565518 30129346 
1741.985 28733810 27381674 26075592 24818276 23612346 22460308 21364466 
1745.360 20326838 19349070 18432454 17577682 16784654 16052406 15379190 
1748.736 14762546 14199632 13687463 13222960 12803121 12424898 12085231 
1752.111 11781119 11509573 11267699 11052408 10860574 10688723 10533174 
1755.486 10390256 10256576 10129270 10006209 9885696 9766250 9646206 9523632 
1759.344 9396271 9262145 9119864 8969118 8810723 8646545 8478926 8310237 
1763.201 8142394 7976781 7814137 7654870 7499169 7347209 7199227 7055478 
1767.058 6916251 6781812 6652389 6528063 6408749 6294292 6184257 6078285 
1770.916 5976089 5877702 5783346 5693306 5607640 5525888 5447026 5369610 
1774.773 5292150 5213695 5134028 5053862 4974359 4896660 4821194 4747573 
1778.631 4674540 4600570 4524538 4446310 4366917 4288281 4212725 4142187 
1782.488 4077808 4019660 3966953 3918421 3872678 3828602 3785311 3742271 
1786.345 3699058 3655386 3611009 3565815 3519818 3473279 3426594 3380260 
1790.203 3334864 3290950 3248893 3208972 3171152 3135137 3100430 3066474 
1794.060 3032880 2999573 2966960 2935703 2906622 2880291 2856864 2835956 
1797.918 2816674 2797967 2778778 2758306 2736067 2711866 2685769 2657988 
1801.775 2628937 2599319 2570066 2542291 2517035 2495062 2476614 2461407 
1805.633 2448632 2437334 2426587 2415731 2404444 2392701 2380726 2368987 
1809.490 2358052 2348522 2340879 2335123 2330496 2325371 2317326 2303796 
1813.347 2282771 2253670 2217856 2178565 2140281 2107741 2084682 2072943 
1817.205 2072090 2079645 2091862 2104923 2115559 2121836 2123104 2119800 
1821.062 2113172 2104763 2096157 2088633 2082965 2079262 2076914 2074919 
1824.920 2072203 2068020 2062220 2055225 2047662 2039896 2031599 2021695 
1828.777 2008642 1991036 1968246 1941021 1911300 1881903 1855862 1835550 
1832.635 1822277 1816045 1815659 1819090 1823610 1826485 1825154 1817735 
1836.492 1803535 1783149 1758619 1732945 1709438 1690965 1679122 1674046 
1840.349 1674485 1678405 1683574 1688147 1690827 1690864 1687832 1681648 
1844.207 1672429 1660785 1647763 1634731 1622885 1612840 1604063 1595252 
1848.064 1584507 1570242 1551950 1530485 1507790 1486296 1468062 1454090 
1851.922 1444322 1437869 1433762 1431347 1430475 1431379 1434047 1438030 
1855.779 1442467 1446273 1448740 1449831 1449925 1449725 1449361 1448395 
1859.636 1445697 1439992 1430557 1417717 1402720 1387379 1373262 1361075 
1863.494 1350735 1341552 1333113 1325719 1320426 1318732 1321492 1328253 
1867.351 1337024 1344832 1348703 1346697 1338707 1326382 1312295 1298833 
1871.209 1287376 1277854 1269059 1259530 1248252 1235393 1222170 1210657 
1875.066 1203043 1201176 1206141 1218138 1236273 1258768 1282955 1305555 
1878.924 1323256 1333482 1335109 1328993 1317730 1305001 1294344 1288099 
1882.781 1286781 1288968 1292335 1294708 1295020 1293803 1292668 1293443 
1886.638 1297336 1304090 1312138 1319193 1323237 1323409 1320165 1315017 
1890.496 1309808 1305858 1303243 1300900 1296983 1289847 1278604 1263679 
1894.353 1246750 1230210 1216335 1206611 1201218 1199222 1198927 1198651 
1898.211 1197341 1195130 1193040 1192768 1195721 1202657 1212984 1224987 
1902.068 1236063 1243364 1244306 1236990 1220617 1195597 1163709 1128176 
1905.926 1093395 1064375 1045710 1040387 1048485 1067008 1090049 1110755 
1909.783 1123170 1124486 1116056 1102873 1091708 1088780 1097036 1115125 
1913.640 1137727 1157253 1166589 1161452 1141538 1110596 1074962 1041614 
1917.498 1016392 1002484 1000188 1007087 1018979 1031000 1038674 1039012 
1921.355 1031087 1016236 997726 979681 965646 957442 954509 954193 953064 
1925.695 948586 940426 930669 922780 919924 923099 930353 937741 941065 
1930.034 938597 932254 927881 933050 953965 992562 1044773 1101339 1150234 
1934.374 1180506 1185292 1164025 1121879 1068050 1012884 965031 929852 
1938.231 908788 900164 900720 906946 916529 928587 943899 963997 990418 
1942.571 1023310 1061270 1101287 1139313 1172266 1198619 1219611 1238656 
1946.428 1260117 1287356 1320785 1357181 1390236 1412100 1415648 1396358 
1950.286 1353614 1291055 1215775 1137614 1067832 1017289 995209 1006970 
1954.143 1052399 1125242 1213545 1302016 1375432 1422462 1438348 1425228 
1958.001 1390503 1343889 1293758 1245846 1203095 1167600 1142203 1130946 
1961.858 1136908 1160141 1194548 1228868 1249965 1248113 1222152 1180790 
1965.716 1139005 1112102 1106196 1114450 1116705 1086844 1002873 857109 
1969.573 661100 444984 248326 109259 52749 84319 189496 340107 501854 645317 
1974.395 750990 814294 844746 862784 893783 960255 1074182 1232570 1416844 
1978.734 1599659 1753062 1858099 1909371 1914392 1888270 1848411 1807364 
1982.592 1770916 1738194 1705294 1669355 1631015 1594026 1562789 1537966 
1986.449 1515040 1485304 1439633 1373820 1291834 1205576 1131803 1085672 
1990.307 1075812 1101736 1155343 1224576 1297777 1366118 1424011 1466664 
1994.164 1488714 1484549 1450283 1387744 1306701 1223689 1158271 1125624 
1998.021 1131207 1168089 1219383 1264535 1286371 1275858 1233227 1163859 
2001.879 1073001 961975 827894 668402 487651 301231 136127 24738 -5940 55766 
2006.701 199296 395042 602998 786483 922529 1005019 1041801 1046957 1033443 
2011.040 1009118 976795 937083 891556 843136 794949 747647 698585 643528 
2015.380 580823 515775 463652 446171 485136 592859 765183 979279 1198035 
2019.719 1379386 1488248 1506120 1435229 1296812 1123993 951798 808044 
2023.577 708236 654602 637547 641247 648282 644074 620308 575464 514668 
2027.917 447908 386405 339875 314574 311328 326997 354904 386888 415112 
2032.256 432057 431875 410595 367547 306515 236451 169713 121086 102830 
2036.596 121812 177766 263021 364826 468799 561827 635468 685103 710606 
2040.935 715416 705330 687577 670556 662101 669004 694888 740268 802872 
2045.275 879283 968143 1071000 1192421 1336942 1504410 1685624 1860895 
2049.132 2003200 2085213 2087533 2004594 1846397 1635050 1399563 1169418 
2052.990 969805 817835 721015 678087 681217 718605 777867 847685 919077 
2057.329 985466 1042691 1088609 1123208 1147718 1164074 1174056 1178592 
2061.187 1177892 1171918 1161297 1148395 1137025 1131654 1136254 1152150 
2065.044 1177733 1208377 1237887 1260580 1272862 1274292 1267202 1255251 
2068.902 1241760 1227835 1212639 1193887 1169389 1138984 1105727 1075510 
2072.759 1056164 1055012 1076887 1122753 1188902 1268036 1350800 1427515 
2076.616 1489982 1532408 1551684 1547638 1522766 1481978 1432278 1382164 
2080.474 1340623 1315697 1312930 1334170 1377033 1434996 1498944 1558725 
2084.331 1605110 1631218 1633530 1612210 1570621 1514828 1452692 1392361 
2088.189 1341353 1304784 1284266 1277639 1278960 1280428 1274357 1255678 
2092.046 1223708 1182498 1139658 1104338 1084215 1083566 1102024 1135213 
2095.904 1176512 1219115 1257700 1289453 1313722 1331080 1342902 1350340 
2099.761 1354640 1356773 1357713 1358293 1358669 1358471 1356789 1352574 
2103.618 1345153 1334446 1320821 1304871 1286759 1266159 1242639 1216404 
2107.476 1189331 1165097 1148795 1145484 1158422 1187222 1227579 1271844 
2111.333 1311049 1337145 1345020 1333735 1306081 1267225 1223206 1179288 
2115.191 1138869 1103345 1072486 1045424 1021161 999637 981953 970414 967975 
2119.530 977130 998581 1030440 1067443 1101866 1125315 1130960 1115745 
2123.388 1081618 1034855 984368 938622 902939 877984 859942 842308 818369 
2127.727 783212 735224 675515 606991 533093 457036 382092 312162 252239 
2132.067 208340 185672 186741 209466 246108 284696 311393 314338 286770 
2136.406 228432 145806 51051 -40174 -110520 -143367 -125493 -49592 81974 
2140.746 256175 449549 632359 774802 854341 861714 803245 698009 572059 
2145.086 450037 349424 276989 230334 201616 182625 166438 148093 121809 
2149.425 78227 4893 -112026 -282032 -504603 -766869 -1044731 -1308625 
2153.283 -1532179 -1699560 -1809203 -1872433 -1905988 -1925098 -1934647 
2156.658 -1927807 -1888419 -1798574 -1648727 -1445339 -1208881 -967787 
2160.033 -744787 -548550 -372304 -199814 -15220 188361 406373 621829 813336 
2164.373 961455 1056580 1101323 1109032 1097223 1080960 1066043 1047547 
2168.230 1011873 942696 827843 664938 463296 242777 27943 -157382 -296336 
2172.570 -380893 -412087 -396826 -345335 -267394 -172625 -70163 30464 118861 
2176.909 185509 222812 228135 205420 163694 116156 76369 55494 59563 89635 
2181.731 141851 210827 290423 376120 464709 553886 640759 721053 789087 
2186.071 838740 864641 864444 839763 797070 747077 703115 678412 683531 
2190.410 723096 794032 885380 979812 1057205 1098799 1092204 1034394 932606 
2194.750 803233 667591 547301 459224 412334 406920 436226 489270 554872 
2199.090 624266 692508 757919 820542 879877 934243 979982 1013636 1032596 
2203.429 1037427 1031993 1022437 1015447 1016053 1025730 1042300 1060261 
2207.287 1073250 1075259 1062954 1035967 997533 952768 908589 871580 847133 
2211.626 838462 845728 865816 893413 922060 946386 963614 974862 984596 
2215.966 998919 1022839 1058294 1102247 1147899 1186008 1208685 1211279 
2219.823 1194659 1164059 1128504 1097152 1078243 1076809 1094768 1130750 
2223.681 1181004 1239442 1298807 1350780 1388087 1405321 1401322 1379318 
2227.538 1346982 1314246 1291129 1284508 1296980 1326034 1365593 1407465 
2231.396 1443752 1467860 1475792 1465700 1438534 1397606 1348662 1299188 
2235.253 1257190 1229040 1218006 1222523 1236486 1251224 1258479 1252935 
2239.110 1234292 1206718 1177841 1154872 1143212 1144750 1158384 1181665 
2242.968 1212314 1248661 1289874 1334092 1378017 1416394 1443814 1456724 
2246.825 1455382 1444608 1432855 1429164 1440229 1467648 1507536 1551927 
2250.683 1591869 1620393 1634902 1637248 1632263 1625584 1620952 1619127 
2254.540 1618008 1613766 1602951 1583739 1556873 1525362 1493445 1465413 
2258.397 1444431 1431828 1427075 1427957 1431605 1435331 1437546 1438483 
2262.255 1440151 1445746 1458976 1482400 1516856 1560675 1610224 1660467 
2266.112 1706303 1743342 1769000 1782427 1784734 1778470 1767474 1755816 
2269.970 1747354 1744525 1747920 1755515 1763528 1767290 1763057 1749561 
2273.827 1728923 1706341 1688914 1683291 1694025 1722038 1764752 1817076 
2277.685 1872942 1926722 1974485 2013566 2042824 2061728 2070574 2070394 
2281.542 2063360 2052642 2042244 2035749 2035569 2042008 2053388 2066475 
2285.399 2077727 2084384 2085396 2081077 2073073 2063348 2053736 2045421 
2289.257 2039101 2035024 2033292 2033743 2035852 2038520 2040182 2038898 
2293.114 2033037 2021708 2005193 1984945 1963234 1942635 1925537 1913717 
2296.972 1908022 1908500 1914480 1924609 1937041 1949589 1960022 1966332 
2300.829 1967188 1962157 1951983 1938151 1922844 1908164 1895845 1886835 
2304.687 1881332 1878706 1878072 1878293 1878592 1878518 1878303 1878594 
2308.544 1880350 1884391 1891218 1900722 1912237 1924733 1937227 1949065 
2312.401 1960189 1970866 1981658 1992885 2004564 2016437 2028292 2040169 
2316.259 2052608 2066362 2082185 2100321 2120539 2142464 2166216 2193071 
2320.116 2225420 2266073 2316940 2376933 2441180 2500696 2544391 2561523 
2323.974 2545004 2493347 2411231 2308445 2197468 2090629 1997728 1924325 
2327.831 1871465 1836449 1814525 1800704 1791106 1783508 1777110 1771693 
2331.688 1767075 1762495 1756890 1749349 1739665 1728602 1717866 1709589 
2335.546 1705567 1706706 1712727 1722050 1732347 1741222 1746838 1748421 
2339.403 1746439 1742422 1738458 1736520 1737880 1742650 1749988 1758214 
2343.261 1765606 1770900 1773817 1774877 1775361 1776541 1779255 1783458 
2347.118 1788359 1792701 1795325 1795528 1793377 1789562 1785215 1781215 
2350.976 1778235 1776269 1774984 1773809 1772190 1769879 1766822 1763271 
2354.833 1759473 1755578 1751618 1747379 1742581 1736869 1730057 1722083 
2358.690 1713122 1703458 1693504 1683468 1673524 1663522 1653397 1642982 
2362.548 1632668 1623066 1615211 1610138 1608429 1609999 1613885 1618459 
2366.405 1621935 1622919 1621074 1617108 1612719 1609922 1610441 1615100 
2370.263 1623637 1634868 1647047 1658481 1667773 1673976 1676673 1675807 
2374.120 1671534 1664358 1655243 1645639 1637422 1632538 1632622 1638395 
2377.978 1649494 1664347 1680713 1695975 1708062 1715689 1718731 1718012 
2381.835 1714958 1711132 1707859 1705828 1705065 1705121 1705265 1704831 
2385.692 1703672 1701967 1700551 1700179 1701568 1704775 1709230 1713856 
2389.550 1717502 1719258 1719081 1717591 1715932 1715126 1715730 1717284 
2393.407 1718501 1717662 1713411 1705230 1693892 1681325 1669988 1662360 
2397.265 1659975 1663077 1670549 1680084 1688751 1693704 1692800 1684943 
2401.122 1670640 1651669 1631198 1612866 1600310 1596094 1601300 1615026 
2404.979 1634668 1656346 1676085 1690414 1697374 1696522 1689240 1677943 
2408.837 1665847 1656099 1651628 1654417 1665484 1684415 1709489 1737739 
2412.694 1765423 1788619 1804286 1810498 1807180 1795697 1778553 1758400 
2416.552 1737739 1718271 1701004 1686485 1675121 1667352 1663865 1665199 
2420.409 1671535 1682267 1696290 1711748 1726740 1739439 1748912 1754828 
2424.267 1757832 1759031 1759765 1760981 1762958 1764984 1765596 1762913 
2428.124 1755279 1741810 1723224 1701419 1679315 1659809 1645125 1635943 
2431.981 1631407 1629561 1628346 1626326 1623381 1620468 1619339 1621306 
2435.839 1626897 1635252 1644645 1653025 1658742 1661064 1660244 1657025 
2439.696 1652271 1646611 1640456 1634135 1628338 1624009 1622242 1623598 
2443.554 1627750 1633301 1638303 1641111 1641451 1640861 1642633 1650524 
2447.411 1667453 1693811 1727242 1762495 1793374 1814425 1822709 1818707 
2451.269 1805979 1789910 1775978 1768064 1767494 1773016 1781508 1789012 
2455.126 1791969 1787812 1775710 1756206 1731189 1703346 1675805 1651504 
2458.983 1632716 1620526 1614953 1614590 1617531 1621855 1626355 1630923 
2462.841 1636545 1644639 1656485 1672117 1690321 1708527 1723671 1732993 
2466.698 1735026 1729907 1719535 1706635 1694138 1683956 1676846 1671978 
2470.556 1667515 1661397 1652182 1639531 1624547 1609284 1596380 1587890 
2474.413 1584946 1587019 1592639 1599360 1604868 1607488 1606734 1602964 
2478.271 1597192 1590418 1583366 1576246 1569106 1562189 1556404 1553137 
2482.128 1554098 1560491 1572606 1589252 1608063 1625965 1640223 1648961 
2485.985 1651690 1649074 1642542 1633413 1622726 1610822 1597826 1583907 
2489.843 1569967 1557287 1547802 1543170 1544499 1551759 1564074 1579597 
2493.700 1596218 1612001 1625451 1635651 1642364 1645687 1646232 1644592 
2497.558 1641709 1638371 1635510 1633775 1633729 1635473 1638985 1643658 
2501.415 1648578 1652548 1654373 1653008 1648038 1639875 1630091 1621055 
2505.272 1615520 1615763 1623128 1637242 1656110 1676567 1695077 1708649 
2509.130 1715632 1715835 1710783 1702722 1694497 1688416 1686373 1689098 
2512.987 1696754 1708541 1723236 1739165 1754620 1768042 1778412 1785160 
2516.845 1788502 1788896 1787212 1784060 1779931 1775122 1769947 1764795 
2520.702 1760024 1755955 1752683 1749765 1746499 1742051 1736013 1728579 
2524.560 1720735 1713892 1709519 1708510 1711166 1717173 1726220 1738274 
2528.417 1754054 1774406 1800119 1830697 1864279 1897381 1925972 1946248 
2532.274 1955979 1954831 1944737 1928627 1909786 1890797 1873325 1857848 
2536.132 1844392 1832787 1823205 1815747 1810595 1807460 1806007 1805999 
2539.989 1807762 1812512 1822322 1839276 1864642 1898086 1937272 1977876 
2543.847 2014904 2043500 2060233 2063733 2054973 2036490 2012160 1985996 
2547.704 1961830 1942558 1930328 1925940 1929227 1938843 1952764 1968559 
2551.562 1984120 1997727 2008817 2017388 2023946 2029034 2032831 2035145 
2555.419 2035504 2033447 2029181 2023481 2017702 2013405 2012041 2014294 
2559.276 2020251 2029010 2039327 2049787 2059085 2066355 2071449 2074459 
2563.134 2076156 2077317 2078928 2081587 2085728 2091221 2097704 2104598 
2566.991 2111372 2117499 2122865 2127462 2131600 2135532 2139630 2144051 
2570.849 2148986 2154218 2159495 2164201 2167666 2169133 2168270 2165172 
2574.706 2160611 2155883 2152460 2151548 2153744 2158848 2166104 2174512 
2578.563 2183421 2192534 2202226 2212873 2224545 2236597 2247739 2256293 
2582.421 2260844 2260934 2257287 2251567 2245934 2242229 2241520 2243756 
2586.278 2248318 2254202 2260919 2268278 2276734 2286400 2297123 2307867 
2590.136 2317292 2323936 2327226 2327501 2326216 2325316 2326432 2330260 
2593.993 2336089 2342123 2346297 2346892 2343551 2337215 2330262 2325388 
2597.851 2324986 2330233 2341029 2355893 2372584 2388757 2402525 2412690 
2601.708 2418879 2421247 2420375 2416744 2410925 2403457 2394991 2386460 
2605.565 2379028 2373984 2372660 2375842 2383904 2396391 2412150 2429489 
2609.423 2446456 2461188 2472321 2479072 2481555 2480474 2477252 2473480 
2613.280 2470777 2470251 2472628 2477643 2484672 2492535 2500057 2506287 
2617.138 2510835 2513772 2515697 2517235 2518887 2520663 2522184 2522825 
2620.995 2521958 2519385 2515603 2511589 2508790 2508487 2511534 2517924 
2624.853 2526870 2536876 2546514 2554439 2560079 2563567 2565737 2567686 
2628.710 2570483 2574732 2580631 2587692 2595156 2602142 2607828 2611794 
2632.567 2613906 2614447 2614069 2613484 2613722 2615540 2619663 2626255 
2636.425 2635083 2645355 2655953 2665554 2673083 2677876 2680021 2680054 
2640.282 2678959 2677630 2676703 2676179 2675736 2674683 2672491 2668836 
2644.140 2664015 2658538 2653156 2648420 2644614 2641686 2639547 2638044 
2647.997 2637403 2637829 2639791 2643380 2648271 2653678 2658475 2661511 
2651.854 2662067 2659979 2655821 2650565 2645352 2641027 2638078 2636343 
2655.712 2635328 2634320 2632826 2630395 2626945 2622421 2616869 2610143 
2659.569 2602144 2592602 2581425 2568613 2554437 2539401 2524235 2509743 
2663.427 2496734 2485796 2477272 2471090 2466837 2463828 2461269 2458537 
2667.284 2455335 2451752 2448357 2445892 2445124 2446459 2449973 2455206 
2671.142 2461308 2467196 2471782 2474074 2473462 2469664 2462942 2453919 
2674.999 2443662 2433448 2424634 2418344 2415221 2415311 2418211 2422941 
2678.856 2428452 2433729 2438057 2441053 2442698 2443228 2443114 2442873 
2682.714 2443176 2444650 2447786 2452731 2459248 2466487 2473337 2478571 
2686.571 2481335 2481462 2479760 2477494 2476274 2477209 2480603 2485562 
2690.429 2490461 2493312 2492602 2487827 2479826 2470484 2462259 2457377 
2694.286 2457288 2462040 2470653 2481156 2491382 2499376 2504049 2505054 
2698.144 2503082 2499208 2494905 2491303 2489253 2489021 2490416 2492827 
2702.001 2495622 2498152 2500071 2501267 2501915 2502113 2502020 2501468 
2705.858 2500155 2497642 2493562 2487758 2480522 2472496 2464615 2457839 
2709.716 2453070 2450765 2451073 2453701 2458054 2463391 2468987 2474254 
2713.573 2478863 2482655 2485768 2488250 2490272 2491689 2492278 2491764 
2717.431 2490009 2487094 2483635 2480672 2479289 2480511 2484881 2492005 
2721.288 2500873 2509809 2517154 2521608 2522765 2521119 2517895 2514690 
2725.146 2512893 2513255 2515831 2519930 2524557 2528677 2531645 2533219 
2729.003 2533676 2533505 2533398 2533780 2535023 2537264 2540513 2544616 
2732.860 2549385 2554498 2559696 2564591 2569053 2572941 2576377 2579509 
2736.718 2582557 2585534 2588288 2590589 2592102 2592707 2592598 2592275 
2740.575 2592545 2594245 2598071 2604220 2612461 2622024 2631927 2641014 
2744.433 2648396 2653426 2655948 2656154 2654611 2652071 2649372 2647398 
2748.290 2646746 2647815 2650795 2655488 2661712 2669038 2677130 2685590 
2752.147 2694081 2702164 2709347 2715178 2719340 2721721 2722655 2722805 
2756.005 2723094 2724364 2727336 2732187 2738667 2746122 2753859 2761170 
2759.862 2767744 2773394 2778278 2782555 2786310 2789447 2791902 2793410 
2763.720 2793954 2793495 2792257 2790521 2788729 2787274 2786728 2787504 
2767.577 2789960 2794145 2799833 2806397 2813028 2818901 2823461 2826518 
2771.435 2828457 2829767 2831021 2832464 2834019 2835293 2835861 2835666 
2775.292 2835096 2834976 2836297 2839851 2845912 2854048 2863450 2873234 
2779.149 2882785 2892010 2901286 2911009 2921359 2931808 2941345 2948553 
2783.007 2952333 2952201 2948696 2943100 2937190 2932536 2930065 2929872 
2786.864 2931344 2933336 2934866 2935241 2934310 2932355 2930040 2928104 
2790.722 2927245 2928140 2931384 2937406 2946464 2958436 2972872 2988792 
2794.579 3005033 3020305 3033712 3044664 3053303 3060178 3066238 3072385 
2798.437 3079333 3087406 3096453 3106008 3115385 3123872 3131047 3136758 
2802.294 3141328 3145499 3150291 3156753 3165839 3177915 3193029 3210469 
2806.151 3229235 3247972 3265447 3280484 3292421 3300998 3306451 3309381 
2810.009 3310734 3311627 3313152 3316238 3321487 3329047 3338736 3349999 
2813.866 3362312 3375157 3388420 3402158 3416689 3432224 3448937 3466609 
2817.724 3484789 3502775 3520010 3536109 3551091 3565251 3579321 3594033 
2821.581 3610215 3628523 3649421 3673028 3699126 3727049 3755848 3784151 
2825.438 3810577 3833849 3853286 3868751 3880955 3891103 3900724 3911266 
2829.296 3923740 3938523 3955529 3974181 3993927 4014311 4035171 4056605 
2833.153 4078786 4101900 4126075 4151370 4178086 4206558 4237456 4271389 
2837.011 4308787 4349511 4392970 4438038 4483662 4528988 4574041 4619448 
2840.868 4666460 4716322 4769959 4827445 4888327 4951564 5016296 5081976 
2844.726 5148833 5217467 5288839 5363662 5442320 5524792 5610918 5700403 
2848.583 5793147 5888890 5987195 6087087 6187172 6285849 6381969 6475249 
2852.440 6566665 6658218 6752402 6851334 6956090 7066113 7179706 7294313 
2856.298 7407584 7517979 7625183 7729765 7832963 7935945 8039542 8144097 
2860.155 8249755 8356559 8464807 8574952 8687364 8802109 8918793 9036507 
2864.013 9154137 9270368 9384153 9494659 9601313 9703730 9801780 9895598 
2867.870 9985655 10072568 10157084 10239349 10318822 10393832 10461968 
2871.245 10520517 10567510 10602070 10625239 10639203 10646918 10650624 
2874.621 10651300 10647942 10638013 10618051 10585004 10537132 10474687 
2877.996 10399870 10316537 10229251 10142680 10060641 9986018 9920396 
2881.371 9864260 9817259 9778627 9747466 9723365 9706386 9697269 9697134 
2885.229 9707236 9728364 9760728 9803782 9856591 9918000 9987311 10064221 
2889.086 10148933 10241684 10342477 10450435 10563898 10680374 10797139 
2892.461 10911511 11021435 11125552 11223210 11314143 11398219 11475047 
2895.836 11544101 11604404 11655055 11695252 11724720 11743789 11753693 
2899.212 11755922 11752616 11745539 11736161 11725137 11712661 11698477 
2902.587 11682641 11665776 11649355 11635682 11627454 11626923 11635641 
2905.962 11653791 11680502 11714096 11752869 11795461 11841352 11890890 
2909.337 11945030 12004936 12071833 12146453 12229412 12320936 12421093 
2912.713 12529549 12645684 12768376 12896098 13026889 13158879 13290136 
2916.088 13419384 13545674 13668703 13788512 13905483 14020067 14132874 
2919.463 14244561 14355746 14466965 14578663 14691041 14804155 14917876 
2922.838 15032026 15146358 15260585 15374455 15487799 15600336 15712206 
2926.214 15823598 15935145 16047589 16161719 16277969 16396365 16516218 
2929.589 16636685 16756767 16875734 16993422 17110198 17226536 17342768 
2932.964 17458714 17573770 17686928 17797594 17905744 18012572 18120032 
2936.339 18230700 18346990 18470626 18602290 18741742 18887858 19039348 
2939.715 19194804 19353212 19513712 19675652 19838388 20001308 20163734 
2943.090 20325224 20485408 20644102 20801130 20956392 21109540 21260272 
2946.465 21408152 21552936 21694280 21831890 21965242 22093822 22216792 
2949.840 22333558 22443660 22547050 22644090 22735344 22821132 22901608 
2953.216 22976198 23044160 23104526 23156490 23199706 23234164 23259868 
2956.591 23276756 23284168 23281072 23266080 23237898 23195632 23139032 
2959.966 23068168 22983370 22884456 22770692 22640342 22491146 22320568 
2963.341 22126398 21907148 21662498 21393296 21101526 20789882 20461694 
2966.717 20120322 19769188 19411074 19048560 18683618 18317860 17952660 
2970.092 17589284 17228890 16872598 16521330 16175620 15835594 15501292 
2973.467 15172412 14849016 14531484 14220692 13917778 13623996 13340418 
2976.842 13067798 12806313 12555975 12316379 12087104 11867373 11656257 
2980.218 11452433 11254470 11060755 10870342 10682835 10498802 10319458 
2983.593 10146327 9980422 9822103 9670603 9524309 9381413 9240288 9100004 
2987.450 8960669 8822840 8687349 8554666 8424983 8297927 8173064 8050003 
2991.308 7928843 7809768 7693251 7579302 7467738 7358012 7249456 7141471 
2995.165 7033907 6926662 6819965 6713760 6608007 6502453 6397087 6292171 
2999.022 6188588 6087503 5990013 5896882 5807938 5722393 5639069 5556820 
3002.880 5475126 5394207 5314990 5238533 5165773 5096820 5031361 4968480 
3006.737 4907346 4847381 4788467 4730731 4674334 4619255 4565144 4511491 
3010.595 4458133 4405265 4353814 4304885 4259721 4218890 4182253 4148893 
3014.452 4117345 4086052 4054025 4020770 3986543 3952131 3918467 3886429 
3018.310 3856810 3830029 3806419 3785934 3768422 3753359 3740012 3727425 
3022.167 3714772 3701231 3686565 3670700 3653987 3636910 3619964 3603612 
3026.024 3588442 3574917 3563585 3554805 3548661 3544722 3542059 3539376 
3029.882 3535432 3529323 3520982 3510938 3500407 3490647 3482618 3476557 
3033.739 3472167 3468652 3465373 3462011 3458906 3456750 3456597 3458994 
3037.597 3464151 3471356 3479597 3487448 3493678 3497262 3497724 3495030 
3041.454 3489666 3482551 3475114 3469165 3466661 3469188 3477742 3492120 
3045.312 3510980 3532169 3553182 3572172 3588358 3602540 3616612 3632724 
3049.169 3652645 3676594 3703268 3729788 3752962 3769949 3779294 3781202 
3053.026 3777449 3770239 3761882 3753627 3745755 3737672 3728639 3718147 
3056.884 3706537 3694519 3683216 3673264 3664676 3656720 3648376 3638791 
3060.741 3627838 3616340 3605882 3598298 3595112 3596908 3603189 3612382 
3064.599 3622487 3631186 3636778 3638206 3635354 3628835 3620069 3610841 
3068.456 3603126 3598615 3598480 3602849 3610867 3620455 3629044 3633818 
3072.313 3632683 3624487 3609655 3589768 3567471 3545569 3526665 3512413 
3076.171 3503610 3499722 3499601 3501374 3503263 3503707 3501920 3497871 
3080.028 3492385 3486887 3482907 3481639 3483588 3488273 3494438 3500270 
3083.886 3504079 3504553 3501346 3494695 3485681 3475427 3464939 3454817 
3087.743 3445185 3435792 3426271 3416212 3405499 3394028 3382197 3370364 
3091.601 3359305 3349692 3342389 3337888 3336380 3337447 3340216 3343449 
3095.458 3346062 3347235 3347062 3346269 3346085 3347805 3352347 3359847 
3099.315 3369835 3381175 3392624 3403297 3412700 3420883 3428120 3434579 
3103.173 3440080 3443938 3445201 3442729 3435908 3424578 3409340 3391207 
3107.030 3371594 3351851 3333150 3316250 3301658 3289724 3280659 3274632 
3110.888 3271834 3272045 3274877 3279398 3284249 3287749 3288226 3284285 
3114.745 3275278 3261351 3243627 3224017 3204921 3188572 3176756 3170384 
3118.603 3169414 3172983 3179938 3188917 3199000 3209510 3220025 3230013 
3122.460 3238755 3245169 3248383 3247739 3243671 3237534 3231512 3227884 
3126.317 3228297 3232870 3240095 3247165 3250743 3248240 3238760 3223235 
3130.175 3204416 3185700 3170229 3159694 3154179 3152158 3151496 3149972 
3134.032 3146324 3140102 3132029 3122975 3114090 3106223 3100055 3095991 
3137.890 3094553 3096038 3100504 3107449 3115813 3124020 3130515 3134084 
3141.747 3134214 3131115 3125662 3118832 3111532 3104261 3097511 3091697 
3145.604 3087523 3085757 3087201 3091993 3099518 3108165 3115930 3120848 
3149.462 3121912 3119145 3113771 3107551 3102238 3098642 3096788 3095787 
3153.319 3094539 3092363 3089446 3086819 3085975 3088350 3094791 3105116 
3157.177 3118388 3132896 3146895 3158610 3166813 3170618 3169773 3164234 
3161.034 3154686 3142070 3127855 3113583 3100766 3090369 3082799 3077672 
3164.892 3074088 3070920 3067377 3063070 3058462 3054357 3051978 3052153 
3168.749 3055333 3061070 3068354 3075759 3081845 3085763 3087457 3087647 
3172.606 3087622 3088639 3091453 3095751 3100364 3103373 3103166 3098838 
3176.464 3090945 3081297 3072528 3067094 3066397 3070200 3076569 3082529 
3180.321 3085227 3082915 3075622 3065223 3054941 3048030 3047101 3052879 
3184.179 3064418 3079231 3094264 3106714 3114763 3118074 3117510 3114827 
3188.036 3112079 3110810 3111842 3114961 3119226 3123059 3124851 3123182 
3191.894 3117315 3107142 3093289 3076891 3059613 3043112 3029278 3019544 
3195.751 3014989 3015942 3022004 3031868 3043977 3056459 3067959 3077784 
3199.608 3086182 3094073 3102693 3113041 3125496 3139606 3154449 3168613 
3203.466 3181013 3190799 3197646 3201398 3202075 3199491 3193602 3184473 
3207.323 3172710 3159401 3146132 3134525 3125905 3120828 3119144 3119927 
3211.181 3122169 3125000 3128102 3131739 3136510 3143036 3151676 3162139 
3215.038 3173705 3185146 3195282 3202979 3207679 3209218 3208063 3205008 
3218.896 3201113 3197064 3193450 3190238 3187189 3183944 3180565 3177557 
3222.753 3176078 3177219 3181814 3189579 3199204 3208167 3213961 3214572 
3226.610 3209595 3200316 3189505 3180309 3175215 3175229 3179490 3185767 
3230.468 3191487 3194647 3194663 3192434 3189942 3189322 3192197 3198954 
3234.325 3208903 3220369 3231641 3241031 3247439 3250447 3250152 3247013 
3238.183 3241821 3235452 3228895 3223038 3218619 3216045 3215446 3216628 
3242.040 3219381 3223432 3228727 3235167 3242807 3251352 3260428 3269243 
3245.897 3276960 3282533 3284947 3283244 3276682 3264832 3247990 3227180 
3249.755 3204395 3182279 3163838 3151551 3146962 3150194 3160238 3175112 
3253.612 3192860 3211751 3230881 3249699 3267874 3284797 3299376 3310258 
3257.470 3316361 3317161 3313176 3305764 3296835 3288280 3281635 3277831 
3261.327 3277386 3280514 3287327 3297770 3311217 3326307 3340926 3352429 
3265.185 3358351 3357152 3348662 3334274 3316483 3298089 3281521 3268075 
3269.042 3258117 3251006 3245998 3242220 3239338 3237221 3235957 3235336 
3272.899 3235124 3234814 3233992 3232493 3230504 3228294 3226316 3224780 
3276.757 3223889 3223475 3223393 3223468 3223520 3223616 3223857 3224586 
3280.614 3226284 3229682 3235573 3244502 3256662 3271486 3287851 3304023 
3284.472 3318230 3329055 3335628 3337867 3336216 3331411 3324163 3314994 
3288.329 3304409 3292805 3280910 3269547 3259754 3252357 3247881 3246326 
3292.187 3247326 3250045 3253613 3257025 3259322 3259731 3257729 3253314 
3296.044 3247266 3241161 3237120 3237437 3243723 3256370 3274223 3294611 
3299.901 3314157 3329492 3338239 3339500 3333986 3323633 3310960 3298463 
3303.759 3288259 3281694 3279529 3281778 3287870 3296543 3306014 3314143 
3307.616 3318945 3318901 3313484 3303231 3289553 3274268 3259059 3245047 
3311.474 3232773 3222235 3213478 3206651 3202335 3201151 3203694 3209786 
3315.331 3218566 3228414 3237368 3243592 3245885 3244074 3239003 3232164 
3319.188 3225661 3221305 3220513 3223737 3230754 3240407 3251256 3261614 
3323.046 3270207 3276009 3278929 3279156 3277536 3274946 3272524 3271285 
3326.903 3272199 3275909 3282655 3291952 3302697 3313062 3321037 3324860 
3330.761 3323704 3317692 3308108 3296931 3286282 3277573 3271528 3267888 
3334.618 3265977 3264980 3264378 3263844 3263264 3262299 3260260 3256116 
3338.476 3248985 3238492 3225124 3210112 3195176 3182003 3171679 3164509 
3342.333 3160133 3157725 3156630 3156213 3156125 3156014 3155291 3153185 
3346.190 3149142 3142888 3135001 3126646 3119447 3114965 3114031 3116701 
3350.048 3122173 3129178 3136435 3142922 3147925 3150898 3151430 3149091 
3353.905 3143753 3135846 3126724 3118371 3113038 3112462 3117397 3126959 
3357.763 3139218 3151470 3161428 3167660 3169867 3168695 3165190 3160216 
3361.620 3154227 3147384 3139798 3131984 3124953 3119912 3118116 3120089 
3365.478 3125787 3134336 3144631 3155454 3165767 3174658 3181180 3184088 
3369.335 3182114 3174206 3160157 3141074 3119386 3098596 3082482 3074067 
3373.192 3074963 3084911 3102125 3123674 3146362 3167325 3184557 3197062 
3377.050 3204700 3208235 3208841 3207983 3207102 3207171 3208670 3211292 
3380.907 3214291 3216548 3217338 3216526 3214819 3213559 3214257 3218142 
3384.765 3225536 3235649 3246843 3256986 3264023 3266542 3264149 3257395 
3388.622 3247872 3237510 3228408 3222232 3220084 3222149 3228143 3237103 
3392.479 3248122 3260238 3272966 3286079 3299644 3313813 3328712 3344410 
3396.337 3361036 3378807 3398175 3419613 3443319 3469075 3496009 3522700 
3400.194 3547442 3568974 3586543 3600262 3610913 3619466 3626808 3633354 
3404.052 3639337 3644962 3650925 3658438 3669193 3684604 3705494 3731500 
3407.909 3761071 3791803 3821265 3847528 3869627 3887643 3902277 3914445 
3411.767 3924991 3934299 3942635 3949997 3956515 3962278 3967207 3971079 
3415.624 3973581 3974514 3973959 3972554 3971173 3970779 3971875 3974343 
3419.481 3977463 3980247 3982158 3983383 3984853 3987895 3993419 4001297 
3423.339 4010133 4017610 4021264 4019523 4012277 4001111 3988662 3977759 
3427.196 3970471 3967589 3968625 3972217 3976894 3981549 3985728 3989510 
3431.054 3993317 3997615 4003036 4010140 4019560 4031859 4047060 4064348 
3434.911 4081960 4097190 4107478 4110745 4106699 4096705 4083852 4071723 
3438.769 4063373 4060394 4062358 4067260 4072223 4074470 4072193 4065041 
3442.626 4053902 4040428 4026730 4014704 4005947 4001467 4001733 4006691 
3446.483 4015509 4026746 4038421 4048445 4054998 4057150 4054923 4049312 
3450.341 4042057 4034869 4029066 4025060 4022332 4019604 4015230 4007833 
3454.198 3996662 3981775 3964334 3946304 3930020 3917731 3911036 3910382 
3458.056 3914985 3922858 3931357 3937906 3940573 3938521 3932137 3922584 
3461.913 3911511 3900294 3889852 3880432 3871952 3864153 3857035 3850787 
3465.771 3845857 3842610 3841401 3842218 3845074 3849747 3856200 3864166 
3469.628 3873218 3882403 3890329 3895354 3895919 3891218 3881535 3868238 
3473.485 3853603 3839969 3829510 3823145 3820983 3822068 3825102 3828776 
3477.343 3832249 3834861 3836409 3836621 3835167 3831879 3826793 3820439 
3481.200 3814083 3809123 3806977 3808462 3813392 3820726 3828808 3835744 
3485.058 3840313 3841886 3840902 3838305 3835541 3833868 3834457 3838117 
3488.915 3845311 3856064 3870095 3886563 3904128 3921273 3936596 3949157 
3492.772 3958932 3966654 3973725 3981392 3990297 4000133 4009568 4016817 
3496.630 4020166 4018627 4012494 4003099 3992642 3983458 3977651 3976580 
3500.487 3980902 3990297 4003698 4019354 4034957 4047800 4055450 4056294 
3504.345 4050151 4038509 4024576 4012225 4005251 4006053 4015014 4030494 
3508.202 4049381 4068096 4083893 4095455 4102994 4107847 4111734 4115908 
3512.060 4120693 4125504 4129286 4130846 4129738 4126022 4120534 4114590 
3515.917 4109638 4106958 4107616 4112286 4121231 4134382 4151217 4170753 
3519.774 4191794 4212713 4232092 4248481 4260783 4268411 4271347 4270047 
3523.632 4265566 4259102 4251929 4244825 4237888 4230518 4221535 4209608 
3527.489 4193955 4174852 4153812 4133394 4116745 4106400 4103945 4109288 
3531.347 4120858 4135796 4151115 4164116 4173008 4177320 4177685 4175548 
3535.204 4172771 4171270 4172489 4177103 4184814 4194526 4204447 4212804 
3539.062 4218246 4220376 4219733 4217643 4215541 4214269 4213771 4213125 
3542.919 4211117 4206925 4201005 4194915 4191129 4192109 4198921 4210793 
3546.776 4224954 4237246 4243584 4241104 4229015 4209081 4184624 4159705 
3550.634 4137769 4120928 4109403 4101864 4096171 4089994 4081566 4070017 
3554.491 4055662 4039466 4023159 4008408 3996799 3989203 3985848 3986159 
3558.349 3989010 3992732 3995742 3996525 3993847 3986834 3975243 3959000 
3562.206 3938651 3915248 3890197 3865323 3842470 3823135 3808349 3798283 
3566.063 3792549 3789865 3788669 3786977 3782874 3774408 3760089 3739043 
3569.921 3711476 3678977 3644381 3611249 3583286 3562937 3550992 3545960 
3573.778 3544645 3543003 3537568 3526485 3510068 3490703 3471832 3456824 
3577.636 3447849 3445296 3447845 3453026 3458111 3461100 3461214 3458829 
3581.493 3455412 3452698 3452047 3453980 3457844 3461878 3463801 3461134 
3585.351 3452235 3436581 3415132 3390218 3364876 3342094 3324300 3312553 
3589.208 3306754 3305765 3308020 3311878 3315933 3319040 3320215 3318363 
3593.065 3312460 3301619 3285632 3265155 3241720 3217552 3194999 3175617 
3596.923 3160245 3148288 3138469 3129134 3119056 3107698 3095572 3083686 
3600.780 3073440 3065773 3061133 3059169 3059299 3060767 3063247 3066823 
3604.638 3072031 3079191 3088143 3097891 3106447 3111323 3110447 3102828 
3608.495 3089451 3072949 3057214 3046074 3041833 3044557 3051845 3059671 
3612.353 3063960 3062111 3053841 3041430 3028651 3019104 3014891 3015489 
3616.210 3018407 3019823 3016646 3007518 2993293 2976769 2961379 2949920 
3620.067 2943555 2941575 2942358 2943716 2944304 2943803 2942862 2942397 
3623.925 2943119 2944795 2946447 2946570 2943535 2936153 2923947 2907184 
3627.782 2886966 2864971 2843401 2824632 2811050 2804396 2805454 2813824 
3631.640 2827598 2843718 2858568 2868545 2870899 2864243 2849161 2827982 
3635.497 2804300 2782392 2766134 2758077 2758811 2766548 2777882 2788435 
3639.354 2794413 2793457 2785713 2773388 2759882 2748658 2741986 2740004 
3643.212 2741349 2743481 2744138 2741983 2736963 2729952 2722017 2713688 
3647.069 2704852 2694872 2683316 2670467 2657541 2646274 2638311 2634232 
3650.927 2633646 2635039 2636777 2637629 2637338 2636320 2635252 2634382 
3654.784 2633165 2630410 2624945 2616042 2603985 2589979 2575392 2561271 
3658.642 2547874 2534696 2521171 2507348 2494311 2483944 2478271 2478264 
3662.499 2483373 2491404 2499093 2503417 2502513 2496354 2486346 2474534 
3666.356 2462806 2451940 2441774 2431533 2420796 2409859 2400031 2392867 
3670.214 2389836 2391199 2396045 2402546 2408506 2412257 2413043 2410864 
3674.071 2406571 2401189 2395695 2390632 2386359 2382889 2380073 2377491 
3677.929 2374871 2371818 2368257 2364472 2361021 2358496 2357171 2356577 
3681.786 2355660 2352736 2346705 2337242 2325437 2313456 2303961 2298739 
3685.644 2298197 2300815 2303693 2303684 2298606 2288086 2273634 2257977 
3689.501 2243892 2233114 2226041 2221658 2218748 2216483 2215024 2215313 
3693.358 2218679 2225670 2235690 2246857 2256561 2262295 2262652 2257531 
3697.216 2248248 2237000 2226098 2217467 2212164 2210614 2212704 2218039 
3701.073 2226123 2236237 2247474 2258589 2268090 2274385 2276124 2272387 
3704.931 2263160 2249149 2231812 2213078 2195001 2179287 2166970 2158199 
3708.788 2152452 2148460 2145226 2141942 2138583 2135870 2134815 2136276 
3712.646 2140405 2146555 2153392 2159408 2163381 2164922 2164342 2162589 
3716.503 2160760 2159443 2158737 2158330 2157649 2156468 2155024 2153979 
3720.360 2154283 2156712 2161514 2168430 2176911 2186382 2196518 2207308 
3724.218 2219302 2232927 2248508 2265835 2284119 2302335 2319255 2333938 
3728.075 2346083 2355837 2363976 2371554 2379461 2388097 2397237 2405653 
3731.933 2411674 2413391 2409184 2398410 2381620 2360459 2337638 2315907 
3735.790 2297738 2284413 2276170 2271893 2269926 2268297 2265650 2261320 
3739.647 2255681 2249828 2245355 2243835 2246424 2253552 2264869 2279271 
3743.505 2295250 2311046 2325274 2337078 2346116 2352474 2356504 2358357 
3747.362 2358182 2355941 2351796 2346214 2339975 2333962 2328994 2325372 
3751.220 2323036 2321444 2320103 2318737 2317571 2316847 2316842 2317127 
3755.077 2316529 2313305 2305713 2292642 2274380 2252771 2230806 2212019 
3758.935 2199364 2194634 2197870 2207636 2221484 2236600 2250432 2261160 
3762.792 2267821 2270248 2269097 2265746 2261939 2259711 2260823 2266274 
3766.649 2276270 2289888 2305639 2321597 2336116 2348019 2356656 2361696 
3770.507 2362924 2360095 2353082 2342176 2328441 2313829 2300913 2292166 
3774.364 2289301 2292523 2300490 2310667 2319959 2325928 2327228 2323907 
3778.222 2317272 2309149 2301254 2294943 2290868 2289153 2289775 2292557 
3782.079 2297411 2303868 2311369 2318821 2325144 2329306 2330938 2330319 
3785.937 2328492 2326918 2327163 2330323 2336933 2346754 2358844 2371944 
3789.794 2384577 2395379 2403164 2407052 2406415 2400946 2390860 2376717 
3793.651 2359602 2340928 2322596 2306314 2293651 2285551 2282142 2282879 
3797.509 2286537 2291739 2297326 2302391 2306653 2310074 2312589 2314083 
3801.366 2314223 2312587 2309189 2304409 2299348 2295243 2293144 2293409 
3805.224 2295515 2298133 2299869 2299892 2298393 2296790 2297133 2301249 
3809.081 2309948 2322400 2336303 2348866 2357564 2361129 2360108 2356383 
3812.938 2352581 2350867 2352433 2356909 2362861 2368275 2371384 2371170 
3816.796 2367609 2361416 2353785 2345756 2338186 2331487 2325903 2321371 
3820.653 2317890 2315332 2313827 2313580 2314924 2318210 2323692 2331373 
3824.511 2340675 2350764 2360278 2368032 2372960 2374623 2373070 2368622 
3828.368 2361831 2353108 2342918 2331850 2320832 2311253 2304735 2302708 
3832.226 2305817 2313653 2324658 2336504 2346963 2354268 2358017 2358855 
3836.083 2358353 2358159 2359681 2363368 2368709 2374708 2379870 2382879 
3839.940 2382778 2379128 2372004 2362311 2351363 2340903 2332818 2328681 
3843.798 2329400 2335026 2344710 2357059 2370562 2383979 2396379 2407179 
3847.655 2415590 2420691 2421370 2416498 2405763 2389799 2370519 2350500 
3851.513 2332522 2318631 2309681 2305194 2303877 2304334 2305722 2308031 
3855.370 2311998 2318517 2327915 2339971 2353535 2367323 2379819 2389999 
3859.228 2397093 2400597 2400080 2395215 2385964 2372843 2357320 2341509 
3863.085 2327758 2318043 2313244 2313000 2315703 2319394 2322424 2324207 
3866.942 2325225 2326749 2330313 2336764 2346024 2357002 2367893 2376759 
3870.800 2381920 2382529 2378519 2370540 2360008 2348772 2338978 2332645 
3874.657 2331243 2335152 2343476 2354108 2364247 2371185 2373213 2369964 
3878.515 2362596 2353232 2344179 2337185 2332951 2331129 2330845 2331330 
3882.372 2332207 2334023 2337782 2344401 2354427 2367471 2382256 2396863 
3886.229 2409345 2417978 2421976 2421466 2417297 2410997 2404277 2398432 
3890.087 2394180 2391247 2388693 2384936 2378875 2370067 2359321 2348521 
3893.944 2340231 2336753 2339371 2347800 2360263 2374052 2386170 2394545 
3897.802 2398378 2398426 2396521 2394892 2395541 2399677 2407590 2418534 
3901.659 2431132 2443473 2453692 2459952 2460899 2456006 2445665 2431306 
3905.517 2415147 2399773 2387651 2380502 2379260 2383965 2393847 2407737 
3909.374 2424141 2441365 2457570 2470809 2479306 2481782 2477918 2468595 
3913.231 2455850 2442393 2430893 2423312 2420413 2421474 2424852 2428362 
3917.089 2430267 2429500 2426073 2420959 2415725 2412097 2411617 2414996 
3920.946 2422158 2431971 2442446 2450946 2455151 2453501 2445797 2433449 
3924.804 2419081 2405726 2396036 2391211 2390793 2393052 2395563 2396319 
3928.661 2394527 2390557 2385899 2382310 2381071 2382617 2386423 2391630 
3932.519 2397447 2403582 2410432 2418659 2428766 2440780 2453975 2467055 
3936.376 2478592 2487246 2492262 2493177 2490212 2483804 2474785 2464361 
3940.233 2454029 2445614 2440867 2441139 2446777 2457187 2470542 2484418 
3944.091 2496389 2504373 2507173 2504614 2497451 2487249 2475930 2465724 
3947.948 2458833 2457037 2461279 2471256 2485167 2499972 2511779 2517054 
3951.806 2513402 2500542 2480517 2457034 2434799 2417982 2409334 2409402 
3955.663 2416779 2428680 2441952 2453753 2462365 2467335 2469072 2468521 
3959.521 2466892 2465156 2464032 2464039 2465484 2468367 2472517 2477360 
3963.378 2482071 2485730 2487712 2487921 2486917 2485873 2486149 2488704 
3967.235 2493741 2500260 2506539 2510500 2510684 2506946 2500577 2494114 
3971.093 2490439 2491663 2498121 2508038 2517973 2523849 2522298 2511995 
3974.950 2494208 2472677 2452306 2438051 2433336 2439325 2454818 2476803 
3978.808 2501603 2525905 2547446 2565354 2579975 2592084 2602615 2611864 
3982.665 2619441 2624475 2625797 2622577 2614611 2602784 2588810 2574995 
3986.522 2563563 2556084 2552974 2553242 2554933 2555671 2553659 2548146 
3990.380 2539894 2530769 2523131 2518779 2518466 2521575 2526337 2530602 
3994.237 2532520 2531160 2526536 2519413 2510878 2501858 2492957 2484524 
3998.095 2476869 2470516 2466164 2464566 2466302 2471331 
##END=
