##TITLE=3D-Fillies_PLA-Rainbow_Turquoise_Filament_r7_ATR-Corrected
##JCAMP-DX=5.01  $$ Nicolet v. 1
##DATATYPE=INFRARED SPECTRUM
##ORIGIN=Curtin University
##OWNER=Nicolet
##LONGDATE=2024/07/18
##TIME=15:02:08
##SPECTROMETER/DATA SYSTEM=Nicolet iS50
##DATA PROCESSING=
Ratio against background
%Transmittance->Absorbance
ATR Correction
Truncated
ElementMultiply or ElementDivide
##COMMENTS=
Number of sample scans: 32
Collection length: 47.29 sec
Sample gain: 1.0
Background collected on: Thu Jul 18 14:59:29 2024 (GMT+08:00);
Number of background scans: 32
Background gain: 1.0
Sample spacing:  1.000
Number of scan points: 16672
Resolution points: 8192
Number of FFT points: 65536
Apodization: N-B strong;
Phase correction: Mertz;
Laser frequency: 15798.3 cm-1
Number of rejected sample scans: 0
Number of rejected background scans: 0
Bench serial number: AUP1200105;
##RESOLUTION=4.000
##XUNITS=1/CM
##YUNITS=ABSORBANCE
##FIRSTX=400.163452
##LASTX=4000.187744
##FIRSTY=0.054289
##MAXX=4000.187744
##MINX=400.163452
##MAXY=0.893383
##MINY=-0.026751
##XFACTOR=1.000000
##YFACTOR=1.000000E-009
##NPOINTS=7468
##DELTAX=0.482125
##ZPD=8192
##XYDATA=(X++(Y..Y))
400.163 54289336 52984920 51650456 50301020 48979956 47767556 46749236 
403.538 45988368 45501012 45247824 45141140 45069444 44927776 44646700 
406.913 44207392 43639576 43003320 42363340 41768304 41238308 40768176 
410.288 40340532 39940880 39568672 39237200 38963052 38751564 38585240 
413.663 38422916 38210892 37903012 37479952 36959600 36393252 35848084 
417.038 35383592 35029288 34774088 34569308 34345856 34036464 33598268 
420.412 33024176 32343396 31611484 30892768 30245380 29708368 29296534 
423.787 29003098 28806446 28681328 28606976 28572232 28574962 28617634 
427.162 28701066 28817920 28952774 29084094 29192272 29264352 29298166 
430.537 29299610 29277374 29236176 29173042 29077054 28941350 28767172 
433.912 28570540 28382478 28241300 28181014 28220594 28358674 28574150 
437.286 28834322 29103830 29351284 29550870 29679914 29716278 29639392 
440.661 29436376 29112150 28696444 28245160 27829404 27517292 27354084 
444.036 27348228 27471432 27669008 27881234 28062840 28194040 28280450 
447.411 28342156 28398890 28458244 28512204 28541852 28528354 28461228 
450.786 28343046 28186536 28007786 27819336 27626554 27428422 27222286 
454.161 27007372 26787794 26571134 26366852 26183910 26030586 25915144 
457.535 25845890 25828802 25862842 25935400 26020498 26083694 26092194 
460.910 26027596 25895930 25729168 25576720 25488736 25495562 25603678 
464.285 25785868 25993594 26174170 26286910 26313544 26258202 26138822 
467.660 25976492 25785476 25570686 25330724 25063924 24773890 24470904 
471.035 24168718 23879568 23610102 23360720 23128416 22911282 22711692 
474.409 22536492 22392928 22284184 22204726 22139766 22068008 21967522 
477.784 21821552 21623726 21379724 21106444 20828980 20575816 20373790 
481.159 20242344 20189534 20209568 20284134 20387070 20492442 20582554 
484.534 20653506 20714694 20782808 20872160 20985584 21110174 21220360 
487.909 21287908 21294042 21237836 21138428 21029060 20944996 20912270 
491.284 20940536 21023378 21145088 21289216 21445244 21610412 21784588 
494.658 21969412 22159114 22341854 22503904 22636072 22738334 22820242 
498.033 22897384 22984396 23088632 23207602 23330282 23441846 23529056 
501.408 23584304 23606306 23598026 23563970 23507510 23430414 23333096 
504.783 23215052 23075482 22912916 22725538 22511700 22272136 22012200 
508.158 21742200 21475850 21226272 21000554 20796920 20604952 20410688 
511.532 20204328 19987108 19774102 19591652 19468776 19427100 19472292 
514.907 19591344 19755500 19928324 20075160 20169882 20198788 20159394 
518.282 20057542 19903938 19711986 19496600 19273396 19057250 18859716 
521.657 18686590 18537422 18406322 18286074 18172042 18065002 17970386 
525.032 17894176 17840934 17806672 17779886 17745408 17690280 17609930 
528.406 17509976 17404600 17310012 17237604 17188432 17152722 17112856 
531.781 17049968 16950394 16809376 16632622 16432976 16227476 16033374 
535.156 15865661 15735490 15649527 15609204 15609873 15640942 15686849 
538.531 15729913 15754407 15750488 15716713 15660595 15596245 15540719 
541.906 15509158 15511439 15549669 15617562 15701463 15782513 15840128 
545.281 15856002 15818110 15724050 15582034 15408977 15226469 15054844 
548.655 14908099 14791149 14700622 14628920 14568729 14517087 14476376 
552.030 14451960 14448697 14466847 14500828 14540990 14577554 14604903 
555.405 14624044 14641652 14669194 14716257 14787608 14881242 14989371 
558.780 15100221 15201318 15281441 15332124 15348425 15329445 15279204 
562.155 15206924 15125954 15052347 15000936 14981541 14996553 15040211 
565.529 15100865 15164455 15218804 15256358 15275096 15278104 15271397 
568.904 15262950 15261015 15273676 15307647 15366686 15449804 15550387 
572.279 15657302 15757319 15840571 15904283 15954724 16005170 16070638 
575.654 16161438 16278388 16412340 16548453 16672332 16776785 16864460 
579.029 16945738 17032820 17132734 17243672 17355756 17456278 17536932 
582.404 17599310 17655356 17722216 17814614 17936920 18079998 18224132 
585.778 18345968 18427740 18463546 18460646 18435226 18404752 18380954 
589.153 18365638 18352288 18330876 18294298 18243252 18187202 18141434 
592.528 18121932 18139354 18195970 18285044 18393816 18507570 18613570 
595.903 18703976 18776706 18833716 18879198 18916714 18947662 18970680 
599.278 18982262 18979172 18959862 18927292 18888852 18855632 18840358 
602.652 18853746 18902292 18986454 19101234 19238214 19387750 19541092 
606.027 19691262 19832612 19960552 20070848 20161018 20232174 20290664 
609.402 20348766 20423310 20531110 20684378 20885704 21126584 21388670 
612.777 21648400 21883178 22076794 22222578 22323604 22389964 22435220 
616.152 22473192 22515908 22572904 22652102 22760074 22902010 23080106 
619.527 23292910 23534104 23793200 24057270 24313380 24551542 24766510 
622.901 24958474 25132246 25295528 25456674 25622804 25798922 25987656 
626.276 26190476 26408370 26643140 26897646 27174260 27473670 27792008 
629.651 28119812 28442146 28740650 28997780 29201234 29347158 29441080 
633.026 29495812 29527390 29550096 29573182 29600782 29633304 29671652 
636.401 29719154 29783098 29871934 29991406 30140574 30310242 30484424 
639.775 30645404 30779308 30881046 30955234 31014298 31073388 31145402 
643.150 31237918 31353030 31489808 31648118 31830634 32041878 32286030 
646.525 32562002 32861970 33170496 33469270 33742048 33980532 34187224 
649.900 34374332 34559948 34761908 34992860 35257072 35550600 35862948 
653.275 36180332 36487756 36770800 37016116 37212044 37350384 37427972 
656.650 37448600 37423464 37369740 37307652 37255884 37228288 37231804 
660.024 37267016 37330084 37415124 37516732 37630320 37751940 37877384 
663.399 38002556 38123860 38239936 38353220 38469392 38596180 38740312 
666.774 38904988 39088140 39283684 39484068 39683712 39881820 40083000 
670.149 40295272 40526828 40782268 41060456 41354040 41651288 41938904 
673.524 42204604 42439456 42638332 42800664 42930192 43035252 43128036 
676.898 43223760 43337472 43481056 43659536 43868740 44096776 44326240 
680.273 44540044 44726444 44881928 45011536 45125772 45236332 45351864 
683.648 45476156 45607664 45742224 45875332 46004104 46127312 46244844 
687.023 46356520 46461680 46560408 46654788 46750648 46857296 46985852 
690.398 47146276 47344092 47579336 47846316 48136324 48440556 48752584 
693.773 49069236 49390112 49715760 50046824 50383700 50727684 51082544 
697.147 51455068 51854188 52288056 52760696 53269672 53805472 54353896 
700.522 54900756 55435964 55956644 56466548 56973572 57484456 58000348 
703.897 58514368 59012616 59477296 59892096 60246648 60539568 60778468 
707.272 60977568 61153764 61322264 61493716 61672148 61855564 62037912 
710.647 62211072 62368340 62506176 62625556 62731832 62833972 62942816 
714.021 63069656 63225360 63420108 63664356 63971044 64358592 64853960 
717.396 65496384 66340492 67457904 68938032 70886720 73422160 76668584 
720.771 80747584 85767104 91808792 98913896 107069592 116195656 126134768 
724.146 136648480 147420896 158075008 168199824 177388832 185283312 
727.039 191611440 196214560 199053184 200193872 199780368 198000944 
729.931 195058352 191148736 186450224 181118288 175286192 169065600 
732.824 162549520 155815152 148927632 141945264 134924448 127923696 
735.717 121005424 114235696 107682304 101411672 95486144 89961208 84883504 
739.091 80288112 76196408 72613808 69528280 66911996 64724788 62920244 
742.466 61452304 60281236 59376320 58715316 58280976 58056748 58023028 
745.841 58156212 58429748 58817572 59296804 59849468 60462224 61124916 
749.216 61828660 62564664 63323708 64096676 64873628 65643020 66389836 
752.591 67094408 67733120 68281544 68719224 69033904 69224656 69300328 
755.966 69275016 69161552 68966288 68686696 68312696 67832288 67236640 
759.340 66524720 65704072 64788700 63794992 62737720 61628296 60475140 
762.715 59285492 58068104 56833908 55596592 54370028 53167644 52000516 
766.090 50876988 49802548 48779364 47805976 46876924 45983080 45113336 
769.465 44257728 43410744 42573800 41754548 40965168 40216284 39514408 
772.840 38858548 38241236 37652248 37083200 36530776 35996876 35486456 
776.214 35003516 34547456 34112384 33689120 33269134 32847770 32425798 
779.589 32007914 31598792 31199156 30804052 30403932 29987982 29548922 
782.964 29085810 28604374 28114452 27626268 27147504 26682636 26234282 
786.339 25806222 25405688 25043684 24732760 24483592 24301782 24186066 
789.714 24129442 24121254 24150026 24204550 24273646 24344852 24403110 
793.089 24431128 24412056 24332706 24187704 23980652 23723468 23432666 
796.463 23125796 22817986 22521050 22244630 21998738 21795318 21648426 
799.838 21571288 21573230 21654752 21806326 22007584 22231016 22446462 
803.213 22627592 22755362 22820660 22824696 22777062 22691884 22584334 
806.588 22466908 22347258 22228132 22108044 21984112 21854222 21718398 
809.963 21579634 21442720 21312404 21192342 21084852 20991914 20915972 
813.337 20861248 20833018 20835572 20869674 20929536 21003112 21073636 
816.712 21124202 21142846 21126106 21080912 21022190 20968636 20937336 
820.087 20939682 20978466 21048996 21140890 21241482 21339738 21428094 
823.462 21504388 21571318 21635994 21707128 21792586 21896492 22017086 
826.837 22147202 22275830 22391986 22489042 22567326 22634546 22703364 
830.212 22786350 22891866 23021316 23170068 23331116 23499806 23677324 
833.586 23871392 24093790 24355202 24660502 25007402 25387924 25792868 
836.961 26216506 26660034 27130496 27636688 28183884 28769224 29381120 
840.336 30001778 30613316 31203730 31770594 32321360 32869298 33428128 
843.711 34005892 34601952 35206212 35801380 36367300 36884500 37338536 
847.086 37721888 38035496 38289804 38503156 38701464 38914036 39171140 
850.460 39499808 39921544 40451396 41098564 41868216 42763812 43787672 
853.835 44941912 46227576 47644128 49189820 50862024 52658212 54575588 
857.210 56609440 58749044 60974860 63256124 65551324 67813080 69995680 
860.585 72062416 73992224 75781664 77441952 78992840 80455272 81845200 
863.960 83170600 84431688 85624592 86745896 87795560 88779192 89705936 
867.335 90586624 91430400 92241280 93016144 93744256 94406648 94977568 
870.709 95426336 95719672 95823832 95708072 95346360 94719160 93814608 
874.084 92629688 91170256 89451928 87500016 85349152 83041344 80622512 
877.459 78138272 75629304 73128328 70657992 68232592 65860292 63547136 
880.834 61301044 59134216 57064196 55112480 53302768 51656748 50191412 
884.209 48915960 47830692 46927128 46190496 45602996 45146604 44805952 
887.583 44568244 44421456 44351796 44340608 44364344 44396440 44411976 
890.958 44393972 44336940 44249256 44149192 44059632 43999724 43979088 
894.333 43995180 44034772 44079528 44111412 44118180 44095092 44043368 
897.708 43967404 43871036 43756296 43624168 43476556 43319288 43162448 
901.083 43019788 42904684 42827028 42789900 42789400 42816020 42857876 
904.458 42904432 42948512 42986524 43018340 43045060 43068156 43089040 
907.832 43109388 43131300 43157532 43190836 43233280 43285836 43348560 
911.207 43421780 43506908 43608160 43730876 43880296 44058972 44264656 
914.582 44489768 44723400 44953732 45172360 45376684 45569832 45758972 
917.957 45951732 46152724 46361136 46571232 46773796 46960132 47124216 
921.332 47264784 47384532 47489092 47584872 47678020 47773732 47876876 
924.706 47993100 48128200 48287792 48476036 48694204 48940004 49208304 
928.081 49492924 49788260 50091024 50400404 50716916 51040624 51369572 
931.456 51698864 52021464 52329920 52617748 52881696 53120908 53336476 
934.831 53529644 53700412 53847552 53969868 54067460 54143976 54206824 
938.206 54265848 54330156 54405496 54491168 54579908 54659688 54718148 
941.581 54747292 54747168 54728240 54708736 54711808 54759128 54866864 
944.955 55041572 55280816 55574952 55910996 56277264 56666328 57076872 
948.330 57512756 57981376 58490644 59046052 59648320 60292316 60966848 
951.705 61654984 62335624 62984644 63577116 64088860 64498188 64787268 
955.080 64943144 64957968 64829224 64558832 64153000 63620656 62973192 
958.455 62223380 61385780 60476324 59513100 58516596 57509232 56515148 
961.829 55558096 54658776 53833244 53090924 52434184 51860504 51364220 
965.204 50939416 50581820 50289140 50060336 49893276 49783536 49723200 
968.579 49701548 49707824 49733304 49773228 49827464 49899224 49992340 
971.954 50108696 50246384 50399368 50559404 50717760 50867696 51005872 
975.329 51132416 51250252 51363712 51477940 51597936 51728400 51873216 
978.703 52034724 52212528 52403240 52600352 52795312 52980312 53150380 
982.078 53305580 53451700 53597936 53755444 53932876 54135016 54361252 
985.453 54606864 54865048 55129196 55394976 55660868 55928868 56201824 
988.828 56484332 56780732 57094992 57430000 57787128 58166056 58564580 
992.203 58979136 59406192 59843112 60290320 60751032 61231412 61739644 
995.578 62283972 62872076 63509740 64201096 64948732 65753208 66612624 
998.952 67521096 68468216 69439376 70417088 71384400 72328872 73246136 
1002.327 74141464 75030400 75935648 76884368 77904280 79021208 80257536 
1005.702 81631720 83159200 84853056 86724816 88785368 91046360 93521712 
1009.077 96230240 99198168 102460656 106063624 110062312 114517032 119487088 
1012.452 125020192 131139784 137830464 145024112 152589312 160328880 
1015.344 167987056 175270416 181878336 187542224 192063424 195341472 
1018.237 197388448 198324544 198356016 197744992 196773568 195712256 
1021.130 194794528 194201296 194054080 194415664 195297280 196669824 
1024.022 198477872 200654768 203136624 205872256 208829984 211996832 
1026.916 215375248 218975856 222809552 226881824 231190320 235724928 
1029.809 240472160 245418928 250556528 255882048 261397008 267102832 
1032.702 272995904 279061792 285272800 291588288 297957824 304326432 
1035.595 310640608 316851584 322917536 328800704 334465248 339873344 
1038.488 344983968 349752160 354131328 358076320 361544832 364500704 
1041.381 366914496 368765280 370040960 370740608 370873664 370458752 
1044.274 369522400 368095328 366211424 363907104 361222848 358205312 
1047.167 354909344 351396576 347733856 343988096 340220448 336483232 
1050.060 332816320 329247200 325792672 322460512 319251744 316162304 
1052.953 313184800 310309792 307528480 304833984 302223488 299700320 
1055.846 297274496 294962944 292789728 290787072 288995488 287465920 
1058.739 286258592 285443584 285097024 285297056 286118464 287627168 
1061.632 289876160 292903360 296730816 301367072 306809408 313047840 
1064.525 320067808 327853248 336387680 345654976 355638368 366318848 
1067.418 377671808 389665248 402258048 415399808 429034944 443106496 
1070.312 457561792 472355840 487452000 502819712 518430368 534251200 
1073.205 550243456 566360384 582548224 598748480 614898944 630934336 
1076.098 646788928 662400256 677714496 692691392 707307136 721548224 
1078.991 735398400 748821312 761743872 774050368 785586816 796183360 
1081.884 805677184 813937920 820878528 826454848 830654592 833482304 
1084.777 834954048 835095616 833949440 831582208 828083136 823559488 
1087.670 818124032 811886272 804945472 797393792 789321280 780821696 
1090.563 771991936 762928128 753715712 744419520 735078848 725707136 
1093.456 716298624 706838976 697315520 687724800 678076160 668388800 
1096.349 658686144 648988544 639306176 629636608 619964672 610268800 
1099.242 600526336 590721472 580848640 570912512 560923904 550894080 
1102.135 540831808 530741408 520626784 510499008 500382368 490319104 
1105.028 480368416 470602848 461100032 451937728 443189760 434926624 
1107.921 427217216 420128576 413725824 408066048 403190592 399118400 
1110.814 395840672 393320896 391499200 390300800 389643840 389448800 
1113.708 389641824 390157280 390936672 391925440 393072352 394328416 
1116.601 395648832 396994592 398336192 399655424 400946016 402213600 
1119.494 403473280 404745184 406050656 407406848 408821312 410290016 
1122.387 411795872 413310624 414797440 416213408 417512736 418647008 
1125.280 419566272 420219360 420556512 420533504 420116992 419288736 
1128.173 418047392 416405760 414385120 412007200 409286848 406228032 
1131.066 402823136 399057024 394910496 390365888 385410432 380037024 
1133.959 374245344 368041888 361439392 354456480 347117760 339452064 
1136.852 331491456 323271168 314828960 306207680 297455872 288629248 
1139.745 279789856 271003072 262334608 253846528 245595088 237629600 
1142.638 229993696 222726496 215861936 209430400 203455344 197953536 
1145.531 192933632 188397056 184339888 180754272 177630912 174958208 
1148.424 172722160 170903904 169480352 168423616 167703696 167290832 
1151.317 167159248 167287376 167657632 168254080 169059088 170052256 
1154.210 171209744 172506576 173919760 175431136 177028112 178703872 
1157.104 180454288 182276016 184165712 186119696 188136336 190217760 
1159.997 192371040 194606656 196937184 199373760 201924480 204595040 
1162.890 207390512 210319680 213397392 216646688 220098192 223788464 
1165.783 227756464 232042112 236685760 241729408 247217872 253201456 
1168.676 259735888 266881232 274700384 283255328 292605280 302803392 
1171.569 313895680 325919392 338900224 352850528 367766592 383623424 
1174.462 400370432 417924800 436165248 454925088 473988192 493087680 
1177.355 511910848 530110784 547322496 563184768 577360768 589558272 
1180.248 599547584 607173248 612363008 615130176 615569728 613845952 
1183.141 610174592 604801920 597984384 589975808 581016768 571333184 
1186.034 561134656 550613184 539941632 529268032 518713472 508369376 
1188.927 498301152 488553600 479157824 470138720 461519776 453323648 
1191.820 445571648 438279232 431453824 425092160 419181824 413703328 
1194.713 408633696 403949728 399632224 395665760 392039104 388743744 
1197.606 385771264 383111808 380752640 378678624 376873344 375321088 
1200.500 374008288 372923168 372053536 371384288 370893440 370549600 
1203.393 370312928 370137664 369979232 369798912 369568064 369269600 
1206.286 368894624 368437376 367890880 367241952 366472288 365560576 
1209.179 364486848 363235840 361799456 360175680 358367040 356378912 
1212.072 354217568 351890432 349407552 346781536 344028768 341167584 
1214.965 338218208 335200192 332133312 329036736 325928768 322827264 
1217.858 319748000 316703520 313702048 310747552 307841440 304984800 
1220.751 302180320 299433088 296749280 294134976 291591968 289117920 
1223.644 286705152 284343680 282025024 279744704 277504384 275311456 
1226.537 273176416 271110496 269122080 267215584 265390960 263645344 
1229.430 261973648 260371056 258834096 257362128 255960016 254637904 
1232.323 253412784 252307296 251347520 250559120 249963296 249572640 
1235.216 249390832 249412384 249625632 250016208 250570768 251278576 
1238.109 252132416 253126288 254254304 255508960 256879536 258351504 
1241.002 259906288 261520624 263166432 264811488 266420896 267960128 
1243.896 269397344 270707328 271871968 272880256 273726624 274408928 
1246.789 274928704 275291200 275509056 275603680 275607328 275560000 
1249.682 275505312 275483264 275524096 275644704 275848192 276126976 
1252.575 276468512 276860448 277295456 277771904 278293472 278866176 
1255.468 279496128 280186816 280938976 281750720 282618240 283538272 
1258.361 284507712 285524512 286587968 287696832 288849440 290040800 
1261.254 291261760 292498240 293730112 294932960 296079680 297142592 
1264.147 298095904 298915072 299577536 300060384 300339488 300388992 
1267.040 300182016 299693152 298901376 297792480 296361088 294609760 
1269.933 292547808 290188032 287544448 284630624 281458496 278039808 
1272.826 274387712 270517504 266448464 262202976 257805376 253280432 
1275.719 248652688 243945504 239182640 234388352 229588816 224811744 
1278.612 220084096 215430624 210870496 206416096 202073120 197841680 
1281.505 193719408 189704304 185797680 182004976 178335248 174800432 
1284.398 171411936 168178768 165105792 162193088 159437168 156832176 
1287.292 154372320 152053520 149874272 147834688 145935760 144176192 
1290.185 142552016 141055664 139677216 138406080 137233360 136153216 
1293.078 135163344 134262912 133451448 132726448 132081168 131505936 
1295.971 130988760 130516560 130078864 129667656 129278896 128911960 
1298.864 128568512 128251616 127964896 127710808 127490432 127302272 
1301.757 127142160 127002432 126872640 126739904 126590032 126410424 
1304.650 126190272 125923288 125607592 125245232 124841168 124401424 
1307.543 123931040 123432352 122904720 122343976 121744120 121097952 
1310.436 120398952 119642360 118826424 117952616 117025504 116052592 
1313.329 115043656 114009680 112962496 111913312 110872760 109850072 
1316.222 108852624 107886840 106957864 106070264 105227936 104433208 
1319.115 103687216 102987768 102329936 101706024 101106992 100524400 
1322.008 99952528 99389720 98838272 98304128 97794616 97317232 96878440 
1325.384 96483784 96138640 95849272 95623104 95468760 95394064 95405464 
1328.759 95506496 95697856 95979368 96351000 96815168 97376768 98042064 
1332.134 98816832 99703536 100699536 101795856 102978024 104227184 105522240 
1335.509 106841368 108163592 109469480 110742168 111966984 113131952 
1338.402 114228344 115250448 116195480 117064400 117862232 118597448 
1341.295 119282400 119932848 120566640 121202576 121859152 122552864 
1344.188 123298728 124109336 124996008 125969024 127036288 128202888 
1347.082 129470168 130833416 132281824 133799720 135368256 136967472 
1349.975 138579728 140190208 141787888 143364240 144912048 146424448 
1352.868 147893728 149310784 150665328 151946432 153142096 154240800 
1355.761 155231952 156106272 156857600 157483600 157986096 158371712 
1358.654 158651984 158842096 158960576 159028816 159068976 159103440 
1361.547 159152416 159231264 159348096 159500864 159676832 159853376 
1364.440 159999840 160082544 160067696 159925136 159629936 159162048 
1367.333 158505648 157648656 156582800 155306656 153829376 152174272 
1370.226 150383504 148517408 146654640 144885328 143306976 142016064 
1373.119 141102848 140644544 140700384 141307136 142474832 144183904 
1376.012 146385072 149000224 151927680 155048736 158236224 161364032 
1378.905 164315584 166990064 169305392 171197840 172619808 173536768 
1381.798 173925424 173772752 173076608 171847760 170108720 167893280 
1384.691 165244096 162211040 158848384 155213504 151364192 147356192 
1387.584 143240240 139058672 134844512 130620632 126403168 122203288 
1390.478 118031672 113901184 109827144 105828880 101928248 98148736 94514656 
1393.853 91049272 87773648 84704704 81854016 79226688 76822320 74636296 
1397.228 72661576 70891096 69318456 67939248 66749552 65746212 64925456 
1400.603 64283676 63817524 63525728 63409456 63473812 63725472 64170884 
1403.979 64812288 65642900 66642776 67776376 68993328 70230224 71415248 
1407.354 72474208 73335552 73935160 74220168 74153160 73715240 72909544 
1410.729 71762560 70323968 68662416 66857612 64991520 63137972 61355960 
1414.104 59685328 58147816 56750616 55491984 54366028 53365328 52481776 
1417.479 51705620 51024996 50426332 49896640 49424992 49005700 48638008 
1420.855 48325388 48071856 47880480 47750840 47679272 47659060 47681780 
1424.230 47737428 47815596 47905400 47997096 48084980 48168560 48256752 
1427.605 48366784 48523720 48754956 49085784 49534744 50111976 50819288 
1430.980 51653960 52612256 53692348 54895696 56226604 57691676 59298296 
1434.356 61054600 62969648 65054096 67319496 69778080 72441944 75323440 
1437.731 78435416 81792352 85411768 89312504 93511712 98021792 102845000 
1441.106 107970464 113373704 119017312 124852840 130823568 136866528 
1443.999 142914032 148895136 154738608 160375264 165741392 170781552 
1446.892 175450272 179713760 183550192 186949328 189910800 192441456 
1449.785 194551600 196251296 197549168 198451936 198965120 199095808 
1452.678 198851936 198240992 197266368 195926176 194211712 192112064 
1455.572 189619776 186737520 183481152 179878816 175964624 171772400 
1458.465 167330240 162661280 157788176 152738048 147548400 142265728 
1461.358 136941840 131626072 126360136 121174808 116091432 111124680 
1464.251 106287024 101591272 97050680 92677936 88484656 84481112 80676768 
1467.626 77081240 73702992 70549176 67622512 64920804 62436724 60159380 
1471.001 58076044 56174208 54440776 52860788 51416000 50084484 48842528 
1474.376 47667724 46543116 45459208 44413984 43409908 42450072 41534472 
1477.752 40658092 39812084 38985300 38168164 37354208 36540932 35728276 
1481.127 34917904 34111828 33313184 32526352 31758204 31017778 30314788 
1484.502 29657142 29048846 28488684 27970712 27486178 27026624 26585686 
1487.877 26159862 25749448 25356732 24985598 24640846 24328056 24053400 
1491.253 23822566 23639338 23503874 23411524 23352812 23315112 23285994 
1494.628 23257268 23226574 23199552 23188022 23207364 23272316 23394756 
1498.003 23582754 23840548 24171062 24576700 25059936 25620504 26253184 
1501.378 26943478 27665344 28381382 29044960 29606152 30017796 30242882 
1504.754 30260616 30069284 29686834 29147964 28497768 27784558 27052418 
1508.129 26336824 25662940 25045586 24492030 24004090 23580434 23217986 
1511.504 22912656 22659802 22454184 22289974 22160922 22060182 21980456 
1514.879 21914228 21854710 21796924 21737800 21677504 21617842 21561630 
1518.255 21510944 21466510 21426634 21388910 21350484 21310422 21269396 
1521.630 21229850 21195072 21167042 21146130 21130518 21116924 21102172 
1525.005 21083490 21059790 21031268 20999386 20965968 20933050 20902250 
1528.380 20874560 20849468 20825092 20797086 20759696 20707160 20635698 
1531.756 20545194 20440980 20332266 20230726 20146210 20083966 20042908 
1535.131 20016494 19995254 19971118 19939616 19901746 19862744 19828922 
1538.506 19804732 19790926 19783836 19776630 19763686 19741788 19712412 
1541.881 19680326 19651904 19632098 19622228 19619296 19616570 19605992 
1545.257 19580636 19536602 19474344 19398966 19319010 19244132 19183622 
1548.632 19142768 19123648 19122836 19134070 19149376 19161834 19167048 
1552.007 19164384 19156736 19148076 19142530 19142588 19147946 19156432 
1555.382 19164226 19167834 19163958 19150688 19126890 19093206 19051744 
1558.758 19007334 18966884 18938790 18931196 18949220 18993002 19056980 
1562.133 19131536 19204810 19266252 19310040 19336306 19350908 19362634 
1565.508 19380128 19409424 19451876 19505148 19563898 19624076 19683172 
1568.883 19742464 19805858 19879418 19969312 20081080 20218618 20384002 
1572.259 20578350 20800906 21049736 21321394 21610004 21907580 22204428 
1575.634 22489768 22752710 22983062 23172814 23315246 23406008 23441790 
1579.009 23421232 23344452 23214292 23036906 22822258 22584154 22338512 
1582.384 22101472 21886944 21703868 21555108 21437594 21343634 21263938 
1585.760 21190158 21117036 21043502 20971880 20905422 20846522 20795128 
1589.135 20748374 20701642 20650704 20592946 20529620 20464628 20403726 
1592.510 20353608 20319602 20305364 20312594 20341968 20392960 20465274 
1595.885 20557952 20670250 20801114 20949476 21114816 21296612 21495280 
1599.260 21711558 21946682 22201994 22479680 22781864 23110568 23466854 
1602.636 23849682 24255266 24676344 25103598 25527274 25938972 26333858 
1606.011 26711222 27072682 27420128 27753432 28068220 28356574 28608276 
1609.386 28813146 28964200 29057852 29094988 29079152 29015316 28908694 
1612.761 28765214 28592116 28398516 28195780 27996042 27810002 27645384 
1616.137 27504270 27383362 27275270 27171696 27065402 26952700 26833602 
1619.512 26711546 26591558 26479318 26380248 26298860 26239294 26204416 
1622.887 26195906 26213572 26255306 26317178 26394620 26483240 26579408 
1626.262 26680958 26785654 26891538 26994974 27091978 27177046 27246514 
1629.638 27298126 27332590 27353582 27366898 27379144 27397016 27426470 
1633.013 27471302 27533984 27613478 27706594 27806530 27904896 27992894 
1636.388 28063922 28114954 28147844 28168214 28184526 28204008 28231912 
1639.763 28268648 28310666 28352816 28388306 28413970 28428882 28436034 
1643.139 28440532 28448992 28467482 28500898 28552252 28622532 28710106 
1646.514 28811376 28920606 29031274 29137128 29233948 29320582 29399872 
1649.889 29477270 29559958 29654216 29764046 29889808 30028048 30172778 
1653.264 30316760 30453872 30580504 30695716 30802028 30903992 31008200 
1656.640 31121880 31252782 31407066 31588834 31798386 32032118 32283250 
1660.015 32543290 32804486 33061824 33314776 33567208 33826784 34101728 
1663.390 34400100 34726056 35080180 35458524 35854848 36261812 36673348 
1666.765 37085856 37499932 37919472 38351244 38802232 39278208 39780464 
1670.141 40304804 40842328 41380368 41906532 42411156 42890772 43348780 
1673.516 43794352 44240144 44698824 45179472 45686708 46219288 46772856 
1676.891 47341900 47921428 48508836 49103756 49706684 50319060 50940816 
1680.266 51571484 52209016 52852096 53498848 54148664 54802160 55460916 
1683.642 56127276 56805348 57498628 58209856 58940908 59691972 60462892 
1687.017 61254332 62069080 62914512 63800900 64740836 65745564 66822356 
1690.392 67971792 69188808 70465584 71795856 73180688 74630424 76165624 
1693.767 77813656 79603760 81561024 83703320 86040896 88579240 91326040 
1697.143 94296576 97517712 101027856 104873352 109101176 113754336 118866752 
1700.518 124465384 130575672 137228336 144467008 152350656 160950624 
1703.411 170343648 180602720 191789056 203948032 217107712 231281376 
1706.304 246469024 262655856 279810464 297878464 316783072 336425440 
1709.197 356691264 377456224 398587392 419938368 441339136 462586592 
1712.090 483442336 503639808 522903488 540970176 557614656 572667200 
1714.983 586027712 597673472 607662720 616129216 623263808 629284864 
1717.876 634400576 638776320 642518464 645676544 648264832 650287872 
1720.769 651760768 652714688 653190592 653227840 652856128 652097920 
1723.662 650979840 649545216 647860224 646006912 644065408 642094848 
1726.555 640121280 638138176 636122048 634051456 631923264 629758336 
1729.448 627593344 625466048 623403584 621419712 619519744 617715840 
1732.342 616034944 614525312 613248320 612268160 611640192 611406848 
1735.235 611603904 612271680 613466496 615263936 617753344 621027072 
1738.128 625165824 630230144 636258944 643274816 651292096 660321600 
1741.021 670366080 681413376 693421312 706311872 719970624 734254464 
1743.914 749001600 764040128 779187648 794245696 808992576 823185536 
1746.807 836572160 848913536 860003136 869679808 877824640 884345024 
1749.700 889160320 892194560 893382592 892685824 890106304 885686400 
1752.593 879497088 871618112 862121856 851071232 838531456 824590528 
1755.486 809371840 793037184 775770624 757756544 739157184 720104704 
1758.379 700704640 681050048 661237504 641375488 621584128 601987072 
1761.272 582700544 563827008 545451264 527641888 510453056 493924000 
1764.165 478075520 462907840 448399104 434511616 421200320 408426208 
1767.058 396164224 384407296 373159840 362428512 352208288 342475776 
1769.951 333188032 324288192 315715488 307414912 299343392 291469184 
1772.844 283769088 276221664 268804448 261492736 254262112 247091456 
1775.738 239966272 232876960 225817344 218780368 211756576 204734128 
1778.631 197703520 190661104 183614976 176584736 169601200 162699680 
1781.524 155915328 149279312 142815664 136543440 130478216 124634104 
1784.417 119024312 113660624 108552296 103704456 99119144 94794704 90727928 
1787.792 86912904 83340864 80000024 76875120 73949944 71209408 68642504 
1791.167 66242920 64007080 61931668 60009188 58227608 56571448 55025316 
1794.542 53578144 52225196 50966680 49803876 48733696 47745452 46822256 
1797.918 45945304 45098744 44275808 43478972 42717184 41999360 41330256 
1801.293 40707788 40125384 39576844 39060864 38582800 38150896 37770816 
1804.668 37439956 37144248 36861280 36566228 36240416 35876340 35479276 
1808.043 35061852 34638732 34219440 33806916 33398330 32989994 32580908 
1811.419 32174446 31775922 31388826 31011156 30635906 30253890 29860248 
1814.794 29458734 29064452 28698988 28384092 28133466 27945598 27805084 
1818.169 27686296 27562658 27414946 27233860 27022452 26789774 26547554 
1821.544 26306340 26074498 25858448 25664426 25497432 25359272 25245958 
1824.920 25146082 25041798 24912370 24739254 24511650 24227996 23896608 
1828.295 23532990 23156248 22784914 22436074 22122554 21853698 21632112 
1831.670 21454424 21309792 21180756 21047120 20890612 20698998 20470472 
1835.045 20212766 19941666 19673820 19422882 19194460 18986250 18790014 
1838.421 18595096 18392954 18179412 17955332 17723912 17489818 17255732 
1841.796 17021780 16786340 16547170 16303768 16059816 15822791 15602850 
1845.171 15410715 15253487 15131551 15036559 14952753 14860119 14741126 
1848.546 14586346 14399337 14195552 13999947 13837846 13728405 13677197 
1851.922 13677575 13711913 13759445 13803881 13837152 13858377 13870235 
1855.297 13874338 13865371 13832308 13762869 13648400 13491263 13305344 
1858.672 13112862 12936162 12790143 12673562 12571839 12460367 12316287 
1862.047 12126751 11896831 11648446 11412471 11220526 11093218 11035513 
1865.423 11038616 11084587 11156728 11245716 11351073 11476204 11621700 
1868.798 11776338 11915246 12003697 12008678 11910754 11715734 11454995 
1872.173 11180684 10949465 10808061 10778634 10855407 11007580 11193236 
1875.548 11369263 11504310 11581236 11596829 11553179 11454294 11302548 
1878.924 11099256 10850095 10567504 10273132 9995432 9764176 9605602 9537455 
1882.781 9567226 9689951 9890327 10144197 10418830 10675971 10875581 
1886.156 10981340 10968563 10828358 10571210 10224187 9826979 9423872 
1889.531 9058613 8768267 8581672 8514854 8570281 8732674 8968961 9229410 
1893.389 9457324 9600213 9625582 9530026 9341508 9110764 8895081 8739368 
1897.246 8667007 8675118 8744887 8853231 8986512 9144955 9337828 9573332 
1901.104 9847648 10141647 10422492 10657661 10826059 10924530 10968655 
1904.479 10978659 10969926 10939884 10868813 10724504 10478856 10117292 
1907.854 9650369 9110403 8548344 8020108 7577891 7261267 7091322 7064436 
1911.712 7153612 7308481 7464669 7557827 7543545 7410037 7190480 6951995 
1915.569 6776099 6727755 6830726 7055523 7328944 7558406 7669805 7628869 
1919.427 7453346 7196859 6922550 6677128 6472712 6288709 6095674 5874740 
1923.284 5638742 5431690 5314857 5339101 5519692 5829222 6201640 6556715 
1927.141 6827718 6978503 7014004 6968204 6888230 6815891 6778849 6789054 
1930.999 6850930 6966009 7136549 7360364 7624093 7894629 8123786 8250847 
1934.856 8224806 8013909 7618545 7072804 6440622 5798453 5225644 4787717 
1938.714 4531578 4477218 4622034 4939248 5386731 5910252 6453672 6961184 
1942.571 7388410 7703400 7895998 7978060 7985632 7969657 7987769 8082893 
1946.428 8269633 8513126 8737444 8833773 8698593 8267682 7550527 6635149 
1950.286 5673666 4836234 4259665 4003129 4032843 4230311 4445941 4543217 
1954.143 4446638 4151835 3716638 3218684 2722078 2250152 1786832 1295476 
1958.001 753578 177231 -367414 -781812 -962735 -840340 -399467 313286 
1961.858 1209295 2169587 3074844 3816374 4308087 4493231 4355741 3919413 
1965.716 3258885 2479431 1707880 1056845 604421 366030 313723 383245 513072 
1970.055 663428 824406 1008637 1219425 1430564 1578412 1565635 1302797 
1973.913 749752 -48341 -945894 -1721595 -2124831 -1937081 -1036248 568377 
1977.770 2720783 5158195 7566886 9649811 11181498 12038816 12200347 11745983 
1981.627 10841061 9719374 8654936 7923126 7725960 8155165 9137434 10448025 
1985.485 11745103 12663797 12909885 12350273 11057111 9290176 7422205 
1988.860 5834438 4804261 4446577 4693205 5339334 6123455 6814608 7270842 
1992.718 7463309 7447463 7324415 7191133 7109510 7098566 7151948 7248504 
1996.575 7370603 7496981 7591322 7595758 7436892 7033365 6343899 5376972 
2000.432 4216958 3001054 1894317 1037311 516169 336903 441041 719311 1053653 
2004.772 1334995 1486776 1463569 1254876 877669 376287 -185501 -735231 
2008.629 -1216497 -1595808 -1886910 -2134141 -2405602 -2746588 -3171479 
2012.005 -3634805 -4063133 -4368827 -4497443 -4447071 -4280715 -4087137 
2015.380 -3957239 -3935912 -4012335 -4110270 -4132142 -3975683 -3575138 
2018.755 -2901933 -1969194 -814885 498667 1893717 3258719 4459855 5338923 
2022.613 5757575 5625432 4949433 3841239 2514789 1231901 241494 -288392 
2026.470 -310274 89190 727187 1361509 1765582 1769302 1308878 420771 -745839 
2030.810 -1978062 -3029352 -3679031 -3760432 -3209759 -2067180 -477201 
2034.185 1360722 3227776 4943018 6390829 7531387 8378675 8973843 9353043 
2038.042 9535436 9521853 9309160 8900913 8327197 7635535 6887661 6139112 
2041.900 5434339 4786124 4189899 3618195 3045233 2451043 1847263 1274350 
2045.757 824325 617300 793627 1465222 2675882 4356108 6312608 8257067 
2049.615 9877240 10919338 11261535 10926539 10074948 8938594 7762887 6738199 
2053.472 5966501 5446836 5106165 4841240 4578666 4304204 4070421 3964654 
2057.329 4073151 4433692 5026386 5771188 6556614 7270642 7830832 8187931 
2061.187 8332658 8274971 8042203 7667178 7198416 6693241 6221309 5845927 
2065.044 5610215 5518217 5536585 5600779 5648947 5639304 5574225 5491606 
2068.902 5450817 5498582 5651676 5883024 6136989 6348222 6470893 6486228 
2072.759 6406466 6256044 6061793 5836226 5587440 5329894 5098719 4947242 
2076.616 4940920 5122689 5494944 5998024 6526380 6952479 7173104 7142190 
2080.474 6889035 6503395 6107393 5809334 5677019 5719515 5898824 6149710 
2084.331 6411767 6643541 6833783 6988492 7128042 7268861 7423152 7596093 
2088.189 7785334 7980567 8161681 8293583 8331139 8227998 7955669 7513555 
2092.046 6943905 6320663 5736431 5272924 4982846 4873196 4915213 5059240 
2095.904 5260906 5494923 5760636 6065933 6415566 6793440 7165196 7484112 
2099.761 7714106 7840030 7876440 7854022 7810945 7771993 7743142 7710414 
2103.618 7655882 7563227 7433351 7278476 7121023 6982582 6881716 6828641 
2107.476 6835059 6913956 7081809 7349217 7714715 8152604 8612780 9026497 
2111.333 9322631 9439913 9345131 9029653 8514334 7836106 7043496 6189209 
2115.191 5331307 4527495 3834764 3296853 2938649 2754011 2708958 2746817 
2119.048 2808286 2843089 2827812 2762354 2665297 2556434 2447464 2331267 
2122.906 2191835 2008152 1771120 1481942 1155928 805565 436292 36281 -416774 
2127.245 -949026 -1573410 -2285513 -3056441 -3846676 -4610548 -5313649 
2130.620 -5930127 -6443055 -6835499 -7088954 -7182756 -7105416 -6866241 
2133.996 -6506636 -6091014 -5700817 -5402641 -5241462 -5226667 -5347524 
2137.371 -5588653 -5956098 -6472238 -7172436 -8073620 -9152316 -10327592 
2140.746 -11474387 -12449083 -13136043 -13477572 -13496701 -13279258 
2143.639 -12955135 -12646382 -12443395 -12382445 -12461267 -12657614 
2146.532 -12955856 -13365500 -13922501 -14666778 -15627965 -16796314 
2149.425 -18112798 -19471210 -20738242 -21770582 -22456198 -22735420 
2152.318 -22632282 -22252068 -21788016 -21463638 -21492720 -22003360 
2155.211 -22993718 -24293570 -25598882 -26531164 -26751470 -26064464 
2158.104 -24522410 -22407818 -20169162 -18238820 -16900354 -16203631 
2160.998 -16011305 -16092600 -16236302 -16309071 -16273689 -16137397 
2163.891 -15910236 -15553493 -14991052 -14124736 -12905941 -11365888 
2166.784 -9647612 -7972413 -6589502 -5706040 -5448375 -5817084 -6717780 
2170.159 -7989757 -9462531 -10993605 -12493984 -13924722 -15276031 -16540198 
2173.534 -17690734 -18661168 -19371684 -19733146 -19699964 -19285050 
2176.427 -18589032 -17778088 -17057908 -16609797 -16546668 -16862832 
2179.320 -17430432 -18023246 -18380550 -18274696 -17591938 -16348736 
2182.213 -14693672 -12846561 -11030974 -9406534 -8049629 -6950034 -6058533 
2185.589 -5312707 -4675306 -4126640 -3660354 -3261963 -2911724 -2587522 
2188.964 -2295697 -2078428 -2014304 -2187814 -2651035 -3379065 -4267008 
2192.339 -5142452 -5824261 -6172596 -6151494 -5823911 -5343002 -4884359 
2195.714 -4594793 -4542648 -4710955 -5005754 -5303632 -5477732 -5430912 
2199.090 -5102989 -4482100 -3591081 -2494011 -1288730 -102549 938682 1726995 
2202.947 2214918 2422507 2435482 2369385 2327868 2361119 2454466 2542292 
2206.804 2550912 2440238 2239708 2039500 1967272 2126363 2558661 3218055 
2210.662 3979903 4680403 5167680 5338671 5169122 4699075 4023775 3259737 
2214.519 2522090 1902260 1466111 1243655 1234660 1403879 1696543 2047522 
2218.377 2400992 2725108 3019378 3307074 3619496 3974341 4366285 4763293 
2222.234 5126141 5423812 5654721 5846127 6045589 6292508 6601873 6949124 
2226.092 7277475 7514107 7596348 7484412 7174825 6692401 6083219 5403291 
2229.949 4717978 4088143 3581441 3250725 3133241 3228753 3503085 3889342 
2233.806 4310487 4702835 5036635 5319907 5589972 5882663 6216141 6570544 
2237.664 6894990 7124061 7207039 7125337 6903697 6597723 6282820 6030490 
2241.521 5901547 5933905 6149746 6546463 7099011 7749152 8409979 8972744 
2245.379 9338062 9438035 9274296 8918921 8506441 8189332 8094116 8274670 
2249.236 8697785 9250379 9782060 10149225 10260384 10095155 9706259 9193112 
2253.094 8672182 8247684 7993866 7947528 8113445 8466382 8963735 9543837 
2256.951 10139108 10677448 11101904 11372664 11482462 11448937 11313673 
2260.326 11128603 10942806 10793177 10703200 10680477 10720117 10808523 
2263.701 10924580 11041455 11133804 11179061 11169976 11115400 11042881 
2267.077 10990997 11000704 11099402 11295765 11572799 11897516 12225750 
2270.452 12517201 12740109 12879437 12936396 12924190 12867422 12798117 
2273.827 12748783 12751105 12825655 12979291 13200182 13461730 13726057 
2277.202 13958270 14132148 14241190 14294375 14316244 14333909 14372122 
2280.578 14445081 14558266 14708562 14888418 15088880 15301215 15515609 
2283.953 15723445 15914490 16081333 16220104 16331773 16418776 16484635 
2287.328 16529258 16548697 16534684 16481344 16385108 16250363 16087506 
2290.703 15908951 15723566 15534435 15334312 15113165 14860895 14577662 
2294.079 14276113 13983786 13735131 13564147 13494203 13530663 13656478 
2297.454 13839087 14034467 14201540 14308514 14342737 14309027 14228684 
2300.829 14131383 14046341 13994760 13987171 14021899 14090309 14180116 
2304.204 14281816 14388759 14500633 14617918 14739604 14863059 14982855 
2307.580 15090916 15181411 15249580 15293546 15311812 15304827 15272501 
2310.955 15217929 15147629 15074741 15016444 14991261 15013292 15088559 
2314.330 15213529 15376956 15564861 15767373 15980065 16205058 16444394 
2317.705 16696688 16953834 17203646 17436814 17655972 17878632 18135326 
2321.081 18455312 18850212 19298130 19738418 20078816 20220102 20080550 
2324.456 19622642 18861214 17863978 16733093 15585165 14525350 13631654 
2327.831 12942570 12458893 12152655 11981320 11900303 11873942 11877024 
2331.206 11896517 11923289 11951554 11975609 11989662 11989557 11973646 
2334.582 11943951 11904067 11858454 11811411 11765762 11722288 11680366 
2337.957 11637955 11591844 11540858 11484441 11426907 11375861 11343616 
2341.332 11342502 11383126 11469446 11595533 11747131 11903370 12042956 
2344.707 12147707 12207691 12221446 12194379 12134963 12051599 11951057 
2348.083 11837098 11715315 11591841 11476203 11378721 11308055 11266664 
2351.458 11248730 11241975 11230805 11202053 11150665 11081046 11007223 
2354.833 10947254 10915581 10919234 10952797 11002393 11049565 11077726 
2358.208 11077936 11050343 11003298 10945805 10883709 10815186 10730754 
2361.583 10616010 10458933 10254932 10011515 9747818 9491196 9269948 9107631 
2365.441 9015713 8993749 9028406 9100499 9187267 9269959 9335271 9378593 
2369.298 9401099 9409907 9414436 9424120 9445859 9483307 9535686 9598085 
2373.156 9663449 9723127 9769727 9797843 9804361 9789744 9756683 9711210 
2377.013 9660712 9615204 9586456 9586175 9623282 9701865 9818373 9961696 
2380.871 10114579 10259335 10380892 10473567 10540047 10591800 10642935 
2384.246 10704069 10777687 10857567 10930773 10983558 11007598 11005264 
2387.621 10988537 10977083 10990417 11041755 11133128 11256321 11394315 
2390.996 11529896 11648802 11744925 11818965 11876278 11921584 11957360 
2394.372 11980475 11986498 11969725 11929336 11869579 11801687 11737709 
2397.747 11690420 11666414 11666427 11683323 11704887 11716167 11703881 
2401.122 11658524 11577265 11462587 11324054 11174379 11030298 10907668 
2404.497 10821467 10782576 10797381 10866396 10984110 11139601 11317833 
2407.873 11502295 11677017 11828269 11949321 12038208 12100074 12144433 
2411.248 12181938 12220511 12263061 12304657 12334784 12338381 12302647 
2414.623 12219387 12089876 11923014 11733525 11539301 11353939 11186589 
2417.998 11040976 10917429 10815467 10737201 10687826 10672702 10693950 
2421.374 10747463 10820701 10893888 10944885 10955257 10916297 10830984 
2424.749 10717317 10601671 10514889 10485883 10534335 10667859 10880033 
2428.124 11148591 11440996 11715855 11932841 12057277 12069933 11969680 
2431.499 11776848 11526868 11263165 11025325 10840877 10719033 10651820 
2434.875 10619705 10602573 10587146 10572691 10568911 10591719 10654023 
2438.250 10759034 10897405 11049401 11190123 11298232 11357349 11362455 
2441.625 11313842 11217207 11078265 10902974 10697628 10472943 10243963 
2445.000 10031461 9857926 9744463 9702373 9733494 9827317 9963751 10117372 
2448.858 10264277 10383886 10463227 10497424 10489812 10450294 10394271 
2452.233 10338557 10300301 10292066 10320194 10381911 10466161 10556281 
2455.608 10633786 10683135 10694934 10669075 10612943 10538287 10459905 
2458.983 10387583 10326837 10275291 10226028 10169835 10098555 10008478 
2462.359 9905696 9802385 9718154 9672855 9682820 9753941 9881224 10046839 
2466.216 10226482 10393102 10526629 10615795 10660650 10670086 10656884 
2469.591 10633184 10605916 10578142 10548874 10515952 10479877 10443289 
2472.967 10411073 10387700 10376069 10377595 10392533 10422133 10468645 
2476.342 10535968 10626034 10735785 10854545 10962831 11036399 11049333 
2479.717 10984168 10833896 10607305 10328381 10031082 9754994 9537287 
2483.092 9405104 9374225 9444620 9602418 9823359 10077595 10335812 10573058 
2486.950 10773080 10925926 11026973 11074086 11063402 10992388 10860936 
2490.325 10676951 10460095 10241281 10058594 9947364 9929700 10007321 
2493.700 10157446 10341776 10514100 10638012 10695182 10689313 10642930 
2497.075 10587670 10549688 10542199 10559362 10582136 10586603 10553013 
2500.451 10474327 10361313 10237979 10137200 10090953 10122695 10241519 
2503.826 10439297 10691903 10964360 11216530 11413140 11528036 11550651 
2507.201 11487305 11356018 11181540 10988969 10799552 10627389 10482226 
2510.576 10373552 10309697 10301176 10353060 10462455 10612255 10774073 
2513.952 10911916 10992687 10997573 10929055 10809578 10677443 10571118 
2517.327 10520510 10533307 10596739 10681267 10749479 10768061 10717841 
2520.702 10596428 10419744 10215190 10019197 9867275 9790545 9808108 9925589 
2524.560 10133114 10406632 10712257 11013773 11279119 11485824 11624435 
2527.935 11696150 11711419 11682827 11622887 11542683 11451014 11356100 
2531.310 11266243 11186271 11117462 11055412 10989863 10909120 10804775 
2534.685 10677082 10536975 10404719 10303725 10255039 10270394 10349829 
2538.061 10483034 10652568 10838246 11019860 11181170 11307015 11387755 
2541.436 11419437 11405945 11362151 11311702 11282093 11297513 11370770 
2544.811 11497816 11657649 11818842 11949589 12027682 12045915 12013891 
2548.186 11952750 11885191 11831610 11802685 11799878 11818079 11850557 
2551.562 11888855 11928624 11965327 11997257 12025779 12055852 12094834 
2554.937 12153341 12237983 12349723 12476159 12595803 12680365 12704613 
2558.312 12655484 12538597 12378033 12210747 12073176 11994489 11986110 
2561.687 12043275 12145004 12265494 12379345 12466618 12513895 12514702 
2565.063 12469011 12383940 12273568 12161103 12074916 12044679 12091836 
2568.438 12223498 12427599 12676846 12932613 13160957 13337970 13458163 
2571.813 13530547 13573800 13605594 13635503 13661191 13673249 13660783 
2575.188 13619120 13553862 13481241 13421642 13393562 13404449 13451739 
2578.563 13522218 13599126 13668977 13726305 13775869 13828223 13894624 
2581.939 13982796 14091018 14210818 14328680 14432633 14515732 14579344 
2585.314 14630402 14679130 14733350 14795062 14857231 14908393 14932894 
2588.689 14918552 14857876 14752404 14610909 14449213 14284519 14134398 
2592.064 14012325 13928570 13886021 13882947 13913373 13967480 14033969 
2595.440 14103277 14167992 14223679 14269101 14305216 14332979 14353774 
2598.815 14368473 14378988 14389069 14404829 14433244 14481049 14552103 
2602.190 14643881 14749156 14857362 14956350 15036848 15092540 15121228 
2605.565 15122538 15096458 15043155 14964711 14867864 14765381 14676791 
2608.941 14625479 14630808 14703239 14837476 15012359 15196015 15355731 
2612.316 15465074 15513916 15508351 15468987 15421354 15388983 15385148 
2615.691 15412579 15463836 15527941 15594094 15657727 15718214 15779965 
2619.066 15846571 15919019 15993960 16065320 16126318 16171306 16199216 
2622.442 16213214 16218308 16221376 16226653 16235894 16248584 16262509 
2625.817 16276700 16292578 16315255 16351808 16407181 16483866 16576672 
2629.192 16675523 16764609 16829320 16859206 16851858 16811498 16749710 
2632.567 16679229 16611116 16552987 16508026 16478991 16469432 16484136 
2635.943 16528355 16603516 16704682 16818044 16923652 17000912 17035874 
2639.318 17025142 16979164 16917718 16864252 16836602 16843406 16882104 
2642.693 16942408 17010824 17077316 17136002 17185112 17224184 17250548 
2646.068 17258410 17240724 17192590 17115496 17017726 16913158 16816668 
2649.444 16739924 16687736 16657719 16643284 16637577 16636504 16639082 
2652.819 16646298 16656993 16666174 16664561 16639749 16582169 16488425 
2656.194 16362872 16216667 16065966 15924156 15801597 15700612 15618710 
2659.569 15549109 15485470 15422349 15356435 15284960 15207211 15121391 
2662.945 15025270 14918393 14801206 14676389 14548766 14423795 14307200 
2666.320 14203627 14116396 14046224 13991861 13948758 13910471 13869398 
2669.695 13817924 13752022 13672044 13584249 13500638 13434556 13398821 
2673.070 13400073 13437706 13502514 13580613 13654171 13708386 13733374 
2676.446 13726067 13691029 13637755 13579798 13530440 13501446 13499477 
2679.821 13526698 13578637 13645330 13714300 13771610 13806279 13811369 
2683.196 13784705 13729960 13653694 13564441 13470670 13379749 13297351 
2686.571 13227536 13173184 13135834 13115674 13111811 13121462 13141027 
2689.947 13166094 13190903 13210489 13219440 13213598 13190886 13152103 
2693.322 13101215 13046341 12997042 12962534 12948332 12955163 12978436 
2696.697 13010028 13041540 13067462 13086882 13102963 13121312 13145454 
2700.072 13174761 13203536 13223359 13225177 13204088 13161262 13102479 
2703.448 13037611 12975984 12924756 12886560 12861307 12847555 12843410 
2706.823 12847601 12859594 12877394 12898464 12918637 12934550 12945109 
2710.198 12953861 12966244 12989894 13030085 13088187 13159404 13235192 
2713.573 13305102 13360122 13395059 13408540 13403913 13384541 13354238 
2716.948 13315275 13269200 13217278 13162245 13108104 13059956 13023186 
2720.324 13001801 12998544 13012609 13040990 13078684 13119219 13155753 
2723.699 13181720 13192175 13185839 13164525 13134710 13103519 13078980 
2727.074 13066129 13066429 13077783 13096185 13117696 13142052 13171720 
2730.449 13212465 13270247 13348457 13445100 13552316 13655820 13739217 
2733.825 13786905 13788235 13741537 13654299 13543019 13430058 13339530 
2737.200 13291168 13295799 13351445 13444368 13552841 13651631 13720704 
2740.575 13748655 13736926 13696063 13643518 13594816 13561354 13547743 
2743.950 13552698 13572004 13602811 13643380 13694736 13755589 13822360 
2747.326 13886116 13935895 13961004 13955436 13919824 13862630 13796384 
2750.701 13733626 13683291 13648805 13627492 13614381 13603760 13592114 
2754.076 13579081 13565583 13553185 13542633 13534104 13528249 13525721 
2757.451 13528547 13538770 13556849 13580759 13605141 13624996 13634036 
2760.827 13629017 13611131 13585005 13556924 13532723 13517029 13512718 
2764.202 13520821 13541983 13576217 13622792 13677909 13734533 13782365 
2767.577 13809903 13808506 13775188 13716064 13645317 13582256 13545538 
2770.952 13548080 13593807 13676145 13780071 13887390 13980715 14048696 
2774.328 14087686 14101760 14100491 14095683 14097759 14113238 14142502 
2777.703 14181553 14221640 14253358 14269156 14266039 14245960 14216083 
2781.078 14185824 14164320 14157914 14167552 14190063 14218461 14246220 
2784.453 14267074 14279441 14284343 14285040 14287326 14295310 14313950 
2787.829 14345588 14392193 14453966 14529414 14614809 14704170 14790851 
2791.204 14868300 14932013 14980485 15014641 15038125 15055438 15070969 
2794.579 15086975 15104957 15125194 15148624 15175536 15206491 15241305 
2797.954 15278288 15313125 15343093 15363958 15375623 15382217 15390786 
2801.330 15409979 15448449 15510540 15595411 15696125 15801396 15898334 
2804.705 15975352 16025370 16047997 16049344 16039852 16034408 16046494 
2808.080 16087146 16161760 16269881 16404657 16554685 16706385 16846068 
2811.455 16962198 17047580 17100208 17121096 17115810 17091420 17057374 
2814.831 17021904 16993038 16976084 16975298 16991546 17025220 17075938 
2818.206 17143718 17229524 17334782 17459700 17603248 17760040 17921554 
2821.581 18077164 18215384 18328224 18412912 18472374 18515894 18554686 
2824.956 18598902 18655680 18725790 18805244 18887014 18963868 19030376 
2828.332 19086062 19134818 19182638 19237048 19303476 19383940 19477108 
2831.707 19578510 19681290 19778768 19866462 19943312 20011696 20078964 
2835.082 20154656 20249004 20369846 20521414 20700676 20900678 21109100 
2838.457 21315136 21510264 21694100 21872942 22060010 22272188 22525020 
2841.833 22827868 23183082 23585266 24024220 24489130 24973798 25476900 
2845.208 26004440 26564366 27164244 27803778 28473484 29153336 29815424 
2848.583 30429326 30969114 31417698 31772222 32041964 32248348 32416620 
2851.958 32571588 32730494 32900066 33074364 33238928 33373852 33460722 
2855.333 33487078 33451028 33361692 33237242 33099334 32969664 32863398 
2858.709 32789286 32746676 32730504 32734078 32750982 32777522 32812838 
2862.084 32856144 32907542 32965686 33029400 33099278 33179510 33279174 
2865.459 33411938 33592652 33835124 34148008 34533932 34988908 35504320 
2868.834 36068548 36669336 37294608 37934032 38576240 39210844 39827796 
2872.210 40418612 40977256 41500884 41991128 42451880 42887808 43303124 
2875.585 43699264 44073252 44419620 44730032 44993880 45202392 45348204 
2878.960 45428408 45446104 45409292 45330500 45225064 45105360 44981060 
2882.335 44854564 44723476 44582256 44426268 44253700 44068228 43878380 
2885.711 43694720 43525988 43378192 43252456 43147484 43062188 42999156 
2889.086 42964532 42967044 43015936 43117460 43271680 43472668 43710952 
2892.461 43975664 44257088 44548208 44844344 45140944 45432444 45710760 
2895.836 45967336 46194084 46386880 46545108 46673000 46777136 46864668 
2899.212 46941748 47013884 47085436 47161000 47246580 47347356 47466448 
2902.587 47602960 47750612 47899332 48038708 48160660 48264652 48357876 
2905.962 48454348 48570056 48719448 48909364 49139616 49402160 49686784 
2909.337 49984500 50292912 50616844 50969188 51363512 51813468 52325772 
2912.713 52899416 53523352 54181728 54855480 55527192 56183804 56818244 
2916.088 57428212 58016924 58588272 59147084 59697816 60243280 60787008 
2919.463 61332164 61880756 62433828 62990160 63543440 64086044 64607644 
2922.838 65100052 65557532 65980412 66374464 66747816 67109640 67466064 
2926.214 67820232 68172376 68522552 68873032 69231616 69608840 70017672 
2929.589 70469960 70972208 71525776 72127512 72772720 73459200 74188488 
2932.964 74967680 75806056 76712768 77693048 78749360 79881736 81090712 
2936.339 82380592 83760816 85241872 86833488 88538032 90345824 92233968 
2939.715 94169320 96110808 98018184 99854800 101590568 103201968 104670576 
2943.090 105980400 107115568 108062400 108810384 109353760 109694328 
2945.983 109840240 109805344 109605336 109258104 108779424 108186160 
2948.876 107495136 106726320 105899864 105037520 104156800 103271024 
2951.769 102385400 101499872 100610568 99714208 98811744 97909648 97020472 
2955.144 96156640 95328048 94538824 93785176 93059208 92351872 91659624 
2958.520 90983648 90332224 89714248 89132952 88582952 88046688 87499440 
2961.895 86915400 86276016 85576872 84828984 84055440 83283360 82534640 
2965.270 81819440 81134224 80463280 79788200 79092032 78367720 77617256 
2968.645 76852184 76085640 75330800 74595672 73883336 73192632 72521784 
2972.021 71870000 71237824 70628320 70044704 69492072 68975552 68501712 
2975.396 68078376 67712616 67410000 67171984 66995120 66871004 66789240 
2978.771 66739468 66716188 66718356 66752860 66830100 66965000 67173192 
2982.146 67470256 67872048 68393248 69044008 69831128 70751888 71795280 
2985.521 72941400 74165576 75441816 76749096 78071976 79401848 80733720 
2988.897 82062280 83375488 84655960 85880592 87024632 88064376 88980848 
2992.272 89761312 90397248 90882112 91210816 91376496 91375472 91206232 
2995.647 90871448 90380016 89743712 88975688 88090768 87101992 86023864 
2999.022 84871216 83660344 82405720 81119656 79806800 78464208 77081032 
3002.398 75645344 74148024 72589600 70983040 69352664 67728672 66140740 
3005.773 64608476 63138792 61725232 60352016 58997740 57645612 56285080 
3009.148 54915352 53542920 52179576 50837572 49526564 48250112 47007312 
3012.523 45792276 44597924 43419048 42256336 41117080 40017172 38977136 
3015.899 38016392 37150732 36383524 35704248 35089912 34511200 33936252 
3019.274 33341884 32717638 32065808 31402524 30745916 30115250 29520936 
3022.649 28964586 28441768 27944472 27465730 27004802 26565166 26154072 
3026.024 25778142 25440234 25136350 24858706 24595858 24338290 24081508 
3029.400 23825314 23575010 23335716 23111408 22899636 22693052 22480700 
3032.775 22249828 21993878 21713068 21416906 21123062 20853412 20628162 
3036.150 20460808 20353708 20297668 20272990 20254642 20219010 20151162 
3039.525 20047712 19919386 19787048 19676256 19609320 19598822 19643262 
3042.901 19728138 19830952 19926544 19997178 20034656 20043670 20038438 
3046.276 20036286 20050012 20083626 20129458 20170886 20186590 20157370 
3049.651 20073048 19935774 19760606 19572278 19399720 19270218 19202664 
3053.026 19204464 19269188 19379212 19509918 19635342 19733478 19791878 
3056.402 19807956 19788976 19746862 19696504 19649834 19614260 19592148 
3059.777 19582890 19584536 19593900 19609238 19627662 19645272 19657118 
3063.152 19657742 19643632 19614784 19576552 19537380 19507366 19492914 
3066.527 19494122 19504404 19510670 19499292 19459034 19385844 19283232 
3069.903 19163468 19041508 18932524 18849832 18799736 18784826 18802230 
3073.278 18845868 18906770 18975958 19043620 19102002 19147172 19178194 
3076.653 19197436 19208822 19215658 19217118 19208332 19182568 19134340 
3080.028 19062392 18973136 18879820 18798904 18744478 18722658 18729938 
3083.404 18752966 18773408 18773958 18743210 18679070 18588584 18484388 
3086.779 18379752 18284632 18204008 18137050 18079616 18026214 17971344 
3090.154 17911166 17842256 17764296 17676664 17581330 17480368 17377718 
3093.529 17277124 17182730 17097664 17026386 16975442 16952534 16967432 
3096.905 17028682 17138072 17288050 17460346 17627408 17758544 17827182 
3100.280 17818608 17734042 17589382 17411592 17229606 17068824 16944764 
3103.655 16862740 16820476 16811010 16826224 16858738 16900744 16944118 
3107.030 16980210 17001300 17001124 16979566 16941934 16896680 16852560 
3110.406 16814688 16781706 16747672 16704340 16647421 16577017 16502734 
3113.781 16437722 16394211 16378259 16387166 16408306 16425787 16425716 
3117.156 16402123 16358865 16308593 16268343 16251091 16261658 16295243 
3120.531 16337629 16371239 16379213 16352009 16286895 16190873 16073778 
3123.906 15949327 15828727 15723595 15642013 15591311 15576217 15598636 
3127.282 15655333 15738470 15833063 15922341 15988367 16020207 16015120 
3130.657 15980855 15933141 15892345 15873898 15885478 15922371 15970515 
3134.032 16010901 16027654 16013512 15974564 15925823 15886536 15871521 
3137.407 15884265 15913004 15936384 15928101 15868146 15750816 15586002 
3140.783 15398948 15220704 15081367 15000208 14980931 15014288 15080093 
3144.158 15154137 15214825 15246559 15243625 15208121 15148890 15080153 
3147.533 15017199 14974577 14961788 14981381 15028193 15089797 15152051 
3150.908 15202293 15235133 15254781 15273592 15306878 15367853 15459923 
3154.284 15574429 15691943 15789196 15844809 15846280 15796222 15708165 
3157.659 15603581 15505002 15429581 15385045 15370136 15375765 15390077 
3161.034 15401429 15402189 15388856 15362808 15327211 15287791 15247933 
3164.409 15209653 15172107 15132957 15089133 15039778 14988605 14944423 
3167.785 14919642 14927218 14974915 15061905 15176109 15296620 15399863 
3171.160 15466699 15488922 15474167 15441757 15418481 15427099 15479957 
3174.535 15572937 15688291 15799537 15882300 15919950 15910123 15863443 
3177.910 15798751 15736070 15690198 15668500 15669279 15686681 15713576 
3181.286 15744528 15778262 15813822 15849389 15880061 15896870 15888287 
3184.661 15845546 15764257 15651142 15520384 15395043 15297757 15247534 
3188.036 15253047 15311643 15409041 15524643 15636867 15729139 15794178 
3191.411 15833784 15856821 15874406 15896920 15929289 15971726 16019532 
3194.787 16066173 16105976 16134866 16152618 16159451 16158028 16150925 
3198.162 16140712 16129421 16119309 16110798 16103463 16094306 16079562 
3201.537 16054299 16016366 15966292 15910732 15857622 15817277 15795499 
3204.912 15792612 15801111 15809180 15803713 15774822 15720984 15648326 
3208.288 15570486 15503593 15460553 15449326 15469502 15514634 15575167 
3211.663 15641745 15708024 15771741 15832249 15889546 15941476 15983189 
3215.038 16008427 16012231 15991889 15952248 15902892 15858913 15834225 
3218.413 15842421 15889127 15972853 16085528 16213574 16342746 16459767 
3221.789 16554687 16620794 16654832 16654948 16620472 16552480 16454633 
3225.164 16335035 16206112 16083106 15982028 15914990 15887842 15898218 
3228.539 15937593 15992561 16050905 16104070 16148157 16183918 16212437 
3231.914 16233487 16243709 16237790 16208783 16155275 16080722 15996611 
3235.290 15918225 15862048 15838388 15850509 15890399 15942672 15987474 
3238.665 16006136 15985832 15923291 15822632 15696868 15561197 15431687 
3242.040 15321695 15241220 15196131 15189266 15222596 15295056 15404712 
3245.415 15545828 15708420 15879566 16043164 16185714 16296424 16371788 
3248.791 16414078 16431652 16432893 16424000 16405841 16374931 16324934 
3252.166 16253017 16161462 16059963 15964219 15891023 15853684 15858760 
3255.541 15904631 15983360 16085245 16200922 16324723 16451623 16576283 
3258.916 16690060 16780166 16831286 16831260 16775262 16668515 16527301 
3262.292 16374364 16232656 16120667 16046163 16006313 15990520 15983580 
3265.667 15971933 15947372 15908791 15861006 15814411 15779953 15766952 
3269.042 15780777 15820896 15881402 15952667 16023193 16083872 16129114 
3272.417 16158575 16174993 16181767 16181733 16175343 16160054 16135432 
3275.792 16104329 16075630 16061854 16075861 16125012 16206700 16306872 
3279.168 16405210 16478965 16513709 16506132 16466327 16412212 16362926 
3282.543 16331777 16322074 16329972 16347667 16368672 16394414 16432388 
3285.918 16493276 16584370 16706126 16848534 16994194 17124476 17224474 
3289.293 17288112 17319108 17328264 17329702 17335220 17349684 17371876 
3292.669 17393190 17402036 17387130 17342174 17266378 17168466 17063354 
3296.044 16970808 16910186 16894752 16929834 17009158 17118586 17240112 
3299.419 17356818 17456628 17534562 17589378 17620736 17626524 17601850 
3302.794 17541500 17443686 17316272 17174652 17039870 16931880 16862428 
3306.170 16830306 16822896 16819586 16802524 16761614 16698737 16626192 
3309.545 16559064 16510336 16483229 16472867 16467167 16455578 16430998 
3312.920 16393978 16348951 16301360 16253090 16201360 16138513 16056983 
3316.295 15953550 15831981 15703056 15581883 15482794 15415473 15381809 
3319.671 15376262 15387279 15400744 15404760 15390535 15355613 15304105 
3323.046 15245572 15191698 15155395 15145682 15165804 15213095 15279780 
3326.421 15356177 15434495 15511278 15589868 15676511 15778795 15900631 
3329.796 16039802 16186612 16325889 16439658 16510813 16529059 16491579 
3333.172 16405614 16287794 16161123 16050179 15975857 15948221 15963491 
3336.547 16003463 16039202 16041633 15991170 15885897 15744589 15603703 
3339.922 15504845 15481129 15546130 15688363 15873970 16057752 16196249 
3343.297 16259966 16240580 16147235 16005356 15841935 15684199 15551199 
3346.673 15456948 15408739 15411294 15463629 15560498 15687235 15822770 
3350.048 15942195 16022155 16047809 16017448 15943065 15848111 15761450 
3353.423 15709920 15711505 15772630 15885916 16033972 16190631 16329018 
3356.798 16424827 16463747 16445298 16382059 16299784 16229084 16198097 
3360.174 16223723 16307907 16435925 16582016 16715767 16811698 16854126 
3363.549 16838276 16768984 16656606 16513081 16351938 16186595 16033513 
3366.924 15909951 15833054 15813099 15849434 15927752 16020996 16096998 
3370.299 16126735 16093362 15998662 15859894 15706422 15568392 15468963 
3373.675 15416727 15405940 15422717 15448312 15469168 15479856 15485119 
3377.050 15494455 15518379 15563012 15625760 15697464 15763422 15809249 
3380.425 15825544 15810477 15770039 15717359 15666025 15628159 15608747 
3383.800 15607230 15616483 15627319 15631020 15623496 15605877 15584625 
3387.176 15570286 15574883 15609889 15683822 15797619 15944492 16108338 
3390.551 16264524 16385892 16446855 16432827 16344009 16197665 16024692 
3393.926 15861126 15738225 15673840 15669815 15711384 15776739 15843704 
3397.301 15896695 15932182 15952993 15967207 15979493 15989842 15993476 
3400.677 15983330 15954271 15906749 15846908 15784774 15732311 15699092 
3404.052 15693681 15722010 15786609 15888175 16021147 16174253 16328897 
3407.427 16463397 16557295 16598007 16585624 16532680 16462134 16397856 
3410.802 16357325 16346954 16360579 16384836 16404074 16408335 16396588 
3414.177 16375570 16356377 16350565 16366489 16408853 16478701 16576387 
3417.553 16700447 16847684 17009762 17173386 17320106 17430544 17489760 
3420.928 17491994 17441702 17354800 17252970 17158686 17091228 17062656 
3424.303 17078598 17138510 17237474 17367818 17518540 17675410 17823950 
3427.678 17950702 18047148 18110632 18146070 18162998 18173258 18185938 
3431.054 18205068 18229492 18255534 18278016 18294400 18304112 18308408 
3434.429 18307176 18297880 18275792 18233532 18167054 18074746 17960748 
3437.804 17834388 17707896 17594052 17502668 17439860 17407364 17402882 
3441.179 17421932 17458636 17508624 17569122 17639108 17719854 17811938 
3444.555 17914106 18020580 18121658 18204398 18254218 18260938 18219322 
3447.930 18133992 18015684 17879776 17741880 17615864 17510294 17428882 
3451.305 17371392 17335408 17318738 17319188 17336308 17372066 17429834 
3454.680 17513096 17625108 17763692 17919472 18074388 18204550 18283966 
3458.056 18293708 18227592 18096968 17930014 17761406 17625134 17543362 
3461.431 17521092 17547322 17603156 17667944 17729154 17782134 17830490 
3464.806 17875718 17916430 17943210 17945704 17915308 17854792 17778800 
3468.181 17711164 17677928 17699226 17781362 17917274 18088964 18274690 
3471.557 18453150 18609202 18731530 18812192 18844866 18826154 18759066 
3474.932 18655596 18537298 18432148 18368130 18364266 18424074 18534176 
3478.307 18669866 18802100 18908940 18980672 19021136 19045958 19074996 
3481.682 19124716 19205414 19320498 19464140 19628300 19802346 19978094 
3485.058 20148878 20312476 20469692 20624040 20781254 20942980 21106878 
3488.433 21263098 21397456 21493986 21542106 21541916 21504654 21451192 
3491.808 21405694 21387996 21407028 21461750 21544080 21647336 21768950 
3495.183 21913986 22090334 22302598 22544110 22795958 23028506 23212428 
3498.559 23327324 23370214 23357186 23317424 23282596 23276968 23308686 
3501.934 23370214 23442840 23505470 23543950 23556034 23552318 23551784 
3505.309 23575430 23638952 23746864 23889976 24047426 24189938 24286086 
3508.684 24310686 24251180 24111208 23912024 23686466 23471632 23297998 
3512.060 23182340 23123492 23106576 23107740 23105238 23086418 23050808 
3515.435 23007144 22968794 22945334 22938306 22939912 22935486 22909518 
3518.810 22850412 22753532 22620658 22457810 22271734 22067880 21848962 
3522.185 21615816 21370568 21116060 20857384 20602588 20361254 20143676 
3525.561 19960744 19823938 19741668 19720458 19759852 19853134 19985296 
3528.936 20136456 20284472 20407892 20492350 20530956 20525220 20483668 
3532.311 20420288 20348112 20278886 20218540 20167906 20122602 20076334 
3535.686 20022110 19957658 19886186 19815058 19754832 19713238 19692768 
3539.062 19686066 19679368 19655912 19601916 19512856 19396210 19267776 
3542.437 19148230 19052548 18986560 18943734 18908744 18865900 18804968 
3545.812 18728802 18651190 18594734 18579298 18615728 18700484 18815252 
3549.187 18932566 19022646 19063218 19044014 18970248 18859416 18738204 
3552.563 18636026 18578152 18581862 18651002 18775478 18931828 19087644 
3555.938 19208920 19266524 19246348 19151696 19003922 18837502 18690626 
3559.313 18595168 18569516 18613340 18710190 18832632 18951412 19039882 
3562.688 19080938 19066790 18998728 18884628 18736316 18568252 18396578 
3566.063 18238622 18110054 18022106 17980774 17983566 18020442 18075038 
3569.439 18129766 18168236 18177754 18151476 18086888 17985768 17853136 
3572.814 17697496 17532246 17375712 17248008 17167462 17146544 17185150 
3576.189 17269294 17372762 17463194 17508466 17489244 17400954 17256408 
3579.564 17083298 16912802 16775370 16691880 16669301 16702853 16777210 
3582.940 16873066 16969914 17051308 17106550 17131546 17129168 17105646 
3586.315 17069384 17026624 16977844 16916682 16831704 16711377 16548958 
3589.690 16349616 16130297 15918277 15742170 15622160 15563553 15552900 
3593.065 15562441 15560801 15523802 15445658 15340675 15239637 15178281 
3596.441 15183684 15265987 15412832 15595003 15774595 15917154 16000727 
3599.816 16018778 15979106 15899651 15802102 15705254 15625143 15573104 
3603.191 15558669 15588608 15667522 15797006 15971184 16176926 16392410 
3606.566 16590348 16739801 16815854 16802150 16697695 16518902 16297180 
3609.942 16073018 15887491 15775535 15755523 15828822 15981339 16187364 
3613.317 16419118 16651809 16867894 17057916 17216402 17339454 17423296 
3616.692 17462816 17455210 17403360 17316590 17211504 17107728 17026236 
3620.067 16983402 16988816 17044926 17147024 17282882 17434686 17580476 
3623.443 17696084 17759882 17759816 17695860 17585128 17457490 17347928 
3626.818 17288274 17293730 17363110 17474326 17598220 17706344 17784466 
3630.193 17834024 17870824 17917366 17989480 18091072 18213394 18339896 
3633.568 18454870 18551732 18636926 18728118 18847130 19009586 19219420 
3636.944 19463494 19718284 19951942 20136982 20254924 20300232 20281302 
3640.319 20217284 20132364 20052434 19996924 19978798 19998432 20048142 
3643.694 20108992 20159590 20179744 20153914 20078046 19959340 19815534 
3647.069 19671092 19553294 19485154 19482958 19550520 19681402 19857140 
3650.445 20054380 20248142 20418324 20553516 20652706 20723976 20776868 
3653.820 20820698 20855710 20875884 20869926 20828498 20749626 20644844 
3657.195 20535862 20449692 20408436 20422544 20486516 20582194 20685270 
3660.570 20773640 20835490 20869700 20884004 20886136 20879666 20858062 
3663.946 20808292 20715580 20572168 20382364 20165464 19950140 19771690 
3667.321 19659142 19629868 19685970 19812980 19982502 20158116 20300670 
3670.696 20375886 20359218 20239798 20023018 19726508 19378352 19009250 
3674.071 18650602 18327038 18053576 17836242 17671706 17549884 17456728 
3677.447 17377724 17300054 17212142 17108692 16989448 16858352 16726371 
3680.822 16604962 16504977 16432080 16384436 16353792 16327329 16292356 
3684.197 16238011 16159976 16059482 15941082 15811315 15674982 15536777 
3687.572 15398672 15261897 15129543 15006045 14898685 14814628 14762266 
3690.948 14748398 14776615 14845087 14945684 15062860 15176000 15260514 
3694.323 15296362 15271047 15183555 15046603 14880459 14710207 14556617 
3697.698 14429826 14330455 14250353 14178269 14106047 14033189 13965509 
3701.073 13912906 13882307 13874221 13878377 13877089 13849690 13781310 
3704.448 13666994 13517500 13356220 13214352 13124577 13109939 13180127 
3707.824 13326510 13525726 13743728 13946198 14103736 14200808 14234902 
3711.199 14217027 14163791 14092553 14015218 13937373 13857026 13770457 
3714.574 13674811 13571447 13467692 13373228 13298730 13252902 13238600 
3717.949 13254724 13294950 13350591 13410226 13463289 13499960 13514390 
3721.325 13503583 13469648 13418416 13356604 13289429 13218631 13144087 
3724.700 13064176 12982880 12909282 12860180 12854625 12905330 13013069 
3728.075 13162060 13321187 13455208 13537065 13558879 13534833 13501182 
3731.450 13500059 13566140 13713298 13927496 14175088 14412673 14602290 
3734.826 14722546 14770031 14756323 14696644 14603471 14481918 14332484 
3738.201 14157414 13969571 13792074 13657654 13597935 13633931 13767061 
3741.576 13977131 14228553 14478200 14687407 14829225 14897233 14901405 
3744.951 14865632 14819711 14789931 14794464 14838086 14912040 14996167 
3748.327 15064526 15091536 15060378 14967022 14825622 14661877 14509267 
3751.702 14397138 14344181 14352923 14410968 14496885 14588602 14668169 
3755.077 14725667 14758570 14768627 14757210 14723935 14666532 14583114 
3758.452 14475931 14351769 14222557 14102493 14003520 13934813 13901659 
3761.828 13903944 13941304 14012122 14114524 14243629 14388501 14532289 
3765.203 14653472 14728616 14739064 14678367 14552299 14380625 14193558 
3768.578 14021954 13892768 13822500 13813057 13855012 13930621 14020242 
3771.953 14106487 14180151 14237821 14282770 14320542 14356307 14392080 
3775.329 14425213 14451285 14462220 14452957 14421220 14369145 14302284 
3778.704 14228716 14156899 14093150 14041011 13999217 13964362 13932532 
3782.079 13901324 13871880 13848747 13840146 13853543 13891976 13954453 
3785.454 14032124 14109819 14173490 14210476 14218614 14204222 14182230 
3788.830 14170612 14183179 14225892 14293823 14372036 14442671 14489625 
3792.205 14505537 14491789 14457623 14415084 14373674 14336313 14299577 
3795.580 14258010 14207178 14148717 14090245 14045463 14025926 14037481 
3798.955 14076963 14130424 14176407 14191412 14156888 14062906 13911995 
3802.331 13717873 13502507 13289913 13103457 12958769 12863858 12818222 
3805.706 12814511 12840661 12886011 12943580 13010698 13092336 13194474 
3809.081 13320816 13468196 13624915 13772905 13891913 13967403 13995538 
3812.456 13986606 13962640 13951155 13976366 14052056 14175951 14331507 
3815.832 14491837 14629642 14722585 14760682 14747231 14693575 14617439 
3819.207 14534014 14454655 14383323 14318745 14255809 14187882 14112147 
3822.582 14027073 13936492 13846273 13763829 13696828 13651917 13631915 
3825.957 13638104 13667944 13717352 13780708 13851118 13922442 13988796 
3829.333 14045576 14091236 14125006 14151105 14173752 14199608 14232256 
3832.708 14271062 14311411 14343318 14354478 14336034 14285162 14209800 
3836.083 14125705 14057875 14029256 14056535 14142298 14275159 14430005 
3839.458 14573608 14675802 14713973 14679358 14576692 14422903 14240713 
3842.833 14053879 13882294 13739193 13630221 13553976 13504560 13472857 
3846.209 13448982 13425230 13397359 13366400 13341214 13333889 13359468 
3849.584 13429025 13547342 13706209 13888803 14070434 14226771 14339391 
3852.959 14402086 14421917 14415866 14405819 14409296 14435577 14485060 
3856.334 14549120 14618482 14682448 14733927 14767364 14777078 14758155 
3859.710 14702462 14604698 14466274 14296087 14114520 13948927 13827309 
3863.085 13769543 13782362 13855205 13963573 14073137 14150703 14173008 
3866.460 14131498 14033649 13902836 13767608 13660006 13604851 13615722 
3869.835 13692519 13818465 13968117 14109153 14211812 14254726 14229715 
3873.211 14143487 14014663 13871192 13742064 13652650 13619267 13647114 
3876.586 13731035 13856943 14004782 14152283 14278319 14366417 14409168 
3879.961 14407458 14372293 14322078 14275221 14246514 14242577 14259784 
3883.336 14287246 14313417 14331548 14341504 14353021 14377915 14423980 
3886.712 14489151 14558368 14607855 14613306 14560276 14449923 14301470 
3890.087 14148184 14026065 13961771 13965971 14028422 14125090 14225558 
3893.462 14307066 14358801 14386605 14408299 14444704 14510023 14605699 
3896.837 14716120 14814460 14869835 14857083 14766142 14606772 14406589 
3900.213 14204425 14040157 13943367 13926843 13983442 14089992 14215874 
3903.588 14330448 14412443 14452321 14451887 14420786 14370360 14309481 
3906.963 14246892 14186901 14136559 14102526 14091075 14104699 14139355 
3910.338 14183425 14221629 14239063 14229972 14199571 14164719 14147639 
3913.714 14167817 14232334 14332050 14442655 14532230 14570266 14538556 
3917.089 14433933 14271437 14075803 13876737 13700946 13568718 13492102 
3920.464 13475563 13517288 13610360 13740402 13890397 14037560 14160390 
3923.839 14242881 14277935 14269330 14231216 14181551 14138433 14113803 
3927.215 14110419 14123698 14144198 14160370 14164866 14152294 14124228 
3930.590 14083942 14039838 14002557 13984439 13997582 14051458 14146474 
3933.965 14273460 14412182 14533856 14609148 14614224 14541042 14397994 
3937.340 14210725 14015540 13849005 13740459 13703856 13735532 13817360 
3940.716 13922769 14022157 14091682 14118031 14099080 14044823 13973560 
3944.091 13907424 13866435 13862729 13899741 13968790 14053022 14131474 
3947.466 14187269 14211685 14208672 14191148 14179027 14190787 14237124 
3950.841 14316471 14416703 14518413 14601272 14652055 14668372 14658799 
3954.217 14639578 14629733 14643149 14684587 14747852 14818403 14878131 
3957.592 14909174 14903185 14860684 14792636 14717430 14655706 14623082 
3960.967 14628173 14669531 14737114 14816239 14893263 14957331 15005118 
3964.342 15038875 15061642 15076859 15084258 15078935 15055180 15010206 
3967.718 14946522 14873412 14807713 14764547 14754139 14777421 14822737 
3971.093 14869393 14894689 14880437 14819715 14720879 14605695 14501111 
3974.468 14436078 14430260 14489520 14605789 14757701 14916441 15051972 
3977.843 15140876 15167578 15129654 15034932 14900161 14745814 14591580 
3981.219 14453414 14341163 14258958 14207600 14186170 14195871 14239645 
3984.594 14318706 14430936 14567307 14708779 14829116 14901258 14905457 
3987.969 14835429 14703282 14540059 14387076 14287514 14273377 14358428 
3991.344 14530844 14762409 15012071 15239407 15413567 15521563 15567236 
3994.719 15569113 15552695 15541616 15552841 15590794 15649600 15716305 
3998.095 15775146 15813276 15826149 15815888 15792917 15770748 
##END=
