##TITLE=3D-Fillies_PETG_White_Filament_r1_ATR-Corrected
##JCAMP-DX=5.01  $$ Nicolet v. 1
##DATATYPE=INFRARED SPECTRUM
##ORIGIN=Curtin University
##OWNER=Nicolet
##LONGDATE=2024/07/18
##TIME=12:03:08
##SPECTROMETER/DATA SYSTEM=Nicolet iS50
##DATA PROCESSING=
Ratio against background
%Transmittance->Absorbance
ATR Correction
Truncated
ElementMultiply or ElementDivide
##COMMENTS=
Number of sample scans: 32
Collection length: 47.26 sec
Sample gain: 1.0
Background collected on: Thu Jul 18 12:01:47 2024 (GMT+08:00);
Number of background scans: 32
Background gain: 1.0
Sample spacing:  1.000
Number of scan points: 16672
Resolution points: 8192
Number of FFT points: 65536
Apodization: N-B strong;
Phase correction: Mertz;
Laser frequency: 15798.3 cm-1
Number of rejected sample scans: 0
Number of rejected background scans: 0
Bench serial number: AUP1200105;
##RESOLUTION=4.000
##XUNITS=1/CM
##YUNITS=ABSORBANCE
##FIRSTX=400.163452
##LASTX=4000.187744
##FIRSTY=0.034677
##MAXX=4000.187744
##MINX=400.163452
##MAXY=1.595361
##MINY=-0.026924
##XFACTOR=1.000000
##YFACTOR=1.000000E-008
##NPOINTS=7468
##DELTAX=0.482125
##ZPD=8192
##XYDATA=(X++(Y..Y))
400.163 3467684 3448165 3406647 3354685 3308031 3280181 3278008 3300156 
404.020 3338603 3382611 3422974 3454592 3476984 3492340 3503048 3509792 
407.877 3511203 3505060 3490452 3469183 3446341 3428912 3423627 3434522 
411.734 3461512 3500142 3542858 3581115 3607537 3617671 3610893 3590214 
415.591 3561500 3531820 3507831 3493986 3491507 3498027 3508374 3516376 
419.448 3516968 3508273 3492531 3475619 3465373 3469002 3490579 3529560 
423.305 3580620 3635320 3684710 3722177 3745351 3756481 3761090 3765639 
427.162 3774954 3790467 3809968 3828670 3841297 3844231 3836897 3821806 
431.019 3803574 3787049 3775676 3770365 3770184 3772810 3775930 3778248 
434.876 3779453 3779668 3778481 3774121 3763620 3743730 3712510 3670743 
438.733 3622449 3574085 3532658 3503402 3487901 3483526 3484468 3484046 
442.590 3477376 3463405 3445403 3429854 3423998 3433169 3458838 3498106 
446.447 3544710 3591034 3630402 3658755 3675318 3682008 3682141 3678828 
450.304 3673756 3666708 3655921 3638997 3614112 3580975 3541398 3499201 
454.161 3459382 3427012 3405946 3397669 3400932 3411926 3425331 3435867 
458.017 3439821 3436137 3426620 3415181 3406426 3404147 3410159 3423955 
461.874 3443157 3464573 3485386 3503875 3519886 3534178 3547745 3561073 
465.731 3573850 3585011 3593384 3598200 3599736 3599222 3598607 3599996 
469.588 3605013 3614434 3628125 3645249 3664592 3684938 3705305 3725034 
473.445 3743757 3761272 3777476 3792318 3805757 3817860 3828840 3839103 
477.302 3849350 3860494 3873672 3890025 3910597 3936042 3966540 4001735 
481.159 4040729 4082322 4125213 4168240 4210509 4251496 4290930 4328814 
485.016 4365342 4400907 4436191 4472191 4510294 4552068 4598994 4652155 
488.873 4711835 4777321 4846964 4918598 4990054 5059978 5128319 5196619 
492.730 5267779 5345345 5432562 5531355 5641704 5761365 5886261 6011306 
496.587 6131311 6241866 6339814 6423156 6490656 6541195 6573350 6585267 
500.444 6574987 6541066 6483229 6402752 6302507 6186547 6059462 5925748 
504.301 5789313 5653244 5519863 5390813 5267194 5149587 5038041 4932091 
508.158 4830885 4733439 4638979 4547257 4458689 4374289 4295387 4223227 
512.015 4158608 4101707 4052123 4009057 3971652 3939122 3910831 3886228 
515.871 3864663 3845284 3827079 3809066 3790595 3771528 3752368 3734080 
519.728 3717734 3704102 3693234 3684358 3675878 3665812 3652201 3633643 
523.585 3609616 3580624 3548088 3513992 3480469 3449331 3421733 3397958 
527.442 3377453 3359014 3341198 3322651 3302539 3280711 3257697 3234544 
531.299 3212450 3192361 3174727 3159332 3145397 3131856 3117669 3102169 
535.156 3085248 3067378 3049496 3032700 3017962 3005886 2996575 2989588 
539.013 2984085 2978997 2973235 2965911 2956444 2944593 2930472 2914515 
542.870 2897344 2879764 2862723 2847152 2833897 2823486 2815945 2810609 
546.727 2806101 2800523 2791866 2778515 2759791 2736163 2709235 2681305 
550.584 2654680 2631080 2611154 2594429 2579629 2565181 2549824 2532881 
554.441 2514375 2494696 2474307 2453330 2431373 2407754 2381711 2352736 
558.298 2320809 2286403 2250480 2214276 2179231 2146816 2118468 2095400 
562.155 2078366 2067336 2061340 2058457 2056250 2052231 2044608 2032746 
566.012 2017270 1999805 1982340 1966631 1953682 1943721 1936414 1931284 
569.869 1928030 1926636 1927169 1929464 1932853 1936175 1938022 1937239 
573.725 1933337 1926665 1918244 1909297 1900834 1893214 1886258 1879476 
577.582 1872456 1865182 1858052 1851596 1846161 1841606 1837335 1832648 
581.439 1827205 1821441 1816665 1814699 1817276 1825378 1838785 1856134 
585.296 1875380 1894468 1912111 1928085 1943271 1959189 1977538 1999644 
589.153 2026270 2057645 2093741 2134441 2179785 2229826 2284521 2343575 
593.010 2406391 2472122 2539939 2609081 2678988 2749025 2818187 2884734 
596.867 2945999 2998432 3038031 3061041 3064671 3047712 3010826 2956369 
600.724 2887940 2809666 2725570 2639101 2552907 2468977 2388829 2313749 
604.581 2244986 2183699 2130882 2087156 2052715 2027250 2010012 1999993 
608.438 1995993 1996685 2000578 2006014 2011259 2014597 2014707 2010963 
612.295 2003730 1994388 1985212 1978840 1977753 1983676 1997165 2017453 
616.152 2042585 2069824 2096141 2118804 2135882 2146537 2151137 2151131 
620.009 2148710 2146313 2146239 2150177 2159131 2173360 2192617 2216358 
623.866 2243950 2274810 2308530 2345020 2384808 2429489 2482024 2546746 
627.723 2628772 2732715 2860885 3011361 3176714 3343869 3495618 3613584 
631.579 3682116 3691968 3642617 3542463 3406814 3254350 3103219 2967811 
635.436 2857069 2774279 2718189 2684694 2668646 2665094 2670031 2680487 
639.293 2694361 2710154 2726809 2743652 2760408 2777157 2794228 2812045 
643.150 2830938 2851034 2872235 2894220 2916468 2938242 2958589 2976339 
647.007 2990281 2999287 3002699 3000487 2993401 2982891 2970877 2959411 
650.864 2950335 2945055 2944424 2948720 2957710 2970778 2986992 3005318 
654.721 3024790 3044689 3064753 3085140 3106383 3129068 3153485 3179418 
658.578 3206054 3232155 3256440 3277978 3296500 3312458 3326900 3341117 
662.435 3356294 3373309 3392629 3414419 3438604 3465011 3493325 3523089 
666.292 3553681 3584453 3614944 3645139 3675680 3707784 3743090 3783132 
670.149 3828970 3880858 3938233 3999985 4064878 4132012 4201168 4272839 
674.006 4348153 4428465 4515006 4608546 4709055 4815602 4926321 5038446 
677.863 5148535 5252779 5347477 5429445 5496466 5547456 5582541 5602844 
681.720 5610253 5607131 5596237 5580546 5563263 5547688 5536980 5533844 
685.577 5540229 5557048 5584221 5620730 5665053 5715410 5770212 5828275 
689.433 5889075 5952849 6020680 6094423 6176475 6269327 6374993 6494463 
693.290 6627401 6772255 6926831 7089137 7258340 7435262 7622447 7823502 
697.147 8042206 8281395 8542474 8825152 9127907 9448574 9784841 10134479 
701.004 10495117 10863856 11236986 11610030 11978289 12337570 12684941 
704.379 13019156 13340504 13650270 13950126 14241615 14526045 14804772 
707.754 15079650 15353289 15629172 15911476 16204806 16514215 16845678 
711.129 17206630 17606772 18058542 18577128 19179910 19885694 20713816 
714.504 21683646 22814248 24124462 25632840 27357226 29313928 31516388 
717.878 33973684 36689128 39658980 42871696 46306564 49931636 53699320 
721.253 57539420 61349404 64984132 68251080 70919360 72751752 73560072 
724.628 73263320 71917648 69697336 66840308 63589048 60151236 56683920 
728.003 53294528 50049324 46983712 44111464 41431968 38935528 36607076 
731.378 34428592 32381008 30445242 28603380 26839506 25140480 23496378 
734.752 21900814 20350720 18846000 17389034 15984163 14637257 13355224 
738.127 12145534 11015522 9971585 9018301 8157728 7388901 6707907 6108429 
741.984 5582547 5121857 4718382 4365180 4056510 3787592 3554160 3352126 
745.841 3177363 3025836 2893876 2778463 2677318 2588782 2511539 2444245 
749.698 2385367 2333202 2286077 2242653 2202061 2163972 2128366 2095312 
753.555 2064730 2036353 2009894 1985210 1962535 1942462 1925795 1913268 
757.412 1905194 1901312 1900812 1902551 1905386 1908508 1911614 1914955 
761.269 1919208 1925257 1933983 1946102 1962055 1982037 2005990 2033720 
765.126 2064921 2099236 2136324 2175849 2217518 2261060 2306268 2352952 
768.983 2400959 2450118 2500216 2550865 2601498 2651309 2699274 2744425 
772.840 2785941 2823421 2856986 2887327 2915450 2942501 2969418 2996792 
776.697 3024809 3053382 3082409 3111976 3142520 3174860 3210131 3249625 
780.554 3294734 3346806 3407092 3476775 3556830 3648011 3750783 3865288 
784.410 3991399 4128858 4277405 4436945 4607614 4789769 4983914 5190557 
788.267 5409939 5641781 5884892 6136608 6392358 6645223 6885753 7102272 
792.124 7281676 7410747 7477832 7474584 7397438 7248565 7035956 6772859 
795.981 6476320 6165367 5858924 5573886 5323541 5116630 4957119 4844507 
799.838 4774829 4741827 4738175 4756508 4790048 4832930 4880196 4927814 
803.695 4972610 5012298 5045579 5072099 5092318 5107234 5118064 5126027 
807.552 5132202 5137582 5143135 5149827 5158496 5169640 5183172 5198365 
811.409 5213945 5228415 5240468 5249334 5254909 5257675 5258490 5258292 
815.266 5257966 5258335 5260142 5264112 5270773 5280277 5292127 5305151 
819.123 5317653 5327982 5335012 5338745 5340400 5342217 5346786 5356368 
822.980 5372250 5394565 5422418 5454376 5489018 5525436 5563341 5603061 
826.837 5645292 5690783 5740118 5793616 5851235 5912623 5977215 6044275 
830.694 6113126 6183282 6254662 6327617 6402849 6481196 6563297 6649421 
834.551 6739235 6831952 6926509 7021779 7116720 7210414 7301967 7390552 
838.408 7475317 7555710 7631572 7703383 7772105 7838937 7904815 7970087 
842.264 8034249 8096201 8154545 8208243 8256836 8300604 8340307 8376659 
846.121 8409980 8439972 8465850 8486799 8502347 8512800 8519214 8523244 
849.978 8526680 8531079 8537440 8546189 8557211 8570134 8584551 8600179 
853.835 8617064 8635618 8656672 8681415 8711313 8747932 8792707 8846875 
857.692 8911365 8986939 9074321 9174450 9288469 9417746 9563666 9727481 
861.549 9910188 10112741 10336252 10582414 10853796 11153927 11487143 
864.924 11858198 12271757 12731923 13241683 13802430 14413415 15071076 
868.299 15768337 16494031 17232608 17964468 18666768 19314918 19884384 
871.674 20352610 20700804 20915304 20988458 20919032 20711962 20377834 
875.048 19931752 19392090 18778918 18112430 17411466 16692488 15968867 
878.423 15250912 14546315 13860960 13199782 12567508 11968915 11408810 
881.798 10891459 10420021 9995917 9618484 9285058 8991469 8732826 8504447 
885.655 8302617 8124992 7970482 7838790 7729641 7642150 7574371 7523404 
889.512 7485771 7458071 7437552 7422402 7411732 7405184 7402508 7403215 
893.369 7406399 7410931 7415721 7420009 7423490 7426249 7428411 7429875 
897.226 7430007 7427554 7420796 7407729 7386402 7355051 7312287 7257006 
901.083 7188381 7105866 7009195 6898571 6774795 6639449 6494923 6344349 
904.940 6191350 6039688 5892854 5753718 5624165 5505058 5396273 5296980 
908.797 5206032 5122386 5045408 4975058 4911841 4856524 4809892 4772410 
912.654 4743996 4723980 4711206 4704297 4701832 4702709 4706235 4712185 
916.510 4720713 4732205 4747058 4765513 4787650 4813357 4842459 4874877 
920.367 4910608 4949743 4992239 5037749 5085516 5134344 5182794 5229505 
924.224 5273482 5314366 5352416 5388376 5423162 5457605 5492261 5527402 
928.081 5563127 5599448 5636412 5674046 5712276 5750821 5789259 5827139 
931.938 5864249 5900841 5937737 5976261 6018038 6064668 6117456 6177295 
935.795 6244647 6319703 6402534 6493175 6591721 6698294 6813077 6936293 
939.652 7068301 7209555 7360577 7521770 7693276 7874752 8065353 8263824 
943.509 8468682 8678448 8891799 9107475 9324227 9540551 9754672 9964664 
947.366 10168719 10365595 10554947 10737552 10915181 11090310 11265674 
950.741 11443733 11626289 11814173 12007075 12203456 12400576 12594528 
954.116 12780493 12952982 13106202 13234514 13332801 13396934 13424113 
957.490 13413163 13364878 13282259 13170461 13036694 12889627 12738760 
960.865 12593397 12461891 12350831 12264652 12205520 12173538 12167060 
964.240 12183091 12217752 12266612 12325041 12388518 12452891 12514548 
967.615 12570408 12617816 12654397 12677929 12686345 12677924 12651484 
970.990 12606606 12543648 12463592 12367727 12257246 12133134 11996105 
974.364 11846882 11686506 11516590 11339461 11157958 10975241 10794442 
977.739 10618559 10450273 10292027 10145987 10013836 9896527 9794040 9705253 
981.596 9628090 9560028 9498706 9442497 9390768 9343810 9302284 9266608 
985.453 9236432 9210404 9186438 9162140 9135493 9105277 9071204 9033909 
989.310 8994690 8955197 8917265 8882739 8853567 8831616 8818607 8815914 
993.167 8824424 8844426 8875749 8917862 8970111 9031904 9102728 9182173 
997.024 9269931 9365822 9469964 9582858 9705487 9839190 9985483 10145705 
1000.881 10320818 10511345 10717542 10939747 11178861 11436597 11715603 
1004.256 12019295 12351601 12716705 13118866 13562508 14052424 14594075 
1007.630 15193936 15859866 16601390 17430100 18359980 19407414 20590914 
1011.005 21929862 23442324 25141684 27032196 29103756 31326476 33645664 
1014.380 35978904 38216264 40225996 41866936 43006920 43544364 43426888 
1017.755 42660796 41308260 39473912 37285788 34876932 32371166 29874304 
1021.130 27470368 25221186 23168152 21335002 19731114 18354478 17194716 
1024.505 16235532 15457039 14837439 14354643 13987310 13715778 13522507 
1027.880 13392358 13312535 13272449 13263354 13278076 13310766 13356769 
1031.255 13412648 13476147 13546164 13622594 13705945 13796946 13896200 
1034.630 14003880 14119655 14242879 14372729 14508414 14649121 14793883 
1038.006 14941324 15089372 15235262 15375605 15506831 15625638 15729420 
1041.381 15816468 15886010 15938020 15972832 15990919 15992671 15978375 
1044.756 15948337 15902954 15843040 15769781 15684946 15590793 15490004 
1048.131 15385465 15280102 15176548 15077063 14983280 14896426 14817397 
1051.507 14747109 14686704 14637749 14602128 14581873 14578858 14594498 
1054.882 14629632 14684527 14759110 14853217 14966771 15099923 15252951 
1058.257 15426175 15619723 15833536 16067290 16320480 16592476 16882742 
1061.632 17190694 17515916 17858108 18217250 18593606 18987774 19400604 
1065.008 19833064 20286012 20760164 21256002 21773946 22314618 22879098 
1068.383 23469136 24087128 24736110 25419434 26140710 26903596 27711854 
1071.758 28569352 29480034 30447832 31476424 32568916 33727448 34953012 
1075.133 36245252 37602384 39021316 40497664 42025692 43598328 45207076 
1078.509 46842048 48491900 50144196 51785780 53403576 54985368 56521004 
1081.884 58003096 59427720 60794364 62105596 63366260 64582568 65761388 
1085.259 66909592 68033688 69139608 70232592 71316984 72396240 73472688 
1088.634 74547448 75620112 76688376 77747456 78789672 79804240 80777592 
1092.010 81694240 82538120 83293944 83948312 84489904 84909080 85197224 
1095.385 85345968 85347264 85194096 84881432 84407320 83773296 82984192 
1098.760 82047368 80971784 79767320 78444344 77013568 75485960 73872632 
1102.135 72185040 70435240 68636664 66805016 64959096 63121124 61316252 
1105.510 59571476 57914056 56370032 54963136 53714092 52640204 51755060 
1108.886 51067960 50583052 50298236 50204276 50284116 50513148 50860168 
1112.261 51289172 51761656 52239172 52685408 53068052 53359996 53540088 
1115.636 53593516 53512000 53293448 52941300 52463388 51870388 51174344 
1119.011 50387556 49521828 48588388 47598108 46561868 45490632 44395356 
1122.387 43286688 42174484 41067464 39972912 38896792 37843724 36817268 
1125.762 35819944 34853392 33918364 33014702 32141390 31296644 30478146 
1129.137 29683346 28909788 28155416 27418750 26698846 25995272 25307772 
1132.512 24636136 23980052 23339122 22712968 22101442 21504686 20923106 
1135.888 20357304 19807812 19274950 18758736 18258948 17775254 17307376 
1139.263 16855180 16418631 15997696 15592109 15201393 14824794 14461517 
1142.638 14110959 13772947 13447785 13136216 12839149 12557368 12291238 
1146.013 12040516 11804391 11581638 11370776 11170273 10978715 10794813 
1149.389 10617293 10444976 10276593 10110884 9946689 9782996 9619127 9454794 
1153.246 9290175 9125803 8962531 8801390 8643419 8489612 8340854 8197935 
1157.104 8061577 7932516 7811545 7699456 7597040 7504943 7423625 7353357 
1160.961 7294226 7246302 7209790 7185220 7173523 7176102 7194777 7231740 
1164.818 7289348 7370025 7475970 7608833 7769285 7956572 8168107 8399201 
1168.676 8643222 8891980 9136423 9367617 9577516 9759617 9909128 10022859 
1172.533 10098943 10136350 10134800 10094735 10017505 9905567 9762538 
1175.908 9593015 9402104 9194945 8976211 8749902 8519338 8287395 8056877 
1179.766 7830729 7612071 7404137 7209898 7031843 6871740 6730728 6609420 
1183.623 6508115 6427031 6366336 6326123 6306230 6306135 6324897 6361210 
1187.481 6413565 6480433 6560451 6652539 6755832 6869647 6993317 7126050 
1191.338 7266800 7414286 7567056 7723596 7882659 8043398 8205597 8369560 
1195.196 8536047 8706037 8880305 9059384 9243332 9432010 9625250 9823146 
1199.053 10026160 10235198 10451313 10675463 10908314 11150035 11400403 
1202.428 11658964 11925292 12199131 12480504 12769611 13066861 13372640 
1205.803 13687453 14011884 14346783 14693253 15052620 15426302 15815620 
1209.179 16221628 16645072 17086420 17546072 18024476 18522378 19040740 
1212.554 19580766 20143736 20730830 21343036 21981010 22645012 23334842 
1215.929 24049608 24787582 25545896 26320424 27105832 27895936 28684344 
1219.304 29465464 30235546 30993662 31742298 32487434 33238130 34005640 
1222.680 34802364 35640948 36533400 37490644 38522232 39636128 40838596 
1226.055 42134196 43525720 45014500 46600700 48283888 50063436 51938868 
1229.430 53909780 55975540 58134748 60384900 62722228 65141864 67637960 
1232.805 70203856 72831664 75511488 78230448 80971928 83715408 86437192 
1236.181 89111576 91712128 94212728 96587648 98811728 100860464 102710952 
1239.556 104343688 105744696 106906632 107828880 108516064 108975736 
1242.449 109216688 109248568 109082592 108733248 108219384 107564064 
1245.342 106793192 105932784 105006960 104036224 103037104 102022744 
1248.235 101003912 99990328 98991528 98017504 97078952 96187072 95353184 
1251.610 94587872 93899744 93294376 92773464 92334744 91972280 91677584 
1254.986 91440520 91250088 91094312 90959848 90831416 90691584 90521512 
1258.361 90302440 90017376 89652808 89199256 88651128 88005648 87261976 
1261.736 86420896 85485120 84460112 83354600 82180504 80952008 79683944 
1265.111 78390304 77083104 75772192 74465432 73169336 71889432 70630648 
1268.487 69397048 68191752 67016740 65872844 64759852 63676644 62621228 
1271.862 61590844 60582048 59591048 58614264 57648928 56693500 55747724 
1275.237 54812412 53888624 52976896 52076816 51186788 50304360 49426924 
1278.612 48552208 47678764 46806116 45934652 45065412 44199996 43340440 
1281.988 42489180 41648944 40822524 40012464 39220776 38448780 37697184 
1285.363 36966296 36256304 35567468 34900068 34254224 33629592 33025158 
1288.738 32439238 31869564 31313464 30768066 30230254 29696608 29163254 
1292.113 28625866 28080008 27521616 26947740 26357126 25750518 25130684 
1295.489 24501946 23869576 23239126 22616014 22005178 21410992 20837294 
1298.864 20287388 19764038 19269430 18804876 18370812 17966522 17590118 
1302.239 17238550 16907724 16592818 16288748 15990661 15694606 15397893 
1305.614 15099384 14799401 14499396 14201425 13907720 13620320 13341017 
1308.990 13071471 12813382 12568578 12338925 12125979 11930537 11752222 
1312.365 11589254 11438598 11296427 11158658 11021593 10882277 10738702 
1315.740 10589609 10434387 10272749 10104743 9930695 9751277 9567544 9380879 
1319.597 9192791 9004758 8817963 8633258 8451206 8272283 8097031 7926236 
1323.455 7761083 7603086 7454097 7316255 7191872 7083457 6993608 6925038 
1327.312 6880454 6862683 6874637 6919446 7000527 7121566 7286302 7498119 
1331.170 7759385 8070824 8430868 8835305 9277164 9746868 10232551 10720492 
1335.027 11195792 11643092 12047424 12395386 12675990 12881529 13007884 
1338.402 13054429 13023670 12920521 12751707 12525223 12249804 11934644 
1341.778 11589039 11222059 10842189 10457027 10073058 9695533 9328593 
1345.153 8975384 8638343 8319322 8019661 7740226 7481286 7242591 7023457 
1349.010 6823002 6640403 6475090 6326735 6195188 6080138 5980928 5896389 
1352.868 5824878 5764479 5713352 5669962 5633294 5602953 5578979 5561818 
1356.725 5552102 5550547 5557827 5574494 5601100 5638125 5686227 5746438 
1360.583 5820276 5909855 6017664 6146232 6297562 6472505 6670327 6888585 
1364.440 7123216 7369049 7620337 7871329 8116697 8351753 8572612 8776078 
1368.297 8959717 9121769 9261114 9377321 9470521 9541441 9591223 9621383 
1372.155 9633609 9629605 9610961 9579001 9534719 9478719 9411287 9332597 
1376.012 9242909 9142932 9034105 8918724 8799905 8681317 8566801 8459879 
1379.870 8363308 8278954 8207828 8150346 8106625 8076823 8061162 8059963 
1383.727 8073265 8100665 8141097 8192823 8253525 8320678 8391817 8464794 
1387.584 8537900 8609865 8679644 8746372 8809267 8867737 8921591 8971197 
1391.442 9017641 9062639 9108446 9157518 9212397 9275523 9349325 9436347 
1395.299 9539524 9662174 9808115 9981474 10186495 10427394 10708265 11033079 
1399.157 11405937 11831277 12314113 12860140 13475594 14166817 14939450 
1402.532 15797202 16740172 17762984 18852738 19987422 21134942 22253344 
1405.907 23292660 24198266 24915672 25396028 25601556 25510172 25118038 
1409.282 24440232 23508896 22369448 21075540 19683566 18247632 16815744 
1412.658 15427236 14111912 12890047 11773451 10766784 9869117 9075433 
1416.033 8378028 7767616 7234438 6768918 6362328 6007107 5696919 5426553 
1419.890 5191581 4988146 4812651 4661751 4532440 4422222 4329222 4252168 
1423.748 4190318 4143161 4110205 4090934 4084784 4091355 4110586 4142805 
1427.605 4188688 4248992 4324218 4414477 4519195 4637284 4767247 4907377 
1431.463 5055873 5211074 5371529 5536087 5704013 5875022 6049099 6226300 
1435.320 6406415 6588685 6771654 6953338 7131577 7304583 7471312 7631841 
1439.177 7787341 7939884 8092307 8247897 8410249 8583044 8769833 8973712 
1443.035 9196935 9440573 9704302 9986396 10283981 10593447 10910691 11231386 
1446.892 11550888 11864052 12165131 12447684 12704761 12929319 13114513 
1450.268 13254246 13343541 13379093 13359699 13286772 13164325 12998748 
1453.643 12798044 12571020 12326308 12071865 11814573 11560245 11313531 
1457.018 11077798 10855087 10645998 10449802 10264855 10088948 9919958 
1460.393 9756247 9596752 9440964 9288522 9138925 8991293 8844263 8696352 
1464.251 8546318 8393451 8237859 8080356 7922266 7764996 7609818 7457675 
1468.108 7309204 7164724 7024459 6888491 6756802 6629252 6505598 6385466 
1471.966 6268456 6154111 6041868 5931029 5820593 5709366 5596031 5479474 
1475.823 5359038 5234790 5107517 4978557 4849343 4720975 4593938 4467951 
1479.680 4342327 4216233 4089183 3961274 3833227 3706187 3581438 3460114 
1483.538 3343075 3230910 3124034 3022805 2927615 2838823 2756702 2681367 
1487.395 2612819 2551003 2495958 2447820 2406898 2373437 2347554 2329120 
1491.253 2317776 2313147 2315032 2323710 2339964 2365080 2400577 2448003 
1495.110 2508791 2584193 2675557 2784640 2914185 3068230 3252402 3473796 
1498.968 3740221 4059046 4435398 4870010 5357090 5882830 6424936 6953665 
1502.825 7434483 7831863 8113941 8257013 8249239 8092670 7803020 7407112 
1506.682 6938416 6431937 5919384 5426116 4969699 4560257 4201817 3893877 
1510.540 3633018 3414111 3231369 3079030 2951945 2845894 2757695 2685030 
1514.397 2626128 2579409 2543287 2516038 2495868 2481108 2470434 2462919 
1518.255 2458061 2455692 2455866 2458725 2464472 2473262 2485129 2499942 
1522.112 2517230 2536220 2555767 2574549 2591231 2604612 2613866 2618657 
1525.969 2619069 2615567 2608815 2599433 2587903 2574420 2558905 2541024 
1529.827 2520400 2496657 2469566 2439199 2405876 2370292 2333353 2296175 
1533.684 2259846 2225402 2193613 2164971 2139619 2117449 2098115 2081122 
1537.542 2065941 2052063 2039035 2026575 2014535 2002867 1991620 1980883 
1541.399 1970767 1961393 1952898 1945514 1939490 1935068 1932449 1931730 
1545.257 1932865 1935714 1940109 1945889 1952981 1961297 1970745 1981108 
1549.114 1992060 2003147 2014030 2024477 2034528 2044518 2054955 2066354 
1552.971 2079078 2093213 2108506 2124365 2140082 2154902 2168281 2179885 
1556.829 2189825 2198552 2206794 2215527 2225632 2237773 2252210 2268754 
1560.686 2286921 2306173 2326186 2346984 2369026 2393021 2419754 2449838 
1564.544 2483696 2521518 2563547 2610193 2662257 2720855 2787191 2862381 
1568.401 2947123 3041662 3145986 3260014 3383960 3518537 3664879 3824397 
1572.259 3998243 4186919 4389822 4604823 4828057 5053718 5274237 5480548 
1576.116 5662793 5811284 5917479 5974872 5979534 5930417 5829243 5680502 
1579.973 5491087 5269815 5026700 4772082 4515679 4265696 4028408 3808156 
1583.831 3607541 3427877 3269634 3132654 3016276 2919270 2839819 2775510 
1587.688 2723562 2681042 2645305 2614258 2586540 2561524 2539110 2519444 
1591.546 2502703 2488865 2477669 2468769 2461726 2456265 2452279 2449867 
1595.403 2449320 2451025 2455459 2463108 2474353 2489481 2508579 2531517 
1599.260 2557999 2587631 2620067 2655138 2692915 2733658 2777792 2825711 
1603.118 2877627 2933627 2993562 3057181 3124202 3194418 3267588 3343489 
1606.975 3421865 3502339 3584509 3667879 3751884 3835813 3918738 3999367 
1610.833 4076005 4146503 4208553 4259741 4297828 4320901 4327521 4316806 
1614.690 4288566 4243485 4183262 4110673 4029370 3943534 3857352 3774446 
1618.548 3697541 3628393 3567942 3516537 3474197 3440724 3415734 3398544 
1622.405 3388114 3383152 3382120 3383610 3386449 3389934 3393788 3398101 
1626.262 3403141 3409172 3416321 3424472 3433312 3442447 3451457 3460059 
1630.120 3468144 3475899 3483637 3491844 3500932 3511161 3522598 3535026 
1633.977 3548151 3561593 3575124 3588608 3601970 3615170 3628100 3640554 
1637.835 3652290 3663292 3673757 3684195 3695292 3707719 3721878 3737795 
1641.692 3755124 3773308 3791839 3810454 3829118 3848067 3867526 3887725 
1645.550 3908729 3930579 3953405 3977480 4003145 4030710 4060267 4091568 
1649.407 4124185 4157611 4191638 4226459 4262721 4301357 4343215 4388798 
1653.264 4438124 4490869 4546642 4605269 4666973 4732265 4801794 4876131 
1657.122 4955703 5040847 5132048 5229973 5335499 5449521 5572577 5704669 
1660.979 5845229 5993310 6148016 6308839 6475867 6649468 6830083 7017657 
1664.837 7211458 7410106 7611991 7815682 8020288 8225577 8431841 8639506 
1668.694 8849000 9060509 9274152 9489995 9708223 9929059 10152663 10379057 
1672.552 10608195 10840099 11075120 11314055 11558022 11808019 12064522 
1675.927 12327120 12594561 12865224 13137603 13410982 13685513 13961855 
1679.302 14240749 14522396 14806229 15091309 15376821 15662839 15950543 
1682.677 16242117 16539958 16845996 17161090 17484996 17817072 18157258 
1686.052 18506816 18868616 19246906 19646472 20072000 20527512 21016280 
1689.428 21540920 22103636 22706396 23350958 24038966 24772520 25554854 
1692.803 26391342 27289960 28260986 29315582 30463624 31711724 33062336 
1696.178 34515032 36069684 37730320 39507932 41420980 43492748 45746816 
1699.553 48201984 50868904 53750028 56843288 60147728 63668604 67418920 
1702.929 71416872 75680008 80218776 85031720 90104424 95411416 100919424 
1706.304 106589104 112373160 118211816 124027976 129726112 135197184 
1709.197 140328496 145014112 149161152 152690928 155536448 157643616 
1712.090 158978112 159536080 159351344 158491920 157045968 155103072 
1714.983 152740352 150018544 146988288 143699872 140210848 136585760 
1717.876 132889440 129177664 125490296 121850072 118266472 114742376 
1720.769 111279688 107882320 104555800 101305208 98133352 95039760 92022112 
1724.145 89077952 86206464 83408664 80686504 78041128 75471520 72974072 
1727.520 70543816 68175784 65866684 63615508 61422868 59289412 57214284 
1730.895 55193992 53222488 51292336 49396508 47530224 45692004 43883692 
1734.270 42109360 40373472 38679112 37026824 35414496 33838240 32293662 
1737.646 30777344 29287884 27826136 26395202 24999590 23644472 22334946 
1741.021 21075696 19870766 18723640 17636986 16612636 15651175 14751971 
1744.396 13913178 13132204 12406157 11732248 11107974 10531065 9999280 
1747.771 9510262 9061273 8649392 8271410 7924211 7604718 7310112 7037849 
1751.629 6785901 6552613 6336825 6137641 5954084 5784756 5627795 5480842 
1755.486 5341626 5208441 5080719 4959015 4844825 4739675 4644521 4558975 
1759.344 4481452 4409515 4340688 4273176 4206354 4140602 4076874 4016082 
1763.201 3958647 3904342 3852482 3802368 3753537 3705872 3659347 3613910 
1767.058 3569090 3524218 3478600 3431986 3384757 3338009 3293205 3251781 
1770.916 3214720 3182244 3153979 3129072 3106632 3085891 3066325 3047530 
1774.773 3029072 3010370 2990946 2970264 2948272 2925162 2901490 2877922 
1778.631 2855064 2833357 2813013 2794223 2777055 2761684 2748113 2736133 
1782.488 2725126 2714202 2702305 2688525 2672439 2654065 2633990 2612998 
1786.345 2591841 2570867 2550170 2529424 2508324 2486642 2464417 2441942 
1790.203 2419675 2398069 2377553 2358365 2340738 2324837 2310786 2298565 
1794.060 2288152 2279258 2271530 2264466 2257705 2250885 2243946 2236900 
1797.918 2229954 2223336 2217174 2211531 2206296 2201187 2195861 2189875 
1801.775 2182917 2174715 2165281 2154731 2143397 2131591 2119665 2107826 
1805.633 2096375 2085559 2075826 2067774 2062041 2059135 2059315 2062288 
1809.490 2067417 2073645 2079790 2084755 2087720 2088016 2085366 2079642 
1813.347 2071004 2059919 2047312 2034392 2022590 2013116 2006731 2003306 
1817.205 2001966 2001317 2000100 1997651 1994330 1991248 1989963 1991573 
1821.062 1996326 2003373 2011042 2017391 2020898 2020807 2017188 2010615 
1824.920 2001727 1990918 1978275 1963754 1947590 1930316 1912907 1896262 
1828.777 1880778 1866040 1850805 1833531 1812974 1788857 1762326 1735574 
1832.635 1711304 1691855 1678413 1670662 1666962 1664854 1661870 1656083 
1836.492 1646591 1633485 1617549 1599867 1581471 1562884 1544123 1524568 
1840.349 1503211 1478799 1450573 1418404 1383480 1348087 1315566 1289249 
1844.207 1271562 1263164 1262414 1265769 1268691 1266940 1257815 1240765 
1848.064 1217443 1190852 1164431 1140863 1121591 1106727 1095520 1086826 
1851.922 1079702 1073272 1066738 1059132 1049252 1035838 1018250 996716 
1855.779 972763 948810 927510 910871 899648 893003 889187 886136 882609 
1860.119 878713 875869 876220 881654 892823 908579 926027 941263 950429 
1864.458 950850 941812 924924 903661 882699 866621 858797 860501 870333 
1868.798 884572 898050 905367 902448 887785 862833 831692 800046 773551 
1873.137 756622 751228 756974 771426 791213 812954 833984 852448 867336 
1877.477 877864 883461 883618 878289 867802 853226 835913 817293 798390 
1881.817 779846 761984 745470 731198 720718 715713 717490 726042 739970 
1886.156 756494 772347 784557 791615 793535 791886 788885 786507 785715 
1890.496 786327 787014 786234 782561 775532 765461 753626 741667 731387 
1894.835 724207 721059 722022 726408 732787 739361 744472 747231 747999 
1899.175 748354 750640 757177 768918 784920 801995 815563 820640 813786 
1903.515 793913 763107 725958 688570 656819 635143 625527 627474 638383 
1907.854 654477 671615 685928 694368 695118 687513 672579 652724 631876 
1912.194 614602 605615 608437 624821 653540 690930 731294 768335 796378 
1916.533 812031 814672 806903 793196 779163 769464 767333 773491 787057 
1920.873 805817 827394 849760 871395 890980 907197 918373 922961 919936 
1925.213 909945 895042 878877 865184 856762 853879 854538 854758 850665 
1929.552 840042 823724 805451 790997 785665 792717 812068 840786 873975 
1933.892 907019 936722 962384 984562 1004596 1022781 1037918 1047561 1048966 
1938.231 1040215 1021649 995743 967226 941500 923842 917576 923618 939859 
1942.571 961852 983465 999333 1005721 1003063 995304 989687 993690 1012679 
1946.911 1046316 1088380 1127674 1151730 1151191 1123596 1074253 1015196 
1950.768 959968 919702 898712 894280 898437 902668 901380 894692 886942 
1955.108 884562 891472 907510 927477 944345 952258 950124 942162 936934 
1959.447 942423 963268 996995 1035513 1066854 1079972 1066773 1024347 954026 
1963.787 860768 751216 634773 522461 427919 364788 344921 373149 445435 
1968.126 548001 660204 759425 827873 855564 842302 794832 723213 635385 
1972.466 536424 427956 312387 194899 86825 2545 -42334 -37162 20039 120348 
1977.288 246949 378545 497088 591879 662579 716463 766230 824537 901323 
1981.627 1000085 1117462 1242259 1357825 1445059 1487468 1475314 1409644 
1985.485 1302228 1174135 1049647 950908 890901 871228 881988 906731 927168 
1989.824 930178 909316 866786 809105 744205 677261 610516 543471 476319 
1994.164 412148 358677 325927 323537 355172 416714 494020 566668 612514 
1998.504 614282 564125 466491 335993 193990 61994 -42581 -110715 -141063 
2002.843 -139023 -112658 -69994 -16248 45485 114835 190708 272377 356866 
2007.183 441277 522451 599096 669514 732363 784342 820772 835455 823608 
2011.522 782909 716768 633261 545579 467641 411005 380430 372335 373973 
2015.862 367006 330962 250145 117741 -59967 -264980 -469798 -645313 -767542 
2020.202 -824590 -818558 -765775 -689318 -613084 -553403 -515653 -493264 
2024.059 -474147 -445574 -402586 -349804 -301903 -277160 -291873 -352700 
2027.917 -454813 -581108 -708503 -813067 -877368 -894059 -867278 -808665 
2031.774 -734886 -661811 -601565 -559773 -536776 -526748 -521940 -513698 
2035.631 -496605 -468060 -430004 -386175 -341194 -297441 -255052 -210918 
2039.489 -161467 -103843 -39236 28270 90334 139041 167530 173456 158358 
2043.828 127901 88977 48812 13621 -10898 -19062 -4299 39424 116151 223276 
2048.650 351030 480938 590764 659635 674760 634221 548387 436451 322829 
2052.990 231147 179347 175257 215103 284343 362449 428613 468046 474821 
2057.329 453335 415732 378764 358052 365246 404584 473240 562597 661435 
2061.669 758416 844531 913404 962130 989374 996119 984102 956943 919526 
2066.009 878290 839363 808173 787234 776512 773333 774475 777546 782542 
2070.348 791346 806871 830584 861093 893269 919699 932641 927666 904825 
2074.688 870061 833103 805037 794689 806702 840066 889042 944682 997584 
2079.027 1039635 1065828 1074451 1067264 1048474 1023932 999343 979702 
2082.885 967512 962768 962845 963835 961489 953486 939663 922498 905698 
2087.224 893056 886026 883576 881495 874115 855633 822505 774360 714570 
2091.564 649801 588809 540634 513243 511680 537211 586610 652681 725353 
2095.904 793940 849338 886188 903206 903512 892493 876478 860571 848199 
2100.243 840773 838732 841637 848964 859711 872490 884918 894897 901206 
2104.583 905074 910382 923048 948744 990317 1045428 1106244 1160648 1196259 
2108.922 1203846 1181145 1133247 1071690 1010182 961199 932334 925421 936833 
2113.262 959919 986588 1009474 1021932 1018473 994517 947220 876197 785031 
2117.602 681304 575875 480234 403898 351408 321865 309135 304890 301060 
2121.941 292460 277241 256269 230989 202144 168506 128027 78717 21104 -41942 
2126.763 -104876 -161723 -207794 -241816 -265489 -283661 -301450 -323217 
2130.620 -350764 -383272 -417724 -450800 -479185 -501023 -515351 -522695 
2134.478 -524044 -521504 -517280 -514132 -514353 -519222 -527944 -537254 
2138.335 -541735 -535235 -512378 -471013 -413480 -347506 -285189 -241361 
2142.193 -230421 -263403 -344933 -471996 -633213 -811096 -984902 -1135276 
2146.050 -1247732 -1316196 -1342517 -1336113 -1309435 -1276017 -1246541 
2149.425 -1229546 -1230349 -1252681 -1297944 -1365372 -1449574 -1541075 
2152.801 -1627034 -1695894 -1742492 -1772708 -1803964 -1860868 -1965356 
2156.176 -2125975 -2326617 -2526714 -2667317 -2692428 -2571358 -2318199 
2159.551 -1988026 -1658603 -1396649 -1236321 -1170865 -1164073 -1169293 
2162.926 -1151051 -1096807 -1019035 -945664 -906933 -919732 -981284 -1070723 
2166.784 -1159791 -1224060 -1253756 -1255722 -1248755 -1254727 -1288971 
2170.159 -1355209 -1444940 -1541738 -1628616 -1692270 -1727686 -1735033 
2173.534 -1717415 -1676374 -1611664 -1521009 -1405047 -1268932 -1124651 
2176.909 -988871 -879469 -810437 -790356 -819885 -893768 -1001398 -1129300 
2180.767 -1260864 -1378368 -1463248 -1500215 -1479382 -1400928 -1276030 
2184.142 -1125512 -975520 -851802 -773029 -747692 -772931 -837472 -925226 
2188.000 -1020642 -1109998 -1183432 -1232677 -1251504 -1234187 -1178144 
2191.375 -1084529 -961216 -821256 -681389 -557192 -460269 -394494 -356670 
2195.232 -338638 -331282 -327766 -325647 -325856 -331305 -342953 -359111 
2199.090 -374047 -380786 -373006 -348036 -307487 -257410 -205494 -159144 
2202.947 -122921 -97761 -81120 -68709 -55854 -39667 -18934 4788 29046 50928 
2207.769 69267 84556 100045 119655 147394 184279 227832 270674 303100 315034 
2212.591 300276 259036 199581 136259 85824 62576 73997 118234 185670 261674 
2217.412 332051 386926 423582 445245 459231 472545 489497 510216 532214 
2221.752 551940 568085 581936 597270 617499 643794 672742 697219 707947 
2226.092 697492 662621 606852 539030 471152 414377 376100 357823 356024 
2230.431 364312 376648 389860 404817 425346 456264 500288 556787 620616 
2234.771 684349 739861 781455 806603 816881 815950 808089 796181 780956 
2239.110 761106 734889 701320 661468 618478 577431 543583 521737 514669 
2243.450 523388 546608 581549 624311 670390 715431 755884 789474 816069 
2247.790 837004 854630 870900 886283 898862 905203 901686 886833 862800 
2252.129 836287 816859 814542 836108 882659 948536 1023334 1094494 1151774 
2256.469 1189889 1209484 1215808 1216295 1217304 1222657 1232787 1246001 
2260.326 1259814 1272314 1282240 1288580 1289614 1282551 1263948 1231524 
2264.184 1185323 1129485 1071249 1019811 983370 966750 969845 988407 1015506 
2268.523 1044500 1071044 1094132 1115417 1137940 1163714 1192865 1223034 
2272.381 1250602 1271843 1284382 1287807 1283705 1274609 1263387 1252452 
2276.238 1243445 1237667 1236263 1240369 1251111 1269253 1294911 1327345 
2280.095 1365249 1406816 1450366 1494144 1536655 1575943 1610050 1636723 
2283.953 1654249 1661794 1660013 1650916 1637666 1623565 1611285 1602205 
2287.810 1596303 1592248 1588191 1582168 1572658 1558690 1539901 1516228 
2291.668 1487972 1455798 1421017 1385447 1351569 1322026 1299071 1284092 
2295.525 1277259 1277311 1282211 1289211 1295720 1299609 1299542 1294807 
2299.383 1285532 1272302 1256152 1238361 1220372 1203506 1188967 1177659 
2303.240 1170308 1167440 1169608 1177138 1190245 1208337 1230161 1253438 
2307.097 1275405 1293336 1305382 1311141 1311988 1310541 1310032 1312996 
2310.955 1320656 1332463 1346435 1359955 1370695 1377282 1379846 1379660 
2314.812 1378703 1379068 1382358 1389454 1400375 1414571 1431143 1449283 
2318.670 1468759 1490133 1515070 1546011 1585386 1634412 1691820 1752980 
2322.527 1809907 1852622 1871435 1859320 1814029 1738783 1641626 1533669 
2326.385 1426808 1331256 1253890 1197325 1160243 1138586 1127115 1120963 
2330.242 1116574 1111941 1106267 1099491 1091891 1083735 1075435 1067523 
2334.099 1060561 1055122 1051454 1049615 1049323 1050299 1052557 1056343 
2337.957 1062095 1070057 1080013 1091007 1101632 1110286 1115728 1117511 
2341.814 1115882 1111797 1106274 1100317 1094522 1089307 1085079 1082499 
2345.672 1082446 1085670 1092612 1102969 1115675 1129157 1141774 1152304 
2349.529 1160280 1165913 1170019 1173474 1177159 1181665 1187419 1194579 
2353.386 1203029 1212264 1221235 1228354 1231939 1230477 1223657 1212450 
2357.244 1199248 1187188 1179297 1177404 1181614 1189994 1199493 1206631 
2361.101 1208698 1204361 1193893 1178791 1161119 1142896 1125651 1110445 
2364.959 1097864 1088218 1081801 1078742 1078977 1082193 1087797 1095061 
2368.816 1103343 1112146 1121087 1129842 1137927 1144767 1149656 1152092 
2372.674 1151984 1149737 1146337 1143102 1141281 1141831 1145247 1151473 
2376.531 1160107 1170251 1180950 1191088 1199533 1205397 1208106 1207721 
2380.388 1205149 1201746 1199323 1199406 1202899 1209732 1218710 1227891 
2384.246 1234974 1237919 1235258 1226341 1211414 1191347 1167589 1141691 
2388.103 1115414 1090356 1068061 1049712 1036246 1028208 1025831 1028759 
2391.961 1036314 1047308 1060197 1073221 1084698 1093237 1098132 1099404 
2395.818 1097909 1094896 1091858 1089855 1089584 1090967 1093403 1095977 
2399.676 1097475 1096739 1092691 1084502 1071808 1054921 1034976 1013949 
2403.533 994269 978331 967937 963788 965461 971689 980817 991454 1002629 
2407.873 1013793 1024527 1033961 1040996 1044325 1043042 1037128 1027944 
2411.730 1017563 1008341 1001892 998444 996875 995322 992064 986341 978928 
2416.070 971577 966252 964149 965166 967833 970072 970192 967457 962406 
2420.409 956464 951215 947519 945432 944195 943087 941752 940505 940182 
2424.749 941365 943904 946541 947378 944524 937003 925253 911048 896970 
2429.088 885290 877292 872781 870389 868141 864212 857527 847882 835765 
2433.428 821937 807058 791826 776850 763032 751754 744676 743401 749102 
2437.768 761688 780091 801957 824201 843624 857662 864834 865144 859981 
2442.107 851814 843417 837301 834896 836220 839977 844102 846433 845644 
2446.447 841579 835347 828793 823791 821541 822161 824801 828211 831082 
2450.786 832923 833947 834921 836666 839730 843893 848369 851978 853646 
2455.126 852592 848650 841984 833077 822394 810380 797254 783337 768900 
2459.466 754286 739972 726492 714428 704331 696759 692182 690716 692240 
2463.805 696188 701756 707902 713558 717645 719167 717169 710800 699499 
2468.145 683373 663522 642219 622649 608276 601710 603746 612782 624847 
2472.484 634741 637618 630537 613792 590943 567736 550591 544490 551498 
2476.824 570241 596578 624806 649352 666326 674168 673844 667881 659816 
2481.164 652773 649078 649742 654329 661434 669038 675139 678161 677547 
2485.503 673801 668428 663468 660828 661669 665895 672353 678840 683287 
2489.843 684084 681003 675114 668384 663172 661249 663271 668519 675208 
2494.182 681093 684335 684118 680905 676368 672770 672117 675536 682813 
2498.522 692225 701275 707186 707948 702673 692092 678214 663874 651907 
2502.862 644600 643130 647560 656667 668658 681306 692599 701048 706106 
2507.201 708157 708677 709834 714329 724584 742202 767693 800138 837199 
2511.541 875713 911930 942262 963667 973960 972096 958297 933946 901500 
2515.880 864354 826316 791124 761792 740317 727372 722564 724819 732950 
2520.220 745894 762973 783654 807039 831727 855604 876040 890638 897814 
2524.560 897210 890119 879028 867099 857224 851566 850952 854803 861670 
2528.899 869527 876552 881603 884560 886115 887738 891095 897372 906908 
2533.239 919023 932074 943929 952680 957293 957966 956089 953685 952815 
2537.578 954641 959064 964651 969086 969889 965277 954651 938861 920179 
2541.918 901460 885887 876135 874093 880384 894207 913418 934715 954143 
2546.258 967880 973154 968996 956688 939711 923053 912003 910694 921183 
2550.597 942764 972365 1005242 1036427 1061859 1079303 1088538 1091016 
2554.455 1089137 1085290 1081169 1077388 1073726 1069421 1063737 1056511 
2558.312 1048324 1040400 1034408 1031838 1033668 1040088 1050512 1063571 
2562.169 1077648 1090934 1102057 1109907 1113926 1113998 1110456 1103832 
2566.027 1094981 1084813 1074334 1064358 1055557 1048401 1043143 1039970 
2569.884 1038979 1040309 1044072 1050201 1058381 1067846 1077625 1086479 
2573.742 1093485 1098125 1100519 1101440 1101888 1102922 1105154 1108370 
2577.599 1111821 1114220 1114273 1111245 1105230 1097460 1090007 1085531 
2581.457 1086407 1094315 1109459 1130584 1154842 1178698 1198441 1211208 
2585.314 1215703 1212249 1202852 1190369 1177873 1167827 1161598 1159587 
2589.171 1161199 1165558 1171776 1178976 1186604 1194063 1200734 1205993 
2593.029 1209474 1211123 1211504 1211399 1211616 1212580 1213944 1214683 
2596.886 1213551 1209627 1203014 1194876 1187475 1183378 1184555 1191853 
2600.744 1204606 1220945 1238418 1254721 1268304 1278535 1285377 1289184 
2604.601 1290025 1287994 1283194 1276140 1268123 1261099 1257235 1258184 
2608.458 1264377 1274733 1286773 1297401 1303887 1304828 1300641 1293414 
2612.316 1286238 1282116 1283044 1289473 1300294 1313390 1326457 1337758 
2616.173 1346574 1353139 1358214 1362590 1366555 1369801 1371572 1371324 
2620.031 1369046 1365713 1363108 1363341 1368243 1378511 1393639 1411776 
2623.888 1430407 1446915 1459460 1467270 1470694 1470806 1469004 1466523 
2627.746 1464058 1461892 1459955 1458185 1456520 1455101 1454044 1453374 
2631.603 1453084 1453094 1453369 1454015 1455316 1457438 1460375 1463790 
2635.460 1466906 1468873 1469017 1467135 1463642 1459457 1455643 1453066 
2639.318 1451977 1452039 1452366 1451966 1450096 1446522 1441645 1436295 
2643.175 1431503 1428217 1427120 1428471 1432192 1437903 1444948 1452483 
2647.033 1459667 1465654 1469893 1472090 1472473 1471630 1470279 1469248 
2650.890 1469053 1469907 1471848 1474741 1478401 1482748 1487622 1492730 
2654.748 1497501 1501141 1502787 1501794 1498018 1491886 1484388 1476736 
2658.605 1469965 1464663 1460753 1457733 1454766 1451163 1446488 1440669 
2662.462 1433829 1426175 1417865 1408919 1399462 1389626 1379885 1370902 
2666.320 1363311 1357702 1354210 1352657 1352651 1353674 1355287 1357259 
2670.177 1359491 1361796 1363914 1365396 1365723 1364563 1361932 1358306 
2674.035 1354455 1351229 1349231 1348461 1348319 1347691 1345287 1340038 
2677.892 1331474 1319857 1306226 1292179 1279511 1269938 1264671 1264242 
2681.750 1268539 1276637 1287255 1298813 1309881 1319363 1326590 1331372 
2685.607 1333825 1334209 1332729 1329447 1324399 1317719 1309758 1301145 
2689.464 1292864 1285905 1281043 1278704 1278717 1280515 1283233 1286079 
2693.322 1288466 1290158 1291282 1292064 1292774 1293592 1294573 1295654 
2697.179 1296735 1297771 1298636 1299166 1299082 1298066 1295846 1292378 
2701.037 1287958 1283337 1279548 1277649 1278402 1281926 1287779 1294876 
2704.894 1301903 1307727 1311686 1313797 1314602 1315027 1315951 1317927 
2708.751 1321193 1325486 1330361 1335375 1340109 1344255 1347583 1349786 
2712.609 1350553 1349520 1346569 1341751 1335485 1328408 1321192 1314374 
2716.466 1308283 1303008 1298679 1295495 1293867 1294452 1297879 1304505 
2720.324 1314141 1326079 1339180 1352168 1363949 1373955 1381939 1388128 
2724.181 1392766 1396064 1398129 1398998 1398807 1397920 1396970 1396623 
2728.039 1397317 1399202 1401929 1404922 1407476 1409354 1410519 1411510 
2731.896 1413014 1415490 1419056 1423376 1427651 1431048 1432942 1433039 
2735.753 1431631 1429397 1427033 1425238 1424415 1424482 1425146 1425948 
2739.611 1426438 1426413 1425984 1425629 1426026 1427840 1431522 1437090 
2743.468 1444049 1451545 1458557 1464337 1468636 1471879 1474873 1478597 
2747.326 1483731 1490353 1497880 1505198 1511172 1514952 1516334 1515779 
2751.183 1514060 1512257 1511127 1511152 1512331 1514564 1517518 1520880 
2755.041 1524281 1527312 1529531 1530557 1530260 1528881 1526955 1525315 
2758.898 1524591 1525117 1526615 1528456 1529872 1530389 1530091 1529552 
2762.755 1529773 1531523 1535129 1540239 1545890 1551031 1554783 1556846 
2766.613 1557479 1557286 1556898 1556705 1556771 1556903 1556942 1556897 
2770.470 1557010 1557587 1558770 1560428 1562113 1563307 1563671 1563264 
2774.328 1562502 1562084 1562458 1563764 1565563 1567103 1567692 1566873 
2778.185 1564889 1562428 1560460 1559798 1560834 1563512 1567274 1571486 
2782.042 1575624 1579484 1583149 1587002 1591473 1596993 1603814 1612069 
2785.900 1621675 1632342 1643621 1654765 1665137 1674294 1682098 1688929 
2789.757 1695454 1702470 1710509 1719612 1729404 1739152 1748173 1756192 
2793.615 1763398 1770409 1777986 1786591 1796308 1806932 1817824 1828759 
2797.472 1839669 1850838 1862671 1875291 1888340 1900980 1912145 1920893 
2801.330 1926900 1930438 1932450 1933905 1935615 1937808 1940265 1942298 
2805.187 1943548 1943825 1943460 1943020 1943145 1944093 1945770 1947730 
2809.044 1949483 1950716 1951486 1952171 1953528 1956267 1960948 1967922 
2812.902 1977285 1988832 2002127 2016433 2030868 2044485 2056504 2066554 
2816.759 2074929 2082594 2090956 2101430 2114958 2131619 2150617 2170442 
2820.617 2189430 2206353 2220865 2233575 2245814 2259268 2275340 2294860 
2824.474 2317908 2343955 2372115 2401484 2431491 2461850 2492695 2524485 
2828.332 2557748 2593090 2630837 2671119 2713767 2758276 2803986 2850285 
2832.189 2896925 2944192 2992889 3044325 3099988 3161111 3228473 3302284 
2836.046 3382324 3468348 3560402 3659081 3765570 3881326 4007724 4145510 
2839.904 4294659 4454282 4623007 4799485 4982716 5172414 5368939 5573026 
2843.761 5785177 6005440 6233026 6466300 6702987 6940602 7176763 7409443 
2847.619 7637117 7858606 8073007 8279490 8476981 8664416 8840459 9003752 
2851.476 9152796 9286270 9402857 9501496 9581457 9642299 9684069 9707234 
2855.333 9712638 9701397 9674782 9634203 9581012 9516399 9441528 9357372 
2859.191 9264594 9163866 9055535 8940245 8818736 8692184 8562366 8431364 
2863.048 8301555 8175202 8054083 7939271 7831029 7729041 7632553 7540763 
2866.906 7453073 7369268 7289482 7214001 7143141 7077069 7015736 6958910 
2870.763 6906293 6857532 6812379 6770745 6732619 6698206 6667790 6641941 
2874.621 6621349 6606772 6599060 6598840 6606609 6622510 6646352 6677728 
2878.478 6716105 6760901 6811638 6867897 6929462 6996184 7068085 7145285 
2882.335 7227981 7316375 7410636 7510620 7616054 7726297 7840305 7956733 
2886.193 8073888 8190124 8303696 8412945 8516689 8614206 8705302 8790465 
2890.050 8870668 8947200 9021376 9094164 9166026 9236789 9305772 9371822 
2893.908 9433749 9490316 9540780 9584620 9622026 9653559 9680341 9703954 
2897.765 9726229 9749156 9774701 9804411 9839447 9880506 9927861 9981661 
2901.623 10042065 10109239 10183387 10264563 10352343 10445884 10543668 
2904.998 10644183 10745941 10848096 10950593 11054424 11160941 11271843 
2908.373 11388341 11510836 11638858 11771101 11905809 12041381 12176712 
2911.748 12311440 12446057 12581791 12720042 12862222 13009194 13161245 
2915.124 13317814 13477720 13639250 13800453 13959210 14113759 14262439 
2918.499 14404134 14538173 14664295 14782803 14894253 14999332 15098745 
2921.874 15192880 15281753 15364933 15441632 15510908 15571919 15624064 
2925.249 15667319 15702091 15729254 15750001 15765660 15777534 15786801 
2928.625 15794298 15800536 15805390 15808220 15807801 15802595 15791108 
2932.000 15772209 15745576 15711860 15672657 15629971 15585837 15541878 
2935.375 15498747 15456197 15413198 15368402 15320566 15268800 15212646 
2938.750 15152040 15087171 15018116 14944962 14867811 14786744 14702086 
2942.125 14614224 14523388 14429702 14332956 14232734 14128560 14020237 
2945.501 13908069 13792823 13675605 13557458 13439018 13320468 13201298 
2948.876 13080862 12958547 12834205 12708232 12581608 12455375 12330597 
2952.251 12207825 12087213 11968480 11851194 11735097 11620045 11506110 
2955.626 11393420 11282150 11172250 11063424 10955288 10847388 10739378 
2959.002 10631096 10522478 10413609 10304578 10195509 10086416 9977307 
2962.377 9867939 9758145 9647562 9535922 9422958 9308655 9193206 9077181 
2966.234 8961331 8846665 8734190 8624735 8518741 8416174 8316403 8218337 
2970.092 8120432 8021050 7918888 7813064 7703403 7590482 7475422 7359656 
2973.949 7244544 7131101 7020023 6911762 6806685 6705183 6607704 6514564 
2977.807 6425588 6339930 6256002 6171925 6085777 5996443 5903865 5809105 
2981.664 5713959 5620464 5530030 5443371 5360247 5280063 5202241 5126582 
2985.521 5053534 4983805 4917822 4855406 4795527 4736663 4677172 4616026 
2989.379 4553197 4489600 4426936 4366855 4310655 4258815 4211117 4166840 
2993.236 4125134 4085260 4046665 4008888 3971273 3933084 3893515 3852052 
2997.094 3808668 3763964 3719007 3675073 3633071 3593368 3555677 3519148 
3000.951 3482925 3446200 3408780 3370827 3332710 3294889 3257667 3221068 
3004.809 3185038 3149394 3114096 3079092 3044411 3009955 2975597 2941147 
3008.666 2906449 2871515 2836499 2801623 2767020 2732660 2698410 2664057 
3012.523 2629467 2594886 2560832 2528151 2497483 2469296 2443437 2419347 
3016.381 2396138 2372896 2349080 2324782 2300391 2276697 2254314 2233464 
3020.238 2213841 2194664 2174872 2153571 2130231 2104964 2078422 2051826 
3024.096 2026520 2003835 1984810 1970005 1959298 1952048 1947045 1942774 
3027.953 1937484 1929810 1918640 1903772 1885805 1866184 1846876 1830080 
3031.811 1817681 1810840 1809682 1813250 1819724 1826761 1831975 1833368 
3035.668 1829681 1820578 1806679 1789512 1771160 1754201 1741075 1733985 
3039.525 1734433 1742914 1758890 1780960 1807188 1835513 1864427 1893059 
3043.383 1921214 1949508 1978798 2009805 2043073 2078788 2116833 2157023 
3047.240 2199045 2242521 2286959 2331642 2375757 2418429 2459100 2497591 
3051.098 2534097 2568902 2602036 2632898 2660112 2681735 2695830 2701171 
3054.955 2697776 2687169 2672023 2655574 2640773 2629618 2622757 2619636 
3058.813 2618819 2618818 2618425 2617131 2615082 2613042 2611809 2612179 
3062.670 2614587 2619202 2625722 2633787 2642870 2652443 2662082 2671466 
3066.527 2680293 2688294 2694949 2699521 2701077 2698762 2691839 2680285 
3070.385 2664588 2646065 2626376 2607276 2590310 2576413 2566053 2559272 
3074.242 2555832 2555360 2557329 2561116 2565913 2570741 2574668 2577036 
3078.100 2577627 2576606 2574461 2571640 2568277 2564133 2558707 2551355 
3081.957 2541784 2530181 2516983 2502835 2488101 2472604 2455720 2436470 
3085.814 2413989 2387674 2357464 2323587 2286608 2247244 2206486 2165665 
3089.672 2126684 2092008 2064121 2045131 2035851 2035628 2042332 2052910 
3093.529 2064429 2075015 2084116 2092804 2102839 2116056 2133363 2154609 
3097.387 2178430 2202857 2225814 2245494 2260598 2270266 2274035 2271933 
3101.244 2264470 2253055 2239756 2226914 2216704 2210327 2207356 2206152 
3105.102 2203932 2198072 2186730 2169633 2147909 2123599 2098856 2075136 
3108.959 2052991 2032130 2011861 1991726 1971649 1952061 1933537 1916306 
3112.816 1900254 1884785 1869333 1853701 1838181 1823526 1810678 1800139 
3116.674 1791711 1784506 1777121 1768384 1757666 1745344 1732716 1721540 
3120.531 1713744 1710898 1713592 1721986 1735297 1752366 1771706 1791663 
3124.389 1810507 1826516 1838185 1844442 1844842 1839697 1830098 1817756 
3128.246 1804497 1792023 1781396 1772961 1766195 1760109 1753255 1744508 
3132.104 1732952 1718345 1700961 1681460 1660643 1639380 1618398 1598360 
3135.961 1579810 1563539 1550049 1540026 1533671 1530836 1530872 1532768 
3139.818 1535350 1537648 1538894 1538836 1537493 1534939 1531247 1526416 
3143.676 1520457 1513507 1505985 1498589 1492011 1486898 1483321 1480934 
3147.533 1478853 1476180 1472188 1466624 1459866 1452580 1445649 1439783 
3151.391 1435435 1432784 1431748 1432135 1433611 1435604 1437196 1437236 
3155.248 1434424 1427670 1416657 1401932 1385238 1368859 1355224 1346215 
3159.105 1342520 1343550 1347540 1352240 1355249 1355139 1351261 1344124 
3162.963 1335165 1326151 1318902 1314762 1314444 1317831 1324090 1331939 
3166.820 1339823 1346576 1351349 1354035 1355026 1354999 1354569 1354022 
3170.678 1353188 1351463 1348177 1342853 1335446 1326372 1316403 1306401 
3174.535 1297160 1289276 1283249 1279599 1278880 1281900 1289225 1300962 
3178.393 1316490 1334448 1352754 1369227 1381961 1389984 1393250 1392705 
3182.250 1389828 1386300 1383346 1381765 1381655 1382600 1383768 1384202 
3186.107 1382929 1379278 1372971 1364347 1354303 1344192 1335508 1329394 
3189.965 1326276 1325751 1326613 1327401 1326961 1325004 1322160 1319946 
3193.822 1319836 1322898 1328965 1336733 1343948 1348385 1348343 1343412 
3197.680 1334351 1322891 1310926 1300061 1291237 1284668 1280163 1277520 
3201.537 1276609 1277412 1279789 1283377 1287362 1290877 1293043 1293645 
3205.395 1292993 1291815 1291055 1291131 1291861 1292528 1292175 1290180 
3209.252 1286436 1281616 1276635 1272415 1269159 1266472 1263505 1259420 
3213.109 1254023 1247873 1242151 1238254 1237053 1238593 1242219 1246857 
3216.967 1251592 1256255 1261338 1267671 1275954 1286081 1297051 1307174 
3220.824 1314663 1318436 1318289 1315253 1310848 1306624 1303520 1301688 
3224.682 1300427 1298799 1295822 1291097 1284643 1277088 1269294 1262414 
3228.539 1257713 1256444 1259611 1267758 1280530 1296516 1313654 1329372 
3232.396 1341593 1349309 1352863 1353844 1354186 1355470 1357999 1360734 
3236.254 1361673 1358704 1350589 1337523 1321239 1304333 1289472 1278561 
3240.111 1272230 1270134 1271211 1274424 1279090 1284929 1291853 1299518 
3243.969 1307164 1313694 1317937 1319218 1317547 1313878 1309567 1306146 
3247.826 1304602 1305110 1307064 1309236 1310201 1308809 1304372 1296847 
3251.684 1286776 1275202 1263310 1252318 1243293 1236940 1233599 1233347 
3255.541 1236043 1241635 1250189 1261740 1276171 1292916 1310693 1327616 
3259.398 1341243 1349368 1350429 1344074 1331238 1314123 1295402 1277627 
3263.256 1262827 1252060 1245480 1242544 1242411 1244155 1246860 1249774 
3267.113 1252241 1253780 1254030 1253068 1251297 1249438 1248355 1248889 
3270.971 1251402 1255927 1262237 1269708 1277729 1285830 1293528 1300594 
3274.828 1306654 1311545 1314959 1316686 1316496 1314191 1309584 1302400 
3278.686 1292528 1280078 1265597 1250225 1235607 1223628 1216143 1214358 
3282.543 1218551 1227946 1240767 1254713 1267402 1276955 1282316 1283416 
3286.400 1281088 1276881 1272596 1269892 1269990 1273408 1279830 1288497 
3290.258 1298135 1307622 1316079 1322986 1328244 1331819 1333545 1333200 
3294.115 1330333 1324843 1317015 1308062 1299756 1294216 1293181 1297560 
3297.973 1306802 1319191 1332280 1343476 1350923 1354024 1353327 1350334 
3301.830 1346865 1344444 1343768 1344792 1346602 1348047 1348000 1345776 
3305.688 1341307 1335212 1328606 1322917 1319382 1318966 1321891 1327661 
3309.545 1335191 1343002 1349630 1354056 1355771 1355071 1352698 1349693 
3313.402 1347141 1345897 1346569 1349437 1354379 1360952 1368316 1375282 
3317.260 1380420 1382474 1380732 1375349 1367389 1358683 1351340 1347095 
3321.117 1346757 1350130 1356047 1362923 1369311 1374423 1378170 1381005 
3324.975 1383708 1386823 1390607 1395048 1400069 1405738 1412232 1419898 
3328.832 1428925 1439047 1449652 1459770 1468498 1475278 1480008 1483189 
3332.689 1485400 1487278 1489133 1491023 1492756 1494267 1495578 1496844 
3336.547 1497998 1498650 1497794 1494267 1486839 1475073 1459427 1441587 
3340.404 1424101 1409541 1400009 1396421 1398378 1404316 1412124 1419891 
3344.262 1426339 1431111 1434507 1437411 1440496 1444108 1448046 1451649 
3348.119 1454088 1454555 1452736 1448719 1442975 1436322 1429352 1422438 
3351.977 1415465 1408020 1399574 1389803 1378908 1367899 1358188 1351404 
3355.834 1348715 1350469 1355759 1362600 1368579 1371505 1370017 1364439 
3359.691 1356343 1348324 1343101 1342687 1347713 1357350 1369498 1381572 
3363.549 1391266 1397125 1398878 1397334 1393932 1390203 1387316 1385849 
3367.406 1385698 1386482 1387717 1389099 1390436 1391829 1393190 1394370 
3371.264 1395009 1394735 1393480 1391626 1390019 1389812 1392031 1396948 
3375.121 1403865 1410976 1415763 1415807 1409649 1397298 1380539 1362590 
3378.979 1346909 1336582 1333247 1336771 1345621 1357436 1369911 1381599 
3382.836 1391990 1401400 1410293 1418928 1426932 1433500 1437737 1439233 
3386.693 1438362 1436323 1434759 1435213 1438478 1444398 1451850 1459214 
3390.551 1464857 1467584 1466896 1463018 1456574 1448482 1439594 1430953 
3394.408 1423514 1418594 1417615 1422030 1433083 1451391 1476868 1508259 
3398.266 1543432 1579522 1613160 1641222 1661129 1671552 1672575 1665962 
3402.123 1654856 1642961 1634039 1630804 1634525 1644816 1660096 1678235 
3405.980 1697477 1716898 1736681 1757684 1780694 1806013 1832818 1859474 
3409.838 1883958 1904802 1921567 1935270 1947969 1962209 1980109 2002590 
3413.695 2029265 2058441 2087930 2115573 2139980 2160814 2178578 2194385 
3417.553 2209382 2224522 2240231 2256521 2273232 2290225 2307513 2325382 
3421.410 2344135 2364000 2384807 2405910 2426077 2443784 2457577 2466460 
3425.268 2470303 2470108 2467686 2465413 2465495 2469271 2476755 2486667 
3429.125 2496721 2504491 2508044 2506859 2501744 2494812 2488595 2485394 
3432.982 2486391 2491541 2499329 2507734 2514429 2517791 2517103 2512616 
3436.840 2505268 2496413 2487242 2478580 2470692 2463230 2455489 2446575 
3440.697 2435702 2422288 2406380 2388396 2369156 2349578 2330438 2311932 
3444.555 2293793 2275061 2254541 2231191 2204280 2173925 2140903 2106662 
3448.412 2073080 2041871 2014482 1991793 1973908 1960109 1949087 1939199 
3452.270 1928637 1916068 1900924 1883598 1865471 1848372 1833982 1823332 
3456.127 1816180 1811194 1806311 1799572 1789782 1777218 1763353 1750634 
3459.984 1741403 1737226 1738269 1743303 1750206 1756566 1760548 1761212 
3463.842 1758717 1754015 1748463 1743236 1739227 1736692 1735493 1735049 
3467.699 1734325 1732358 1728088 1720934 1710733 1698203 1684543 1671392 
3471.557 1660204 1651840 1646381 1643120 1640882 1638631 1635810 1632568 
3475.414 1629617 1627922 1628113 1630459 1634563 1639775 1645419 1650926 
3479.271 1656085 1660778 1664867 1668164 1670460 1671799 1672579 1673488 
3483.129 1675294 1678444 1682493 1686345 1688224 1686625 1680820 1671405 
3486.986 1660294 1650139 1643568 1642089 1645740 1653120 1661928 1669793 
3490.844 1675064 1677190 1676568 1674307 1671613 1669504 1668681 1669625 
3494.701 1672829 1678738 1687472 1698856 1711966 1725373 1737168 1745813 
3498.559 1750439 1751243 1749408 1746834 1745479 1746905 1751839 1760062 
3502.416 1770694 1782280 1793354 1802634 1809250 1813024 1814285 1813958 
3506.273 1813291 1813752 1816364 1821731 1829815 1839962 1851183 1862654 
3510.131 1873777 1884455 1894890 1905588 1916784 1928585 1940661 1952434 
3513.988 1962962 1971181 1975828 1975710 1969904 1958302 1941788 1922570 
3517.846 1903856 1889292 1882257 1884758 1897012 1917431 1943185 1970949 
3521.703 1997886 2022280 2043598 2062155 2078555 2093326 2106364 2117202 
3525.561 2125202 2129698 2130155 2126453 2118496 2106615 2091567 2074691 
3529.418 2057931 2043776 2034607 2032266 2037297 2048995 2065584 2084765 
3533.275 2104548 2123661 2141702 2158787 2175011 2190244 2203770 2214912 
3537.133 2223168 2229036 2233479 2238030 2243808 2251159 2259523 2267497 
3540.990 2273818 2277796 2279738 2280882 2282669 2286150 2291359 2297332 
3544.848 2302402 2304980 2304137 2299978 2293647 2286766 2281207 2278391 
3548.705 2279273 2284250 2293274 2305607 2319916 2334230 2346135 2353313 
3552.563 2354218 2348884 2338779 2326986 2317045 2311955 2313166 2320200 
3556.420 2330718 2341419 2348856 2350635 2345699 2334513 2318751 2300701 
3560.277 2282791 2267010 2254805 2246753 2242483 2240810 2239904 2237895 
3564.135 2233322 2225788 2216048 2205838 2197029 2190974 2187782 2186075 
3567.992 2183661 2178213 2168315 2154037 2136915 2119119 2102698 2088542 
3571.850 2076158 2063844 2049549 2031592 2009506 1984179 1957422 1931730 
3575.707 1909345 1892078 1880963 1876370 1878003 1884987 1895694 1908266 
3579.564 1920349 1929927 1935724 1937535 1936174 1933058 1929677 1926751 
3583.422 1923885 1919985 1913450 1903343 1889771 1874225 1858976 1846466 
3587.279 1838308 1834875 1834989 1836716 1838057 1837642 1835241 1831612 
3591.137 1828054 1826035 1826413 1829621 1835551 1843893 1854347 1866696 
3594.994 1880435 1895036 1909279 1921815 1931278 1936847 1938494 1937137 
3598.852 1934354 1931752 1930429 1930820 1932323 1934019 1934979 1934803 
3602.709 1933805 1932867 1932896 1934533 1937585 1941436 1945288 1948596 
3606.566 1951639 1955434 1961275 1970264 1982478 1996947 2011785 2025078 
3610.424 2035515 2043169 2049417 2056517 2066493 2080438 2097725 2116219 
3614.281 2132888 2144961 2150493 2149334 2142673 2132926 2122678 2114360 
3618.139 2109587 2109237 2113297 2120957 2130746 2140684 2148486 2152202 
3621.996 2150664 2144355 2135357 2127306 2124193 2129539 2144784 2168961 
3625.854 2198691 2229213 2255812 2275193 2286165 2289921 2289103 2286686 
3629.711 2284672 2283682 2282826 2280371 2274741 2265362 2252757 2238552 
3633.568 2224880 2213624 2205980 2202108 2201521 2203316 2206674 2211329 
3637.426 2217220 2224787 2234031 2244684 2255476 2264656 2269825 2268866 
3641.283 2260244 2243630 2220049 2191778 2161805 2133076 2107944 2087506 
3645.141 2071642 2059495 2049696 2041425 2034522 2029686 2028008 2030296 
3648.998 2036516 2045151 2053776 2059181 2058803 2051231 2037077 2018642 
3652.855 1999310 1982696 1971105 1965310 1963938 1964087 1962396 1956082 
3656.713 1943829 1926448 1906231 1886673 1870890 1861385 1859066 1863434 
3660.570 1872760 1884777 1896921 1906921 1912772 1913134 1907207 1895050 
3664.428 1877805 1857522 1836869 1818595 1804570 1795408 1790029 1786061 
3668.285 1780581 1771191 1756833 1738305 1717981 1698784 1683371 1673167 
3672.143 1667989 1666450 1666669 1667011 1666627 1665775 1665231 1665904 
3676.000 1668018 1671154 1674119 1675496 1674176 1669654 1662299 1652983 
3679.857 1642864 1633015 1624087 1616254 1609245 1602641 1595691 1587876 
3683.715 1578581 1567298 1553672 1537677 1519546 1499982 1480132 1461389 
3687.572 1445121 1432549 1424426 1420888 1421493 1425465 1431845 1439595 
3691.430 1447780 1455684 1462627 1468152 1471826 1473439 1472865 1470191 
3695.287 1465564 1459219 1451377 1442223 1431979 1421153 1410263 1400199 
3699.145 1391641 1384898 1379477 1374080 1366752 1355774 1340107 1320664 
3703.002 1299969 1282129 1271399 1270810 1280811 1298897 1319974 1337963 
3706.859 1347413 1345705 1333431 1314428 1294321 1278645 1271217 1272980 
3710.717 1282316 1295831 1309637 1320793 1327649 1330240 1329396 1326467 
3714.574 1322544 1318633 1315391 1313650 1314044 1317058 1322456 1329359 
3718.432 1336053 1340612 1341283 1337455 1329612 1319556 1309845 1303128 
3722.289 1301258 1305131 1314093 1326540 1339887 1351608 1359599 1362862 
3726.146 1361768 1358060 1354300 1353268 1356781 1365141 1376843 1388735 
3730.004 1397154 1399005 1392840 1379628 1362424 1345678 1333731 1329888 
3733.861 1335360 1349480 1369969 1393786 1417512 1438313 1453763 1462072 
3737.719 1462373 1454888 1440979 1423405 1405765 1391885 1384853 1386206 
3741.576 1395550 1410673 1428317 1445304 1459193 1469106 1475342 1479025 
3745.434 1481307 1482863 1483529 1482493 1478925 1472136 1462137 1449630 
3749.291 1435831 1422254 1410492 1401912 1397266 1396806 1399932 1405367 
3753.148 1411254 1415650 1417137 1415086 1410072 1403676 1397957 1394685 
3757.006 1394889 1398383 1403937 1409782 1414272 1416576 1416695 1415532 
3760.863 1414180 1413607 1414115 1415403 1416842 1417992 1418954 1420532 
3764.721 1424060 1430711 1441202 1454920 1470178 1484321 1494626 1499139 
3768.578 1497264 1490235 1480595 1471609 1466100 1465443 1468908 1474266 
3772.436 1478074 1477052 1469130 1454179 1433990 1411680 1390767 1374254 
3776.293 1363819 1359829 1361568 1367964 1377883 1390710 1405965 1423335 
3780.150 1442038 1461039 1478820 1493712 1504424 1509953 1509867 1504126 
3784.008 1492957 1477104 1457541 1435901 1414119 1394688 1379770 1371165 
3787.865 1369681 1375045 1386018 1400780 1417269 1433524 1447859 1458903 
3791.723 1465350 1466233 1460943 1449603 1433355 1414353 1395602 1380208 
3795.580 1370860 1368942 1374341 1385413 1399584 1414065 1426583 1435842 
3799.438 1441751 1445160 1447286 1449490 1452634 1456783 1461327 1465123 
3803.295 1466974 1465965 1461751 1454929 1446604 1438520 1432419 1429928 
3807.152 1431967 1438766 1449817 1464182 1480360 1496887 1512095 1524544 
3811.010 1532969 1536655 1535588 1530440 1522627 1513996 1506256 1500771 
3814.867 1498027 1497872 1499184 1500879 1501835 1501437 1499470 1496110 
3818.725 1491716 1486670 1481175 1475475 1469838 1464569 1459913 1456009 
3822.582 1452705 1449822 1447129 1444845 1443519 1444161 1447783 1454857 
3826.439 1464914 1476304 1486316 1492032 1490978 1481963 1465433 1443447 
3830.297 1418989 1395309 1375031 1359793 1350069 1345669 1345697 1349336 
3834.154 1355782 1364278 1373917 1383713 1392524 1399391 1403861 1406089 
3838.012 1406971 1407968 1410493 1415827 1424319 1435561 1448346 1460801 
3841.869 1470847 1476567 1476469 1469730 1456464 1437594 1414879 1390724 
3845.727 1367748 1348636 1335572 1329996 1332373 1342064 1357593 1376792 
3849.584 1397335 1416947 1433864 1446887 1455525 1459994 1460976 1459471 
3853.441 1456718 1453951 1452136 1452021 1453813 1457139 1461304 1465225 
3857.299 1467806 1468312 1466445 1462643 1457809 1453321 1450226 1449375 
3861.156 1450743 1453789 1457507 1460891 1463423 1465207 1466940 1469822 
3865.014 1474902 1482799 1493193 1505024 1516446 1525402 1530157 1529752 
3868.871 1523993 1513821 1500750 1486692 1473267 1461625 1452270 1445192 
3872.729 1439910 1436077 1433305 1431438 1430399 1430085 1430224 1430739 
3876.586 1431461 1432805 1435341 1440003 1447402 1457589 1469517 1481176 
3880.443 1489726 1492726 1488513 1477267 1460803 1442520 1426090 1414770 
3884.301 1410300 1412876 1421022 1432740 1445696 1458370 1469854 1479807 
3888.158 1487918 1493665 1496178 1494569 1488383 1478034 1464953 1451440 
3892.016 1439941 1432576 1430464 1433607 1441006 1451218 1462722 1474346 
3895.873 1485401 1495691 1505177 1513935 1522019 1529349 1535756 1541095 
3899.730 1545223 1548257 1550274 1551718 1553110 1555142 1558453 1563474 
3903.588 1570260 1578234 1586395 1593395 1597745 1598465 1594991 1587413 
3907.445 1576541 1563629 1550296 1538137 1528655 1522922 1521463 1523991 
3911.303 1529500 1536542 1543376 1548668 1551580 1552347 1552093 1552128 
3915.160 1553772 1557708 1563543 1570048 1575625 1578792 1578790 1575695 
3919.018 1570320 1563908 1557533 1551813 1546799 1542309 1538237 1534689 
3922.875 1532412 1532325 1535255 1541676 1551103 1562436 1573996 1584036 
3926.732 1591282 1595155 1595837 1594325 1591657 1588974 1586725 1584922 
3930.590 1582909 1579921 1575120 1568555 1560713 1553015 1547142 1544780 
3934.447 1547009 1553828 1564282 1576516 1588240 1597282 1601981 1601518 
3938.305 1595735 1585301 1571124 1554626 1537547 1521913 1509822 1503142 
3942.162 1503049 1509480 1520881 1534500 1546884 1554748 1556099 1550657 
3946.020 1539923 1526734 1514281 1505296 1501191 1502206 1507431 1515694 
3949.877 1525848 1537219 1549571 1562693 1576097 1588964 1600168 1608772 
3953.734 1614442 1617694 1619491 1621197 1623366 1625813 1627110 1625137 
3957.592 1617817 1604248 1584984 1562528 1540770 1523948 1515648 1517752 
3961.449 1529709 1548861 1570881 1591015 1604993 1610199 1606072 1594216 
3965.307 1577623 1560021 1544896 1534568 1529901 1530431 1534544 1540461 
3969.164 1546540 1552328 1557812 1564002 1571693 1581565 1593272 1605700 
3973.021 1617122 1625704 1629795 1628717 1622400 1611629 1597731 1582235 
3976.879 1566617 1552419 1541065 1533991 1532475 1537475 1549183 1566762 
3980.736 1588208 1610553 1630376 1644691 1651618 1651112 1644743 1635414 
3984.594 1626403 1620322 1618253 1619528 1622017 1623040 1620422 1613283 
3988.451 1602568 1590598 1580105 1573533 1571949 1574714 1579921 1584971 
3992.309 1587685 1586982 1583102 1577444 1571986 1568356 1567677 1570137 
3996.166 1575163 1581954 1589576 1597373 1604745 1611210 1616165 1619128 
4000.023 1619912 1618863 
##END=
