##TITLE=3D-Fillies_PLA-Rainbow_Turquoise_Filament_r6_ATR-Corrected
##JCAMP-DX=5.01  $$ Nicolet v. 1
##DATATYPE=INFRARED SPECTRUM
##ORIGIN=Curtin University
##OWNER=Nicolet
##LONGDATE=2024/07/18
##TIME=14:46:59
##SPECTROMETER/DATA SYSTEM=Nicolet iS50
##DATA PROCESSING=
Ratio against background
%Transmittance->Absorbance
ATR Correction
Truncated
ElementMultiply or ElementDivide
##COMMENTS=
Number of sample scans: 32
Collection length: 47.29 sec
Sample gain: 1.0
Background collected on: Thu Jul 18 14:42:58 2024 (GMT+08:00);
Number of background scans: 32
Background gain: 1.0
Sample spacing:  1.000
Number of scan points: 16672
Resolution points: 8192
Number of FFT points: 65536
Apodization: N-B strong;
Phase correction: Mertz;
Laser frequency: 15798.3 cm-1
Number of rejected sample scans: 0
Number of rejected background scans: 0
Bench serial number: AUP1200105;
##RESOLUTION=4.000
##XUNITS=1/CM
##YUNITS=ABSORBANCE
##FIRSTX=400.163452
##LASTX=4000.187744
##FIRSTY=0.056058
##MAXX=4000.187744
##MINX=400.163452
##MAXY=0.931564
##MINY=-0.031892
##XFACTOR=1.000000
##YFACTOR=1.000000E-009
##NPOINTS=7468
##DELTAX=0.482125
##ZPD=8192
##XYDATA=(X++(Y..Y))
400.163 56058264 55307948 54826432 54681352 54858924 55268508 55746156 
403.538 56087180 56095604 55635688 54671916 53281024 51633420 49945848 
406.913 48424012 47208836 46350384 45807868 45481712 45255968 45043052 
410.288 44805588 44554496 44321368 44123368 43933840 43680168 43266072 
413.663 42614400 41706324 40600424 39418324 38306924 37388492 36723988 
417.038 36296200 36026052 35807620 35552872 35223056 34837184 34451964 
420.412 34128648 33899396 33752472 33636768 33487060 33251546 32914810 
423.787 32501154 32064956 31667072 31355244 31149908 31044836 31015698 
427.162 31033196 31073566 31122554 31172564 31219128 31254780 31269294 
430.537 31249476 31182786 31057716 30866640 30604436 30276522 29898244 
433.912 29500546 29127664 28830190 28650254 28606118 28680126 28818976 
437.286 28946274 28986988 28892652 28660706 28335524 27992782 27709962 
440.661 27538302 27482896 27504324 27535296 27510308 27391622 27184802 
444.036 26935068 26710282 26575286 26571462 26706524 26957482 27282296 
447.411 27635694 27979196 28286566 28540938 28731094 28847874 28886940 
450.786 28851694 28758450 28634408 28512168 28417920 28361814 28333018 
454.161 28303732 28239890 28115850 27925236 27684432 27426082 27186840 
457.535 26993302 26854174 26759200 26688386 26621812 26550388 26478176 
460.910 26419430 26388310 26391252 26420640 26457636 26475234 26456342 
464.285 26391614 26285206 26150690 26005862 25865950 25740416 25632958 
467.660 25544494 25475074 25425960 25396988 25384528 25379074 25365760 
471.035 25327974 25253224 25137914 24989432 24823024 24656832 24504008 
474.409 24370010 24250752 24138118 24024460 23907590 23791122 23681496 
477.784 23582732 23493344 23405632 23310334 23203262 23091660 22994254 
481.159 22937024 22941986 23016942 23147688 23299154 23423988 23477236 
484.534 23430694 23281648 23053592 22787858 22530202 22318788 22175058 
487.909 22103412 22095262 22137372 22217970 22330524 22472172 22641394 
491.284 22834394 23044346 23262814 23482818 23700682 23916834 24131710 
494.658 24348522 24565666 24778652 24981768 25171404 25347024 25511800 
498.033 25668460 25816810 25949630 26054114 26114218 26116590 26055146 
501.408 25933822 25764932 25566166 25355098 25146090 24948954 24770550 
504.783 24616256 24491514 24400926 24345850 24321498 24315982 24311524 
508.158 24288350 24229520 24125196 23973954 23782566 23562610 23327940 
511.532 23091878 22867258 22665430 22496572 22368066 22282732 22236650 
514.907 22218936 22213122 22200928 22166522 22100034 21998174 21863290 
518.282 21700846 21517114 21317644 21108336 20895886 20688650 20494190 
521.657 20317510 20157830 20008458 19858846 19700248 19530748 19359378 
525.032 19203242 19086274 19026774 19031832 19093308 19190440 19296390 
528.406 19387408 19449418 19480666 19489064 19486814 19483814 19484176 
531.781 19485562 19481874 19466300 19434030 19382570 19310334 19215754 
535.156 19096732 18951856 18783362 18597680 18405824 18220622 18053196 
538.531 17909966 17791438 17693932 17612482 17543264 17484964 17437536 
541.906 17400066 17369128 17339378 17305546 17266334 17225788 17192940 
545.281 17177148 17182906 17204664 17226232 17224504 17177428 17071748 
548.655 16909510 16708078 16495917 16304227 16158683 16073633 16051091 
552.030 16082063 16151754 16243409 16341254 16432162 16505795 16555300 
555.405 16578279 16576571 16558308 16533852 16513724 16505117 16509840 
558.780 16525010 16545735 16568769 16595302 16631106 16684433 16761094 
562.155 16861088 16976142 17092054 17192236 17263814 17300992 17307348 
565.529 17293444 17273576 17261588 17267494 17296158 17347938 17419310 
568.904 17504424 17595738 17684672 17762488 17822110 17859458 17875974 
572.279 17878776 17880032 17894188 17934934 18011108 18124680 18269208 
575.654 18431290 18592350 18732424 18834014 18886084 18886670 18844266 
579.029 18776644 18707568 18661120 18656440 18702406 18796702 18925844 
582.404 19070528 19210052 19327352 19412004 19460520 19475000 19460992 
585.778 19426236 19380150 19333392 19298002 19285488 19304314 19357840 
589.153 19441990 19546534 19657650 19762322 19852074 19924648 19983394 
592.528 20033982 20080850 20124838 20162914 20190308 20204146 20205800 
595.903 20202436 20204832 20224354 20268294 20337750 20425750 20519274 
599.278 20601704 20656850 20672550 20643646 20572822 20471656 20357848 
602.652 20252112 20174170 20137846 20147750 20198702 20277260 20366428 
606.027 20451174 20523096 20582672 20637786 20700066 20780270 20883794 
609.402 21009960 21152708 21304558 21459844 21617384 21781156 21958220 
612.777 22156152 22379372 22627540 22894456 23168524 23434940 23678262 
616.152 23885178 24047966 24166486 24248954 24311042 24371990 24450040 
619.527 24557590 24698122 24866278 25050956 25240722 25428320 25613998 
622.901 25804208 26008266 26232852 26478160 26737092 26997842 27249306 
626.276 27486088 27711878 27938204 28180590 28452348 28759256 29096472 
629.651 29449556 29797590 30118536 30394030 30612438 30770128 30871110 
633.026 30925458 30947580 30954184 30961802 30984954 31034266 31114766 
636.401 31226236 31363822 31520560 31688914 31862658 32037084 32208546 
639.775 32373924 32530400 32676068 32811544 32941130 33072266 33214554 
643.150 33376276 33561216 33767188 33985116 34202128 34404888 34583888 
646.525 34735716 34863876 34977064 35087236 35206740 35347296 35519396 
649.900 35732260 35993984 36309924 36681664 37104644 37566964 38049864 
653.275 38529484 38979900 39377200 39702444 39943720 40097472 40167456 
656.650 40163676 40100560 39994416 39862044 39719104 39578720 39452132 
660.024 39348080 39273640 39234664 39235516 39278452 39362548 39483244 
663.399 39631764 39796808 39966440 40130568 40283240 40423360 40554360 
666.774 40682432 40814520 40956100 41110668 41279856 41464064 41663560 
670.149 41878484 42108872 42354004 42611564 42877572 43147368 43416584 
673.524 43682592 43945392 44206856 44469964 44736508 45005536 45272264 
676.898 45527880 45761568 45962440 46122620 46239092 46315512 46360800 
680.273 46388288 46413144 46449316 46507936 46595984 46716388 46868828 
683.648 47050560 47256960 47481304 47714732 47946304 48164040 48357260 
687.023 48518496 48646472 48746384 48829532 48910420 49003456 49120144 
690.398 49267740 49448872 49663392 49910420 50188944 50498524 50837584 
693.773 51202624 51587620 51985012 52387068 52789020 53190224 53594680 
697.147 54010128 54445776 54909920 55408420 55943752 56514932 57117300 
700.522 57743168 58381332 59017552 59636560 60223944 60769344 61269496 
703.897 61728656 62157332 62568924 62975892 63385896 63800348 64215160 
707.272 64623372 65017448 65391296 65739928 66058852 66342852 66586776 
710.647 66785844 66939572 67053660 67140648 67217848 67303576 67413320 
714.021 67556560 67737264 67956808 68218848 68535112 68928904 69438080 
717.396 70115104 71027424 72256720 73900064 76068448 78884648 82477456 
720.771 86970888 92470080 99044240 106708592 115409128 125010104 135289376 
724.146 145941216 156591264 166822096 176210512 184372880 191008672 
727.039 195935216 199100560 200573440 200512656 199125440 196629360 
729.931 193223856 189077376 184326512 179081936 173436144 167468960 
732.824 161250080 154840432 148294160 141662128 134996432 128354896 
735.717 121802416 115409280 109245944 103376480 97854064 92718128 87995456 
739.091 83703264 79852768 76451384 73501896 71000352 68933312 67275456 
742.466 65989860 65031200 64350212 63898908 63634112 63520304 63529544 
745.841 63641252 63841224 64120544 64474544 64900644 65396392 65956072 
749.216 66569360 67220536 67890192 68558856 69210512 69834992 70427992 
752.591 70987936 71511776 71990544 72407592 72739688 72961296 73050512 
755.966 72993848 72788472 72441672 71966864 71378832 70690392 69910152 
759.340 69043512 68094904 67070344 65979464 64835116 63653120 62449616 
762.715 61239644 60035972 58848312 57683812 56546608 55438744 54359924 
766.090 53308288 52281776 51278756 50299656 49346624 48423304 47532964 
769.465 46676968 45853016 45055516 44276484 43508100 42744480 41984852 
772.840 41232584 40494848 39780576 39098328 38454816 37853984 37297232 
776.214 36783592 36310684 35874460 35469508 35088572 34723244 34364000 
779.589 34001548 33627604 33235892 32822132 32384836 31924404 31444024 
782.964 30949010 30447582 29950534 29470418 29019718 28608638 28242834 
786.339 27922002 27640264 27387984 27154544 26932446 26719332 26518968 
789.714 26340292 26194158 26090072 26032790 26019760 26042006 26084316 
793.089 26128332 26154856 26146356 26088686 25972714 25794458 25556008 
796.463 25265224 24935400 24584108 24231408 23897696 23601906 23359166 
799.838 23180494 23072196 23036132 23070200 23168882 23323052 23519840 
803.213 23744404 23979078 24205436 24406164 24567088 24678522 24736028 
806.588 24740240 24695622 24609098 24488460 24341010 24172794 23988604 
809.963 23792056 23586192 23374032 23159628 22947798 22744540 22556492 
813.337 22390542 22252492 22146734 22075156 22037416 22030574 22050122 
816.712 22090600 22146372 22213052 22287944 22370082 22460582 22561196 
820.087 22673408 22797272 22930638 23069010 23206756 23338902 23463096 
823.462 23580638 23696732 23818724 23953878 24106094 24274364 24451932 
826.837 24628538 24792160 24933118 25046372 25132736 25198856 25255440 
830.212 25315144 25390084 25490196 25621994 25787214 25983494 26204594 
833.586 26441440 26685312 26929594 27171804 27415088 27666806 27937510 
836.961 28237130 28573106 28949054 29365600 29822186 30319714 30861290 
840.336 31452384 32098424 32802094 33560812 34366428 35205232 36061172 
843.711 36917324 37757460 38566688 39330596 40034424 40664224 41208100 
847.086 41659432 42018440 42294848 42506864 42680436 42846116 43037872 
850.460 43290020 43636916 44110012 44736316 45534636 46513556 47670036 
853.835 48990972 50457036 52049012 53752728 55562808 57482032 59517628 
857.210 61674628 63950248 66328936 68782248 71270384 73747624 76167128 
860.585 78486480 80672008 82701528 84566440 86271744 87834224 89279216 
863.960 90634824 91926312 93171368 94377776 95544104 96663192 97726584 
867.335 98728608 99667792 100545624 101363184 102117824 102798984 103387272 
870.709 103854512 104165200 104277896 104148352 103732008 102989040 
873.602 101889240 100419536 98588704 96429624 93996768 91359240 88590016 
876.977 85755488 82907248 80079712 77292160 74555296 71878312 69274712 
880.352 66763320 64367192 62108500 60005648 58070356 56308980 54724412 
883.727 53318624 52093788 51052016 50192680 49510440 48992832 48621548 
887.101 48373276 48223352 48148320 48128468 48148040 48196044 48264076 
890.476 48345704 48434948 48525304 48609908 48681380 48734000 48764480 
893.851 48773136 48764132 48743732 48718144 48689952 48656480 48609460 
897.226 48538072 48432648 48290004 48116128 47926316 47741092 47581168 
900.601 47460844 47384768 47347108 47335296 47334872 47334536 47328396 
903.975 47316248 47299936 47280648 47256240 47221348 47170028 47099640 
907.350 47013388 46922512 46843564 46796220 46797768 46860120 46987656 
910.725 47177676 47421208 47705968 48017796 48342944 48669148 48987476 
914.100 49293260 49587248 49875844 50169752 50481040 50819780 51189844 
917.475 51586724 51996880 52400024 52773408 53097216 53358836 53556548 
920.849 53699256 53804608 53894776 53992968 54118124 54283612 54496160 
924.224 54756796 55062460 55407940 55786920 56192932 56619480 57060176 
927.599 57508492 57959800 58411424 58863796 59320324 59785748 60264148 
930.974 60755652 61254880 61749884 62222992 62654488 63025988 63324668 
934.349 63545704 63693748 63780836 63824236 63842424 63851444 63862236 
937.724 63880004 63903832 63929184 63949824 63960692 63959120 63946484 
941.098 63928360 63913144 63910948 63932560 63986964 64081848 64222672 
944.473 64413256 64655856 64951792 65301104 65702900 66154888 66654160 
947.848 67197464 67782376 68408112 69075832 69788072 70547976 71356240 
951.223 72209344 73096960 74000600 74893088 75740776 76505264 77148120 
954.598 77634368 77935920 78034112 77919704 77592496 77059632 76332744 
957.972 75427128 74361344 73157960 71843448 70450264 69015312 67578664 
961.347 66180236 64856328 63635544 62536216 61566344 60724256 60001416 
964.722 59386080 58866776 58434656 58084404 57814216 57624436 57515392 
968.097 57485384 57529280 57637708 57797468 57992968 58208016 58427764 
971.472 58641232 58841440 59026096 59196660 59357808 59515784 59677864 
974.847 59850912 60041524 60254136 60490704 60749572 61026020 61311844 
978.221 61598188 61876700 62142968 62397016 62644280 62894048 63157456 
981.596 63444928 63763952 64117796 64505040 64920360 65355204 65799208 
984.971 66241160 66671036 67081176 67468528 67835392 68189864 68545784 
988.346 68917608 69320064 69763280 70251968 70784896 71356760 71960864 
991.721 72591976 73248152 73930544 74642008 75385616 76162248 76970432 
995.095 77807176 78669328 79555912 80470000 81418216 82410016 83455192 
998.470 84561424 85731592 86962584 88244704 89563472 90901032 92240560 
1001.845 93568336 94878440 96174248 97470384 98791376 100170424 101644624 
1005.220 103251768 105025896 106994992 109179992 111595560 114253032 
1008.113 117163744 120342912 123813392 127607600 131769328 136353008 
1011.005 141421920 147042160 153275808 160168128 167733488 175938656 
1013.898 184686800 193805856 203046128 212090016 220577616 228146016 
1016.791 234477056 239344272 242648192 244430384 244865648 244230192 
1019.683 242861072 241110288 239305536 237722064 236567616 235978416 
1022.576 236023936 236717264 238027152 239891296 242229552 244956352 
1025.469 247991424 251269664 254746608 258401088 262233616 266259664 
1028.362 270502400 274982720 279714400 284701568 289939808 295421280 
1031.255 301140128 307094912 313288480 319723296 326395008 333285760 
1034.148 340361824 347573152 354858656 362151936 369387008 376501600 
1037.041 383436768 390135072 396538592 402588832 408229664 413410432 
1039.934 418090816 422241344 425844896 428891872 431377984 433300768 
1042.827 434659264 435451488 435676352 435332736 434421408 432947520 
1045.720 430925920 428387008 425382560 421986848 418294208 414408800 
1048.614 410433504 406457856 402551712 398761440 395115456 391629824 
1051.507 388315200 385178976 382225856 379453632 376851840 374400352 
1054.400 372074912 369853760 367727264 365703360 363812512 362103808 
1057.293 360641408 359497344 358747808 358469184 358740000 359639808 
1060.186 361250688 363653824 366927488 371138976 376341824 382571680 
1063.079 389847104 398169504 407528544 417903072 429264896 441578752 
1065.972 454804224 468894368 483798688 499460832 515819744 532806688 
1068.865 550344000 568342528 586703808 605321664 624090304 642908480 
1071.758 661686912 680348352 698826816 717059776 734984768 752530240 
1074.651 769616896 786157248 802064384 817258496 831678656 845285312 
1077.544 858060224 869997440 881090304 891313472 900613312 908903040 
1080.437 916072192 921999552 926576704 929720320 931385664 931563904 
1083.330 930280896 927588736 923563392 918302592 911923008 904552512 
1086.223 896324032 887360128 877770432 867647424 857075008 846135424 
1089.116 834919168 823521728 812040896 800562112 789150656 777845504 
1092.010 766663552 755605696 744668288 733848000 723143808 712552064 
1094.903 702064000 691661504 681320704 671016768 660731456 650455488 
1097.796 640190464 629942464 619717696 609514944 599324672 589129152 
1100.689 578907456 568637824 558303488 547894592 537411840 526867392 
1103.582 516288448 505715904 495206208 484825728 474648768 464751872 
1106.475 455212224 446107648 437518080 429524864 422210496 415651392 
1109.368 409912032 405034304 401033728 397896448 395584000 394039200 
1112.261 393195776 392983104 393331360 394170112 395428128 397031008 
1115.154 398902688 400967584 403156608 405411072 407686944 409955520 
1118.047 412203264 414428096 416637792 418845408 421066976 423316384 
1120.940 425601696 427919168 430251840 432567872 434823328 436965568 
1123.833 438938368 440684384 442146240 443265952 443985568 444248704 
1126.726 444005696 443221088 441880256 439991008 437582784 434698432 
1129.619 431385984 427688736 423641344 419267616 414583232 409596768 
1132.512 404311552 398725312 392829728 386611520 380055872 373151968 
1135.406 365898912 358309952 350412480 342244032 333848128 325267872 
1138.299 316545312 307720768 298836992 289941472 281089024 272339744 
1141.192 263757072 255402416 247331664 239593872 232230288 225274544 
1144.085 218755360 212696448 207117392 202033152 197453904 193384112 
1146.978 189823184 186763680 184192592 182091024 180435344 179198272 
1149.871 178351312 177867056 177721440 177894336 178368000 179125008 
1152.764 180145424 181403872 182870608 184512128 186296256 188196032 
1155.657 190193664 192279712 194452032 196710832 199054272 201476368 
1158.550 203966464 206511968 209103344 211737104 214419536 217165840 
1161.443 219998080 222941888 226022816 229264192 232687488 236312192 
1164.336 240158880 244251392 248618160 253294384 258321200 263746560 
1167.229 269624896 276016384 282988000 290612832 298970048 308143968 
1170.122 318221376 329287008 341418912 354681056 369118080 384747808 
1173.015 401558368 419504448 438503936 458432576 479118912 500334976 
1175.908 521790080 543126912 563926784 583726016 602045184 618423616 
1178.802 632458368 643833024 652338816 657880576 660473984 660234944 
1181.695 657365952 652137856 644869760 635902784 625579328 614222016 
1184.588 602121920 589533440 576675648 563735744 550873472 538223168 
1187.481 525894176 513970560 502512768 491558592 481130560 471237568 
1190.374 461881920 453060672 444767520 436991936 429719776 422932512 
1193.267 416609184 410727200 405264864 400201664 395520672 391207904 
1196.160 387252800 383647904 380388544 377470784 374890560 372640864 
1199.053 370709888 369080096 367728448 366627840 365750080 365065664 
1201.946 364548096 364171296 363909760 363737216 363625696 363547008 
1204.839 363473664 363380096 363244768 363049184 362778496 362419168 
1207.732 361958752 361385056 360687040 359854688 358879168 357752704 
1210.625 356468640 355020352 353404000 351618336 349668480 347565696 
1213.518 345327712 342975840 340532192 338016192 335443168 332824576 
1216.411 330169824 327488064 324791328 322093152 319409312 316754784 
1219.304 314142080 311579968 309073408 306624064 304231264 301893536 
1222.198 299609024 297376608 295197088 293071392 291003040 288995680 
1225.091 287052064 285171936 283351968 281583328 279855232 278155392 
1227.984 276475040 274809568 273162304 271542624 269965504 268449120 
1230.877 267013104 265677600 264462672 263387680 262471312 261729536 
1233.770 261174464 260813152 260647120 260674448 260890960 261293232 
1236.663 261879472 262649632 263603920 264740192 266050880 267522688 
1239.556 269136608 270869568 272696736 274592448 276530560 278483104 
1242.449 280419104 282303360 284098912 285769056 287281888 288613664 
1245.342 289751840 290694080 291447360 292025248 292444864 292726336 
1248.235 292892768 292970016 292988384 292981248 292983488 293027104 
1251.128 293138400 293333856 293619488 293990528 294436032 294942016 
1254.021 295497216 296095168 296736608 297428480 298181408 299006208 
1256.914 299912288 300904128 301981664 303139840 304369568 305657760 
1259.807 306988608 308344256 309705984 311055392 312375712 313651808 
1262.700 314870816 316018496 317078432 318028032 318838752 319477024 
1265.594 319906368 320092992 320007232 319626112 318932160 317911680 
1268.487 316552800 314844960 312780448 310357440 307582432 304472096 
1271.380 301052160 297353760 293410240 289252512 284908128 280400928 
1274.273 275752640 270982944 266112064 261159392 256143536 251082832 
1277.166 245995696 240901440 235821280 230777392 225792304 220886368 
1280.059 216077088 211378720 206802752 202359776 198060688 193916672 
1282.952 189937616 186129328 182492624 179021360 175705232 172532464 
1285.845 169493824 166585840 163812688 161184192 158713616 156412576 
1288.738 154287664 152338512 150557040 148928448 147434960 146057392 
1291.631 144779568 143588688 142477104 141440928 140479504 139592992 
1294.524 138780112 138036992 137356736 136730256 136147776 135601408 
1297.417 135086736 134603328 134154352 133744984 133380416 133063720 
1300.310 132795360 132572424 132389920 132240608 132116496 132007984 
1303.203 131904600 131794424 131665080 131503864 131300168 131045576 
1306.096 130735992 130370584 129952104 129485000 128975224 128428040 
1308.990 127847240 127233800 126585456 125894816 125151352 124341432 
1311.883 123452072 122473648 121404016 120250008 119028400 117764232 
1314.776 116487296 115228280 114014784 112869016 111805952 110833136 
1317.669 109951088 109153960 108430864 107767144 107145984 106550912 
1320.562 105968776 105391008 104815960 104247800 103695448 103169320 
1323.455 102678888 102230688 101827248 101468320 101151832 100875840 
1326.348 100640888 100449024 100305472 100216320 100188712 100229744 
1329.241 100346392 100544952 100831376 101210200 101684328 102254064 
1332.134 102917824 103671992 104511472 105430128 106420976 107475040 
1335.027 108580608 109722200 110880616 112034168 113160488 114239000 
1337.920 115253392 116192656 117051784 117830520 118533632 119169128 
1340.813 119748648 120286832 120800864 121310056 121834328 122392224 
1343.706 123000624 123673040 124420048 125250440 126172216 127193064 
1346.599 128320784 129561336 130918472 132390472 133970440 135645328 
1349.492 137397184 139205200 141047232 142902352 144750896 146575920 
1352.385 148362496 150097184 151767184 153360096 154864688 156270176 
1355.279 157568272 158753248 159823040 160778128 161622016 162359792 
1358.172 162997696 163543056 164004608 164392288 164718560 164997168 
1361.065 165242928 165469504 165688160 165904928 166119552 166325280 
1363.958 166508272 166649200 166724848 166709200 166574992 166294384 
1366.851 165839392 165181968 164295952 163158752 161756160 160087120 
1369.744 158170528 156048000 153786752 151476624 149224208 147144256 
1372.637 145350080 143944144 143011424 142614240 142789104 143544592 
1375.530 144862112 146694672 148970384 151594544 154455664 157432832 
1378.423 160404928 163258336 165895232 168235408 170216624 171790736 
1381.316 172919696 173572848 173726864 173366560 172489312 171105392 
1384.209 169239296 166926400 164210976 161141936 157772016 154155392 
1387.102 150345968 146395696 142352432 138256192 134139032 130023208 
1389.995 125923392 121848400 117805456 113801912 109849112 105962768 
1392.888 102164272 98478920 94934280 91557560 88372632 85397584 82644312 
1396.264 80118048 77818944 75742976 73883928 72233728 70783784 69524936 
1399.639 68449544 67552392 66832392 66292652 65940448 65785328 65836640 
1403.014 66100516 66578528 67265088 68146888 69201128 70394576 71681048 
1406.389 73001992 74286208 75453576 76420552 77108184 77450608 77403088 
1409.765 76947400 76093968 74879584 73362872 71615344 69714912 67737224 
1413.140 65751068 63814080 61971280 60254584 58684440 57269988 56012160 
1416.515 54904344 53935160 53089580 52351120 51703588 51132988 50629692 
1419.890 50188980 49811360 49501628 49265880 49109804 49034876 49036896 
1423.266 49105084 49222536 49367428 49517960 49654588 49765520 49847340 
1426.641 49908040 49963748 50038832 50160076 50354708 50646500 51054292 
1430.016 51591136 52265384 53080856 54038232 55135968 56371448 57741864 
1433.391 59246600 60888264 62674248 64615668 66727668 69025336 71523104 
1436.767 74232816 77165440 80331928 83745488 87421408 91375840 95622264 
1440.142 100168016 105012200 110143760 115542368 121180024 127020376 
1443.035 133018448 139118288 145252336 151342880 157306192 163058976 
1445.928 168525296 173640992 178356752 182638976 186468688 189840432 
1448.821 192760384 195243088 197309040 198978768 200270816 201198240 
1451.714 201768192 201983296 201842464 201341472 200472496 199224224 
1454.607 197582304 195533344 193069312 190194128 186924944 183291872 
1457.500 179332368 175083008 170575584 165835072 160884112 155748432 
1460.393 150461056 145063776 139603360 134126320 128674672 123282520 
1463.286 117977560 112782984 107720288 102809664 98069160 93513800 89155432 
1466.662 85003744 81069336 77365136 73905872 70704688 67769024 65095804 
1470.037 62669768 60465412 58451340 56596124 54873528 53264288 51756896 
1473.412 50344756 49023760 47789300 46635820 45555772 44540720 43580404 
1476.787 42664032 41780632 40919912 40074056 39239408 38416456 37610216 
1480.163 36826768 36071996 35348452 34655104 33987484 33340524 32709834 
1483.538 32093830 31493154 30910002 30346040 29802214 29278184 28774174 
1486.913 28291968 27835894 27412878 27031006 26696256 26411944 26176346 
1490.288 25983916 25826468 25695848 25584600 25488568 25405452 25335606 
1493.664 25280344 25241816 25223140 25227414 25258062 25319186 25414942 
1497.039 25549358 25727340 25955012 26239812 26591070 27018544 27530790 
1500.414 28131678 28817214 29572338 30369298 31168294 31919852 32569792 
1503.789 33065296 33362332 33431950 33265792 32878668 32306522 31601596 
1507.165 30822498 30025964 29257760 28548238 27912458 27351826 26859506 
1510.540 26424982 26038340 25693296 25387888 25124146 24904898 24732030 
1513.915 24603622 24512910 24448564 24396888 24345028 24283278 24208202 
1517.290 24122860 24034186 23951360 23880904 23825496 23782474 23744904 
1520.666 23703862 23651666 23584078 23501400 23408592 23313694 23225600 
1524.041 23152464 23099268 23067906 23055576 23056474 23061770 23062874 
1527.416 23052236 23025760 22982430 22925078 22857936 22785350 22710470 
1530.791 22634762 22558746 22483266 22409898 22342108 22282632 22233156 
1534.167 22191428 22151826 22105940 22045670 21965536 21865524 21750150 
1537.542 21628460 21510296 21404440 21316384 21248446 21199852 21169614 
1540.917 21156264 21158564 21174250 21199754 21228966 21254760 21270110 
1544.292 21270520 21254710 21224930 21185302 21139728 21090472 21038012 
1547.667 20981082 20918666 20851554 20782554 20716004 20656194 20605724 
1551.043 20564868 20531618 20503754 20479420 20459314 20446090 20443622 
1554.418 20455062 20481428 20520024 20564968 20608342 20641368 20656590 
1557.793 20649468 20618920 20568544 20505942 20441068 20384844 20346594 
1561.168 20332250 20343488 20377292 20427594 20485992 20544160 20595364 
1564.544 20635592 20663918 20682636 20695692 20708696 20727332 20756462 
1567.919 20799428 20857744 20930568 21015554 21109454 21210344 21319090 
1571.294 21439624 21579762 21748614 21954356 22202442 22491980 22816702 
1574.669 23164112 23518484 23862330 24179764 24457954 24688096 24865164 
1578.045 24987174 25053450 25065116 25024130 24934214 24800756 24631192 
1581.420 24435070 24222916 24005546 23793918 23597048 23421944 23273054 
1584.795 23151742 23056836 22984478 22929300 22885506 22847178 22809584 
1588.170 22768972 22723170 22671084 22613740 22552610 22490680 22431056 
1591.546 22377064 22330722 22294382 22269354 22256956 22259546 22279862 
1594.921 22320488 22383578 22468770 22573308 22693006 22823074 22960900 
1598.296 23107750 23268956 23453860 23672148 23932112 24236312 24581870 
1601.671 24960412 25359748 25768084 26175952 26577940 26973274 27364180 
1605.047 27754526 28147094 28543036 28939430 29330438 29707220 30059606 
1608.422 30376682 30649246 30870234 31036436 31147640 31206862 31219382 
1611.797 31190694 31126972 31032324 30910370 30763382 30593100 30402308 
1615.172 30194804 29976062 29753796 29536888 29333932 29152150 28995390 
1618.548 28863994 28753778 28658376 28569858 28482862 28395598 28311980 
1621.923 28240016 28190502 28172520 28190688 28241952 28316272 28398318 
1625.298 28472008 28523750 28546518 28540050 28510952 28469540 28427600 
1628.673 28395234 28380766 28388608 28421128 28477730 28555636 28649292 
1632.049 28750898 28850816 28939648 29009756 29057120 29082676 29091484 
1635.424 29090692 29087860 29087740 29091106 29094816 29093320 29081076 
1638.799 29054170 29011798 28956554 28893304 28827980 28766580 28714098 
1642.174 28674612 28651126 28645370 28658028 28688378 28733552 28788506 
1645.550 28847694 28904806 28955768 28999026 29036904 29073946 29116642 
1648.925 29169542 29235220 29312498 29397574 29484924 29570504 29653058 
1652.300 29735090 29822880 29923978 30044848 30187356 30349404 30523940 
1655.675 30702728 30878338 31047430 31211898 31378266 31555202 31751406 
1659.051 31970918 32212864 32471250 32736316 32998972 33253032 33497930 
1662.426 33738472 33983560 34242844 34524152 34831132 35163764 35518692 
1665.801 35892080 36280900 36684884 37105952 37547092 38010460 38496364 
1669.176 39001344 39519924 40045000 40569148 41086876 41594388 42090256 
1672.552 42574860 43049988 43517200 43979244 44438924 44899736 45365516 
1675.927 45840592 46329240 46834600 47358836 47902892 48466196 49047720 
1679.302 49646444 50260648 50889292 51531064 52183180 52841976 53502484 
1682.677 54158420 54804580 55437252 56057752 56671352 57288332 57921072 
1686.052 58582468 59282488 60027752 60821064 61662420 62551120 63486920 
1689.428 64471768 65509500 66605756 67767312 69001312 70315408 71717528 
1692.803 73218208 74828360 76560360 78425840 80434600 82593312 84907224 
1696.178 87382000 90030280 92873168 95944408 99289376 102960144 107009448 
1699.553 111484016 116419528 121841432 127769768 134229472 141258560 
1702.447 148914480 157272128 166417312 176434384 187396272 199355328 
1705.340 212339088 226351760 241376704 257378096 274303360 292081472 
1708.233 310625152 329834656 349603200 369820960 390372608 411130080 
1711.126 431937888 452601248 472883264 492512800 511206688 528695296 
1714.019 544750272 559204928 571968128 583028736 592456320 600392128 
1716.912 607028608 612580288 617248704 621191232 624509120 627249920 
1719.805 629429120 631052672 632137152 632711168 632810624 632465216 
1722.698 631694656 630512256 628938944 627018624 624826816 622461888 
1725.591 620028800 617614080 615270464 613012224 610826240 608690304 
1728.484 606589184 604524736 602513152 600574400 598724672 596972608 
1731.377 595322752 593788288 592396736 591195200 590244864 589610816 
1734.270 589353344 589521600 590160128 591313472 593034944 595386816 
1737.163 598437312 602248832 606871232 612335936 618660480 625855424 
1740.056 633931712 642901760 652772352 663531968 675137728 687508032 
1742.949 700528000 714059008 727951616 742052288 756199744 770215104 
1745.843 783892672 797002688 809307648 820591552 830684608 839478336 
1748.736 846916352 852970688 857614336 860804032 862483456 862599488 
1751.629 861126400 858075200 853490304 847428160 839937856 831047552 
1754.522 820771136 809127680 796163968 781969024 766674112 750437824 
1757.415 733423616 715780416 697638272 679108352 660296384 641313600 
1760.308 622282112 603332544 584597376 566200384 548247296 530818752 
1763.201 513968480 497723584 482088384 467050208 452587488 438677504 
1766.094 425305024 412465984 400169088 388429888 377261728 366664960 
1768.987 356620576 347086400 338001664 329295168 320895328 312738016 
1771.880 304771392 296954912 289257216 281651840 274114656 266625136 
1774.773 259167904 251736080 244331952 236963648 229640496 222366400 
1777.666 215136368 207936784 200750016 193563792 186377392 179206512 
1780.559 172082864 165046416 158137552 151390096 144827136 138462720 
1783.452 132305696 126364320 120649368 115172512 109943896 104968920 
1786.345 100247592 95776472 91552656 87578208 83860752 80409872 77232480 
1789.721 74325752 71672952 69244264 67001744 64905672 62923296 61032344 
1793.096 59223032 57495640 55855624 54310468 52865856 51524864 50288628 
1796.471 49156032 48124108 47187276 46338008 45564768 44854124 44190456 
1799.846 43558720 42944624 42337300 41730024 41121764 40516552 39922876 
1803.222 39351520 38812752 38311984 37850244 37421796 37017616 36627360 
1806.597 36243740 35862428 35483600 35108336 34737624 34369956 34002780 
1809.972 33633008 33259470 32884154 32511014 32142174 31777188 31410556 
1813.347 31034716 30644114 30241316 29838208 29458006 29127666 28871444 
1816.723 28700934 28611776 28582834 28583234 28581440 28552898 28484962 
1820.098 28376670 28232830 28060738 27865464 27650130 27417298 27172656 
1823.473 26924346 26680726 26447612 26224012 26001358 25765522 25501760 
1826.848 25200398 24859326 24486174 24094962 23702428 23325300 22977232 
1830.224 22668568 22408216 22200842 22048004 21943474 21872916 21813558 
1833.599 21737628 21619080 21441224 21200750 20910024 20593660 20281312 
1836.974 19999004 19763142 19575216 19423308 19285080 19134008 18944052 
1840.349 18696804 18383910 18010880 17595728 17168536 16766356 16426688 
1843.725 16178241 16036024 15995136 16032562 16110245 16186414 16221732 
1847.100 16189810 16081298 15904661 15682815 15448551 15235651 15072098 
1850.475 14973141 14939368 14954947 14993783 15023765 15017228 14956635 
1853.850 14840079 14678927 14496826 14319985 14172506 14069911 14019354 
1857.226 14017673 14057388 14124564 14203749 14274706 14313841 14297479 
1860.601 14207070 14034488 13790327 13504332 13222116 12993672 12861525 
1863.976 12846655 12942872 13116827 13318738 13493708 13598622 13608236 
1867.351 13521406 13354636 13135595 12893221 12651991 12429644 12238697 
1870.727 12087640 11984102 11933949 11938029 11990028 12074432 12165627 
1874.102 12235381 12255681 12207244 12083601 11893558 11656916 11402690 
1877.477 11160834 10959098 10817723 10750164 10760367 10845620 10995708 
1880.852 11195111 11421781 11650271 11852615 12005288 12089163 12097896 
1884.228 12035797 11920067 11773432 11619841 11477733 11357063 11256319 
1887.603 11167892 11079940 10985228 10880458 10772856 10673840 10597054 
1890.978 10554252 10551231 10584588 10645531 10719405 10790906 10846806 
1894.353 10880413 10889863 10880861 10861990 10842851 10829690 10823589 
1897.729 10817484 10801625 10763642 10695932 10597846 10479255 10357301 
1901.104 10253545 10187444 10170313 10204736 10282970 10390437 10511579 
1904.479 10629921 10734016 10813997 10864526 10881545 10865734 10820716 
1907.854 10757296 10688342 10627557 10581353 10547814 10512529 10454789 
1911.229 10352716 10196865 9994731 9774718 9579019 9455089 9436624 9538583 
1915.087 9749159 10034083 10345020 10632752 10855730 10988489 11019198 
1918.462 10950025 10787555 10543879 10230988 9864232 9460955 9044221 8640869 
1922.320 8279710 7987664 7787806 7694996 7716872 7849923 8083399 8397935 
1926.177 8770073 9172765 9581661 9973507 10332615 10644225 10898476 11082116 
1930.034 11181893 11181834 11068252 10834557 10485174 10038756 9525309 
1933.410 8982140 8448178 7958091 7541719 7218540 7005200 6911790 6946638 
1937.267 7108950 7389697 7763223 8191841 8623355 9003659 9282078 9425274 
1941.125 9423194 9292380 9071238 8812127 8564672 8365685 8224983 8134063 
1944.982 8062687 7983085 7881842 7775486 7704631 7727505 7894736 8230304 
1948.839 8715293 9294169 9891828 10443554 10914785 11318299 11693746 
1952.215 12086468 12507203 12913371 13203945 13256198 12963638 12288248 
1955.590 11282994 10092751 8910143 7929507 7286218 7028942 7107358 7406237 
1959.447 7779267 8101504 8292700 8335941 8257277 8121814 8006388 7993454 
1963.305 8156436 8544195 9160492 9946382 10771951 11465502 11844479 11791755 
1967.162 11292957 10465550 9525516 8729827 8280796 8273335 8655795 9266741 
1971.020 9887468 10336702 10524679 10484248 10341573 10271373 10430235 
1974.395 10920415 11756979 12896215 14224055 15609069 16892310 17923108 
1977.770 18570528 18760400 18501608 17889902 17087428 16275959 15604915 
1981.145 15154176 14916736 14829293 14794874 14741925 14653121 14578389 
1984.521 14597381 14789715 15172373 15689049 16206751 16563198 16615348 
1987.896 16297482 15642351 14783463 13909409 13223580 12871632 12917130 
1991.271 13310574 13911109 14510669 14891859 14873897 14362556 13378021 
1994.646 12056185 10622968 9340131 8437348 8054512 8195181 8735895 9450856 
1998.504 10086223 10428039 10369073 9923934 9225296 8465026 7835657 7464235 
2002.361 7381724 7514884 7734178 7899563 7921969 7790428 7586190 7438870 
2006.219 7493154 7821067 8404449 9109346 9734876 10065553 9952222 9350385 
2010.076 8343873 7119343 5927407 5014325 4576417 4707425 5398214 6525091 
2013.933 7884401 9218615 10264124 10786762 10644110 9804133 8384711 6629514 
2017.791 4865566 3411127 2493449 2174405 2345403 2755114 3122411 3227935 
2021.648 3009767 2569378 2135180 1945754 2150648 2727276 3492699 4164769 
2025.506 4477134 4285868 3627147 2687118 1740377 1020800 665184 657673 
2029.363 883542 1186075 1456917 1666892 1881198 2202076 2733322 3519417 
2033.220 4547406 5747362 7029814 8299081 9472213 10459139 11168023 11496343 
2037.078 11369637 10755255 9711486 8375291 6953596 5673804 4738956 4280665 
2040.935 4338552 4856291 5706043 6707884 7668384 8399885 8756594 8653803 
2044.793 8101533 7212275 6201236 5340368 4904910 5086962 5940606 7341319 
2048.650 9017070 10616236 11821729 12436436 12436194 11942880 11180718 
2052.025 10390581 9780823 9476388 9515540 9849229 10375516 10968521 11517426 
2055.883 11940856 12198071 12277275 12187898 11949778 11591736 11143740 
2059.258 10646877 10143706 9681294 9299416 9028923 8880489 8852480 8926953 
2063.115 9081356 9291744 9542783 9822979 10127544 10446546 10763033 11041796 
2066.973 11237895 11295523 11172029 10842456 10321734 9661134 8952159 
2070.348 8304267 7829761 7614858 7706631 8097069 8730326 9510781 10327511 
2074.206 11069239 11651814 12020123 12160084 12089076 11852945 11509554 
2077.581 11128645 10774962 10504998 10357547 10347751 10459602 10650467 
2080.956 10854857 11003607 11036108 10923782 10671955 10323726 9938824 
2084.331 9579798 9286140 9067598 8904486 8766249 8626709 8486777 8373609 
2088.189 8336300 8417010 8634927 8962907 9336212 9660410 9850251 9852733 
2092.046 9671719 9362179 9020804 8750202 8631672 8697693 8927546 9254690 
2095.904 9591578 9853468 9983492 9962465 9809469 9569589 9304231 9070017 
2099.761 8914299 8862661 8919235 9066539 9273793 9502159 9717307 9893509 
2103.618 10022607 10109275 10172370 10234086 10319819 10442724 10607285 
2106.994 10802041 11003288 11176597 11287641 11309039 11234784 11083586 
2110.369 10903685 10761243 10725409 10845524 11135708 11561854 12054436 
2113.744 12520028 12873318 13056112 13054468 12891651 12618111 12286171 
2117.119 11933878 11573533 11195547 10780045 10311931 9792740 9244303 
2120.495 8699280 8195453 7758940 7400890 7114102 6880776 6674117 6470103 
2124.352 6245421 5984412 5676807 5322340 4929247 4513909 4095031 3683089 
2128.209 3271994 2834436 2321991 1684610 885522 -72142 -1138847 -2216572 
2132.067 -3183928 -3923134 -4355381 -4461120 -4285778 -3918090 -3463906 
2135.442 -3005485 -2590030 -2216995 -1871198 -1541870 -1255780 -1080581 
2138.817 -1117772 -1465490 -2189307 -3284853 -4668290 -6185615 -7654918 
2142.193 -8900586 -9810977 -10350822 -10575145 -10594593 -10544283 -10535342 
2145.568 -10634422 -10850417 -11157400 -11513394 -11899549 -12318590 
2148.461 -12797174 -13355956 -13993097 -14660032 -15287685 -15797000 
2151.354 -16160004 -16410809 -16677069 -17141520 -18005558 -19415356 
2154.247 -21413476 -23888128 -26583334 -29112114 -31030028 -31891796 
2157.140 -31352292 -29249444 -25684740 -21049836 -15984571 -11219197 
2160.033 -7406902 -4940642 -3910085 -4101569 -5116155 -6466653 -7699753 
2163.408 -8454403 -8521370 -7844439 -6516887 -4733976 -2760084 -867855 
2166.784 698349 1773134 2276432 2235892 1766182 1047949 271553 -389342 
2170.641 -834673 -1038302 -1051829 -962056 -865188 -822651 -859169 -962263 
2174.499 -1112887 -1298026 -1537397 -1865176 -2327509 -2942409 -3694446 
2177.874 -4528880 -5363882 -6108794 -6684044 -7034846 -7133411 -6981585 
2181.249 -6600829 -6028489 -5317446 -4517315 -3675514 -2817805 -1953232 
2184.624 -1075269 -186550 693612 1503521 2156103 2550948 2614228 2327056 
2188.482 1746613 998545 245511 -356842 -698913 -747737 -536763 -156485 
2192.339 290665 707177 1031587 1232154 1311993 1298956 1241924 1200822 
2196.197 1237733 1397834 1696582 2098806 2533870 2904583 3130853 3178847 
2200.054 3085057 2941649 2877266 2998033 3359271 3946168 4689384 5498262 
2203.911 6301118 7060850 7776590 8449239 9059496 9545619 9822608 9810790 
2207.769 9490632 8918956 8237018 7622260 7236719 7171822 7421881 7894939 
2211.626 8455733 8972413 9364405 9604448 9719365 9750528 9735607 9691169 
2215.484 9624177 9536470 9442873 9366603 9330879 9338918 9377389 9415579 
2219.341 9430324 9419450 9411096 9447913 9567024 9765319 10002719 10202694 
2223.198 10299678 10267136 10145735 10031743 10045688 10278127 10749348 
2226.574 11395581 12088696 12681946 13061427 13180184 13068652 12803625 
2229.949 12477709 12161044 11891336 11670223 11492015 11351029 11256406 
2233.324 11219536 11244195 11313128 11392805 11446370 11452510 11415472 
2236.699 11368072 11345622 11371098 11432745 11492996 11501029 11428346 
2240.075 11287460 11140075 11075028 11173867 11471540 11936318 12471741 
2243.450 12948701 13241968 13275644 13039513 12590042 12027577 11467762 
2246.825 11007928 10716200 10619566 10713719 10965536 11325026 11726212 
2250.200 12101090 12385937 12537111 12539266 12413395 12208514 11989907 
2253.576 11815163 11722453 11719367 11791137 11912109 12061674 12232220 
2256.951 12430050 12662022 12926135 13200060 13446406 13615944 13672984 
2260.326 13600343 13413080 13153488 12881777 12657709 12531314 12527985 
2263.701 12650228 12876887 13170915 13484782 13770562 13987771 14111793 
2267.077 14138265 14089066 14005622 13942274 13951718 14072902 14318756 
2270.452 14677002 15109333 15565885 15994301 16351359 16610963 16766932 
2273.827 16829874 16829228 16801520 16790128 16832032 16952896 17158020 
2277.202 17431306 17734510 18020100 18242676 18374534 18413738 18386848 
2280.578 18337622 18314016 18349382 18451622 18599224 18749830 18854798 
2283.953 18876364 18797500 18630744 18409870 18180006 17984962 17855750 
2287.328 17803500 17820988 17885414 17968018 18038996 18075938 18065218 
2290.703 18005262 17903390 17772344 17627346 17481380 17341632 17209736 
2294.079 17080890 16950852 16816360 16681835 16556548 16455129 16390888 
2297.454 16371889 16395139 16449362 16515845 16577091 16618917 16637979 
2300.829 16637515 16626192 16610056 16591744 16566981 16529797 16475370 
2304.204 16406331 16332380 16270509 16235715 16238954 16281186 16354512 
2307.580 16446916 16546985 16648425 16752170 16861726 16979900 17101794 
2310.955 17216744 17308218 17361942 17371252 17341112 17287026 17230728 
2314.330 17192668 17188058 17221680 17291692 17391170 17512880 17651140 
2317.705 17802056 17964002 18140432 18339968 18580096 18886952 19287912 
2321.081 19798982 20411612 21076872 21707214 22186748 22398102 22251132 
2324.456 21711472 20808362 19633060 18316756 17003904 15821187 14855945 
2327.831 14142734 13667328 13380439 13218138 13122967 13055763 12999251 
2331.206 12953277 12924111 12917547 12934072 12968456 13011937 13055832 
2334.582 13092298 13114751 13117226 13096489 13051672 12987543 12914294 
2337.957 12847058 12801138 12787378 12808851 12859539 12927292 12997353 
2341.332 13057782 13102361 13129193 13138580 13130272 13102375 13051338 
2344.707 12978246 12888531 12796893 12720576 12677292 12676905 12718180 
2348.083 12786726 12860822 12916507 12936185 12911638 12846382 12750976 
2351.458 12641734 12534035 12442242 12378193 12350659 12365583 12424410 
2354.833 12521650 12644773 12772857 12882828 12951728 12964820 12915812 
2358.208 12810058 12659096 12478735 12284013 12086161 11893172 11710350 
2361.583 11539907 11383192 11238229 11101061 10964094 10820043 10663922 
2364.959 10496046 10324009 10160879 10021301 9918106 9856774 9836204 9848111 
2368.816 9882526 9929555 9983109 10040252 10099960 10161996 10225329 
2372.191 10289882 10357480 10431544 10517959 10620226 10738049 10863485 
2375.567 10983974 11083836 11152305 11186413 11195212 11195490 11206046 
2378.942 11240986 11304873 11390871 11485682 11573203 11643048 11690498 
2382.317 11719049 11733877 11742001 11746134 11749947 11759116 11784114 
2385.692 11839103 11940259 12096588 12303022 12539522 12771045 12957193 
2389.068 13064008 13073862 12992221 12845440 12673520 12517355 12408151 
2392.443 12358752 12364933 12406907 12460377 12501989 12518478 12505658 
2395.818 12469211 12419172 12366140 12317430 12275696 12238045 12199092 
2399.193 12153289 12097416 12031867 11962274 11895956 11842329 11807036 
2402.569 11793142 11798812 11819865 11852847 11897447 11957781 12042573 
2405.944 12159094 12310044 12489641 12682338 12865454 13015386 13114645 
2409.319 13157120 13147059 13098988 13028658 12948353 12862282 12769141 
2412.694 12664887 12551053 12438399 12347322 12303810 12329422 12431492 
2416.070 12599396 12801675 12997260 13143484 13211004 13190026 13091862 
2419.445 12941970 12772239 12606767 12460086 12331629 12215883 12105460 
2422.820 12001094 11911963 11853501 11838556 11871785 11942085 12024529 
2426.195 12085625 12094939 12034058 11904253 11727878 11543900 11394210 
2429.571 11316405 11330206 11434697 11608697 11817987 12022103 12188914 
2432.946 12297426 12343665 12337871 12298699 12247105 12197942 12157333 
2436.321 12123568 12087667 12041623 11981023 11909697 11835163 11768448 
2439.696 11716013 11678356 11646732 11608474 11549429 11464351 11357490 
2443.072 11245524 11152178 11102991 11115328 11195456 11333680 11508593 
2446.447 11690732 11851494 11965843 12019957 12009690 11942556 11834694 
2449.822 11709324 11592287 11511004 11487983 11537705 11662277 11850429 
2453.197 12077978 12312080 12516951 12663261 12731192 12718128 12633666 
2456.573 12499600 12343343 12191991 12066216 11979534 11935168 11930503 
2459.948 11956086 12003027 12061453 12124767 12188191 12249087 12304970 
2463.323 12353119 12389808 12410155 12408786 12384273 12337689 12275465 
2466.698 12207019 12143761 12094536 12063816 12048144 12038996 12024220 
2470.073 11995532 11949118 11893420 11843412 11818976 11836272 11900381 
2473.449 12000735 12111993 12199010 12226269 12170086 12026285 11812928 
2476.824 11566187 11330767 11148476 11045038 11026111 11076471 11168030 
2480.199 11270008 11359411 11426836 11478169 11529273 11597859 11693173 
2483.574 11813070 11941680 12055122 12129565 12150741 12118113 12047733 
2486.950 11965753 11901575 11878463 11905023 11973362 12060835 12137416 
2490.325 12177063 12161562 12092464 11986614 11873718 11786256 11752545 
2493.700 11785135 11880735 12018331 12167365 12291474 12361017 12356462 
2497.075 12275002 12128996 11944965 11756456 11599625 11503850 11488071 
2500.451 11554341 11689902 11868931 12059796 12231142 12360561 12438191 
2503.826 12469872 12471603 12464937 12470445 12501985 12562431 12646518 
2507.201 12738791 12820937 12872758 12876745 12818742 12693164 12501764 
2510.576 12257662 11983240 11710718 11473230 11301897 11217503 11227816 
2513.952 11324647 11489123 11695292 11916657 12130396 12321747 12480556 
2517.327 12602916 12688878 12740518 12763813 12767438 12760252 12752135 
2520.702 12749252 12754564 12765455 12778464 12790632 12802126 12815399 
2524.077 12834264 12856857 12876327 12878446 12848049 12773857 12657121 
2527.453 12513083 12370869 12261995 12214007 12237182 12323259 12446935 
2530.828 12577287 12684458 12752131 12779515 12780163 12775039 12785286 
2534.203 12825432 12903068 13016605 13159357 13319360 13480719 13623271 
2537.578 13723413 13759652 13716963 13593174 13403343 13178300 12958498 
2540.954 12783796 12683492 12668349 12730740 12847876 12992525 13140228 
2544.329 13277171 13398991 13510367 13616501 13719697 13814735 13892470 
2547.704 13939890 13948426 13914809 13846286 13756957 13666743 13594809 
2551.079 13556309 13555191 13586257 13632743 13672997 13686458 13661286 
2554.455 13597721 13510911 13424931 13366954 13357559 13405263 13503419 
2557.830 13634817 13776750 13910512 14024241 14116382 14189919 14250253 
2561.205 14298063 14331187 14341711 14326091 14283025 14218433 14142034 
2564.580 14065353 13997425 13944196 13908334 13891833 13897544 13929611 
2567.956 13989517 14076254 14181901 14295015 14403264 14499827 14585736 
2571.331 14670559 14764572 14875121 14998075 15118064 15212089 15259726 
2574.706 15251081 15193566 15108268 15023461 14964065 14942116 14952526 
2578.081 14982335 15015006 15042928 15069650 15109634 15177715 15281275 
2581.457 15412454 15550989 15669802 15747277 15775042 15762182 15730305 
2584.832 15704319 15702648 15730333 15779061 15832245 15874056 15895363 
2588.207 15896324 15885888 15874930 15873967 15888585 15922101 15975131 
2591.582 16048912 16142499 16251724 16364405 16462395 16522493 16526610 
2594.958 16466079 16350739 16204212 16061494 15955476 15909558 15928926 
2598.333 16002432 16106714 16217943 16318036 16400170 16467821 16530339 
2601.708 16596299 16670417 16750872 16831884 16907062 16972116 17026152 
2605.083 17070140 17105112 17130978 17144848 17144684 17129966 17103394 
2608.458 17071108 17041624 17021862 17015178 17020078 17030244 17037960 
2611.834 17035482 17019472 16990278 16954566 16921214 16900600 16903012 
2615.209 16935504 17002226 17101184 17227114 17368686 17511126 17637240 
2618.584 17729666 17773298 17758848 17684354 17556752 17392346 17214152 
2621.959 17048348 16921666 16854568 16859252 16937176 17080088 17272602 
2625.335 17496132 17731268 17962034 18174796 18358842 18504574 18604350 
2628.710 18650788 18641900 18579524 18473814 18338670 18192246 18050566 
2632.085 17926834 17828412 17759108 17719380 17709418 17730476 17783378 
2635.460 17865208 17969522 18084170 18193458 18282818 18343440 18373354 
2638.836 18379730 18374646 18369828 18371936 18380540 18388340 18386184 
2642.211 18367744 18332750 18288668 18247596 18222616 18222026 18248052 
2645.586 18295372 18355452 18419204 18480580 18536894 18588328 18633896 
2648.961 18670560 18692070 18690652 18659780 18597658 18509624 18406212 
2652.337 18301072 18207780 18134910 18084258 18051810 18027304 17999748 
2655.712 17959318 17900544 17821998 17725906 17617894 17502254 17383540 
2659.087 17262828 17139672 17012636 16879932 16741203 16598592 16455501 
2662.462 16315863 16184336 16062077 15948826 15841454 15736017 15629657 
2665.838 15520764 15411479 15306916 15212975 15135663 15077407 15037941 
2669.213 15012707 14995523 14979053 14958723 14932557 14902617 14872572 
2672.588 14847903 14832371 14827508 14831262 14839050 14844508 14841887 
2675.963 14826064 14796042 14752717 14699765 14641403 14581766 14523726 
2679.339 14468815 14417660 14371794 14332384 14302855 14286540 14287039 
2682.714 14304635 14338434 14383318 14433263 14481603 14522939 14554467 
2686.089 14575733 14588354 14594488 14596925 14597201 14596933 14597386 
2689.464 14599733 14605598 14614985 14626904 14637381 14641176 14631423 
2692.840 14602967 14553357 14485297 14405917 14326064 14257577 14210221 
2696.215 14189436 14195862 14223907 14263996 14305909 14338875 14355381 
2699.590 14352149 14329900 14294056 14251947 14213451 14187174 14180189 
2702.965 14195227 14229582 14276917 14325718 14365106 14384635 14378848 
2706.341 14348825 14300815 14245346 14193580 14154330 14130692 14122033 
2709.716 14122455 14126152 14128572 14129451 14131417 14140386 14160637 
2713.091 14193177 14234012 14273673 14300968 14305879 14282373 14231172 
2716.466 14159459 14079707 14006129 13951934 13925520 13929266 13960088 
2719.842 14009617 14066186 14118397 14157308 14178160 14181129 14171223 
2723.217 14156474 14144644 14141300 14148739 14164216 14182623 14199029 
2726.592 14211687 14222706 14238940 14268807 14319916 14394564 14488923 
2729.967 14592388 14691132 14771963 14825795 14850223 14849363 14831903 
2733.343 14808571 14788897 14777744 14777691 14787178 14804287 14826629 
2736.718 14852470 14879699 14906016 14928668 14943241 14946607 14936463 
2740.093 14913717 14882692 14850366 14825017 14814195 14822044 14848758 
2743.468 14889657 14935632 14975918 15000006 15000151 14973861 14923693 
2746.844 14858400 14790134 14733185 14700187 14700920 14738913 14812243 
2750.219 14912174 15026457 15139122 15234850 15300598 15327387 15311966 
2753.594 15256707 15169178 15059819 14942293 14829363 14732760 14661927 
2756.969 14622698 14617578 14643723 14694761 14760162 14826794 14882061 
2760.344 14915682 14923383 14907553 14876528 14842429 14817220 14809332 
2763.720 14820906 14847602 14880703 14910752 14930982 14940080 14941015 
2767.095 14940275 14944642 14957832 14979105 15005126 15029385 15045290 
2770.470 15050140 15041975 15022931 14996623 14968073 14942216 14923972 
2773.845 14918567 14929906 14960146 15008460 15071128 15140809 15208096 
2777.221 15264317 15303783 15323405 15324200 15309328 15283069 15249062 
2780.596 15209535 15166544 15123074 15082480 15051212 15036173 15043820 
2783.971 15077621 15138895 15224300 15327686 15440369 15553289 15656618 
2787.346 15742499 15803710 15835924 15838383 15813593 15770348 15720066 
2790.722 15676977 15655238 15664218 15709562 15787922 15891436 16005594 
2794.097 16115014 16204868 16265010 16291097 16286863 16262442 16233688 
2797.472 16217889 16229233 16277038 16361989 16475175 16600167 16717119 
2800.847 16806932 16855562 16858272 16819004 16750999 16672149 16600905 
2804.223 16553091 16538417 16560383 16616469 16698876 16798000 16904236 
2807.598 17008444 17103732 17185942 17252320 17303244 17340494 17368968 
2810.973 17395000 17426706 17471184 17534960 17619748 17723678 17839850 
2814.348 17958060 18066382 18155626 18219622 18257782 18274360 18277962 
2817.724 18277300 18280900 18293792 18317684 18351164 18390722 18433522 
2821.099 18476622 18519070 18561630 18606766 18657140 18716370 18786638 
2824.474 18869196 18963094 19065872 19172974 19279548 19381412 19476650 
2827.849 19564882 19647534 19727930 19807498 19887770 19966924 20042490 
2831.225 20110644 20167950 20212020 20241032 20255168 20256132 20248408 
2834.600 20239444 20238780 20257884 20306512 20390602 20507892 20647886 
2837.975 20794064 20927104 21030156 21095934 21126794 21137272 21146320 
2841.350 21175572 21239228 21344484 21488118 21663362 21861314 22077692 
2844.726 22313272 22572400 22860290 23178892 23523544 23881960 24237040 
2848.101 24570684 24868412 25122768 25334278 25510324 25662350 25803444 
2851.476 25945372 26097792 26266970 26457380 26669800 26903390 27153736 
2854.851 27412136 27668448 27909514 28123784 28303022 28444360 28550890 
2858.227 28631486 28698248 28763780 28837380 28925076 29029102 29147238 
2861.602 29279114 29424538 29586244 29768726 29978204 30218806 30492984 
2864.977 30799612 31136114 31497930 31884044 32293304 32728874 33193138 
2868.352 33689740 34217292 34773288 35350148 35939220 36530416 37115036 
2871.728 37686384 38239332 38771220 39281580 39770200 40240492 40695556 
2875.103 41140308 41578552 42011084 42433752 42837652 43207572 43525584 
2878.478 43775912 43946060 44032864 44042712 43988796 43889388 43762276 
2881.853 43620296 43471080 43315388 43150368 42973268 42783456 42584424 
2885.229 42382792 42186948 42002648 41833628 41679416 41537732 41406096 
2888.604 41284428 41175780 41086588 41024788 40998284 41012152 41069372 
2891.979 41168392 41305288 41473240 41663276 41865280 42069376 42266720 
2895.354 42452940 42627236 42792676 42954216 43116032 43277712 43433400 
2898.729 43571960 43680336 43748080 43772064 43757148 43716564 43666696 
2902.105 43622296 43592308 43579132 43578808 43585544 43594580 43605596 
2905.480 43620808 43644192 43678544 43724776 43780600 43845508 43921720 
2908.855 44015716 44137496 44296772 44498460 44740412 45012864 45301956 
2912.230 45594116 45882520 46168488 46460208 46771320 47111284 47483520 
2915.606 47883280 48297632 48709332 49103828 49471424 49808672 50119660 
2918.981 50411896 50695040 50977612 51266392 51566508 51881204 52212932 
2922.356 52564612 52937204 53331748 53747036 54181404 54631420 55094392 
2925.731 55568116 56054104 56557884 57088276 57654676 58265188 58922824 
2929.107 59623512 60355036 61102276 61851420 62596536 63344560 64115540 
2932.482 64939560 65849000 66872224 68026512 69315952 70732904 72264160 
2935.857 73895736 75616624 77420496 79303680 81262864 83290376 85375144 
2939.232 87500680 89647312 91791952 93909600 95972024 97948792 99807856 
2942.608 101518624 103054832 104397960 105537168 106469032 107193672 
2945.501 107713272 108029416 108145472 108066584 107805576 107381504 
2948.394 106820208 106149992 105397912 104585584 103729008 102840512 
2951.287 101929408 101005984 100081120 99164168 98263096 97379488 96512584 
2954.662 95661176 94826536 94015872 93242008 92519128 91858824 91262632 
2958.037 90721320 90212968 89711624 89189488 88626840 88013544 87350680 
2961.413 86646920 85917416 85178008 84444280 83728528 83040624 82384056 
2964.788 81758496 81156392 80567456 79977984 79376248 78754016 78108088 
2968.163 77441488 76760416 76071552 75383584 74703696 74039680 73400072 
2971.538 72794568 72231192 71715808 71247608 70821360 70426456 70051616 
2974.914 69687176 69328640 68976128 68634840 68310992 68012912 67747656 
2978.289 67524376 67352624 67245096 67212928 67267488 67414640 67658032 
2981.664 67996880 68431448 68963848 69601104 70351280 71222328 72216544 
2985.039 73328832 74544960 75846616 77212360 78624200 80065816 81525072 
2988.415 82988832 84442216 85866752 87243504 88553592 89782584 90919544 
2991.790 91956552 92883320 93685880 94343824 94835016 95138216 95240336 
2995.165 95139720 94846024 94377712 93757976 93008024 92147608 91189688 
2998.540 90145000 89021776 87825936 86561552 85230296 83830464 82361872 
3001.916 80826776 79234760 77602392 75953656 74312064 72698552 71123144 
3005.291 69584752 68073200 66573508 65073296 63566312 62053996 60545176 
3008.666 59051392 57584268 56151976 54760208 53410648 52103168 50834552 
3012.041 49599332 48389532 47196424 46012196 44835072 43669292 42528116 
3015.417 41427792 40385968 39413852 38515032 37683216 36906172 36169444 
3018.792 35463204 34780960 34122984 33490486 32884580 32303274 31742766 
3022.167 31199032 30671142 30162770 29681586 29233320 28821726 28441884 
3025.542 28081290 27723130 27351240 26955078 26533932 26096628 25659424 
3028.917 25240236 24855316 24515382 24224524 23981180 23780654 23616506 
3032.293 23481978 23368806 23269408 23175512 23078320 22971482 22850606 
3035.668 22712404 22558414 22389764 22210434 22024422 21838174 21660482 
3039.043 21500984 21370208 21276660 21223632 21208258 21219816 21243764 
3042.418 21262702 21263612 21239006 21189906 21123668 21053110 20990630 
3045.794 20947610 20930012 20940502 20978176 21041616 21127344 21232808 
3049.169 21354128 21487300 21623918 21755042 21868644 21952484 21994610 
3052.544 21987804 21929056 21821746 21678520 21516746 21357824 21224170 
3055.919 21132256 21091762 21100848 21149568 21220020 21295230 21358734 
3059.295 21404950 21432946 21449718 21464744 21486166 21517074 21555932 
3062.670 21596248 21629870 21650196 21654428 21643798 21624704 21604052 
3066.045 21588042 21579562 21577892 21576846 21567940 21543336 21497426 
3069.420 21430836 21350178 21267014 21195402 21146108 21125644 21131858 
3072.796 21156378 21186180 21209268 21217974 21211058 21193058 21172568 
3076.171 21157768 21153732 21160982 21177142 21198076 21220672 21242234 
3079.546 21260700 21271494 21269014 21244030 21189578 21102330 20987778 
3082.921 20858674 20735146 20636698 20577556 20561676 20581602 20620328 
3086.297 20658022 20676724 20666658 20625526 20559030 20474226 20378384 
3089.672 20274830 20164392 20044782 19915788 19776578 19630066 19479050 
3093.047 19327900 19180774 19043808 18923868 18831558 18775106 18763260 
3096.422 18796144 18866706 18958418 19048708 19114980 19141488 19123844 
3099.798 19070880 19002274 18943340 18915234 18929218 18982300 19059484 
3103.173 19137946 19193696 19209508 19180568 19111230 19016730 18914690 
3106.548 18820242 18743414 18687862 18652026 18632886 18628152 18636684 
3109.923 18657332 18688646 18723104 18752764 18765394 18751988 18708252 
3113.299 18637318 18549206 18457832 18375328 18311630 18269056 18244882 
3116.674 18232426 18224988 18217756 18210312 18202656 18198244 18198332 
3120.049 18203972 18214646 18227524 18239876 18248250 18248028 18237738 
3123.424 18215800 18187770 18162254 18150470 18162298 18202780 18264690 
3126.800 18332506 18381750 18389314 18339200 18232862 18088364 17936586 
3130.175 17812832 17744114 17742220 17800144 17895722 18001438 18092568 
3133.550 18156162 18190844 18206482 18214228 18222612 18230572 18230008 
3136.925 18206792 18149120 18049932 17912152 17746218 17569606 17401182 
3140.301 17258650 17154864 17097744 17088878 17125022 17199776 17304712 
3143.676 17430262 17568838 17711056 17849640 17975186 18077538 18147286 
3147.051 18177856 18165954 18118004 18046466 17968572 17902496 17863048 
3150.426 17854574 17873592 17908170 17944766 17970688 17980210 17973430 
3153.802 17957336 17938268 17923854 17915260 17910476 17903362 17889036 
3157.177 17861566 17820946 17769390 17714860 17666778 17636918 17635052 
3160.552 17667122 17731456 17818942 17912192 17991254 18037844 18040706 
3163.927 18000544 17929460 17848378 17780338 17743946 17747498 17786444 
3167.302 17845600 17902650 17935046 17925438 17866676 17762586 17629742 
3170.678 17492936 17381212 17321068 17330940 17413622 17557664 17736380 
3174.053 17915808 18063026 18155512 18184812 18158254 18093830 18014036 
3177.428 17936138 17872086 17824236 17794184 17783118 17797024 17842736 
3180.803 17927220 18049104 18197208 18350928 18485896 18581158 18626628 
3184.179 18623994 18586714 18531984 18476816 18430400 18394782 18366104 
3187.554 18340948 18316648 18296080 18283642 18284590 18299774 18327496 
3190.929 18362192 18398398 18430542 18457334 18477916 18493574 18504302 
3194.304 18510422 18511818 18510858 18509254 18510434 18514840 18520422 
3197.680 18522356 18515914 18498730 18474344 18450808 18441554 18455078 
3201.055 18494616 18551256 18608558 18643624 18640838 18593516 18512298 
3204.430 18420086 18348186 18323508 18362638 18464542 18613430 18782840 
3207.805 18944890 19078444 19175404 19238118 19279824 19313456 19348820 
3211.181 19386248 19419048 19433726 19420128 19373496 19299430 19212068 
3214.556 19129754 19069452 19040234 19041362 19064094 19093964 19119304 
3217.931 19133952 19140928 19147902 19164934 19197330 19243802 19294610 
3221.306 19335590 19351796 19334448 19281914 19201866 19108476 19019722 
3224.682 18951308 18915910 18918304 18957532 19023868 19102904 19176654 
3228.057 19228422 19245498 19224728 19172494 19104082 19040532 19003770 
3231.432 19009428 19065558 19170128 19312850 19479088 19653110 19819378 
3234.807 19966146 20082746 20162192 20199242 20194746 20152054 20081824 
3238.183 19993400 19898862 19805170 19716572 19631330 19547808 19464266 
3241.558 19384184 19312364 19257838 19227480 19227180 19257932 19319312 
3244.933 19408510 19522814 19657224 19805106 19955880 20095362 20206844 
3248.308 20277752 20299984 20275690 20215678 20136640 20056816 19991838 
3251.684 19951312 19939628 19957230 20002382 20073028 20165786 20273564 
3255.059 20386742 20491094 20571844 20616380 20618666 20580108 20510978 
3258.434 20426498 20345396 20284646 20259272 20278374 20346366 20459104 
3261.809 20605878 20767734 20922632 21048182 21129656 21163842 21159836 
3265.185 21137154 21118748 21121320 21150802 21198866 21248146 21278318 
3268.560 21275854 21237650 21174154 21102388 21041270 21003240 20992144 
3271.935 21000082 21014950 21022224 21010908 20975470 20918672 20846988 
3275.310 20773524 20710730 20672474 20668576 20703460 20774270 20872220 
3278.686 20983542 21094904 21194838 21278588 21346484 21403580 21453630 
3282.061 21498294 21534794 21558718 21565972 21555660 21529662 21492380 
3285.436 21446586 21393258 21329860 21255506 21171844 21089154 21020602 
3288.811 20982770 20984302 21024430 21089130 21157064 21205648 21220602 
3292.187 21200350 21158278 21114098 21089834 21098462 21143644 21217982 
3295.562 21308748 21399764 21479952 21539088 21572182 21575006 21547096 
3298.937 21492326 21421344 21350342 21298416 21281212 21305080 21362268 
3302.312 21434240 21494798 21521376 21499404 21430426 21325640 21205276 
3305.688 21085770 20980022 20890930 20818154 20758040 20711470 20681572 
3309.063 20675578 20697832 20750692 20829388 20924578 21022700 21109716 
3312.438 21170704 21193724 21169066 21094716 20976438 20830058 20679752 
3315.813 20552702 20470992 20445766 20468916 20518386 20559840 20563386 
3319.188 20508702 20396110 20242548 20081150 19945268 19862806 19846162 
3322.564 19893240 19987884 20106236 20222842 20315696 20368698 20375226 
3325.939 20337050 20265676 20178070 20096262 20039246 20020792 20043154 
3329.314 20100188 20177160 20257956 20329604 20384708 20422588 20447598 
3332.689 20462096 20467744 20461072 20438262 20394602 20329306 20244492 
3336.065 20146212 20041404 19939378 19848316 19777746 19735306 19726942 
3339.440 19751212 19800056 19856880 19900482 19911546 19878948 19804020 
3342.815 19702240 19594938 19505126 19446290 19421126 19422018 19436722 
3346.190 19455030 19474016 19497280 19534260 19589576 19663132 19746608 
3349.566 19828650 19897216 19944978 19969462 19971774 19951790 19907702 
3352.941 19835566 19733452 19604962 19461012 19316250 19185878 19076544 
3356.316 18986566 18904676 18819952 18727208 18634780 18560698 18527630 
3359.691 18549344 18625522 18736574 18852292 18941986 18988150 18991662 
3363.067 18970570 18948224 18943374 18957498 18976026 18972078 18922828 
3366.442 18818204 18669944 18506742 18366444 18280480 18266030 18319286 
3369.817 18419362 18535192 18637604 18703510 18722480 18695054 18630838 
3373.192 18544992 18455840 18380480 18333970 18325038 18355970 18420096 
3376.568 18507124 18604386 18702922 18799226 18895678 18995902 19100588 
3379.943 19203150 19291794 19351180 19372216 19355222 19316652 19278978 
3383.318 19268552 19300716 19375500 19471550 19556730 19593616 19555476 
3386.693 19432504 19236054 18994552 18744494 18519302 18343086 18223462 
3390.069 18155436 18124244 18115560 18117340 18128220 18153326 18204506 
3393.444 18291668 18420646 18586914 18777622 18971604 19148104 19288994 
3396.819 19386718 19442730 19468646 19478822 19488202 19504778 19530600 
3400.194 19561566 19592884 19618840 19638986 19654674 19669458 19683900 
3403.570 19695372 19695878 19676718 19630346 19554694 19455008 19345016 
3406.945 19241626 19164064 19126170 19135282 19188560 19276412 19382034 
3410.320 19490216 19586862 19667058 19731234 19787068 19842118 19902342 
3413.695 19966828 20029496 20079454 20108212 20111394 20094844 20069570 
3417.071 20052318 20055838 20087250 20140944 20205100 20261006 20292584 
3420.446 20290846 20257168 20202572 20146462 20109418 20110296 20158886 
3423.821 20256708 20391480 20544136 20687642 20799314 20863720 20880354 
3427.196 20863604 20840856 20840906 20885080 20977312 21101960 21227230 
3430.572 21319450 21354276 21329482 21262924 21190472 21147066 21155348 
3433.947 21214402 21301752 21382900 21428622 21425744 21384974 21334724 
3437.322 21311264 21340480 21427718 21554396 21685744 21780714 21809324 
3440.697 21757672 21633010 21456268 21256134 21056546 20875322 20717670 
3444.073 20582776 20464292 20357348 20257788 20167236 20090778 20037338 
3447.448 20016062 20035532 20096580 20193196 20309892 20425814 20518598 
3450.823 20573508 20584962 20560474 20514064 20463700 20422834 20398424 
3454.198 20390830 20397392 20416834 20452530 20507616 20584316 20675210 
3457.573 20764508 20827580 20843030 20796898 20695208 20558164 20420630 
3460.949 20315844 20267992 20282560 20348170 20441250 20537854 20618778 
3464.324 20677620 20715760 20741924 20763090 20783092 20800426 20812168 
3467.699 20814480 20807824 20793586 20776202 20758342 20742460 20731236 
3471.074 20728054 20737464 20765652 20815892 20887618 20973134 21062062 
3474.450 21140746 21201124 21240852 21266224 21287512 21316752 21360022 
3477.825 21418964 21488912 21564140 21640216 21719466 21807874 21915024 
3481.200 22048194 22209622 22392772 22585366 22768074 22922614 23031736 
3484.575 23086738 23086178 23040830 22969668 22900606 22862250 22881248 
3487.951 22974634 23146208 23384290 23666624 23962828 24244486 24487834 
3491.326 24680496 24819606 24912066 24969036 25006250 25037592 25077062 
3494.701 25133140 25210076 25302698 25399824 25483320 25535378 25542436 
3498.076 25501878 25423586 25329248 25244912 25196280 25198452 25257704 
3501.452 25367110 25515838 25690348 25881806 26083492 26291756 26499396 
3504.827 26695420 26862560 26983648 27042228 27031162 26951256 26814916 
3508.202 26638918 26444442 26248046 26064272 25899874 25759460 25641856 
3511.577 25546466 25471762 25417750 25385380 25377502 25394834 25436794 
3514.953 25496060 25560078 25609428 25623484 25583392 25479064 25310842 
3518.328 25091990 24843610 24590578 24353042 24144386 23967814 23821196 
3521.703 23699194 23598150 23516634 23457978 23424796 23417210 23430022 
3525.078 23453030 23472724 23474156 23444502 23376160 23266386 23120634 
3528.454 22949818 22769480 22597066 22448954 22334752 22255432 22202084 
3531.829 22158694 22106392 22031156 21930254 21813896 21702618 21623862 
3535.204 21599014 21639980 21741554 21885118 22041696 22181202 22279964 
3538.579 22326776 22323512 22284790 22230826 22184226 22161422 22172770 
3541.955 22215080 22278236 22341886 22386264 22391690 22347198 22249428 
3545.330 22105518 21928108 21733378 21534816 21344086 21167746 21012356 
3548.705 20883512 20788856 20733984 20723090 20752494 20812194 20884910 
3552.080 20952764 20998798 21013344 20993876 20945874 20875664 20793136 
3555.456 20704028 20614894 20530758 20459502 20407814 20381918 20382048 
3558.831 20404404 20437882 20471244 20495772 20511100 20523680 20544996 
3562.206 20585928 20648524 20726216 20804528 20864556 20891794 20878816 
3565.581 20829438 20752144 20657710 20553554 20443026 20327448 20211008 
3568.957 20101496 20013758 19963146 19959732 20001136 20072880 20151716 
3572.332 20212110 20235948 20219246 20172072 20113012 20058614 20018844 
3575.707 19989262 19956670 19904868 19824000 19716348 19597986 19492208 
3579.082 19422190 19400788 19428504 19491302 19568896 19638584 19685576 
3582.458 19702650 19691116 19654568 19597692 19520234 19421836 19300928 
3585.833 19160268 19006114 18851090 18705182 18574886 18456596 18340210 
3589.208 18209480 18055626 17877442 17691286 17524120 17410106 17376458 
3592.583 17435362 17573978 17760692 17949166 18097588 18176654 18185598 
3595.958 18144164 18091628 18066688 18096360 18183924 18309756 18436472 
3599.334 18525704 18548104 18495906 18382136 18238524 18100804 18001088 
3602.709 17955804 17966538 18019792 18097096 18179982 18259510 18335316 
3606.084 18416828 18515412 18641962 18798316 18975174 19153066 19304512 
3609.459 19400560 19418532 19347976 19194202 18978270 18734094 18500790 
3612.835 18318082 18215398 18212740 18312936 18506716 18770512 19072614 
3616.210 19373888 19635254 19821244 19907520 19885526 19767736 19583750 
3619.585 19377886 19194454 19070728 19025790 19059412 19152326 19275758 
3622.960 19401300 19508290 19587960 19643822 19684984 19721902 19758586 
3626.336 19793576 19817014 19816120 19778100 19696496 19572632 19420382 
3629.711 19262750 19132846 19063188 19085324 19214520 19450604 19769168 
3633.086 20129328 20478934 20766730 20955688 21031940 21004580 20905678 
3636.461 20776844 20661418 20593828 20597412 20679772 20838258 21061200 
3639.837 21330434 21622770 21912176 22171492 22378172 22516140 22583268 
3643.212 22588218 22550552 22491936 22432936 22383478 22347238 22319072 
3646.587 22293968 22267870 22242870 22224118 22218840 22231214 22262604 
3649.962 22309202 22367472 22433238 22507490 22589868 22681718 22778144 
3653.338 22871894 22949952 23000890 23013386 22983368 22912916 22811354 
3656.713 22690234 22566262 22453454 22366926 22317994 22313070 22349454 
3660.088 22416716 22492246 22551184 22568676 22530544 22433944 22294622 
3663.463 22136440 21987588 21869234 21792832 21756430 21751040 21764864 
3666.839 21791124 21824908 21867202 21914680 21960078 21990080 21989888 
3670.214 21949506 21869284 21759944 21640476 21524558 21417376 21307828 
3673.589 21174082 20990610 20742972 20434752 20093956 19764114 19494186 
3676.964 19320402 19259058 19300804 19417808 19573720 19733140 19869292 
3680.340 19965726 20011314 20000476 19925154 19781264 19566822 19291828 
3683.715 18975932 18648528 18338642 18069484 17849938 17674572 17524740 
3687.090 17382784 17234140 17078920 16927754 16800644 16714148 16678039 
3690.465 16688125 16731085 16789624 16848926 16902184 16950390 17000338 
3693.841 17059332 17127000 17197412 17256332 17289280 17283490 17234116 
3697.216 17144126 17025264 16890532 16754910 16628919 16522476 16441150 
3700.591 16389534 16367765 16374107 16399661 16433645 16459333 16463215 
3703.966 16435478 16375870 16289836 16192498 16098863 16024306 15979255 
3707.342 15970416 15999913 16069252 16176341 16317729 16484870 16664736 
3710.717 16838834 16989008 17101576 17172912 17210820 17231960 17252228 
3714.092 17282824 17318162 17340436 17321534 17235678 17069782 16832434 
3717.467 16552126 16274530 16047306 15909392 15880967 15961314 16129702 
3720.843 16357804 16611900 16865982 17097728 17293538 17442914 17538336 
3724.218 17574660 17550610 17470538 17344660 17187686 17018712 16854328 
3727.593 16711131 16600728 16532736 16511906 16541881 16619181 16737340 
3730.968 16882888 17039858 17189508 17316714 17408458 17458466 17460846 
3734.344 17414702 17318894 17178790 17005016 16819830 16653009 16538443 
3737.719 16501922 16554598 16682127 16850506 17010678 17114426 17127282 
3741.094 17041432 16874398 16663618 16453190 16281689 16171167 16128398 
3744.469 16145134 16208367 16305337 16427407 16564816 16706411 16832874 
3747.844 16922866 16955160 16921822 16829990 16705627 16582876 16494872 
3751.220 16458325 16469104 16504876 16534628 16533611 16494906 16431190 
3754.595 16372107 16349329 16386619 16488027 16638253 16806388 16957476 
3757.970 17061560 17102630 17080662 17007966 16904538 16793794 16697252 
3761.345 16635312 16619943 16658843 16746622 16868316 16996602 17099972 
3764.721 17148296 17123766 17027246 16879770 16715502 16575161 16489649 
3768.096 16474735 16526284 16623387 16735658 16834210 16896696 16913244 
3771.471 16883342 16815802 16723376 16621456 16525833 16454060 16421048 
3774.846 16440578 16516337 16643804 16805698 16977504 17129776 17237698 
3778.222 17284552 17267402 17193686 17081106 16949400 16817036 16697684 
3781.597 16598813 16521819 16465571 16423231 16389368 16356636 16322752 
3784.972 16287090 16258005 16248168 16274311 16349625 16481109 16662329 
3788.347 16873418 17084964 17263476 17381016 17424092 17392672 17304378 
3791.723 17183184 17056004 16945050 16864038 16818312 16806480 16821952 
3795.098 16857496 16901436 16940944 16959488 16941560 16874562 16756954 
3798.473 16598266 16422516 16258437 16136920 16076664 16081631 16136067 
3801.848 16212780 16279850 16313214 16301794 16251041 16177621 16103806 
3805.224 16048558 16023347 16030343 16064210 16116431 16177833 16240021 
3808.599 16296107 16337298 16355047 16341180 16294288 16219335 16135054 
3811.974 16064787 16036462 16067956 16163377 16306296 16464453 16595725 
3815.349 16662044 16639635 16528582 16350465 16142178 15944721 15791811 
3818.725 15701713 15677001 15708106 15779343 15876928 15992692 16121790 
3822.100 16262822 16409785 16551424 16668797 16743716 16761318 16720288 
3825.475 16632784 16525667 16429799 16374633 16377719 16441520 16551966 
3828.850 16687816 16825256 16946966 17046026 17125236 17192284 17254482 
3832.226 17315794 17372894 17418710 17447086 17452876 17438892 17408726 
3835.601 17369696 17325132 17275806 17217736 17147320 17063012 16969568 
3838.976 16875204 16794184 16737822 16714349 16725574 16766241 16826718 
3842.351 16895954 16963412 17022142 17067638 17098214 17113998 17116276 
3845.727 17104518 17079498 17041340 16991322 16932028 16868208 16806434 
3849.102 16755342 16723042 16715348 16731614 16765799 16803344 16828522 
3852.477 16826634 16792378 16731804 16663741 16612170 16599804 16637485 
3855.852 16720336 16824766 16918386 16965942 16941982 16835376 16656183 
3859.228 16428411 16187960 15970727 15808472 15721085 15717365 15792046 
3862.603 15930055 16107522 16294615 16460830 16581327 16641077 16640434 
3865.978 16593874 16529445 16476648 16460717 16492017 16565518 16660014 
3869.353 16748451 16804800 16814792 16778030 16709387 16630108 16565325 
3872.729 16530845 16536659 16582400 16663536 16769854 16892932 17019810 
3876.104 17140112 17240468 17308672 17333666 17310896 17240868 17134080 
3879.479 17002470 16863182 16728153 16605958 16499063 16407602 16330801 
3882.854 16271779 16234569 16226709 16252114 16311571 16395872 16491247 
3886.229 16577939 16638516 16658399 16633280 16566914 16471911 16364530 
3889.605 16263764 16184712 16138954 16130283 16158707 16217472 16299430 
3892.980 16395478 16500020 16607201 16715586 16820486 16919028 17003130 
3896.355 17065610 17095892 17087962 17039594 16959774 16862454 16770596 
3899.730 16704816 16683653 16713124 16788420 16892722 17003846 17098678 
3903.106 17162058 17187564 17179884 17149730 17110810 17073712 17043924 
3906.481 17021840 17006684 16996098 16991788 16997024 17014946 17045830 
3909.856 17084176 17118214 17133808 17118380 17066030 16979760 16873830 
3913.231 16766967 16680511 16629005 16620837 16654322 16722273 16814350 
3916.607 16922316 17039224 17161414 17283382 17397776 17493318 17556612 
3919.982 17576616 17548200 17477646 17383056 17289238 17224540 17209330 
3923.357 17253202 17348826 17475484 17603622 17704472 17754876 17745358 
3926.732 17678526 17567372 17427144 17274536 17118746 16965172 16814462 
3930.108 16668200 16528884 16404141 16301602 16228896 16189322 16180258 
3933.483 16193818 16221728 16254244 16287034 16320096 16357906 16405206 
3936.858 16465029 16534878 16610017 16680960 16739931 16783366 16814024 
3940.233 16840470 16875362 16931234 17017850 17137072 17282728 17441622 
3943.609 17595556 17725512 17816022 17856238 17843756 17780412 17675444 
3946.984 17539934 17387360 17231722 17085968 16961996 16869978 16813892 
3950.359 16794136 16804246 16834192 16871814 16909844 16944838 16981426 
3953.734 17028748 17096980 17191306 17308558 17436570 17556942 17649934 
3957.110 17701360 17706034 17667782 17595998 17503656 17398576 17286720 
3960.485 17170998 17054066 16943072 16849426 16785060 16757801 16767003 
3963.860 16801930 16841508 16865976 16858342 16816206 16751111 16686261 
3967.235 16647413 16658328 16730445 16862200 17038754 17237818 17432832 
3970.611 17600668 17722968 17788400 17794686 17747374 17659894 17552314 
3973.986 17443384 17352924 17290378 17260016 17255590 17268060 17287588 
3977.361 17310450 17336772 17371230 17417808 17476120 17539910 17597850 
3980.736 17638090 17654352 17646894 17623442 17594914 17571450 17557574 
3984.112 17552500 17550758 17549810 17550338 17558062 17581666 17626630 
3987.487 17690688 17763576 17827672 17863608 17858156 17808894 17724494 
3990.862 17623512 17525586 17448482 17401154 17384146 17390658 17411600 
3994.237 17437500 17463132 17486764 17511744 17543546 17589808 17659756 
3997.613 17761570 17900888 18079068 18289178 18518248 18745528 18947430 
##END=
