##TITLE=3D-Fillies_PLA-Rainbow_Orange_Filament_r6_ATR-Corrected
##JCAMP-DX=5.01  $$ Nicolet v. 1
##DATATYPE=INFRARED SPECTRUM
##ORIGIN=Curtin University
##OWNER=Nicolet
##LONGDATE=2024/07/18
##TIME=16:17:36
##SPECTROMETER/DATA SYSTEM=Nicolet iS50
##DATA PROCESSING=
Ratio against background
%Transmittance->Absorbance
ATR Correction
Truncated
ElementMultiply or ElementDivide
##COMMENTS=
Number of sample scans: 32
Collection length: 47.28 sec
Sample gain: 1.0
Background collected on: Thu Jul 18 16:15:37 2024 (GMT+08:00);
Number of background scans: 32
Background gain: 1.0
Sample spacing:  1.000
Number of scan points: 16672
Resolution points: 8192
Number of FFT points: 65536
Apodization: N-B strong;
Phase correction: Mertz;
Laser frequency: 15798.3 cm-1
Number of rejected sample scans: 0
Number of rejected background scans: 0
Bench serial number: AUP1200105;
##RESOLUTION=4.000
##XUNITS=1/CM
##YUNITS=ABSORBANCE
##FIRSTX=400.163452
##LASTX=4000.187744
##FIRSTY=0.055071
##MAXX=4000.187744
##MINX=400.163452
##MAXY=0.851409
##MINY=-0.036377
##XFACTOR=1.000000
##YFACTOR=1.000000E-009
##NPOINTS=7468
##DELTAX=0.482125
##ZPD=8192
##XYDATA=(X++(Y..Y))
400.163 55071248 54892136 54571412 54110812 53526544 52853576 52123416 
403.538 51355440 50551968 49705812 48808044 47859964 46877464 45889528 
406.913 44929764 44025812 43189088 42415360 41689976 40998640 40337852 
410.288 39716576 39152932 38663024 38248732 37892336 37557368 37198876 
413.663 36776676 36266084 35662748 34979832 34240356 33470326 32693878 
417.038 31935084 31220806 30582658 30055784 29671312 29445022 29369178 
420.412 29407314 29500474 29576586 29566566 29418916 29111558 28655666 
423.787 28094196 27491600 26920566 26446502 26114622 25942490 25918514 
427.162 26005926 26153668 26307800 26425598 26483890 26482462 26440780 
430.537 26388250 26351158 26342718 26356308 26365578 26338032 26241680 
433.912 26059386 25797164 25484822 25170130 24906002 24737290 24688698 
437.286 24758548 24920756 25133526 25350672 25534212 25661770 25728286 
440.661 25741298 25713022 25652104 25559468 25427920 25248834 25018332 
444.036 24744792 24450520 24168856 23937150 23788018 23741358 23801332 
447.411 23956176 24183552 24454286 24737248 25002026 25220136 25365990 
450.786 25419850 25371380 25223270 24993124 24712068 24418926 24152584 
454.161 23942864 23805432 23740056 23733376 23764220 23809706 23850170 
457.535 23871446 23864816 23826026 23753642 23649594 23519504 23374208 
460.910 23230584 23110072 23035302 23025036 23089054 23220300 23403892 
464.285 23610054 23802782 23948684 24023752 24019472 23943440 23815568 
467.660 23660604 23498640 23338308 23174140 22989924 22766778 22493192 
471.035 22173220 21829254 21498032 21220904 21031518 20944484 20950112 
474.409 21016298 21097710 21148866 21136622 21048330 20894210 20701918 
477.784 20507838 20345656 20238122 20192006 20198048 20235748 20279320 
481.159 20304618 20294136 20239780 20143944 20017818 19879252 19749704 
484.534 19650824 19600768 19610560 19681450 19803246 19954946 20107436 
487.909 20229696 20295570 20290154 20214704 20087136 19938654 19807820 
491.284 19731982 19740604 19850644 20064380 20371204 20749764 21170542 
494.658 21603882 22017906 22383214 22675630 22879302 22988724 23008548 
498.033 22953340 22842552 22696598 22532798 22362700 22192332 22023558 
501.408 21856368 21690512 21525184 21358924 21188622 21011232 20825794 
504.783 20637346 20458226 20307864 20207300 20172014 20204562 20290914 
508.158 20401470 20498896 20548464 20528884 20438350 20294026 20125464 
511.532 19964884 19837004 19753764 19713194 19704010 19710516 19718320 
514.907 19716378 19696752 19653030 19579188 19470154 19324186 19145524 
518.282 18945178 18740102 18548546 18384838 18254926 18154710 18072032 
521.657 17990702 17896418 17781472 17646412 17499292 17353296 17222682 
525.032 17118968 17053052 17030484 17052542 17115402 17209698 17320114 
528.406 17426412 17506342 17540210 17515772 17432674 17303834 17152750 
531.781 17008010 16895252 16829784 16812772 16830334 16859024 16872642 
535.156 16850104 16781340 16668558 16524181 16365118 16207010 16059900 
538.531 15927071 15806431 15694324 15588028 15487679 15394852 15310829 
541.906 15234027 15160167 15083559 15000683 14912659 14826601 14753318 
545.281 14703733 14683314 14689392 14710755 14731060 14734308 14710682 
548.655 14659601 14589779 14516369 14455625 14420157 14415893 14441257 
552.030 14488914 14547644 14604765 14647728 14665346 14649096 14594861 
555.405 14505054 14388855 14264381 14153483 14078408 14056680 14096827 
558.780 14196752 14344545 14522568 14711780 14896566 15067234 15220147 
562.155 15355725 15475722 15579964 15665323 15725596 15753338 15743613 
565.529 15696455 15619565 15527803 15440828 15378701 15355996 15377692 
568.904 15437097 15517928 15599534 15663743 15700620 15711723 15708027 
572.279 15704704 15714763 15743652 15787596 15836967 15881758 15917663 
575.654 15949301 15989115 16052255 16149873 16284006 16445925 16619517 
579.029 16787496 16937608 17066816 17181070 17291698 17409336 17539226 
582.404 17678786 17819152 17947856 18053306 18127184 18165694 18169050 
585.778 18141074 18088758 18022974 17958192 17911946 17901286 17938326 
589.153 18025564 18153604 18302042 18444560 18556184 18620210 18632750 
592.528 18602798 18547946 18489072 18443562 18422458 18429016 18460796 
595.903 18512072 18575854 18644592 18710512 18765380 18802188 18816678 
599.278 18809950 18789264 18766514 18754524 18762172 18790604 18832530 
602.652 18875506 18906976 18920882 18921020 18920232 18936010 18983384 
606.027 19069344 19189954 19332560 19481742 19625694 19760702 19892058 
609.402 20030400 20185928 20363314 20558962 20762864 20962164 21146592 
612.777 21311418 21457364 21589518 21713664 21834202 21954412 22078052 
616.152 22210712 22360676 22536336 22743212 22979782 23236408 23497398 
619.527 23746566 23973038 24175424 24361282 24543242 24731674 24928912 
622.901 25127402 25312898 25471534 25597462 25698060 25792704 25907220 
626.276 26064404 26276092 26539638 26839944 27156188 27469524 27768678 
629.651 28051214 28319790 28576858 28819554 29038524 29220776 29355102 
633.026 29438260 29477458 29489696 29496916 29519706 29570864 29652790 
636.401 29757428 29869976 29973206 30052902 30101506 30120528 30121092 
639.775 30122664 30149618 30226752 30373226 30596842 30891268 31235530 
643.150 31598632 31946688 32251418 32497418 32684486 32825582 32941342 
646.525 33052068 33171826 33305616 33450772 33601628 33754160 33910200 
649.900 34077628 34268156 34492424 34756192 35056844 35384196 35721864 
653.275 36051808 36357996 36628844 36858784 37047132 37196472 37310552 
656.650 37392756 37445588 37471136 37472108 37452968 37420552 37383780 
660.024 37352180 37334372 37336444 37360604 37406300 37470700 37551020 
663.399 37645404 37753872 37877248 38016188 38169628 38334756 38506860 
666.774 38681560 38855508 39028196 39201812 39380728 39570240 39775128 
670.149 39999036 40243620 40507656 40787176 41074168 41357116 41621636 
673.524 41853504 42041892 42182836 42281084 42349992 42407864 42472940 
676.898 42558360 42669204 42801796 42946948 43094544 43237560 43374180 
680.273 43508200 43645716 43791872 43948068 44110836 44272564 44424424 
683.648 44558880 44671388 44762356 44836184 44901252 44968328 45048420 
687.023 45151392 45283108 45444012 45628644 45827348 46029464 46228012 
690.398 46422944 46622444 46840744 47092928 47388348 47726872 48096792 
693.773 48478640 48851344 49199912 49520508 49821336 50119972 50436900 
697.147 50788780 51183900 51621280 52092528 52586260 53091888 53602040 
700.522 54112824 54622300 55128256 55626964 56112904 56579620 57021000 
703.897 57432532 57811448 58157036 58469744 58750356 59000188 59220792 
707.272 59413824 59581300 59725080 59847452 59950772 60038152 60113172 
710.647 60180192 60244140 60309312 60378896 60454592 60536288 60623332 
714.021 60715320 60814024 60924440 61056584 61226648 61458336 61784676 
717.396 62249332 62907928 63828848 65093064 66793188 69031336 71915888 
720.771 75555200 80049032 85476768 91882536 99259088 107532608 116552056 
724.146 126086544 135832288 145433104 154511360 162705696 169709840 
727.039 175304048 179372688 181903968 182975536 182727456 181333600 
729.931 178973856 175814000 171993696 167622672 162783680 157540192 
732.824 151945776 146053328 139920976 133615736 127213120 120795080 
735.717 114446368 108250736 102287648 96627976 91331056 86441272 81986296 
739.091 77977776 74413512 71281720 68565552 66246456 64306176 62725292 
742.466 61481920 60549156 59894824 59482488 59273120 59229128 59316264 
745.841 59505128 59772488 60100772 60478752 60900880 61367076 61880920 
749.216 62446580 63064916 63730284 64428524 65138452 65835408 66496096 
752.591 67103320 67647896 68127432 68542368 68890824 69165248 69350088 
755.966 69424864 69367376 69159360 68790336 68260040 67578592 66764624 
759.340 65843040 64841604 63787876 62706120 61614428 60523828 59437276 
762.715 58352088 57262264 56162312 55049872 53926916 52798940 51674032 
766.090 50560360 49465964 48398576 47365964 46376068 45435440 44547260 
769.465 43709380 42913896 42149404 41404600 40673016 39954700 39256740 
772.840 38587772 37953076 37350016 36767584 36189964 35603564 35003420 
776.214 34397184 33803148 33244640 32741342 32302656 31924572 31591642 
779.589 31282474 30975624 30653764 30304772 29920598 29495610 29026130 
782.964 28512450 27961688 27389750 26819598 26277654 25786252 25357916 
786.339 24992294 24678522 24400750 24145388 23906844 23688744 23501630 
789.714 23357326 23264062 23223280 23229590 23273042 23341788 23423682 
793.089 23505194 23571090 23602674 23579684 23484376 23306370 23047312 
796.463 22723122 22361664 21998240 21668408 21402114 21218764 21125664 
799.838 21117734 21179782 21289224 21419906 21546132 21647274 21711064 
803.213 21736396 21731022 21708042 21680090 21654706 21630786 21600320 
806.588 21552894 21481178 21385666 21275692 21165870 21070746 20998220 
809.963 20946032 20902496 20851492 20778640 20677434 20551220 20411854 
813.337 20275118 20154472 20057398 19983912 19928002 19881632 19838228 
816.712 19795696 19755842 19723822 19705534 19705592 19726234 19767754 
820.087 19828446 19906312 19998886 20103722 20218408 20340168 20466330 
823.462 20594460 20723168 20851992 20981458 21112286 21244714 21377518 
826.837 21507954 21632450 21747726 21852570 21948990 22043036 22143518 
830.212 22260188 22400610 22568316 22760568 22970184 23187340 23403316 
833.586 23613276 23819142 24028406 24252842 24505022 24796002 25132864 
836.961 25518548 25951466 26426934 26937608 27474774 28029318 28593708 
840.336 29163056 29737172 30320500 30920648 31545098 32197990 32876670 
843.711 33571736 34268448 34950572 35604128 36219888 36792424 37317856 
847.086 37790744 38203136 38546180 38815628 39018296 39176588 39328660 
850.460 39524084 39814320 40243576 40840944 41618180 42573172 43695852 
853.835 44975384 46405344 47983716 49709948 51580328 53583784 55700188 
857.210 57902376 60159200 62439872 64716480 66965708 69167200 71303048 
860.585 73356720 75314384 77165072 78902912 80527168 82041592 83452880 
863.960 84768072 85993712 87134984 88196488 89183144 90101000 90957728 
867.335 91762160 92523208 93247984 93939608 94594424 95199416 95730744 
870.709 96153744 96424968 96497704 96327600 95879752 95132888 94081872 
874.084 92736720 91119024 89258520 87189496 84949128 82575944 80108824 
877.459 77586000 75042264 72507024 70002984 67546416 65148948 62820876 
880.834 60573788 58423168 56387868 54489212 52748796 51185716 49813984 
884.209 48641352 47667188 46882528 46270424 45807464 45467376 45225384 
887.583 45062288 44967228 44937056 44974084 45079236 45247568 45463872 
890.958 45702448 45931928 46121388 46247756 46301672 46288012 46223344 
894.333 46130028 46028476 45932708 45846932 45766864 45683016 45584516 
897.708 45464124 45319728 45155636 44980536 44805648 44641892 44497384 
901.083 44375740 44275672 44191900 44117104 44044348 43969068 43890492 
904.458 43811764 43738856 43679044 43639068 43624448 43638624 43683248 
907.832 43757956 43861128 43989096 44136764 44297856 44466504 44638260 
911.207 44811792 44988600 45172452 45367256 45575544 45796556 46026844 
914.582 46261516 46496540 46730544 46965252 47204772 47453132 47711988 
917.957 47978600 48246464 48506904 48751168 48973456 49172496 49351388 
921.332 49516816 49676796 49839148 50010696 50196216 50399176 50622336 
924.706 50868024 51138280 51434848 51758716 52110304 52488772 52891640 
928.081 53314788 53753296 54200544 54650040 55094788 55528376 55944148 
931.456 56336468 56700044 57031556 57330096 57598644 57844124 58076736 
934.831 58307228 58543860 58789656 59039916 59283632 59505884 59692344 
938.206 59833668 59927568 59980012 60002612 60010100 60016748 60034788 
941.581 60074372 60144108 60251480 60402912 60602660 60851080 61143544 
944.955 61471388 61823824 62191680 62570596 62963732 63380672 63836196 
948.330 64345552 64921156 65569052 66287584 67066484 67888608 68730736 
951.705 69566504 70368760 71111928 71774736 72341616 72801264 73145984 
955.080 73367728 73455864 73395832 73170968 72766120 72172880 71393888 
958.455 70445728 69357096 68165784 66913112 65638824 64378196 63160284 
961.829 62008004 60939176 59967000 59099776 58340752 57688528 57137832 
965.204 56681840 56313564 56027388 55819308 55685728 55621584 55619456 
968.579 55669172 55759860 55881088 56025016 56187212 56365876 56559356 
971.954 56765132 56977896 57190492 57395420 57586512 57760952 57920320 
975.329 58069552 58216312 58369308 58537552 58728960 58950136 59204944 
978.703 59493792 59812424 60152140 60501260 60847780 61182620 61502384 
982.078 61810348 62115628 62429604 62762088 63118248 63496388 63888936 
985.453 64285168 64674756 65051192 65413648 65766812 66120296 66484868 
988.828 66870720 67286224 67735920 68221032 68739680 69287976 69861032 
992.203 70454656 71065560 71692656 72336320 72998656 73682256 74390016 
995.578 75124648 75889368 76688432 77527704 78414808 79358624 80366976 
998.952 81444608 82590176 83795816 85046184 86321080 87598488 88859936 
1002.327 90094288 91302160 92496920 93704296 94958520 96298448 97761464 
1005.702 99380192 101179768 103178688 105390704 107828464 110506048 
1008.595 113441392 116656584 120178040 124037112 128270984 132924528 
1011.487 138050432 143704784 149938992 156783184 164225968 172192976 
1014.380 180531184 189004256 197304096 205080944 211987456 217728032 
1017.273 222105104 225047360 226617648 226997024 226452944 225298800 
1020.166 223855104 222415872 221224928 220463712 220247184 220627920 
1023.058 221606432 223144912 225182480 227649888 230481136 233620512 
1025.951 237024976 240662336 244508720 248545776 252758976 257138784 
1028.844 261681856 266391872 271279712 276360608 281650592 287162688 
1031.737 292903520 298871104 305054912 311435008 317983136 324663104 
1034.630 331430752 338234880 345018944 351723424 358289248 364660384 
1037.523 370786304 376622208 382127584 387263552 391990208 396264896 
1040.417 400043840 403285824 405958400 408043840 409542976 410473536 
1043.310 410864896 410748224 410149024 409081216 407549888 405559360 
1046.203 403124864 400282720 397096000 393650592 390046304 386381984 
1049.096 382743904 379196448 375779968 372513344 369400736 366436608 
1051.989 363612512 360919104 358348672 355896000 353559296 351340768 
1054.882 349247392 347290208 345484480 343849600 342410016 341197024 
1057.775 340251360 339624896 339379584 339585632 340316608 341644576 
1060.668 343636192 346350176 349837024 354138688 359288800 365311296 
1063.561 372217184 380001952 388643712 398104128 408332960 419273504 
1066.454 430869888 443072192 455837504 469128288 482907808 497135936 
1069.347 511766368 526746464 542018816 557523776 573200000 588985472 
1072.240 604815872 620625408 636347968 651920192 667284160 682387712 
1075.133 697181440 711614720 725632384 739175360 752187136 764618112 
1078.026 776434304 787613184 798135424 807968704 817056128 825309888 
1080.919 832617408 838858112 843923200 847730688 850231872 851409024 
1083.813 851266944 849827456 847130048 843235904 838230784 832227200 
1086.706 825354112 817747328 809537024 800840768 791762880 782397440 
1089.599 772831104 763142976 753399936 743650496 733921728 724219520 
1092.492 714537408 704863616 695192832 685528384 675882368 666270784 
1095.385 656707648 647201664 637754560 628362304 619014464 609694912 
1098.278 600380928 591043456 581650496 572174528 562598976 552923904 
1101.171 543166528 533354656 523518976 513683072 503859392 494053248 
1104.064 484272192 474537024 464892352 455408128 446175872 437296704 
1106.957 428870848 420986400 413714816 407109856 401209440 396039424 
1109.850 391614560 387938528 385003360 382786560 381253632 380356800 
1112.743 380038496 380232352 380865568 381859872 383133504 384605504 
1115.636 386200192 387854048 389520960 391174080 392805472 394420992 
1118.529 396033440 397657792 399305856 400985600 402700960 404452000 
1121.422 406233632 408033376 409828768 411585408 413257952 414792192 
1124.315 416131136 417217568 417998976 418427712 418462976 418071712 
1127.208 417231808 415935168 414190240 412021568 409465760 406563712 
1130.102 403351104 399851104 396070816 392002368 387628416 382928192 
1132.995 377885568 372490176 366739552 360637280 354190272 347407616 
1135.888 340301408 332887136 325186912 317230880 309057504 300713728 
1138.781 292252704 283731744 275210272 266746752 258398832 250221696 
1141.674 242268576 234589632 227233248 220243584 213659152 207511664 
1144.567 201824560 196612016 191880112 187627696 183848512 180533120 
1147.460 177670400 175247504 173251168 171666288 170476240 169662608 
1150.353 169205456 169083552 169275408 169758400 170509424 171503968 
1153.246 172716128 174117936 175681248 177377872 179182064 181071872 
1156.139 183030720 185047008 187115312 189234208 191406256 193635840 
1159.032 195928432 198289456 200723360 203233968 205824608 208499712 
1161.925 211266512 214137040 217129536 220268624 223585936 227117600 
1164.818 230903264 234984432 239403472 244203760 249429584 255127312 
1167.711 261346192 268137600 275556288 283658304 292500384 302139200 
1170.604 312628960 324020096 336356896 349673888 363991360 379308992 
1173.498 395600608 412803936 430813984 449475168 468579104 487863488 
1176.391 507019232 525700704 543541440 560171456 575234880 588405824 
1179.284 599403840 608008064 614073664 617543296 618457024 616949568 
1182.177 613237184 607593536 600318976 591713280 582056320 571599104 
1185.070 560565568 549155968 537552448 525919264 514400544 503114112 
1187.963 492148960 481564832 471397760 461666944 452383008 443553088 
1190.856 435183424 427278240 419839008 412861632 406338080 400257056 
1193.749 394606304 389373760 384547136 380112672 376054656 372354208 
1196.642 368991712 365947712 363206688 360756096 358586624 356688480 
1199.535 355049536 353652960 352477760 351501312 350700768 350056160 
1202.428 349550688 349168000 348891136 348699456 348569216 348473568 
1205.321 348384192 348272608 348111104 347871232 347524192 347040256 
1208.214 346391904 345557344 344524608 343293568 341875104 340286592 
1211.107 338546528 336668544 334659232 332518176 330242336 327830400 
1214.000 325287744 322627040 319868064 317033216 314144992 311222112 
1216.894 308279232 305327712 302377344 299437120 296516704 293625728 
1219.787 290773280 287966912 285213408 282518240 279887072 277325056 
1222.680 274837472 272428000 270097504 267842464 265656704 263531056 
1225.573 261456720 259427248 257440544 255499904 253613616 251792672 
1228.466 250048672 248391536 246828400 245362144 243993600 242721504 
1231.359 241545520 240466752 239490592 238625856 237886768 237290464 
1234.252 236857056 236606032 236555280 236716432 237094368 237684896 
1237.145 238476304 239450048 240584320 241856448 243245824 244734928 
1240.038 246309856 247959008 249671312 251434176 253230656 255038224 
1242.931 256828368 258566432 260214304 261733152 263088080 264251920 
1245.824 265209440 265959504 266515024 266901248 267151472 267302640 
1248.717 267390848 267448240 267501536 267572464 267678768 267835136 
1251.610 268053792 268344736 268714592 269165376 269695488 270298784 
1254.503 270966752 271688864 272455712 273259072 274094432 274961216 
1257.396 275863616 276809696 277809664 278872896 280004224 281201600 
1260.290 282455232 283747776 285058144 286364192 287647264 288891136 
1263.183 290082208 291205632 292241984 293165312 293944256 294543072 
1266.076 294927616 295066656 294933792 294506624 293766144 292694304 
1268.969 291277312 289505376 287377728 284903552 282102624 279000896 
1271.862 275627104 272007808 268166512 264123584 259899856 255519152 
1274.755 251009280 246401104 241725824 237010304 232275984 227538208 
1277.648 222809552 218101280 213427360 208803280 204246224 199771584 
1280.541 195392432 191117488 186953456 182904864 178977072 175175344 
1283.434 171505232 167971648 164578624 161329360 158227456 155277728 
1286.327 152486064 149858784 147400208 145110960 142987248 141021536 
1289.220 139204736 137527968 135985008 134571168 133282352 132112488 
1292.113 131051256 130084304 129194840 128366824 127588392 126853928 
1295.006 126164048 125522968 124935792 124404056 123925536 123493472 
1297.899 123099320 122735072 122396168 122082224 121796440 121543552 
1300.792 121326824 121146792 120999688 120877768 120771272 120669416 
1303.686 120562624 120442360 120301736 120133904 119931824 119687920 
1306.579 119394544 119045824 118639704 118178480 117670280 117125800 
1309.472 116556376 115969008 115363592 114731576 114057576 113323536 
1312.365 112514600 111624376 110657976 109632416 108573560 107510288 
1315.258 106470016 105473064 104531816 103650352 102827520 102059136 
1318.151 101341536 100671224 100046032 99463232 98918344 98404320 97912536 
1321.526 97433608 96960016 96487848 96017672 95555144 95109696 94691824 
1324.901 94311792 93976576 93690432 93454064 93266616 93127432 93038320 
1328.277 93004120 93033184 93136128 93324320 93608328 93995856 94491024 
1331.652 95093880 95800472 96604120 97495384 98463472 99496560 100581848 
1335.027 101706152 102855336 104014512 105167912 106299256 107392616 
1337.920 108432928 109407856 110308512 111130856 111876168 112551272 
1340.813 113167944 113741776 114290672 114834152 115391560 115981832 
1343.706 116622424 117328520 118113040 118985616 119952432 121016400 
1346.599 122177808 123434160 124781272 126213256 127722784 129301400 
1349.492 130938392 132622000 134338560 136073040 137809312 139530352 
1352.385 141218352 142856672 144429776 145924144 147329952 148640656 
1355.279 149852192 150962272 151968608 152868384 153657776 154334464 
1358.172 154898960 155357888 155724128 156016800 156257648 156467584 
1361.065 156663264 156854496 157044544 157231344 157409760 157572896 
1363.958 157712160 157815824 157866288 157839984 157705776 157428816 
1366.851 156972816 156304416 155396976 154233760 152810416 151137776 
1369.744 149243296 147173904 144996480 142796608 140674512 138738080 
1372.637 137095712 135846976 135075504 134843152 135185296 136109248 
1375.530 137592560 139584848 142009744 144769008 147748560 150825104 
1378.423 153874192 156778480 159434192 161755888 163677168 165150416 
1381.316 166144096 166640640 166634080 166128256 165135056 163672752 
1384.209 161763872 159435472 156719216 153653216 150283760 146664752 
1387.102 142854352 138910448 134884336 130816088 126733840 122655184 
1389.995 118590776 114549816 110542696 106582432 102684720 98867128 95149400 
1393.371 91552992 88101800 84821512 81737336 78871064 76237720 73843056 
1396.746 71683712 69749456 68025360 66496716 65149540 63973352 62960348 
1400.121 62106004 61408876 60871592 60501204 60308816 60307440 60508808 
1403.496 60919072 61534560 62339244 63303992 64387320 65538248 66698352 
1406.872 67804568 68790752 69590640 70141296 70387728 70289040 69824592 
1410.247 68998296 67839896 66402188 64754932 62976876 61146532 59334576 
1413.622 57598404 55979096 54500632 53170996 51985676 50930312 49986552 
1416.997 49134804 48358920 47647996 46997472 46408716 45887008 45438680 
1420.373 45069460 44782232 44577076 44450180 44395524 44404140 44464848 
1423.748 44564104 44686576 44816900 44941688 45051680 45143812 45222680 
1427.123 45299916 45392120 45519824 45704280 45966288 46324556 46795876 
1430.498 47394336 48130356 49010196 50034332 51197744 52491372 53904672 
1433.874 55431148 57070852 58832684 60734916 62802272 65061740 67539248 
1437.249 70256616 73230824 76475560 80002624 83822640 87944336 92372880 
1440.624 97107192 102137520 107443120 112991592 118739016 124629848 
1443.517 130599440 136576464 142487584 148261584 153833600 159147232 
1446.410 164153648 168811632 173085472 176945648 180371888 183354480 
1449.303 185896352 188010976 189718480 191039808 191993488 192591408 
1452.196 192840208 192741088 192291280 191483744 190307744 188748832 
1455.089 186792976 184430784 181663648 178505328 174982160 171127120 
1457.982 166973488 162550832 157884304 152999632 147927424 142708352 
1460.875 137391824 132030832 126674696 121363336 116125264 110978904 
1463.769 105938848 101020408 96242424 91626440 87193992 82964232 78952160 
1467.144 75169384 71625440 68328736 65284988 62495080 59952496 57641660 
1470.519 55538968 53616856 51847808 50208332 48680812 47252992 45915376 
1473.894 44659060 43474900 42352392 41282460 40258532 39276888 38336708 
1477.270 37437844 36578804 35755856 34962724 34191844 33435858 32689378 
1480.645 31949576 31216192 30491060 29777602 29079596 28401522 27747344 
1484.020 27120638 26522960 25954188 25412438 24893772 24394730 23913096 
1487.395 23449294 23007088 22592326 22211928 21871628 21574514 21319756 
1490.771 21102692 20915874 20751494 20602106 20463220 20333610 20216154 
1494.146 20116198 20041068 19998130 19993336 20030146 20109986 20232968 
1497.521 20399922 20613432 20880202 21209530 21612358 22097880 22668832 
1500.896 23318514 24026994 24761382 25477534 26124890 26653414 27018882 
1504.271 27190836 27156046 26920134 26506970 25953592 25304236 24603472 
1507.647 23890954 23198022 22547814 21955596 21430356 20975980 20590734 
1511.022 20267896 19996536 19763574 19555852 19363954 19183148 19014202 
1514.397 18860888 18728582 18620180 18535696 18471832 18422766 18382766 
1517.772 18347034 18312364 18277720 18242696 18207746 18173500 18141612 
1521.148 18113330 18090000 18072150 18057656 18042836 18022404 17991576 
1524.523 17948532 17894610 17835516 17778724 17731562 17698086 17678676 
1527.898 17669442 17664768 17658842 17647710 17629590 17604064 17571228 
1531.273 17530502 17480840 17422240 17356672 17288668 17224644 17171064 
1534.649 17131434 17105450 17088636 17074318 17056226 17031276 17001082 
1538.024 16970922 16948424 16940870 16952194 16983096 17029772 17086218 
1541.399 17145112 17199426 17242610 17269926 17277582 17264606 17232144 
1544.774 17183388 17122460 17052470 16973768 16884250 16778814 16653089 
1548.150 16506122 16342221 16172053 16010337 15871644 15767179 15700381 
1551.525 15667273 15658142 15660215 15662445 15657196 15641553 15616099 
1554.900 15583563 15546417 15506400 15463667 15418059 15369518 15318996 
1558.275 15268551 15221720 15182892 15157517 15151100 15168366 15211668 
1561.651 15279657 15366803 15463278 15557598 15638733 15699927 15740100 
1565.026 15765382 15785795 15812587 15854269 15914105 15989071 16072545 
1568.401 16156720 16236212 16309951 16382037 16460516 16554505 16672626 
1571.776 16821418 17003814 17220668 17469806 17746526 18043656 18351326 
1575.152 18657006 18946738 19206632 19425340 19594830 19711144 19774428 
1578.527 19787254 19753502 19678098 19566404 19424758 19259622 19078368 
1581.902 18888056 18695526 18506484 18326216 18159464 18010810 17884620 
1585.277 17783926 17709600 17659762 17629318 17611208 17597184 17580772 
1588.653 17557814 17527770 17492624 17455622 17419784 17386464 17354960 
1592.028 17324140 17292436 17260116 17229506 17205320 17193790 17200722 
1595.403 17231284 17288262 17372284 17481428 17611930 17759044 17917192 
1598.778 18081338 18247738 18415254 18585734 18764910 18960316 19180922 
1602.154 19434046 19723182 20047318 20399804 20770632 21148226 21521740 
1605.529 21883594 22228866 22555324 22861704 23145988 23404988 23633848 
1608.904 23827888 23983132 24097306 24170354 24203672 24199420 24159726 
1612.279 24086338 23980504 23844204 23680140 23492568 23287618 23071826 
1615.655 22852430 22636620 22430044 22237942 22064476 21912850 21785780 
1619.030 21685210 21611488 21563900 21539150 21532326 21536790 21545410 
1622.405 21551706 21550902 21540280 21520438 21493704 21465064 21439292 
1625.780 21421608 21415298 21421870 21440386 21467866 21500476 21534546 
1629.156 21567908 21600734 21635914 21677516 21729902 21795636 21874072 
1632.531 21961650 22051968 22138152 22215348 22282420 22342152 22400692 
1635.906 22464970 22540316 22627182 22720604 22811736 22890310 22947124 
1639.281 22977544 22982674 22967824 22941454 22911862 22885172 22864476 
1642.656 22850112 22841642 22839912 22847230 22867658 22905656 22963376 
1646.032 23040052 23130416 23227378 23323332 23412634 23494038 23570524 
1649.407 23647168 23730360 23824176 23929420 24043506 24160444 24273894 
1652.782 24378638 24472460 24557556 24639756 24726714 24826560 24946572 
1656.157 25090936 25261326 25456138 25670972 25899816 26135766 26372594 
1659.533 26606268 26835288 27061768 27290438 27527592 27778810 28047708 
1662.908 28334734 28636654 28948268 29263922 29580340 29897356 30218310 
1666.283 30549202 30895746 31263008 31651604 32059454 32481924 32914124 
1669.658 33352784 33797164 34248904 34710924 35185460 35673188 36172812 
1673.034 36682436 37199336 37722204 38249988 38781780 39316120 39849496 
1676.409 40377792 40896648 41403912 41900720 42392068 42885712 43390348 
1679.784 43913100 44457964 45024984 45610812 46210368 46818452 47431172 
1683.159 48046512 48664356 49286412 49915688 50556496 51213532 51892248 
1686.535 52596864 53331496 54098376 54899480 55736584 56611888 57529444 
1689.910 58493492 59508976 60578844 61704764 62886968 64126880 65428368 
1693.285 66801392 68260872 69826520 71519000 73355792 75350456 77511352 
1696.660 79846576 82368336 85097840 88067824 91319912 94900120 98851832 
1700.036 103211168 108005432 113256536 118988680 125236120 132048216 
1702.929 139489984 147636064 156562928 166341200 177028896 188668256 
1705.822 201285024 214889696 229474256 245012640 261457504 278739136 
1708.715 296770560 315451776 334673984 354318048 374248576 394301536 
1711.608 414276576 433936160 453016128 471248224 488383840 504216448 
1714.501 518596000 531435424 542712320 552468672 560806848 567878592 
1717.394 573865344 578950336 583291200 587001472 590148608 592764480 
1720.287 594866304 596472192 597610688 598316864 598624256 598560192 
1723.180 598146432 597408064 596386688 595143680 593756736 592303744 
1726.073 590842752 589399232 587964416 586506816 584994624 583411776 
1728.966 581770944 580107136 578465408 576884544 575388608 573986240 
1731.859 572682752 571491008 570441792 569584896 568981312 568693696 
1734.752 568777792 569281728 570250752 571737088 573804864 576528896 
1737.646 579986496 584246528 589359168 595354112 602243968 610034496 
1740.539 618733120 628348224 638883328 650322048 662614784 675670336 
1743.432 689357312 703513600 717958080 732499648 746941184 761077504 
1746.325 774696704 787584576 799537152 810373120 819946880 828148928 
1749.218 834900736 840143552 843830400 845924800 846403840 845263680 
1752.111 842519168 838197952 832331904 824949824 816078592 805753600 
1755.004 794030336 780996544 766772480 751504192 735348672 718459776 
1757.897 700978944 683034688 664746944 646231360 627604544 608980352 
1760.790 590467136 572164160 554159744 536531616 519349344 502673920 
1763.683 486556480 471035200 456130976 441847424 428174112 415092032 
1766.576 402580544 390623360 379209056 368327648 357965600 348098720 
1769.469 338691136 329695008 321055712 312717920 304631840 296755424 
1772.362 289054720 281502112 274070848 266735168 259468768 252246800 
1775.255 245048288 237858496 230670032 223481984 216298064 209124704 
1778.148 201970096 194843968 187758240 180726704 173765760 166891056 
1781.042 160117008 153453664 146908768 140490560 134211464 128092024 
1783.935 122161944 116456776 111011976 105854496 100997328 96437288 92156976 
1787.310 88132064 84338104 80756936 77378680 74200776 71225120 68451904 
1790.685 65879532 63500172 61301456 59267560 57381156 55624132 53979588 
1794.060 52433364 50974664 49597372 48300276 47085904 45957964 44919048 
1797.436 43967856 43097660 42298056 41555924 40859100 40199512 39572896 
1800.811 38978744 38416972 37884876 37376104 36878604 36379160 35865012 
1804.186 35330856 34780100 34226076 33688884 33189804 32745946 32364752 
1807.561 32044046 31772588 31535388 31318586 31112212 30910086 30706966 
1810.937 30495184 30262140 29991810 29668924 29285276 28845712 28368036 
1814.312 27880184 27412802 26990762 26627718 26324440 26072760 25861896 
1817.687 25683702 25534576 25413958 25318250 25237128 25152732 25044764 
1821.062 24896708 24705640 24482822 24250984 24035336 23854572 23711546 
1824.438 23593746 23476780 23333292 23142728 22894736 22592204 22246166 
1827.813 21871332 21482044 21091436 20709778 20345950 20006602 19694892 
1831.188 19409812 19145136 18894336 18652184 18420170 18206132 18020444 
1834.563 17870504 17755082 17661250 17566882 17447720 17286964 17079504 
1837.938 16833120 16563175 16285721 16010145 15737997 15466053 15193561 
1841.314 14926801 14679817 14469452 14308257 14195806 14117446 14049374 
1844.689 13968147 13860512 13728322 13586629 13454529 13344969 13259202 
1848.064 13183980 13101565 12995519 12861033 12705575 12545398 12396875 
1851.439 12269791 12163465 12070680 11983713 11901011 11829803 11783876 
1854.815 11776900 11815578 11894774 11998488 12103576 12186367 12227151 
1858.190 12213009 12138091 12002869 11813140 11582341 11329859 11080950 
1861.565 10861934 10691809 10578590 10513539 10474666 10434084 10367264 
1864.940 10263930 10129450 9984283 9854527 9763163 9722102 9729372 9770664 
1868.798 9826956 9879644 9916997 9934483 9934471 9922284 9902429 9875469 
1872.655 9836940 9779233 9693670 9575146 9427615 9264824 9110591 8991944 
1876.513 8931267 8937147 8997744 9083733 9155800 9179870 9139467 9043558 
1880.370 8924810 8826614 8789244 8831960 8949473 9113678 9285318 9427721 
1884.228 9515708 9540383 9504465 9415062 9280303 9108582 8910135 8703290 
1888.085 8510550 8356129 8255203 8206215 8191107 8181744 8153394 8096674 
1891.942 8022521 7956947 7926616 7942316 7992048 8040983 8048609 7985471 
1895.800 7850262 7670675 7494653 7370142 7327289 7367225 7464819 7580509 
1899.657 7677721 7731715 7734312 7687509 7598461 7474209 7326063 7176342 
1903.515 7060157 7025488 7116048 7354513 7724428 8166946 8591284 8899814 
1907.372 9016671 8910384 8600998 8148364 7632160 7125844 6680195 6316403 
1911.229 6033080 5815854 5648393 5516795 5412587 5327673 5256256 5194893 
1915.087 5145762 5115191 5110474 5129778 5158805 5165856 5112293 4960101 
1918.944 4690525 4310238 3852414 3366885 2908666 2525682 2255175 2123937 
1922.802 2150721 2346267 2708201 3209278 3792131 4369654 4844089 5129453 
1926.659 5183663 5023585 4727282 4407495 4175708 4105841 4210629 4441539 
1930.517 4713471 4936391 5049639 5038407 4934486 4797159 4688646 4653283 
1934.374 4703875 4824448 4980703 5131578 5243304 5294526 5280148 5207556 
1938.231 5089835 4940153 4761540 4543589 4264788 3902865 3449793 2925534 
1942.089 2389339 1923725 1618473 1529394 1655997 1925700 2212744 2378883 
1945.946 2328137 2045387 1609213 1165165 874747 851571 1114434 1582734 
1949.804 2101584 2501945 2653554 2507721 2097439 1512053 854245 194939 
1953.661 -439853 -1065884 -1711218 -2384414 -3055601 -3654061 -4082480 
1957.036 -4254152 -4109600 -3643646 -2902216 -1974205 -967686 12857 887724 
1960.894 1612633 2182593 2618107 2955794 3223276 3429056 3552917 3547189 
1964.751 3362238 2965510 2372034 1651784 921351 316101 -56194 -140187 43571 
1969.091 418034 884556 1366597 1830760 2290686 2770941 3272293 3726988 
1972.948 4009665 3964663 3485668 2572763 1382328 200295 -620575 -785013 
1976.806 -158421 1162255 2872384 4549002 5800643 6381581 6244574 5512188 
1980.663 4408890 3174432 2013204 1064875 406836 73066 74595 399570 1008963 
1985.003 1825348 2722355 3536618 4092120 4244399 3920451 3135735 2003949 
1988.860 702734 -557894 -1587004 -2240959 -2452724 -2232898 -1665739 -884643 
1992.718 -52289 673204 1159059 1329652 1169016 725061 92902 -613519 -1288399 
1997.057 -1852757 -2263294 -2508831 -2600545 -2566175 -2446901 -2299467 
2000.432 -2189555 -2185123 -2330626 -2623519 -2998903 -3346213 -3549653 
2003.808 -3538408 -3349688 -3134893 -3135977 -3588936 -4623456 -6164613 
2007.183 -7921689 -9450410 -10303678 -10187825 -9076198 -7205845 -4999934 
2010.558 -2922617 -1330133 -384666 -34863 -78877 -260069 -370031 -307421 
2014.416 -91432 162972 300402 161914 -373301 -1379128 -2862681 -4757847 
2018.273 -6905498 -9072628 -10962956 -12289613 -12825620 -12481238 -11319637 
2021.648 -9552668 -7483129 -5432345 -3668590 -2373437 -1622942 -1414206 
2025.023 -1677557 -2306358 -3161110 -4091028 -4950691 -5635204 -6108485 
2028.399 -6421765 -6696122 -7075783 -7666702 -8487660 -9452844 -10404133 
2031.774 -11167292 -11625523 -11747252 -11594407 -11267042 -10862044 
2034.667 -10417223 -9920423 -9329212 -8621218 -7810455 -6951755 -6093619 
2038.042 -5254310 -4395726 -3444382 -2332658 -1053898 312390 1610979 2664977 
2041.900 3337914 3585573 3461995 3089148 2595656 2063168 1504417 886738 
2045.757 184043 -572901 -1269497 -1731472 -1785371 -1338697 -432947 754335 
2049.615 1954380 2904023 3414299 3420286 2968950 2187628 1232956 257766 
2053.472 -619120 -1316386 -1789219 -2017575 -1999363 -1739220 -1249216 
2056.847 -551830 314701 1289671 2288589 3204885 3928251 4364809 4465228 
2060.705 4245832 3795166 3257994 2801902 2567174 2625908 2958062 3459913 
2064.562 3979454 4365597 4523563 4435529 4166125 3831129 3558751 3447739 
2068.419 3549746 3859624 4334190 4907965 5513153 6087597 6580127 6949115 
2072.277 7165252 7214686 7100387 6842314 6471500 6020182 5515201 4976589 
2076.134 4420561 3869179 3355662 2924376 2620556 2471646 2477262 2601996 
2079.992 2789226 2975406 3119367 3210056 3272203 3349342 3483604 3695017 
2083.849 3972385 4273068 4541084 4721789 4780680 4708270 4523745 4267049 
2087.707 3989672 3745390 3579984 3520770 3566484 3682861 3804523 3852086 
2091.564 3756454 3484035 3059563 2565965 2126706 1865134 1864034 2129636 
2095.421 2589251 3113551 3566987 3855000 3958267 3930416 3869039 3870417 
2099.279 3990548 4222851 4509163 4768129 4932299 4976138 4925178 4838128 
2103.136 4782778 4804263 4912174 5080307 5263277 5419699 5529184 5596385 
2106.994 5645078 5701805 5780699 5876581 5968365 6031707 6052507 6035801 
2110.851 6006628 5994832 6025077 6096832 6183281 6235800 6200981 6039075 
2114.708 5741466 5333634 4869984 4415588 4027699 3736846 3543073 3419055 
2118.566 3322611 3212888 3061133 2854163 2590146 2271981 1899051 1469628 
2122.423 986565 464480 -63948 -550822 -946399 -1214738 -1351010 -1385144 
2126.281 -1377650 -1403925 -1528796 -1795562 -2213343 -2767480 -3430483 
2129.656 -4176903 -4987712 -5852197 -6753137 -7661524 -8530590 -9303899 
2133.031 -9929399 -10375061 -10639977 -10745076 -10723101 -10597666 
2135.924 -10374957 -10048957 -9617313 -9107012 -8586093 -8157279 -7933887 
2139.300 -8001313 -8382523 -9029314 -9834711 -10673861 -11451310 -12139703 
2142.675 -12782948 -13479021 -14328697 -15385612 -16621344 -17922100 
2145.568 -19120658 -20056040 -20621048 -20813318 -20724676 -20521264 
2148.461 -20378722 -20433168 -20745588 -21297934 -22022028 -22832890 
2151.354 -23671222 -24514530 -25378210 -26288796 -27261268 -28285796 
2154.247 -29329390 -30355496 -31345874 -32311582 -33278804 -34260076 
2157.140 -35200024 -35972164 -36376804 -36223588 -35416324 -34034340 
2160.033 -32319516 -30603932 -29168744 -28157446 -27516398 -27041842 
2162.926 -26442812 -25452462 -23908968 -21813838 -19322810 -16710987 
2165.819 -14284515 -12316628 -10986745 -10354977 -10378378 -10934292 
2168.712 -11861226 -12995950 -14198079 -15366185 -16439518 -17392488 
2171.605 -18218186 -18908674 -19445190 -19790874 -19896738 -19726158 
2174.499 -19273074 -18583390 -17755452 -16916500 -16195375 -15687773 
2177.392 -15432440 -15414916 -15579784 -15856087 -16173461 -16472416 
2180.285 -16704056 -16826438 -16805312 -16628558 -16316393 -15935646 
2183.178 -15589364 -15392375 -15428167 -15716456 -16196117 -16741132 
2186.071 -17194614 -17428820 -17372542 -17025328 -16442234 -15697205 
2188.964 -14839447 -13888884 -12834295 -11672686 -10433178 -9203869 -8113848 
2192.339 -7304192 -6874699 -6853196 -7180828 -7734665 -8362168 -8931245 
2195.714 -9359553 -9618952 -9732591 -9739484 -9679563 -9574910 -9433557 
2199.090 -9258855 -9054735 -8838925 -8633735 -8463250 -8341321 -8269811 
2202.465 -8234509 -8211779 -8166674 -8067746 -7881409 -7589000 -7187230 
2205.840 -6702094 -6185048 -5709942 -5356940 -5195738 -5263528 -5558807 
2209.215 -6040568 -6640672 -7277511 -7871347 -8351206 -8654950 -8727219 
2212.591 -8524239 -8021953 -7227482 -6192242 -5013038 -3815786 -2735321 
2215.966 -1879914 -1309351 -1022714 -966424 -1054796 -1197669 -1317456 
2219.341 -1368996 -1328238 -1195257 -977304 -690300 -353270 1693 334988 
2223.198 594246 727008 689334 460707 49764 -499234 -1112180 -1695032 
2227.056 -2149101 -2391809 -2378115 -2112260 -1655361 -1110030 -600262 
2230.431 -232163 -65634 -94922 -248356 -411664 -465290 -321824 45443 600025 
2234.771 1251539 1893309 2424828 2779044 2923462 2860528 2613269 2219239 
2238.628 1728229 1204795 727309 381484 241515 350822 699916 1225987 1824026 
2242.968 2378959 2797648 3034485 3102349 3058172 2979428 2933868 2956520 
2246.825 3044446 3165209 3273710 3332861 3323782 3250170 3130093 2987322 
2250.683 2845780 2721476 2628327 2574871 2570634 2620359 2725064 2877761 
2254.540 3068461 3283718 3512613 3746161 3978588 4202833 4405962 4574944 
2258.397 4698390 4775500 4822105 4869485 4956778 5116698 5361081 5671500 
2262.255 6003943 6302155 6520416 6639745 6678470 6682460 6706325 6788398 
2266.112 6932588 7104241 7244215 7291849 7212096 7009678 6729628 6440229 
2269.970 6208009 6077920 6062632 6146004 6301231 6504293 6748196 7040128 
2273.827 7391775 7802858 8252210 8696706 9082687 9366041 9525365 9571263 
2277.685 9539990 9481576 9443491 9457001 9537469 9685108 9894874 10159367 
2281.542 10471706 10817986 11175084 11507051 11775875 11948147 12011725 
2284.917 11976713 11875017 11746234 11623390 11521204 11435469 11349397 
2288.292 11248650 11132533 11017529 10931563 10900338 10932866 11015145 
2291.668 11112052 11180745 11187630 11120756 10993849 10840395 10697735 
2295.043 10593690 10536728 10517261 10514703 10511066 10499349 10486702 
2298.418 10489056 10522122 10592006 10690727 10797435 10885471 10932152 
2301.793 10925652 10868717 10777515 10678418 10599499 10566381 10595833 
2305.169 10693303 10851444 11050230 11260961 11452340 11596418 11675278 
2308.544 11683985 11631008 11533349 11413053 11291250 11186522 11114978 
2311.919 11091276 11130617 11244600 11439031 11708655 12035499 12390380 
2315.294 12739160 13052759 13314554 13523625 13693052 13843345 13995670 
2318.670 14166309 14365261 14600591 14879133 15206964 15584231 15997196 
2322.045 16410811 16768271 16999272 17034822 16828588 16367892 15680382 
2325.420 14829093 13898319 12975829 12138690 11438525 10899538 10518683 
2328.795 10273508 10132975 10066230 10047025 10056825 10082698 10116933 
2332.171 10152662 10185051 10211128 10228388 10237223 10238320 10233792 
2335.546 10225353 10216517 10209008 10206109 10208920 10217911 10230348 
2338.921 10242009 10246624 10239573 10217873 10182139 10136442 10086809 
2342.296 10039273 9997913 9964531 9937646 9914436 9890274 9862809 9830700 
2346.154 9795599 9760010 9728332 9704106 9690075 9686331 9691541 9701231 
2350.011 9710219 9714254 9709798 9695824 9673739 9645744 9614985 9583819 
2353.869 9554610 9528534 9507334 9492583 9484204 9481341 9479339 9471820 
2357.726 9450421 9407720 9338271 9241109 9119861 8981379 8833233 8683395 
2361.583 8537695 8400952 8277035 8169337 8080709 8012810 7964072 7929926 
2365.441 7902319 7873441 7837280 7792729 7744528 7701919 7675503 7674535 
2369.298 7703935 7764044 7851874 7961358 8085862 8217955 8348455 8466974 
2373.156 8560501 8617752 8631400 8601340 8536671 8454444 8375918 8321179 
2377.013 8304210 8328526 8388832 8470698 8556734 8628821 8673984 8684807 
2380.871 8661828 8613220 8552897 8497487 8462751 8459846 8490701 8549048 
2384.728 8620807 8688931 8739390 8765475 8770356 8763753 8759937 8770245 
2388.585 8800349 8848906 8909304 8972761 9030577 9076830 9107755 9120305 
2392.443 9113907 9088950 9051665 9012764 8986813 8987501 9021813 9084003 
2396.300 9156234 9212794 9231234 9202555 9138112 9070118 9039067 9080742 
2400.158 9208036 9403212 9620179 9797116 9877414 9827646 9650406 9383285 
2404.015 9088486 8830369 8660989 8603019 8648949 8767661 8914903 9049431 
2407.873 9142582 9182085 9171445 9123514 9054788 8978952 8904217 8832840 
2411.730 8762891 8689291 8608252 8517673 8420295 8323049 8237704 8178300 
2415.587 8159203 8190763 8274143 8399618 8545103 8679680 8768186 8781734 
2419.445 8705159 8542389 8318792 8074543 7854420 7696575 7620012 7621367 
2423.302 7677878 7756176 7824881 7866340 7880291 7882180 7891684 7923306 
2427.160 7977466 8037809 8079127 8077083 8021109 7921640 7807866 7720830 
2431.017 7698913 7767228 7928527 8163330 8436142 8704497 8927645 9076569 
2434.875 9134430 9097824 8976798 8789644 8562157 8323072 8100795 7919090 
2438.732 7792936 7725848 7710683 7731753 7771972 7813594 7844395 7858578 
2442.589 7853689 7831184 7794642 7748053 7697531 7649684 7611286 7587076 
2446.447 7578367 7582473 7593850 7608170 7624783 7649004 7689499 7754541 
2450.304 7845125 7952687 8057030 8132444 8157623 8122951 8036915 7925137 
2454.162 7823809 7768164 7780423 7863089 7998511 8153275 8289169 8372529 
2458.019 8382955 8315312 8180488 7999649 7798987 7605341 7440887 7321222 
2461.876 7254821 7241212 7273437 7338053 7420699 7507575 7589312 7660391 
2465.734 7720064 7766182 7794866 7798367 7765301 7686263 7559344 7391284 
2469.591 7202016 7017566 6865697 6765860 6725731 6738088 6784742 6843783 
2473.449 6896089 6932411 6951668 6959459 6961392 6958291 6945277 6913758 
2477.306 6857941 6780789 6697501 6634347 6620595 6680660 6823690 7039016 
2481.164 7297917 7560208 7785638 7944492 8023035 8025088 7968771 7877361 
2485.021 7773730 7672972 7584045 7509026 7447675 7399080 7364994 7346166 
2488.878 7343520 7355989 7381499 7416906 7461636 7517603 7588561 7676429 
2492.736 7780144 7889816 7989718 8058616 8076077 8028332 7912271 7739284 
2496.593 7531360 7315647 7120299 6966563 6866018 6821518 6828500 6880495 
2500.451 6971785 7097811 7256104 7441523 7644743 7848581 8031727 8171428 
2504.308 8246822 8246151 8168790 8022902 7824789 7593433 7345895 7096146 
2508.166 6854300 6629809 6432207 6273784 6170104 6133228 6171637 6283125 
2512.023 6456450 6668396 6890434 7090976 7242831 7326072 7331671 7262267 
2515.880 7131253 6959847 6773800 6597280 6448413 6334922 6252873 6187082 
2519.738 6119004 6031760 5919046 5789926 5667741 5583822 5567669 5636877 
2523.595 5789745 6001133 6231148 6432770 6566402 6610258 6564194 6449978 
2527.453 6304654 6166956 6071761 6038714 6073488 6165255 6297619 6447847 
2531.310 6596126 6724732 6820054 6871255 6871296 6817530 6714577 6576449 
2535.167 6427726 6299160 6224218 6228189 6323127 6501156 6735541 6986741 
2539.025 7211926 7377353 7465172 7477690 7434612 7364901 7296524 7249153 
2542.882 7231532 7240622 7269906 7314985 7376380 7460807 7576271 7726281 
2546.740 7903391 8087483 8247436 8349539 8364307 8276709 8090798 7829454 
2550.597 7529019 7232807 6981564 6805063 6718111 6721253 6802961 6944903 
2554.455 7127718 7335511 7556464 7782405 8006681 8220507 8412768 8572166 
2558.312 8688420 8757474 8784934 8783597 8773283 8772199 8793780 8840689 
2562.169 8904819 8970517 9019377 9037428 9018315 8965191 8889002 8804481 
2566.027 8726357 8665779 8630037 8622486 8643482 8691074 8764504 8861050 
2569.884 8977122 9106900 9242581 9373519 9487590 9571628 9615807 9613739 
2573.742 9568408 9489774 9396574 9310145 9250709 9228946 9244618 9285693 
2577.599 9333673 9369184 9381963 9372084 9351516 9336282 9341304 9370557 
2581.457 9416638 9462654 9489270 9483621 9444994 9386239 9329365 9298636 
2585.314 9312723 9379077 9492469 9636776 9791095 9932950 10042602 10106175 
2589.171 10117581 10078775 10000991 9903443 9810801 9747667 9732848 9771914 
2593.029 9856150 9963481 10065486 10134923 10154763 10123593 10053183 
2596.404 9965657 9884352 9828109 9805972 9817082 9852519 9899088 9945241 
2600.261 9981940 10005957 10018507 10024627 10031441 10045568 10071184 
2603.637 10108038 10151611 10194241 10228790 10253245 10272130 10297650 
2607.012 10345578 10429798 10555566 10716639 10895252 11068542 11215199 
2610.387 11323403 11392596 11432981 11457643 11477855 11497291 11512619 
2613.762 11516667 11506630 11485210 11461860 11448564 11452077 11468986 
2617.138 11484237 11477331 11429062 11332758 11198216 11052159 10929644 
2620.513 10865035 10880271 10980227 11152859 11373409 11613744 11847806 
2623.888 12056524 12228526 12357980 12442643 12483010 12483282 12451786 
2627.263 12402506 12353117 12322021 12323314 12362381 12435026 12527782 
2630.639 12622519 12701609 12753748 12776104 12775182 12763317 12755245 
2634.014 12761725 12787982 12830758 12881318 12927044 12958030 12969323 
2637.389 12963654 12951970 12949122 12970587 13027791 13123945 13254120 
2640.764 13406668 13565307 13713572 13838166 13930377 13986194 14006657 
2644.140 13996617 13964049 13918780 13872254 13834232 13811282 13804657 
2647.515 13809568 13816522 13815220 13797661 13761528 13710898 13655720 
2650.890 13606212 13569309 13545819 13529786 13512236 13483918 13440731 
2654.265 13384186 13321484 13261339 13210614 13170550 13137863 13104364 
2657.641 13062746 13007312 12936713 12853088 12759637 12658408 12549575 
2661.016 12431622 12302765 12163448 12017054 11870361 11730939 11606462 
2664.391 11502193 11420811 11361074 11320672 11294796 11276856 11259976 
2667.766 11235949 11199062 11147162 11084443 11021702 10974213 10957973 
2671.142 10983627 11052274 11152500 11264482 11364263 11431167 11454346 
2674.517 11435469 11386515 11325371 11269845 11230867 11211757 11208761 
2677.892 11213646 11218352 11216697 11204734 11180754 11143136 11091247 
2681.267 11026069 10951363 10875201 10810319 10768205 10758474 10782936 
2684.643 10835505 10902465 10968194 11019123 11048509 11056243 11049147 
2688.018 11034857 11019392 11004551 10987994 10966212 10937316 10902469 
2691.393 10865361 10830309 10798846 10768905 10734540 10689444 10631721 
2694.768 10565242 10500546 10451236 10428139 10434872 10465859 10507231 
2698.144 10542574 10559252 10555095 10537485 10522578 10527617 10563538 
2701.519 10629641 10712935 10792107 10844466 10852547 10811355 10727828 
2704.894 10619771 10510870 10422923 10372765 10367917 10406776 10479865 
2708.269 10571996 10665615 10742426 10788187 10793009 10754958 10680546 
2711.645 10583267 10480248 10389353 10324003 10290831 10287669 10307642 
2715.020 10340327 10376743 10410995 10441083 10466729 10488936 10504606 
2718.395 10510105 10500063 10472472 10429509 10379620 10335171 10310446 
2721.770 10315183 10352950 10418668 10499341 10578777 10640481 10673063 
2725.146 10672309 10640936 10588504 10526573 10469457 10428093 10410422 
2728.521 10420563 10456336 10511649 10578024 10644607 10701358 10743245 
2731.896 10769162 10783671 10794253 10809503 10834351 10869083 10908585 
2735.271 10944439 10968142 10974375 10964137 10943645 10922503 10910235 
2738.646 10913164 10932760 10966384 11009544 11059229 11114341 11177635 
2742.022 11251592 11336126 11425835 11509249 11571490 11598499 11582077 
2745.397 11523677 11435315 11336545 11249329 11192773 11176173 11199091 
2748.772 11251066 11315935 11375772 11416955 11430368 11414057 11370314 
2752.147 11304002 11220454 11125010 11021893 10915894 10813094 10721222 
2755.523 10648118 10601983 10587989 10608550 10661008 10739212 10834137 
2758.898 10935650 11035088 11126813 11207037 11276766 11337102 11390537 
2762.273 11438259 11479625 11511207 11529669 11531036 11513256 11477246 
2765.648 11427258 11370222 11315390 11270810 11243247 11234933 11243369 
2769.024 11262091 11281371 11290654 11281407 11248805 11194413 11124335 
2772.399 11049973 10983752 10937071 10918108 10929095 10967081 11024387 
2775.774 11090251 11153541 11203855 11234963 11243511 11232081 11207084 
2779.149 11177151 11153342 11144496 11156563 11190302 11241822 11303406 
2782.525 11365855 11422089 11467173 11500635 11523954 11539362 11548814 
2785.900 11552771 11551136 11544744 11537045 11534285 11544675 11574283 
2789.275 11624801 11692790 11769021 11843040 11906538 11958379 12004169 
2792.650 12055303 12123185 12214937 12328235 12452055 12569944 12665797 
2796.026 12729296 12760891 12769647 12769883 12775829 12796020 12830276 
2799.401 12871386 12907637 12929457 12932339 12919183 12898419 12881780 
2802.776 12879303 12898227 12939971 13002764 13081644 13171169 13265994 
2806.151 13362270 13455669 13543274 13620381 13683310 13729325 13757283 
2809.527 13768304 13766148 13756080 13744878 13738378 13741489 13755907 
2812.902 13780320 13812190 13846051 13879072 13910126 13940906 13977832 
2816.277 14027416 14095994 14187545 14302179 14435378 14581303 14732775 
2819.652 14883656 15029023 15165466 15290426 15400292 15492024 15563522 
2823.028 15614776 15649851 15674885 15698889 15730483 15774414 15832305 
2826.403 15899986 15970258 16036093 16091131 16133562 16165277 16191207 
2829.778 16219523 16256681 16308682 16376860 16458565 16547056 16632346 
2833.153 16703306 16750686 16770098 16762957 16738193 16707614 16685406 
2836.529 16681857 16702225 16744994 16804838 16875382 16952438 17035340 
2839.904 17127532 17231592 17349440 17478226 17612892 17748378 17884496 
2843.279 18028424 18194018 18399288 18659104 18979940 19355844 19768778 
2846.654 20193396 20603242 20976602 21302968 21579968 21812450 22007662 
2850.030 22171628 22308364 22420532 22512060 22591020 22670202 22763474 
2853.405 22883550 23037580 23224256 23434148 23652344 23863894 24057408 
2856.780 24226602 24373950 24505340 24629440 24751948 24876542 25003506 
2860.155 25130620 25257014 25385298 25521092 25674364 25855110 26071300 
2863.531 26326934 26619742 26942580 27286270 27642794 28008464 28384954 
2866.906 28779954 29202628 29660820 30157874 30691242 31251524 31827744 
2870.281 32407646 32983020 33549178 34104720 34650220 35186156 35709948 
2873.656 36217760 36704576 37165236 37597360 37999412 38372344 38716512 
2877.031 39032156 39317496 39570504 39787308 39964540 40098992 40186704 
2880.407 40224668 40209220 40138964 40014456 39841224 39627528 39385904 
2883.782 39130252 38873176 38625040 38392848 38180324 37990644 37825660 
2887.157 37687752 37579588 37503236 37458420 37443072 37453952 37488328 
2890.532 37544904 37624896 37732156 37868788 38034720 38224140 38426108 
2893.908 38626284 38809744 38964892 39086860 39178192 39247284 39305900 
2897.283 39364048 39428448 39499112 39572284 39641904 39703732 39755848 
2900.658 39801432 39845460 39892460 39942964 39992380 40031784 40051644 
2904.033 40045280 40014588 39969260 39926316 39904224 39917400 39970048 
2907.409 40055628 40157940 40257816 40341400 40404812 40457800 40520552 
2910.784 40618496 40773936 40999400 41295860 41651616 42049104 42468188 
2914.159 42892540 43309988 43714092 44100656 44466040 44806916 45120356 
2917.534 45406708 45668656 45914812 46156764 46407580 46678788 46979352 
2920.910 47312940 47680680 48079220 48503948 48948264 49403672 49861392 
2924.285 50312368 50749712 51169396 51574100 51971276 52373456 52794988 
2927.660 53250076 53748776 54296936 54895964 55544032 56238480 56977508 
2931.035 57759760 58586872 59459980 60381524 61353284 62377924 63461020 
2934.411 64609924 65835668 67153296 68578200 70124056 71800520 73608576 
2937.786 75541104 77580488 79701488 81872272 84057488 86221384 88327176 
2941.161 90341064 92231152 93969536 95535120 96913648 98098720 99092552 
2944.536 99901888 100533256 100990448 101272016 101372496 101285296 
2947.429 101008584 100551504 99934944 99189056 98350512 97452784 96522000 
2950.805 95573264 94612520 93643176 92668240 91697128 90742928 89821264 
2954.180 88944048 88116848 87338144 86601872 85901608 85234608 84600384 
2957.555 84001528 83436960 82898072 82369712 81831680 81266008 80664704 
2960.930 80030296 79378152 78728008 78096960 77492336 76909560 76333744 
2964.306 75748544 75141424 74510792 73865184 73219800 72589408 71981672 
2967.681 71395456 70821264 70244776 69653496 69039880 68402928 67746056 
2971.056 67075640 66398524 65720916 65050296 64395128 63767940 63183800 
2974.431 62657556 62202424 61824964 61527316 61305336 61151152 61055364 
2977.807 61009404 61005724 61041052 61113336 61225180 61380852 61588164 
2981.182 61855360 62190464 62600620 63091448 63666276 64328580 65082280 
2984.557 65931948 66882616 67937456 69095720 70353264 71700560 73124128 
2987.932 74608608 76136304 77686544 79233408 80745176 82184000 83509352 
2991.308 84684544 85681552 86488464 87107888 87556448 87854944 88023424 
2994.683 88072320 88002088 87803864 87465056 86973448 86323152 85514616 
2998.058 84553784 83450808 82218664 80872480 79431416 77917544 76357008 
3001.433 74777096 73202104 71649432 70128688 68641464 67182904 65746380 
3004.809 64323752 62906824 61488916 60061576 58617536 57151860 55664492 
3008.184 54162988 52662732 51183744 49745140 48361264 47036648 45766464 
3011.559 44541204 43349104 42184208 41045436 39936112 38860912 37819988 
3014.934 36810488 35825064 34858852 33911304 32990490 32111116 31289190 
3018.310 30536416 29854634 29234578 28661242 28118034 27592976 27082160 
3021.685 26588044 26115704 25667794 25240218 24823260 24404978 23976182 
3025.060 23535860 23090452 22651272 22229640 21831160 21454082 21090966 
3028.435 20732924 20374664 20018838 19674506 19353084 19063318 18807554 
3031.811 18580082 18371114 18172002 17980592 17801786 17647500 17529250 
3035.186 17453672 17417002 17404378 17394296 17365248 17301924 17198306 
3038.561 17060698 16902158 16738582 16584769 16451020 16341416 16257597 
3041.936 16197221 16158868 16139999 16139185 16153589 16179936 16215893 
3045.312 16256867 16298875 16338240 16368726 16386854 16389038 16376190 
3048.687 16353624 16331868 16323403 16340001 16387198 16460408 16547877 
3052.062 16629437 16684296 16698506 16667027 16596913 16502492 16403338 
3055.437 16314914 16248407 16206073 16185354 16180117 16185025 16194962 
3058.813 16205825 16212277 16208880 16190087 16150860 16092939 16022986 
3062.188 15955066 15905002 15887786 15912782 15979398 16077999 16191335 
3065.563 16300501 16386984 16437389 16445013 16411483 16343160 16251359 
3068.938 16148314 16046373 15955016 15879897 15821952 15779851 15749270 
3072.313 15728569 15718367 15723201 15749060 15801826 15882343 15984435 
3075.689 16094923 16195653 16269388 16302692 16291825 16240492 16161785 
3079.064 16071182 15984586 15912320 15860897 15829913 15816582 15814716 
3082.439 15819155 15824007 15825035 15818618 15802477 15776612 15742153 
3085.814 15702201 15659858 15618018 15575753 15530888 15477834 15410891 
3089.190 15324469 15217111 15091504 14955413 14821051 14702089 14611170 
3092.565 14556064 14538753 14553039 14586810 14625256 14655939 14670352 
3095.940 14668490 14655218 14638621 14626168 14620558 14618996 14614212 
3099.315 14599671 14570692 14529762 14483526 14441015 14409292 14390861 
3102.691 14382186 14377668 14371484 14362801 14355365 14355617 14369703 
3106.066 14399185 14439599 14480548 14509957 14519807 14506860 14473502 
3109.441 14426078 14371661 14315563 14261116 14210822 14169369 14142804 
3112.816 14136760 14153441 14186802 14224139 14247617 14241163 14197573 
3116.192 14121938 14031260 13948387 13893668 13876508 13894103 13932377 
3119.567 13973795 14004363 14016973 14012975 13994869 13962960 13912437 
3122.942 13834411 13724059 13586188 13438881 13311824 13235142 13230071 
3126.317 13297693 13417444 13552726 13662421 13714778 13696263 13615121 
3129.693 13493948 13361859 13243776 13156985 13108831 13101524 13134769 
3133.068 13208169 13317763 13454352 13598231 13723912 13805462 13824377 
3136.443 13778427 13683748 13571094 13474376 13422260 13425794 13478801 
3139.818 13558617 13637309 13689958 13702785 13675448 13618237 13546609 
3143.194 13474748 13412021 13360532 13317024 13274559 13225448 13163274 
3146.569 13085191 12991718 12888120 12781547 12683897 12605604 12556034 
3149.944 12539632 12555876 12600363 12664678 12739971 12817194 12888958 
3153.319 12949039 12991528 13011974 13009850 12988091 12955033 12921335 
3156.695 12899764 12898038 12916273 12949193 12984660 13010943 13021911 
3160.070 13019354 13014787 13024492 13063594 13141314 13256410 13397895 
3163.445 13547380 13685381 13794949 13864418 13888351 13865781 13799967 
3166.820 13696091 13562944 13411747 13256497 13112028 12991483 12903034 
3170.196 12849758 12827112 12827474 12842787 12867125 12898257 12936722 
3173.571 12984754 13043520 13111442 13184906 13259989 13332975 13403115 
3176.946 13472538 13544532 13622082 13706787 13797477 13891498 13985341 
3180.321 14075599 14159927 14236082 14301508 14352360 14384262 14392944 
3183.697 14375724 14332490 14265792 14180735 14083079 13977933 13868817 
3187.072 13759146 13651580 13550391 13463365 13399040 13366817 13373854 
3190.447 13421982 13508560 13623891 13754968 13886092 14002310 14090463 
3193.822 14141764 14152453 14125074 14067530 13994035 13922553 13872128 
3197.198 13857636 13886477 13954929 14048668 14145439 14222216 14260457 
3200.573 14253928 14208715 14140558 14070350 14016519 13989260 13989757 
3203.948 14012128 14048019 14093145 14148370 14219065 14311250 14425905 
3207.323 14555314 14681659 14784308 14843155 14847965 14800862 14718060 
3210.698 14622014 14538201 14484151 14468473 14487102 14527463 14572355 
3214.074 14605640 14615688 14599579 14560754 14509965 14462287 14432792 
3217.449 14432908 14467821 14534958 14623887 14719960 14808414 14878676 
3220.824 14927280 14958319 14980733 15004124 15035079 15073380 15114287 
3224.199 15149158 15170217 15171945 15153471 15116622 15067229 15010797 
3227.575 14954675 14907184 14876869 14870983 14892019 14937724 14998044 
3230.950 15058061 15102081 15121111 15115032 15094442 15077744 15081292 
3234.325 15113651 15169747 15232580 15278743 15286983 15246979 15161755 
3237.700 15047343 14925642 14817036 14736059 14687492 14671997 14686981 
3241.076 14731595 14805960 14908465 15034028 15169956 15299201 15404046 
3244.451 15470889 15495364 15482990 15446472 15400379 15356337 15321529 
3247.826 15297478 15283538 15279389 15285354 15303406 15333327 15372619 
3251.201 15415521 15454946 15485998 15507035 15520555 15529614 15535949 
3254.577 15537597 15528668 15503814 15461176 15406636 15352407 15315515 
3257.952 15310687 15347112 15424044 15532226 15658252 15787052 15905851 
3261.327 16005460 16077448 16116122 16117737 16082393 16019698 15945937 
3264.702 15884850 15858095 15879255 15945841 16039370 16130306 16187327 
3268.078 16188400 16128357 16019439 15883991 15747856 15628455 15534014 
3271.453 15463542 15414206 15386446 15386740 15426174 15512441 15644697 
3274.828 15808819 15979040 16125733 16225709 16268836 16261239 16223317 
3278.203 16180774 16157662 16169157 16218796 16300654 16401015 16504487 
3281.579 16596116 16662696 16694523 16686630 16639771 16561637 16465431 
3284.954 16368210 16287265 16234597 16214952 16226035 16261023 16311334 
3288.329 16369931 16433945 16501840 16572181 16640561 16700029 16743736 
3291.704 16766936 16772371 16768534 16767461 16781064 16814112 16862738 
3295.080 16914142 16951976 16962190 16938812 16887124 16823600 16770231 
3298.455 16749462 16777344 16858438 16986906 17143868 17304430 17441252 
3301.830 17530730 17556990 17516688 17418542 17282816 17134768 17000428 
3305.205 16898418 16837270 16813348 16812920 16818144 16812946 16786896 
3308.581 16737217 16669782 16594559 16523758 16467474 16433364 16425328 
3311.956 16444478 16488945 16554190 16632667 16715065 16791706 16853152 
3315.331 16895392 16916966 16921986 16917884 16911226 16908012 16910580 
3318.706 16918268 16928178 16936868 16941444 16941232 16936120 16929784 
3322.082 16925894 16932250 16954978 16999110 17065206 17147488 17232026 
3325.457 17299418 17329804 17309456 17235214 17118120 16981144 16852396 
3328.832 16757986 16713655 16719984 16766161 16832112 16899428 16955592 
3332.207 16997586 17029430 17056702 17083086 17105004 17115080 17106710 
3335.583 17078878 17041310 17012340 17014352 17064252 17165194 17304792 
3338.958 17455074 17582682 17657916 17664724 17605426 17498604 17371812 
3342.333 17252168 17158160 17094730 17055720 17028806 17001774 16967218 
3345.708 16925252 16880808 16838260 16799066 16760644 16715592 16657174 
3349.083 16582577 16496852 16410658 16337577 16290303 16275354 16289713 
3352.459 16323168 16361017 16388765 16397525 16385382 16359074 16329834 
3355.834 16310707 16311925 16338335 16389165 16456887 16532958 16606349 
3359.209 16669072 16716054 16745817 16758921 16757831 16745701 16724555 
3362.584 16697653 16667703 16637968 16612845 16595496 16587727 16587507 
3365.960 16590448 16588876 16576361 16548494 16508881 16465196 16432675 
3369.335 16425656 16455220 16523635 16622234 16732842 16834338 16906138 
3372.710 16937492 16928270 16889306 16839362 16797320 16776644 16781304 
3376.085 16807122 16841660 16872700 16890616 16892916 16883552 16869764 
3379.461 16859374 16857134 16861922 16868858 16870808 16863468 16845466 
3382.836 16820432 16794712 16773177 16759010 16748920 16736673 16713642 
3386.211 16675511 16622165 16562110 16507484 16471921 16465293 16488077 
3389.586 16532216 16581479 16616218 16620623 16587190 16518857 16428685 
3392.962 16334515 16255438 16204882 16187286 16199363 16231580 16271764 
3396.337 16310712 16342159 16365532 16384022 16402170 16424421 16453061 
3399.712 16488424 16528470 16570125 16608482 16637852 16652180 16645763 
3403.087 16615052 16561070 16489856 16414516 16351137 16317287 16326671 
3406.463 16385701 16491199 16631445 16790810 16951608 17101274 17232938 
3409.838 17343958 17434898 17505284 17552708 17572346 17560412 17518386 
3413.213 17454952 17386696 17333298 17313656 17338996 17410028 17516014 
3416.588 17639560 17761202 17864214 17938942 17981370 17992504 17975200 
3419.964 17933124 17870962 17795706 17718258 17652144 17610112 17598592 
3423.339 17616678 17652222 17687656 17703698 17688274 17640456 17569656 
3426.714 17492286 17423634 17373460 17341198 17319276 17298262 17274140 
3430.089 17251850 17244846 17270040 17340098 17457350 17612038 17783708 
3433.465 17947846 18083370 18176552 18222884 18225670 18191932 18128332 
3436.840 18040860 17934236 17814332 17688990 17566154 17453208 17354310 
3440.215 17268876 17194724 17128976 17074050 17037340 17029458 17062304 
3443.590 17140052 17257764 17398496 17539042 17654924 17728908 17754844 
3446.966 17739302 17697862 17646356 17598190 17557294 17520436 17479170 
3450.341 17425290 17355318 17270754 17178650 17085374 16996470 16910324 
3453.716 16822654 16729062 16628621 16530357 16451174 16414687 16444648 
3457.091 16555568 16746104 16997668 17276230 17539614 17750348 17881816 
3460.467 17927006 17895618 17811652 17702948 17591664 17493126 17411400 
3463.842 17344050 17288064 17243790 17217038 17215834 17246922 17312296 
3467.217 17405690 17514114 17621644 17712114 17773542 17797996 17781506 
3470.592 17723824 17626566 17495432 17341572 17184780 17050188 16967940 
3473.968 16964242 17056008 17245154 17515452 17835742 18164468 18459652 
3477.343 18684402 18815558 18847106 18790314 18672124 18528814 18399018 
3480.718 18315420 18297060 18345598 18446468 18575524 18706494 18820916 
3484.093 18913872 18993178 19073796 19169760 19286696 19418062 19548424 
3487.469 19662324 19751562 19820686 19886436 19968488 20080206 20219976 
3490.844 20368116 20493918 20565464 20562910 20487160 20358958 20213134 
3494.219 20085352 20000246 19967686 19980182 20021080 20072326 20123818 
3497.594 20173564 20227434 20295180 20382692 20492672 20622322 20766244 
3500.969 20917858 21072354 21224200 21368454 21497454 21605190 21685528 
3504.345 21738094 21767118 21780714 21788070 21795782 21806674 21819690 
3507.720 21833302 21848800 21870556 21905996 21960320 22029172 22098872 
3511.095 22144638 22139886 22064650 21914316 21705982 21472944 21255226 
3514.470 21086236 20980506 20926704 20893084 20835480 20717974 20522846 
3517.846 20260130 19964790 19685846 19471234 19353078 19338720 19409650 
3521.221 19528932 19654636 19747992 19786874 19764986 19692124 19587196 
3524.596 19471954 19365208 19278664 19218958 19184908 19169430 19161514 
3527.971 19148154 19115380 19052644 18955556 18827078 18677970 18523038 
3531.347 18376718 18247304 18136580 18036610 17936500 17825116 17697836 
3534.722 17557266 17413470 17281852 17176036 17106334 17076080 17083976 
3538.097 17125186 17194028 17285302 17394046 17512904 17631802 17735200 
3541.472 17805032 17822894 17773076 17648440 17451590 17198546 16915438 
3544.848 16635036 16392238 16215784 16123237 16115459 16176911 16280314 
3548.223 16391953 16481644 16530119 16532838 16497632 16441377 16381893 
3551.598 16331669 16296305 16274607 16261591 16254989 16254576 16262615 
3554.973 16280413 16306790 16335672 16358368 16368328 16364232 16350966 
3558.349 16337452 16333349 16342238 16361972 16383026 16396211 16395807 
3561.724 16382765 16363868 16345924 16330836 16310614 16267832 16183864 
3565.099 16046170 15857013 15635721 15415238 15231126 15111795 15068240 
3568.474 15093196 15164731 15256230 15343338 15412794 15459325 15486990 
3571.850 15498403 15496668 15479633 15443815 15386225 15306020 15205938 
3575.225 15092325 14970550 14849354 14736386 14642299 14579304 14560805 
3578.600 14597354 14693169 14840737 15022973 15212342 15378540 15493624 
3581.975 15539940 15511584 15416196 15271751 15098867 14919357 14747616 
3585.351 14589637 14444102 14303697 14160028 14009258 13854984 13709919 
3588.726 13591817 13517831 13497932 13529981 13597559 13674643 13731579 
3592.101 13743988 13698642 13595401 13445784 13269963 13089549 12925682 
3595.476 12797937 12723258 12714273 12777253 12905868 13079000 13261336 
3598.852 13408023 13476936 13441931 13300925 13078690 12819254 12573023 
3602.227 12380899 12265015 12224907 12244593 12302556 12381360 12474035 
3605.602 12582273 12708858 12853916 13006978 13151298 13268424 13344109 
3608.977 13373990 13364078 13326178 13274876 13220910 13173083 13136587 
3612.353 13115169 13111247 13124103 13147586 13168420 13171747 13144998 
3615.728 13086109 13007154 12933979 12897521 12923772 13020255 13174921 
3619.103 13358545 13533046 13667683 13745857 13770805 13759323 13732588 
3622.478 13708869 13697374 13701256 13720883 13760625 13829090 13935991 
3625.854 14087168 14276467 14484149 14680028 14832664 14917641 14927147 
3629.229 14869773 14767958 14648518 14535855 14447938 14392056 14371742 
3632.604 14387012 14436296 14514875 14616081 14728624 14839867 14938501 
3635.979 15019409 15084041 15141640 15201200 15268200 15340458 15405916 
3639.354 15448990 15455299 15418128 15343435 15246066 15148313 15072833 
3642.730 15035716 15045871 15103318 15203810 15339694 15502820 15684793 
3646.105 15876716 16067250 16242471 16387597 16489295 16538503 16532136 
3649.480 16475432 16381688 16269721 16161764 16078593 16036961 16045190 
3652.855 16102079 16197504 16313994 16430404 16525680 16583541 16594909 
3656.231 16558170 16479069 16369831 16245516 16124358 16023012 15956182 
3659.606 15931340 15947891 15993606 16048273 16086051 16084000 16029486 
3662.981 15925562 15791213 15656840 15555422 15510997 15531801 15606821 
3666.356 15708361 15802326 15856190 15850544 15780205 15654981 15494133 
3669.732 15317545 15141792 14974848 14818928 14672193 14532917 14402829 
3673.107 14286713 14187643 14108083 14043610 13985756 13923711 13850350 
3676.482 13762476 13666718 13574997 13501320 13455279 13439344 13448358 
3679.857 13470409 13492708 13506651 13508913 13502686 13492026 13480013 
3683.233 13462702 13431481 13376125 13290350 13173783 13036140 12891457 
3686.608 12753272 12629099 12515250 12399897 12268393 12108415 11919100 
3689.983 11709687 11497659 11300998 11132019 10993556 10878841 10778268 
3693.358 10683343 10594558 10516718 10459317 10426917 10416568 10414846 
3696.734 10404740 10369604 10304743 10218165 10131694 10071102 10059341 
3700.109 10105308 10201505 10325750 10450281 10552756 10623155 10666898 
3703.484 10698304 10733175 10776334 10815057 10822520 10763856 10613702 
3706.859 10368591 10055844 9730839 9464520 9323615 9347941 9538808 9855152 
3710.717 10223605 10561170 10797374 10894242 10850950 10701392 10496326 
3714.092 10285906 10103697 9960843 9848556 9747273 9638907 9514914 9379004 
3717.949 9245919 9136476 9070129 9061516 9118835 9242121 9424471 9652156 
3721.807 9906733 10164517 10401304 10596590 10737551 10821421 10856737 
3725.182 10857398 10839418 10814845 10788402 10758348 10717967 10657683 
3728.557 10571149 10453759 10306750 10134720 9948862 9765712 9608277 9501312 
3732.415 9466592 9517577 9650821 9846465 10071315 10288657 10465851 10585425 
3736.272 10648469 10671528 10677890 10688740 10716177 10757833 10801747 
3739.647 10832450 10836467 10808920 10754663 10685922 10623152 10587579 
3743.023 10600052 10675948 10820546 11024270 11261930 11493937 11678284 
3746.398 11778679 11778945 11688796 11543353 11394885 11297667 11288114 
3749.773 11374136 11529256 11701576 11828891 11859084 11764940 11552445 
3753.148 11255402 10929167 10629455 10405209 10284096 10272395 10354988 
3756.524 10502620 10677238 10843772 10976397 11066565 11120648 11157441 
3759.899 11199133 11261662 11347671 11443747 11525794 11567190 11551222 
3763.274 11476359 11358410 11224994 11105491 11022515 10983105 10983255 
3766.649 11008783 11047134 11089141 11132416 11176331 11219379 11253509 
3770.025 11266897 11248338 11193167 11109804 11019251 10948311 10923032 
3773.400 10958911 11055852 11197898 11360015 11514253 11640321 11727746 
3776.775 11776504 11794395 11790101 11770298 11736116 11683513 11607063 
3780.150 11502977 11371499 11220195 11062939 10917891 10803980 10736977 
3783.526 10723836 10761419 10836624 10928011 11015131 11081442 11119733 
3786.901 11132264 11129513 11122085 11117563 11115817 11112049 11097283 
3790.276 11066077 11018173 10961281 10904376 10856312 10820252 10791519 
3793.651 10761896 10721763 10668967 10606666 10548149 10508986 10502472 
3797.027 10535457 10603781 10695680 10794449 10884631 10954947 11000696 
3800.402 11023766 11032011 11034424 11039753 11054345 11079465 11110937 
3803.777 11141271 11158546 11152472 11115554 11047529 10958669 10868649 
3807.152 10802354 10786197 10838617 10963959 11149437 11366628 11575512 
3810.528 11733232 11804912 11770667 11632882 11415196 11157166 10906490 
3813.903 10706277 10586292 10554811 10600797 10694386 10801237 10887249 
3817.278 10934073 10937491 10910476 10874028 10852094 10864418 10920444 
3820.653 11019303 11150562 11296783 11439097 11557227 11634963 11658116 
3824.029 11618886 11514829 11352819 11147533 10921928 10704847 10525892 
3827.404 10410584 10375653 10424057 10548814 10728265 10936772 11145103 
3830.779 11327695 11466898 11553862 11589452 11582216 11544540 11491506 
3834.154 11434115 11383233 11343342 11317516 11304094 11300653 11299768 
3837.530 11294660 11277645 11242570 11188666 11117076 11033689 10944651 
3840.905 10854441 10764726 10672046 10574863 10474076 10376984 10299095 
3844.280 10260788 10279761 10365399 10512990 10702824 10903631 11080902 
3847.655 11204206 11256182 11232816 11144227 11007988 10845666 10678949 
3851.031 10527360 10408746 10337366 10323377 10370011 10470741 10609154 
3854.406 10761620 10902698 11013477 11084938 11118479 11127844 11127177 
3857.781 11129984 11142699 11162752 11182939 11193477 11187408 11164597 
3861.156 11130964 11097708 11078099 11082702 11116424 11175413 11247303 
3864.531 11314576 11356211 11355693 11307077 11216793 11102504 10991548 
3867.907 10910108 10876897 10897476 10962576 11054023 11151435 11240872 
3871.282 11320394 11396321 11481055 11582090 11699052 11821349 11932050 
3874.657 12015635 12064070 12079409 12072375 12054473 12033203 12006103 
3878.032 11963470 11892485 11783696 11637999 11469758 11302141 11162972 
3881.408 11075686 11054535 11100709 11202837 11341135 11492562 11634062 
3884.783 11749429 11832552 11886269 11923012 11957691 12001718 12058082 
3888.158 12116406 12158524 12162238 12113125 12009743 11867655 11714123 
3891.533 11579259 11484230 11434106 11417991 11415510 11408221 11388460 
3894.909 11364147 11355029 11381774 11458564 11583863 11741315 11905324 
3898.284 12051567 12162862 12233592 12266338 12268374 12245028 12199804 
3901.659 12136341 12061279 11987242 11930379 11903330 11910270 11941835 
3905.034 11976144 11986485 11951343 11860928 11723834 11559997 11396265 
3908.410 11256754 11156849 11102815 11094405 11128896 11202917 11313092 
3911.785 11452137 11606888 11758558 11887692 11979256 12027618 12039811 
3915.160 12028752 12010245 11991470 11971645 11941360 11890678 11815541 
3918.535 11723133 11628876 11554474 11515229 11517692 11556383 11616406 
3921.911 11681288 11740037 11788594 11830227 11871869 11918500 11972866 
3925.286 12032750 12095007 12156495 12214988 12266941 12305804 12322783 
3928.661 12307120 12253037 12163012 12050940 11939896 11855192 11818480 
3932.036 11837900 11907311 12007188 12112081 12197711 12245156 12245342 
3935.412 12196548 12101382 11965484 11798042 11612581 11428409 11269560 
3938.787 11161390 11123477 11165173 11280074 11449291 11642758 11830507 
3942.162 11985833 12094379 12154801 12177736 12179752 12179793 12191286 
3945.537 12219897 12261024 12301241 12323159 12311624 12259376 12171413 
3948.913 12065516 11966843 11897936 11871052 11881463 11908093 11919169 
3952.288 11886079 11791528 11639597 11451774 11260760 11098336 10983763 
3955.663 10918494 10888960 10874984 10860872 10842403 10829999 10843990 
3959.038 10905370 11025651 11203547 11422055 11656499 11881118 12075812 
3962.414 12232896 12353926 12447748 12525194 12592605 12650641 12692941 
3965.789 12709575 12690734 12631639 12536389 12418211 12297763 12200600 
3969.164 12145929 12146082 12196569 12280061 12367685 12428693 12437494 
3972.539 12382530 12267365 12110818 11937409 11774052 11640501 11547236 
3975.915 11495064 11479613 11494270 11535196 11600941 11693381 11813717 
3979.290 11961970 12132977 12317721 12501600 12669729 12806816 12901145 
3982.665 12944981 12937110 12882428 12788506 12665709 12525734 12380551 
3986.040 12242259 12123097 12035839 11991133 11994844 12044464 12127634 
3989.416 12222408 12303229 12346127 12337232 12276926 12181447 12077023 
3992.791 11992962 11953247 11968812 12036618 12141760 12261462 12373870 
3996.166 12460972 12513158 12530007 12519512 12496473 12479432 12487343 
3999.541 12534228 12624109 12747929 
##END=
