##TITLE=Bambu-Lab_PLA-CF_Blue_Filament_r1_ATR-Corrected
##JCAMP-DX=5.01  $$ Nicolet v. 1
##DATATYPE=INFRARED SPECTRUM
##ORIGIN=Curtin University
##OWNER=Nicolet
##LONGDATE=2024/07/10
##TIME=13:56:08
##SPECTROMETER/DATA SYSTEM=Nicolet iS50
##DATA PROCESSING=
Ratio against background
%Transmittance->Absorbance
ATR Correction
Truncated
ElementMultiply or ElementDivide
##COMMENTS=
Number of sample scans: 32
Collection length: 47.26 sec
Sample gain: 1.0
Background collected on: Wed Jul 10 13:54:21 2024 (GMT+08:00);
Number of background scans: 32
Background gain: 1.0
Sample spacing:  1.000
Number of scan points: 16672
Resolution points: 8192
Number of FFT points: 65536
Apodization: N-B strong;
Phase correction: Mertz;
Laser frequency: 15798.3 cm-1
Number of rejected sample scans: 0
Number of rejected background scans: 0
Bench serial number: AUP1200105;
##RESOLUTION=4.000
##XUNITS=1/CM
##YUNITS=ABSORBANCE
##FIRSTX=400.163452
##LASTX=4000.187744
##FIRSTY=0.084566
##MAXX=4000.187744
##MINX=400.163452
##MAXY=1.036209
##MINY=-0.020992
##XFACTOR=1.000000
##YFACTOR=1.000000E-008
##NPOINTS=7468
##DELTAX=0.482125
##ZPD=8192
##XYDATA=(X++(Y..Y))
400.163 8456617 8406182 8344520 8268824 8175784 8065248 7940897 7810499 
404.020 7685107 7576459 7494072 7442166 7417788 7410849 7406591 7389582 
407.877 7348295 7278508 7184405 7077068 6971015 6879940 6813141 6773244 
411.734 6756092 6752139 6749417 6736709 6706510 6656542 6590014 6513893 
415.591 6436695 6365567 6304614 6254078 6211191 6171813 6132704 6093002 
419.448 6054628 6021294 5996597 5982340 5977425 5977909 5978253 5972899 
423.305 5957961 5932168 5896893 5855588 5812812 5773217 5741017 5719363 
427.162 5709930 5712285 5723587 5738548 5750253 5751672 5737725 5706896 
431.019 5662019 5609419 5556915 5511167 5475881 5450735 5432384 5416393 
434.876 5399554 5381271 5363711 5350442 5344432 5346260 5353428 5361096 
438.733 5363838 5357742 5341799 5318174 5291217 5265723 5245334 5231490 
442.590 5223549 5219446 5216846 5213891 5209484 5202907 5193430 5179983 
446.447 5161428 5137149 5107785 5075598 5044207 5017627 4999022 4989557 
450.304 4987946 4990726 4993412 4991957 4984065 4969936 4952196 4934991 
454.161 4922550 4917929 4921982 4933156 4947933 4961775 4970391 4970825 
458.017 4962135 4945552 4923974 4901152 4880725 4865370 4856398 4853705 
461.874 4856081 4861728 4868740 4875165 4879910 4881851 4880067 4873695 
465.731 4862184 4845480 4824412 4800842 4777611 4758022 4745142 4740918 
469.588 4745563 4757322 4772733 4787504 4797449 4799536 4792520 4776939 
473.445 4754746 4728484 4700508 4672578 4645800 4620912 4598731 4580324 
477.302 4566940 4559519 4558158 4561674 4567694 4573135 4575136 4571954 
481.159 4563543 4551564 4538744 4527914 4521015 4518501 4519348 4521620 
485.016 4523330 4523241 4521301 4518537 4516606 4517036 4520739 4527727 
488.873 4537248 4548141 4559266 4569789 4579271 4587518 4594435 4599938 
492.730 4603993 4606800 4608936 4611258 4615240 4622076 4632392 4645841 
496.587 4661009 4675558 4686840 4692567 4691566 4684097 4671960 4657959 
500.444 4645195 4636214 4632400 4633698 4638880 4646103 4653731 4660959 
504.301 4668130 4676522 4687812 4703262 4723136 4746345 4770699 4793493 
508.158 4812332 4825827 4833943 4837848 4839363 4840217 4841380 4842697 
512.015 4843005 4840595 4833938 4822312 4806213 4787247 4767734 4750009 
515.871 4735743 4725495 4718669 4713870 4709527 4704514 4698599 4692460 
519.728 4687390 4684679 4685050 4688232 4692999 4697465 4699621 4697922 
523.585 4691618 4680851 4666482 4649593 4631668 4613992 4597782 4584181 
527.442 4574284 4568882 4568305 4572131 4579157 4587570 4595451 4601229 
531.299 4604170 4604488 4603086 4601106 4599352 4597919 4596220 4593279 
535.156 4588308 4581139 4572434 4563498 4555798 4550358 4547361 4546087 
539.013 4545184 4543248 4539358 4533441 4526308 4519250 4513573 4510034 
542.870 4508635 4508607 4508756 4507969 4505655 4501923 4497588 4493808 
546.727 4491626 4491566 4493412 4496300 4499095 4500830 4501195 4500766 
550.584 4500901 4503280 4509368 4519777 4533910 4549993 4565479 4577656 
554.441 4584496 4585147 4580249 4571630 4562035 4554164 4550092 4550778 
558.298 4555949 4564305 4573985 4583142 4590470 4595489 4598630 4600902 
562.155 4603484 4607239 4612373 4618410 4624461 4629683 4633780 4637244 
566.012 4641339 4647600 4657216 4670416 4686214 4702594 4717197 4728150 
569.869 4734766 4737864 4739428 4741930 4747372 4756641 4769251 4783659 
573.725 4797911 4810345 4820015 4826737 4830803 4832597 4832316 4830103 
577.582 4826338 4822090 4819237 4820217 4827309 4841755 4863086 4888944 
581.439 4915644 4939225 4956639 4966663 4970134 4969476 4967742 4967531 
585.296 4970210 4975755 4983054 4990670 4997527 5003251 5008247 5013240 
589.153 5018866 5025286 5032152 5038835 5044794 5049899 5054514 5059416 
593.010 5065464 5073360 5083418 5095628 5109702 5125153 5141402 5157687 
596.867 5173106 5186638 5197438 5205119 5210167 5213967 5218636 5226486 
600.724 5239302 5257744 5281079 5307371 5334122 5359019 5380640 5398734 
604.581 5414114 5428087 5441902 5456264 5471204 5486327 5501166 5515574 
608.438 5529894 5544826 5561160 5579440 5599779 5621906 5645411 5669989 
612.295 5695649 5722654 5751355 5781940 5814241 5847703 5881553 5914987 
616.152 5947376 5978301 6007495 6034757 6059914 6082836 6103719 6123188 
620.009 6142435 6163045 6186647 6214466 6246930 6283500 6322796 6362967 
623.866 6402195 6439075 6472904 6503670 6531951 6558594 6584576 6610686 
627.723 6637466 6664984 6692851 6720152 6745732 6768442 6787678 6803755 
631.579 6818066 6832884 6850750 6873664 6902305 6935657 6971164 7005446 
635.436 7035402 7059151 7076622 7089473 7100349 7111830 7125476 7141307 
639.293 7157904 7173198 7185440 7194187 7200638 7207479 7218054 7235304 
643.150 7260784 7294089 7332922 7373716 7412590 7446332 7473172 7493013 
647.007 7507238 7518107 7528010 7538834 7551480 7565868 7581152 7596188 
650.864 7610037 7622315 7633412 7644346 7656497 7671153 7689180 7710728 
654.721 7735241 7761646 7788641 7815134 7840450 7864426 7887268 7909260 
658.578 7930487 7950600 7968866 7984389 7996483 8005047 8010801 8015184 
662.435 8019995 8026940 8037075 8050506 8066401 8083300 8099624 8114222 
666.292 8126727 8137589 8147866 8158757 8171129 8185232 8200598 8216224 
670.149 8230964 8243924 8254669 8263394 8270713 8277419 8284220 8291431 
674.006 8299013 8306561 8313633 8319910 8325458 8330706 8336373 8343196 
677.863 8351649 8361748 8373016 8384753 8396199 8407050 8417596 8428716 
681.720 8441606 8457284 8476126 8497605 8520301 8542240 8561520 8576825 
685.577 8587787 8594999 8599692 8603235 8606647 8610327 8614075 8617377 
689.433 8619837 8621503 8623005 8625372 8629794 8637144 8647782 8661459 
693.290 8677418 8694682 8712339 8729785 8746751 8763236 8779317 8794941 
697.147 8809776 8823194 8834396 8842614 8847391 8848780 8847435 8844528 
701.004 8841468 8839539 8839500 8841331 8844178 8846502 8846503 8842499 
704.861 8833360 8818743 8799059 8775331 8748928 8721249 8693536 8666687 
708.718 8641279 8617545 8595448 8574737 8555029 8535910 8517066 8498302 
712.575 8479667 8461284 8443267 8425500 8407508 8388322 8366557 8340525 
716.432 8308411 8268454 8219103 8159130 8087694 8004436 7909634 7804271 
720.289 7690128 7569708 7446111 7322688 7202703 7089020 6983792 6888410 
724.146 6803515 6729139 6664969 6610537 6565489 6529662 6503161 6486315 
728.003 6479507 6482983 6496697 6520215 6552779 6593553 6641923 6697786 
731.860 6761683 6834684 6917938 7012205 7117300 7231787 7353094 7477864 
735.717 7602691 7724730 7842264 7954809 8062973 8167976 8271088 8373152 
739.574 8474378 8574194 8671485 8764852 8852986 8934864 9009986 9078402 
743.431 9140701 9197879 9251180 9301942 9351479 9401041 9451812 9504887 
747.287 9561273 9621727 9686503 9755231 9826638 9898679 9968783 10034242 
751.144 10092801 10143037 10184520 10217733 10243634 10263181 10276777 
754.519 10284016 10283628 10273691 10252084 10216881 10166767 10101259 
757.894 10020716 9926285 9819622 9702653 9577312 9445371 9308352 9167566 
761.751 9024241 8879616 8734998 8591732 8451015 8313659 8179873 8049178 
765.608 7920574 7792856 7665139 7537199 7409695 7284093 7162191 7045679 
769.465 6935613 6832231 6735004 6642988 6555170 6470725 6389092 6309679 
773.322 6231576 6153465 6073737 5990943 5904426 5814772 5723891 5634616 
777.179 5549901 5471762 5400561 5334780 5271421 5206981 5138558 5064768 
781.036 4986164 4904862 4823837 4745890 4672829 4605090 4541827 4481462 
784.893 4422300 4363088 4303273 4242934 4182568 4122893 4064559 4008246 
788.750 3954617 3904346 3857980 3815765 3777392 3741917 3707872 3673626 
792.606 3637868 3600089 3560793 3521448 3484116 3450874 3423300 3402054 
796.463 3386810 3376395 3369132 3363241 3357252 3350264 3342028 3333027 
800.320 3324255 3317023 3312581 3311687 3314360 3319640 3325891 3330996 
804.177 3332964 3330501 3323318 3312210 3298775 3284882 3272215 3261828 
808.034 3254127 3248895 3245685 3244059 3243746 3244669 3246773 3249889 
811.891 3253623 3257394 3260538 3262487 3262826 3261425 3258341 3253878 
815.748 3248511 3242893 3237815 3234119 3232549 3233526 3237030 3242608 
819.605 3249424 3256579 3263311 3269233 3274396 3279142 3283940 3289197 
823.462 3295124 3301766 3309027 3316755 3324803 3332994 3341114 3348948 
827.319 3356376 3363475 3370627 3378434 3387574 3398452 3411053 3424830 
831.176 3438854 3452257 3464556 3475998 3487521 3500497 3516332 3536007 
835.033 3559886 3587822 3619464 3654602 3693377 3736281 3783890 3836557 
838.890 3894183 3956223 4021914 4090604 4162015 4236308 4313897 4395086 
842.747 4479751 4567110 4655765 4743910 4829604 4911010 4986581 5055054 
846.604 5115517 5167455 5210889 5246493 5275708 5300695 5324162 5349133 
850.460 5378636 5415576 5462628 5522156 5596266 5686660 5794595 5920654 
854.317 6064785 6226334 6404199 6597002 6803190 7021013 7248375 7482709 
858.174 7720908 7959570 8195267 8424953 8646177 8857164 9056558 9243186 
862.031 9415773 9572989 9713606 9836831 9942483 10030990 10103088 10159411 
865.888 10200220 10225318 10234406 10227489 10205317 10169435 10121830 
869.263 10064337 9997967 9922565 9837029 9739925 9630270 9508253 9375208 
873.120 9233253 9084443 8929887 8769458 8601888 8425640 8239799 8044927 
876.977 7843186 7638021 7433216 7231978 7036293 6846785 6663166 6484966 
880.834 6312212 6145915 5988004 5841027 5707537 5589602 5488432 5404300 
884.691 5336622 5284212 5245524 5218908 5202791 5195806 5196856 5205030 
888.548 5219449 5239089 5262598 5288242 5314032 5338027 5358727 5375323 
892.405 5387833 5396874 5403326 5407877 5410702 5411441 5409358 5403857 
896.262 5394735 5382469 5368081 5352866 5338019 5324349 5312245 5301799 
900.118 5293069 5286236 5281657 5279604 5280010 5282249 5285160 5287407 
903.975 5287925 5286497 5283972 5282092 5282992 5288359 5298782 5313326 
907.832 5329680 5344711 5355301 5359194 5355549 5345068 5329760 5312294 
911.689 5295426 5281353 5271424 5266009 5264562 5265870 5268330 5270295 
915.546 5270319 5267512 5261615 5253045 5242809 5232206 5222543 5214842 
919.403 5209684 5207194 5207113 5208948 5212123 5215950 5219659 5222360 
923.260 5223043 5220733 5214683 5204608 5190821 5174230 5156157 5138132 
927.117 5121530 5107309 5095919 5087311 5081021 5076330 5072366 5068312 
930.974 5063462 5057427 5050231 5042426 5035028 5029353 5026734 5028148 
934.831 5033954 5043786 5056592 5071029 5085741 5099778 5112757 5124897 
938.688 5136854 5149514 5163757 5180320 5199768 5222480 5248695 5278559 
942.545 5312085 5349144 5389376 5432287 5477229 5523535 5570636 5618185 
946.402 5666132 5714753 5764645 5816560 5871232 5929155 5990441 6054656 
950.259 6120934 6188097 6254956 6320530 6384179 6445516 6504239 6559833 
954.116 6611266 6656927 6694742 6722396 6737654 6738634 6723903 6692443 
957.972 6643589 6577035 6492959 6392345 6277220 6150878 6017686 5882711 
961.829 5750908 5626463 5512167 5409293 5317801 5236971 5166045 5104661 
965.686 5053107 5012053 4982122 4963406 4955260 4956206 4964290 4977479 
969.543 4994073 5012880 5033171 5054564 5076685 5099044 5121067 5142304 
973.400 5162604 5182330 5202321 5223667 5247372 5274027 5303573 5335427 
977.257 5368597 5402158 5435489 5468457 5501467 5535191 5570360 5607567 
981.114 5647131 5689141 5733477 5779915 5828114 5877531 5927475 5977150 
984.971 6025782 6072959 6118785 6164028 6209943 6257973 6309297 6364356 
988.828 6422762 6483464 6545102 6606548 6667363 6727944 6789451 6853376 
992.685 6921096 6993420 7070418 7151451 7235442 7321232 7407883 7494881 
996.542 7582187 7670242 7759747 7851663 7946960 8046522 8151004 8260701 
1000.399 8375554 8495110 8618739 8745804 8875962 9009247 9146172 9287639 
1004.256 9434776 9588693 9750374 9920493 10099535 10287750 10485328 10692476 
1008.113 10909478 11136752 11374930 11624767 11887186 12163120 12453436 
1011.487 12758736 13079281 13414946 13765170 14129210 14506198 14895433 
1014.862 15296401 15708888 16132896 16568485 17015638 17474010 17942854 
1018.237 18420842 18906226 19396750 19890020 20383624 20875394 21363536 
1021.612 21846706 22324098 22795376 23260706 23720794 24176898 24630760 
1024.987 25084608 25540948 26002374 26471322 26949880 27439750 27942318 
1028.362 28458774 28990378 29538662 30105504 30693134 31303906 31939920 
1031.737 32602588 33292156 34007344 34745116 35500828 36268564 37041672 
1035.113 37813352 38577140 39327036 40057536 40763196 41438428 42077340 
1038.488 42673968 43222724 43718944 44159316 44541948 44866376 45133008 
1041.863 45342836 45497208 45597760 45646508 45645928 45598988 45508996 
1045.238 45379508 45214312 45017392 44793096 44546228 44281884 44005248 
1048.614 43721248 43434180 43147720 42864796 42588028 42319940 42063028 
1051.989 41819744 41592176 41381704 41188820 41013344 40854648 40712276 
1055.364 40586424 40478356 40390492 40326320 40290212 40287168 40322672 
1058.739 40402548 40532784 40719316 40967704 41282788 41668408 42127196 
1062.115 42660604 43268972 43951748 44707384 45533408 46426232 47381152 
1065.490 48392396 49453544 50557996 51699452 52872312 54071576 55292648 
1068.865 56530964 57781912 59040816 60303516 61566824 62828892 64089228 
1072.240 65348136 66605956 67862296 69115384 70361904 71597072 72814872 
1075.615 74008224 75169176 76288968 77358392 78367992 79308600 80171720 
1078.991 80949344 81633816 82217336 82691888 83049224 83282120 83385304 
1082.366 83356632 83197472 82912552 82509128 81995776 81381784 80676656 
1085.741 79890032 79031960 78112824 77143128 76132936 75091288 74025872 
1089.116 72942736 71846776 70742128 69632712 68522664 67416496 66318696 
1092.492 65233468 64163876 63111604 62076628 61057532 60052068 59057944 
1095.867 58073552 57098484 56133552 55180352 54240704 53315844 52406044 
1099.242 51510532 50627740 49755864 48893420 48039612 47194448 46358764 
1102.617 45533984 44721948 43924732 43144728 42384492 41646752 40934352 
1105.993 40250044 39596416 38975816 38390464 37842368 37333400 36865392 
1109.368 36439888 36058032 35720408 35426844 35176268 34966856 34795944 
1112.743 34660276 34556224 34480152 34428744 34399356 34390284 34400836 
1116.118 34431260 34482500 34555692 34651916 34771724 34915108 35081520 
1119.494 35270044 35479664 35709460 35958608 36226160 36510656 36809576 
1122.869 37118900 37432764 37743516 38042068 38318552 38563236 38767336 
1126.244 38923772 39027552 39075760 39067428 39003004 38883888 38712200 
1129.619 38490380 38221128 37907228 37551308 37155624 36721672 36250012 
1132.995 35740300 35191540 34602628 33972968 33302856 32593716 31848068 
1136.370 31069190 30260774 29426720 28571022 27697874 26811764 25917596 
1139.745 25020552 24126002 23239248 22365378 21509204 20675134 19867372 
1143.120 19089680 18345302 17636860 16966202 16334373 15741783 15188362 
1146.496 14673808 14197783 13759983 13360150 12997922 12672703 12383555 
1149.871 12129071 11907353 11716084 11552764 11414845 11300109 11206849 
1153.246 11134042 11081287 11048619 11036234 11044129 11071941 11118919 
1156.621 11184116 11266704 11366248 11482991 11617860 11772308 11948141 
1159.997 12147314 12371800 12623678 12905119 13218647 13567176 13954021 
1163.372 14382924 14858051 15383996 15965842 16609284 17320534 18106254 
1166.747 18973370 19928750 20978994 22130222 23387988 24757236 26242188 
1170.122 27846050 29570660 31415892 33379078 35454524 37633120 39902116 
1173.498 42245208 44642292 47069500 49498896 51898516 54232376 56461440 
1176.873 58545120 60443580 62120396 63545024 64694656 65555268 66121720 
1180.248 66397692 66395068 66133356 65638424 64940876 64073532 63068992 
1183.623 61957444 60765464 59515800 58228068 56919692 55606596 54303364 
1186.999 53023076 51776516 50571840 49414332 48306908 47250684 46245736 
1190.374 45291596 44387580 43532760 42725944 41965616 41250108 40577720 
1193.749 39946940 39356440 38805048 38291516 37814428 37372204 36963124 
1197.124 36585576 36238152 35919616 35628868 35364568 35125044 34908192 
1200.500 34711628 34532924 34369876 34220724 34084092 33958848 33843840 
1203.875 33737596 33638336 33543828 33451474 33358452 33261874 33158812 
1207.250 33046514 32922488 32784644 32631410 32461798 32275254 32071522 
1210.625 31850422 31611680 31355012 31080174 30787200 30476632 30149514 
1214.000 29807354 29451936 29085058 28708404 28323424 27931336 27533204 
1217.376 27129966 26722618 26312128 25899568 25486100 25073072 24661838 
1220.751 24253810 23850192 23451926 23059612 22673552 22293828 21920488 
1224.126 21553644 21193596 20840642 20495140 20157400 19827644 19506134 
1227.501 19193218 18889344 18595048 18310776 18036768 17772866 17518600 
1230.877 17273336 17036528 16807890 16587551 16375920 16173589 15980951 
1234.252 15798029 15624359 15459138 15301321 15149890 15004049 14863369 
1237.627 14727820 14597747 14473748 14356507 14246605 14144297 14049338 
1241.002 13960969 13877980 13798980 13722728 13648552 13576473 13507356 
1244.378 13442536 13383560 13331656 13287479 13250926 13221323 13197540 
1247.753 13178368 13162681 13149656 13138804 13130018 13123631 13120361 
1251.128 13121332 13127851 13141151 13162015 13190486 13225843 13266586 
1254.503 13311020 13357532 13405217 13453943 13504308 13557279 13613740 
1257.879 13674094 13738099 13804960 13873596 13942939 14012213 14080983 
1261.254 14149134 14216585 14283222 14348704 14412436 14473617 14531286 
1264.629 14584304 14631459 14671423 14702931 14724752 14735894 14735582 
1268.004 14723341 14698881 14662066 14612886 14551453 14478031 14393096 
1271.380 14297219 14191037 14074962 13949133 13813238 13666719 13508931 
1274.755 13339433 13158235 12965855 12763330 12551942 12333064 12107963 
1278.130 11877748 11643412 11405905 11166313 10925783 10685551 10446872 
1281.505 10210928 9978817 9751664 9530631 9317072 9112515 8918645 8737134 
1285.363 8569482 8416878 8280047 8159338 8054758 7966157 7893355 7836274 
1289.220 7794898 7769295 7759431 7764993 7785355 7819425 7865641 7922068 
1293.078 7986517 8056678 8130266 8205145 8279475 8351663 8420561 8485406 
1296.935 8545943 8602315 8655091 8704924 8752467 8798011 8841446 8882092 
1300.792 8919014 8951148 8977725 8998403 9013477 9023726 9030262 9034251 
1304.650 9036769 9038581 9040124 9041537 9042703 9043302 9042893 9040969 
1308.507 9037063 9030823 9022199 9011372 8998830 8985139 8970858 8956347 
1312.365 8941698 8926797 8911493 8895750 8879820 8864275 8849924 8837592 
1316.222 8827974 8821347 8817657 8816391 8816888 8818355 8820168 8821875 
1320.080 8823363 8824719 8826215 8828265 8831303 8835705 8841814 8849829 
1323.937 8859988 8872423 8887342 8904946 8925448 8948956 8975578 9005328 
1327.794 9038238 9074474 9114446 9158742 9208114 9263242 9324495 9391677 
1331.652 9464108 9540585 9619798 9700669 9782637 9865900 9951326 10040206 
1335.509 10133949 10233586 10339636 10451853 10569360 10690841 10814864 
1338.885 10940230 11066276 11192998 11321113 11451813 11586498 11726391 
1342.260 11872210 12024071 12181529 12343878 12510492 12681097 12855968 
1345.635 13035738 13221192 13412859 13610789 13814312 14022259 14233072 
1349.010 14445072 14656742 14866731 15073821 15277049 15475522 15668434 
1352.385 15855072 16034813 16206880 16370390 16524185 16666959 16797420 
1355.761 16914626 17018234 17108606 17186758 17254128 17312170 17362110 
1359.136 17404812 17440746 17470260 17493700 17511530 17524372 17532820 
1362.511 17537324 17537962 17534372 17525736 17510752 17487624 17454118 
1365.886 17407608 17345182 17263926 17161178 17034968 16884338 16709661 
1369.262 16512798 16297257 16068226 15832640 15599084 15377539 15179050 
1372.637 15014961 14896140 14831969 14829418 14892279 15020730 15211280 
1376.012 15457059 15748307 16073065 16417857 16768448 17110618 17431006 
1379.387 17717810 17961350 18154334 18291810 18370856 18390326 18350430 
1382.763 18252624 18099264 17893598 17639460 17341196 17003436 16631120 
1386.138 16229321 15803193 15357742 14897607 14426841 13948679 13465655 
1389.513 12979732 12492575 12005828 11521245 11040782 10566550 10100754 
1392.888 9645776 9204146 8778617 8372081 7987362 7626963 7292697 6985470 
1396.746 6705163 6450853 6220924 6013487 5826629 5658597 5507848 5372927 
1400.603 5252389 5144656 5047960 4960589 4880869 4807549 4739855 4677549 
1404.461 4620719 4569578 4524104 4483901 4448100 4415582 4385154 4355932 
1408.318 4327427 4299712 4273192 4248439 4225936 4205925 4188389 4173165 
1412.176 4160042 4148991 4140168 4133905 4130554 4130348 4133220 4138762 
1416.033 4146264 4154857 4163665 4172117 4180012 4187515 4195174 4203623 
1419.890 4213441 4224976 4238371 4253610 4270762 4290095 4312099 4337387 
1423.748 4366430 4399325 4435695 4474744 4515557 4557552 4600761 4645907 
1427.605 4694379 4747796 4807582 4874683 4949530 5032069 5122192 5219950 
1431.463 5325744 5440364 5564808 5700248 5847943 6009402 6186542 6381755 
1435.320 6597948 6838350 7106177 7404426 7735693 8102236 8505893 8948248 
1439.177 9430292 9952145 10512674 11109157 11737315 12391519 13065213 
1442.553 13751318 14442499 15131350 15810552 16473067 17112360 17722766 
1445.928 18299646 18839252 19338594 19795174 20206964 20572470 20891162 
1449.303 21163436 21390766 21575334 21719476 21825322 21894404 21927636 
1452.678 21925248 21886912 21811564 21697490 21542202 21342952 21097360 
1456.054 20804290 20464646 20081606 19660204 19206538 18726612 18225642 
1459.429 17707786 17176332 16634068 16083750 15528242 14970495 14413601 
1462.804 13860692 13315032 12780026 12259091 11755420 11271519 10808907 
1466.179 10368080 9948646 9549874 9171200 8812545 8474339 8157121 7860981 
1470.037 7584949 7326725 7082598 6848049 6618412 6389899 6160360 5929861 
1473.894 5700602 5476536 5262433 5062942 4881709 4720797 4580436 4459340 
1477.752 4355225 4265515 4187838 4120317 4061542 4010363 3965656 3926258 
1481.609 3891025 3859101 3830065 3804016 3781369 3762547 3747633 3736170 
1485.467 3727141 3719337 3711550 3703080 3693723 3683887 3674228 3665493 
1489.324 3658178 3652520 3648300 3645070 3642146 3638832 3634470 3628599 
1493.181 3621033 3611826 3601274 3589717 3577390 3564340 3550346 3535163 
1497.039 3518670 3501175 3483428 3466564 3451668 3439536 3430269 3423234 
1500.896 3417364 3411506 3404899 3397402 3389544 3382217 3376276 3372231 
1504.754 3370072 3369262 3369075 3368845 3368174 3367043 3365696 3364537 
1508.611 3364002 3364472 3366347 3370008 3375690 3383372 3392594 3402460 
1512.469 3411642 3418801 3422875 3423422 3420664 3415430 3408838 3401857 
1516.326 3395120 3388776 3382571 3376145 3369080 3361173 3352358 3342626 
1520.183 3331988 3320424 3308042 3295125 3282144 3269777 3258640 3249104 
1524.041 3241158 3234386 3228082 3221525 3214163 3205798 3196632 3187058 
1527.898 3177522 3168399 3159857 3151974 3144725 3138178 3132425 3127673 
1531.756 3123977 3121294 3119280 3117429 3115129 3111778 3107066 3100950 
1535.613 3093769 3086120 3078712 3072180 3066860 3062749 3059364 3056000 
1539.470 3051933 3046704 3040341 3033438 3026944 3021904 3019022 3018457 
1543.328 3019711 3021724 3023342 3023511 3021727 3018063 3013127 3007752 
1547.185 3002745 2998661 2995621 2993534 2992051 2990921 2989946 2989119 
1551.043 2988453 2988028 2987871 2987960 2988238 2988698 2989296 2990046 
1554.900 2990925 2991837 2992646 2993233 2993514 2993486 2993312 2993170 
1558.758 2993292 2993813 2994706 2995816 2996827 2997515 2997684 2997365 
1562.615 2996781 2996336 2996454 2997518 2999645 3002683 3006178 3009479 
1566.472 3011881 3012852 3012091 3009623 3005737 3000881 2995548 2990170 
1570.330 2985087 2980615 2977081 2974834 2974234 2975478 2978546 2983147 
1574.187 2988665 2994426 2999847 3004616 3008809 3012846 3017263 3022429 
1578.045 3028457 3035079 3041737 3047841 3052838 3056386 3058343 3058684 
1581.902 3057430 3054613 3050346 3044913 3038913 3033271 3029124 3027570 
1585.760 3029364 3034739 3043244 3053931 3065500 3076669 3086470 3094378 
1589.617 3100341 3104764 3108285 3111670 3115542 3120354 3126273 3133162 
1593.474 3140529 3147719 3154001 3158705 3161425 3162137 3161182 3159241 
1597.332 3157131 3155702 3155667 3157484 3161304 3167016 3174225 3182410 
1601.189 3190878 3199011 3206250 3212281 3217069 3220835 3223991 3227038 
1605.047 3230352 3234186 3238596 3243511 3248818 3254481 3260576 3267215 
1608.904 3274541 3282530 3291067 3299905 3308822 3317671 3326487 3335460 
1612.761 3344852 3354841 3365407 3376346 3387156 3397306 3406288 3413837 
1616.619 3419900 3424751 3428799 3432569 3436458 3440760 3445560 3450763 
1620.476 3456138 3461374 3466095 3469993 3472837 3474547 3475190 3474922 
1624.334 3474043 3472806 3471444 3470182 3469157 3468447 3468099 3468164 
1628.191 3468602 3469419 3470588 3472143 3474214 3476966 3480640 3485450 
1632.049 3491496 3498732 3506889 3515510 3524075 3532024 3538919 3544428 
1635.906 3548299 3550434 3550750 3549218 3545842 3540781 3534297 3526820 
1639.763 3518804 3510766 3503118 3496157 3490090 3485087 3481291 3478901 
1643.621 3478047 3478746 3480734 3483488 3486226 3488135 3488550 3487199 
1647.478 3484277 3480527 3476907 3474529 3474282 3476767 3482146 3490261 
1651.336 3500632 3512586 3525352 3538109 3550070 3560594 3569218 3575743 
1655.193 3580198 3582941 3584487 3585524 3586856 3589193 3593176 3599253 
1659.051 3607551 3618023 3630329 3644033 3658580 3673518 3688509 3703354 
1662.908 3718059 3732722 3747459 3762341 3777319 3792210 3806786 3820866 
1666.765 3834379 3847540 3860681 3874297 3888833 3904575 3921475 3939239 
1670.623 3957349 3975187 3992354 4008684 4024412 4040010 4056030 4072965 
1674.480 4090992 4109972 4129472 4148970 4168054 4186575 4204682 4222694 
1678.338 4241004 4259835 4279193 4298910 4318740 4338611 4358716 4379517 
1682.195 4401613 4425563 4451684 4479898 4509735 4540590 4571795 4602928 
1686.052 4633775 4664341 4694632 4724611 4754128 4783099 4811581 4839923 
1689.910 4868810 4899093 4931532 4966622 5004368 5044430 5086247 5129450 
1693.767 5174055 5220562 5269859 5322982 5380740 5443407 5510697 5581893 
1697.625 5656018 5732244 5810007 5889087 5969586 6051871 6136439 6223900 
1701.482 6314936 6410293 6510670 6616807 6729231 6848367 6974425 7107515 
1705.340 7247679 7394936 7549345 7710994 7879840 8055797 8238635 8428149 
1709.197 8624263 8827134 9037121 9254735 9480327 9714025 9955423 10203736 
1713.054 10457868 10716816 10979911 11247104 11518863 11796197 12080140 
1716.430 12371534 12670504 12976544 13288380 13604550 13923779 14245589 
1719.805 14570467 14899921 15236114 15581477 15938173 16307917 16691974 
1723.180 17091752 17509196 17947390 18410634 18904420 19434698 20007462 
1726.555 20628106 21301378 22031308 22821522 23675514 24596970 25589624 
1729.931 26657852 27806798 29043132 30375448 31814384 33371844 35059428 
1733.306 36886236 38856880 40970452 43221156 45600496 48100036 50713708 
1736.681 53438036 56270480 59206396 62235552 65340184 68494968 71669272 
1740.056 74830416 77946704 80988656 83928632 86739496 89394048 91865568 
1743.432 94130016 96167984 97966168 99516680 100815976 101863136 102659928 
1746.807 103211448 103527192 103620864 103508912 103207472 102729904 
1749.700 102085712 101281920 100325584 99226608 97998736 96658424 95221728 
1753.075 93701544 92105600 90437224 88697176 86886912 85010432 83075496 
1756.450 81092616 79073736 77030512 74973464 72911944 70854576 68809680 
1759.826 66785824 64791532 62835056 60924076 59065664 57265800 55529416 
1763.201 53859852 52258724 50725608 49258440 47854152 46509680 45222680 
1766.576 43991892 42816884 41697236 40631560 39616948 38648824 37721528 
1769.951 36829184 35966472 35129092 34313688 33517322 32737080 31969682 
1773.327 31211662 30459600 29710754 28963172 28215814 27468132 26719716 
1776.702 25969970 25218124 24463270 23705076 22943746 22180664 21417982 
1780.077 20658592 19905668 19162296 18431258 17714926 17015248 16333890 
1783.452 15672249 15031648 14413179 13817790 13246223 12699144 12177024 
1786.828 11680402 11209697 10765214 10346920 9954502 9587215 9244101 8924163 
1790.685 8626626 8350786 8095979 7861165 7644785 7444617 7258183 7083001 
1794.542 6917377 6760590 6613008 6475530 6349072 6233822 6128944 6032554 
1798.400 5942315 5855944 5771955 5689875 5610287 5534235 5462917 5397038 
1802.257 5336666 5281121 5229227 5179436 5130154 5079921 5027694 4972961 
1806.115 4915932 4857617 4799500 4743304 4690503 4641919 4597515 4556671 
1809.972 4518380 4481840 4446676 4412951 4380854 4350200 4320132 4289020 
1813.830 4255163 4217130 4174784 4129435 4083861 4041513 4005696 3978487 
1817.687 3960460 3950414 3946191 3945179 3944982 3943701 3939819 3932041 
1821.544 3919395 3901125 3877340 3849102 3818566 3788469 3761492 3739284 
1825.402 3721957 3707857 3694298 3678211 3657325 3630638 3598686 3563194 
1829.259 3526445 3490555 3457095 3426791 3399739 3375530 3353647 3333499 
1833.117 3314567 3296321 3278391 3260412 3242181 3223628 3204765 3185675 
1836.974 3166446 3147086 3127713 3108449 3089534 3071114 3053354 3036050 
1840.832 3018881 3001288 2982835 2963306 2942713 2921240 2899047 2876018 
1844.689 2851775 2825841 2798136 2769191 2740482 2714066 2692217 2676571 
1848.546 2667664 2664604 2665559 2668199 2670758 2672544 2674134 2677006 
1852.404 2683053 2693476 2708446 2726768 2746114 2763368 2775519 2779906 
1856.261 2775097 2760766 2738174 2709739 2678900 2649285 2624159 2605473 
1860.119 2593579 2586994 2582972 2578261 2570190 2557377 2540285 2520914 
1863.976 2502308 2487526 2478988 2477672 2483125 2493504 2506134 2518014 
1867.833 2526605 2530208 2528427 2522147 2513328 2504325 2497224 2492907 
1871.691 2490953 2489567 2486357 2479235 2467369 2451652 2434446 2418706 
1875.548 2406922 2399980 2396999 2395565 2392901 2386890 2377109 2364856 
1879.406 2352740 2343382 2338694 2339062 2343428 2349906 2356509 2361813 
1883.263 2365205 2366595 2366211 2364039 2359983 2353925 2346153 2337497 
1887.121 2329326 2322889 2319074 2317793 2318262 2319209 2319716 2319412 
1890.978 2318928 2319036 2320426 2322727 2324725 2324401 2319906 2310465 
1894.835 2297127 2282318 2269616 2262204 2262069 2269177 2281621 2295954 
1898.693 2308596 2316210 2316668 2308969 2293412 2270961 2243260 2212351 
1902.550 2180654 2150746 2125319 2106525 2095952 2094165 2100801 2114632 
1906.408 2134018 2156798 2180879 2203921 2223707 2238094 2245646 2245816 
1910.265 2239386 2228349 2215435 2203310 2193762 2187008 2181813 2175985 
1914.123 2167582 2155712 2141578 2128189 2119692 2120017 2131627 2154307 
1917.980 2185107 2218381 2247190 2264344 2263991 2242373 2198700 2135270 
1921.837 2057386 1972448 1889405 1816953 1762506 1730436 1721703 1733569 
1925.695 1760650 1796033 1833275 1867319 1895567 1917569 1934682 1948942 
1929.552 1962412 1976527 1991966 2008517 2025669 2042229 2056897 2068188 
1933.410 2074849 2075997 2072008 2064200 2055074 2047253 2042550 2040941 
1937.267 2040220 2036077 2023900 2000114 1964169 1919299 1872052 1830597 
1941.125 1802367 1791419 1797826 1817269 1843069 1868738 1890079 1906507 
1944.982 1920750 1936836 1958217 1985352 2015731 2043770 2063426 2069923 
1948.839 2061993 2041540 2013242 1982810 1955112 1932476 1914577 1898095 
1952.697 1878029 1848196 1802911 1737536 1650466 1543544 1423547 1301982 
1956.554 1194133 1115848 1081492 1098810 1167780 1279420 1418003 1565135 
1960.412 1704798 1826238 1926515 2008216 2077489 2139449 2197271 2249167 
1964.269 2290262 2312566 2307547 2267901 2190021 2075961 1935732 1786605 
1968.126 1652145 1556129 1517639 1542930 1622852 1732529 1837976 1905184 
1971.984 1911268 1850383 1736410 1597396 1467735 1378210 1349959 1391381 
1975.841 1500447 1666643 1875511 2108525 2344197 2558107 2727365 2833990 
1979.699 2870882 2842634 2764801 2657907 2542479 2432669 2334778 2248046 
1983.556 2169183 2096835 2036125 1997201 1993075 2032476 2115765 2231987 
1987.414 2361643 2480838 2568960 2612456 2607879 2560356 2481423 2384392 
1991.271 2283211 2190038 2115163 2065109 2042230 2042041 2054036 2062864 
1995.128 2053269 2014959 1947734 1862488 1778798 1718888 1699878 1727560 
1998.986 1794430 1880742 1961663 2012956 2017851 1969485 1871251 1734278 
2002.843 1574424 1408785 1254716 1127060 1037889 994044 996050 1036405 
2006.701 1101646 1175123 1241692 1291386 1321833 1335539 1338754 1336491 
2010.558 1332530 1327756 1322241 1315777 1308362 1298887 1284269 1258985 
2014.416 1217269 1155541 1076878 991405 916728 871683 871750 923824 1024471 
2018.755 1161263 1319766 1485600 1649186 1803183 1940213 2048330 2111275 
2022.613 2110152 2031985 1875106 1656298 1408120 1174782 998645 911155 
2026.470 922926 1023665 1184854 1369164 1539290 1666943 1736683 1748229 
2030.327 1712429 1648315 1575640 1512331 1469499 1451901 1457327 1480541 
2034.185 1514365 1554331 1598136 1646010 1697474 1749975 1797634 1832893 
2038.042 1848384 1841008 1812340 1769004 1719080 1670030 1624736 1582337 
2041.900 1539835 1496101 1453814 1420868 1407408 1422743 1470952 1550351 
2045.757 1654308 1775620 1909319 2055109 2214253 2385855 2561619 2724825 
2049.615 2852601 2923977 2925985 2859555 2738797 2587492 2432566 2298140 
2053.472 2200318 2145441 2130551 2147494 2186353 2239102 2299597 2362868 
2057.329 2422521 2470037 2495003 2488369 2445678 2370234 2273308 2172217 
2061.187 2085207 2026920 2003824 2013098 2044006 2082089 2113877 2131488 
2065.044 2134271 2128588 2124430 2131552 2155622 2196437 2247692 2299955 
2068.902 2343323 2371059 2380850 2375270 2359600 2340179 2321612 2306548 
2072.759 2295235 2286791 2280227 2274942 2270437 2266051 2260110 2250472 
2076.616 2235068 2213558 2187967 2163013 2144627 2138176 2146228 2167519 
2080.474 2196776 2226883 2250494 2262713 2262020 2250572 2232880 2214532 
2084.331 2200432 2194111 2197047 2209245 2228769 2252883 2277540 2298659 
2088.189 2312234 2315870 2308814 2292347 2268987 2241511 2211405 2178804 
2092.046 2142345 2101117 2055894 2010830 1973375 1953152 1959134 1996735 
2095.904 2065534 2159000 2265552 2371621 2464447 2534790 2577918 2593944 
2099.761 2586438 2561672 2526589 2488285 2452446 2423172 2402204 2389020 
2103.618 2380940 2374244 2364827 2349495 2326473 2296055 2260202 2222695 
2107.476 2188141 2161742 2148297 2151707 2173638 2213250 2266455 2326903 
2111.333 2386692 2438771 2477923 2502182 2512223 2510586 2499784 2481140 
2115.191 2454234 2417573 2369498 2309611 2239055 2160526 2076997 1991018 
2119.048 1904127 1817373 1732257 1651631 1579939 1522276 1482333 1460698 
2122.906 1453255 1452020 1446860 1428629 1391846 1336397 1266904 1191036 
2126.763 1116324 1048283 988739 936459 888392 841518 793736 744555 694034 
2131.103 642679 590753 538762 487807 440670 401174 374001 362405 367643 
2135.442 388164 420358 459718 502808 547005 590444 629915 659934 671927 
2139.782 656084 603907 511966 384358 233352 76621 -65764 -177584 -249101 
2144.121 -279178 -273772 -242507 -194122 -134658 -65520 13737 102834 196194 
2148.461 282634 344606 363713 324802 221513 58504 -149153 -380418 -613717 
2152.801 -833434 -1033064 -1215935 -1390691 -1565979 -1742449 -1908828 
2156.176 -2039632 -2099169 -2049523 -1862761 -1532381 -1082776 -568029 
2159.551 -60912 367851 668237 822020 842001 765708 641741 519195 436301 
2163.891 414576 454501 539349 640187 726237 771949 764543 704936 607143 
2168.230 491570 380727 291547 233834 207861 206711 219078 234005 244194 
2172.570 249575 256864 279121 330265 420690 551563 712199 881278 1032041 
2176.909 1139965 1190423 1182269 1129057 1053206 979862 928413 908253 916595 
2181.249 942152 969538 986108 985055 966753 936749 903409 874989 858868 
2185.589 861432 888289 943265 1027021 1135382 1259025 1383919 1495895 
2189.446 1583427 1641633 1673203 1686804 1692593 1698886 1707757 1715677 
2193.303 1715433 1700500 1668374 1622449 1571121 1525246 1493874 1482123 
2197.161 1489887 1512981 1544743 1578343 1607997 1629431 1639531 1636842 
2201.018 1621000 1594236 1560979 1528467 1505339 1499713 1516977 1558842 
2204.876 1621798 1698476 1778853 1852533 1910615 1947701 1960981 1951859 
2208.733 1923760 1881973 1831619 1777853 1724087 1673332 1627754 1590099 
2212.591 1563446 1551148 1555183 1575160 1606819 1643040 1674965 1695586 
2216.448 1702285 1698461 1693387 1699148 1726587 1781397 1861582 1958222 
2220.305 2057705 2146024 2212184 2250429 2260437 2245903 2212062 2164919 
2224.163 2109652 2051682 1996431 1949759 1916147 1898249 1894875 1902021 
2228.020 1913621 1924459 1931799 1937092 1945041 1961501 1990448 2032340 
2231.878 2082534 2133235 2175124 2200638 2205148 2188269 2152601 2103239 
2235.735 2045454 1984653 1925671 1873070 1830681 1801874 1788496 1790854 
2239.593 1806969 1833478 1865884 1899753 1930913 1956139 1972700 1978865 
2243.450 1974079 1959748 1939701 1920536 1910593 1918440 1950160 2007547 
2247.307 2086683 2178657 2271213 2352134 2411834 2445736 2454578 2443849 
2251.165 2421379 2395556 2373452 2360358 2359273 2371779 2397976 2436718 
2255.022 2485284 2539486 2593410 2640704 2675267 2693042 2692302 2674143 
2258.880 2641549 2598335 2548029 2493442 2436258 2378409 2322426 2272381 
2262.737 2233522 2211701 2211735 2236063 2283711 2350086 2427296 2505986 
2266.594 2576329 2630294 2662450 2671215 2658732 2631034 2596522 2565104 
2270.452 2545785 2545299 2566275 2607032 2661776 2722703 2781616 2832564 
2274.309 2872635 2902486 2925042 2944273 2963336 2983864 3005625 3027385 
2278.167 3047336 3064364 3078067 3088934 3097794 3105902 3114413 3124970 
2282.024 3139358 3159460 3186611 3221158 3261744 3305572 3348677 3387235 
2285.882 3418180 3440410 3454196 3461273 3463376 3461947 3457204 3448783 
2289.739 3435876 3418126 3395810 3370105 3342495 3314395 3286707 3259730 
2293.596 3233133 3206673 3180281 3154543 3130575 3109922 3094061 3084349 
2297.454 3081487 3085581 3095772 3110486 3127455 3144215 3158387 3168484 
2301.311 3173964 3175692 3175208 3174597 3175569 3179086 3185118 3192903 
2305.169 3201298 3209328 3216531 3223115 3229599 3236859 3245489 3255893 
2309.026 3268096 3281792 3296420 3311348 3325778 3338949 3350218 3359250 
2312.884 3365965 3370749 3374107 3376737 3379280 3382420 3386624 3392583 
2316.741 3400864 3412039 3426461 3444380 3465958 3491901 3523495 3562852 
2320.598 3612146 3672416 3741982 3815283 3882612 3931591 3949665 3927474 
2324.456 3861269 3754529 3617031 3463171 3308782 3168153 3051509 2963771 
2328.313 2904579 2869700 2852971 2848147 2850118 2855204 2860966 2865381 
2332.171 2866720 2863584 2855223 2842047 2825577 2808258 2792566 2780432 
2336.028 2772694 2769065 2768396 2769373 2770963 2772577 2774129 2775807 
2339.885 2777750 2780100 2782896 2786236 2790326 2795248 2800962 2807069 
2343.743 2812907 2817646 2820629 2821753 2821414 2820555 2820104 2820643 
2347.600 2822023 2823362 2823294 2820377 2813705 2803222 2789822 2775146 
2351.458 2761146 2749632 2741725 2737602 2736409 2736513 2735864 2732570 
2355.315 2725491 2714530 2700770 2686042 2672329 2661186 2652981 2646836 
2359.173 2640888 2632901 2620963 2604152 2582669 2557691 2530880 2503721 
2363.030 2477359 2452422 2429324 2408669 2391434 2378903 2372409 2372707 
2366.887 2379675 2392041 2407618 2423861 2438490 2450112 2458371 2464042 
2370.745 2468574 2473559 2480195 2488904 2499123 2509588 2518495 2524254 
2374.602 2525839 2523328 2517936 2511776 2507227 2506437 2510440 2519102 
2378.460 2531081 2544478 2557365 2568537 2577635 2585203 2592012 2598695 
2382.317 2605259 2611154 2615432 2617387 2616709 2614029 2610441 2607321 
2386.175 2605699 2605974 2607791 2610150 2611797 2611675 2609085 2604165 
2390.032 2597561 2590630 2584972 2582317 2584105 2591160 2603331 2619403 
2393.889 2637087 2653608 2666035 2672304 2671425 2664069 2652100 2638417 
2397.747 2625847 2616662 2611850 2611185 2613291 2616385 2618762 2619549 
2401.604 2618729 2617345 2616703 2618232 2622694 2630171 2639979 2651362 
2405.462 2663666 2676745 2690910 2706432 2723117 2739852 2754548 2764761 
2409.319 2768379 2764646 2754409 2740266 2725406 2712748 2703719 2698009 
2413.177 2693773 2688699 2681137 2671020 2659931 2650587 2645632 2646735 
2417.034 2653768 2665092 2678131 2690519 2700692 2708354 2714044 2718625 
2420.891 2722574 2725792 2727637 2727430 2724801 2720161 2714538 2709292 
2424.749 2705611 2704533 2706431 2711530 2719444 2729574 2740509 2750326 
2428.606 2756464 2756416 2748312 2731993 2709324 2684279 2662098 2648100 
2432.464 2646063 2657507 2680772 2711911 2745530 2776207 2799746 2814107 
2436.321 2819348 2817335 2810894 2802924 2795432 2789514 2784963 2780874 
2440.178 2776204 2770385 2763635 2757041 2752121 2750530 2753191 2760107 
2444.036 2770302 2782163 2793781 2803549 2810309 2813335 2812066 2806218 
2447.893 2795421 2779991 2760752 2739785 2719897 2704317 2695629 2695269 
2451.751 2702714 2715855 2731554 2746735 2759138 2768091 2773978 2778129 
2455.608 2781681 2785360 2789039 2792168 2793970 2794201 2792843 2790455 
2459.466 2787397 2783911 2779679 2774250 2767060 2758017 2747366 2735840 
2463.323 2724319 2713733 2704675 2697533 2692457 2689449 2688215 2688288 
2467.180 2688881 2689045 2687944 2685165 2680891 2676113 2672037 2669873 
2471.038 2670000 2671881 2674065 2674830 2672689 2667447 2659959 2652301 
2474.895 2646649 2644769 2647008 2652358 2658738 2663765 2665545 2663497 
2478.753 2658198 2651407 2645271 2641835 2642366 2647362 2656362 2668410 
2482.610 2682200 2696462 2710071 2722354 2732710 2741162 2747877 2753361 
2486.468 2757884 2761927 2765430 2768461 2770943 2773239 2775960 2780281 
2490.325 2787287 2797761 2811390 2826746 2841118 2851317 2854311 2848518 
2494.182 2834045 2813188 2789774 2768316 2752622 2745026 2745709 2752978 
2498.040 2763842 2775050 2783808 2788627 2789012 2785589 2779266 2771180 
2501.897 2762183 2753148 2744800 2738081 2733734 2732414 2734097 2738284 
2505.755 2743826 2749454 2754149 2757473 2759435 2760511 2760999 2761163 
2509.612 2760593 2759043 2756467 2753507 2751347 2751380 2754333 2759917 
2513.469 2766288 2770638 2769981 2762488 2748223 2729586 2710442 2695251 
2517.327 2687364 2688264 2696996 2711063 2727172 2742673 2756017 2767344 
2521.184 2777504 2787658 2798324 2809209 2819146 2826822 2831130 2831765 
2525.042 2828992 2823745 2817037 2809923 2803115 2797362 2793093 2790833 
2528.899 2790755 2792696 2795946 2799342 2801510 2801442 2798628 2793533 
2532.757 2786981 2780470 2774990 2771273 2769165 2768270 2767720 2767066 
2536.614 2765954 2764635 2763290 2762409 2762219 2763071 2765218 2769151 
2540.471 2775201 2783740 2794587 2806987 2819470 2830203 2837199 2839137 
2544.329 2835437 2826736 2814624 2801323 2789169 2780309 2776119 2777380 
2548.186 2783836 2794763 2808710 2824119 2839094 2852081 2861806 2867803 
2552.044 2870324 2870492 2869845 2869979 2872102 2876648 2882864 2889404 
2555.901 2894182 2895293 2891352 2882089 2868117 2851202 2833362 2816900 
2559.759 2803523 2794169 2788945 2787112 2787279 2788118 2788398 2787643 
2563.616 2786025 2784772 2785531 2790237 2800297 2816351 2837647 2862367 
2567.473 2887703 2910748 2928932 2941086 2947284 2948913 2947970 2946512 
2571.331 2945718 2945850 2946227 2945817 2944119 2941537 2939715 2941290 
2575.188 2948752 2963929 2986853 3015666 3046725 3075819 3098900 3113401 
2579.046 3118604 3115998 3108336 3099169 3091432 3087270 3087294 3091124 
2582.903 3097507 3104861 3111724 3116945 3119622 3119182 3115130 3107510 
2586.760 3096618 3083582 3070085 3058399 3050737 3048917 3053610 3064381 
2590.618 3079480 3096500 3112841 3126523 3136342 3142253 3144781 3144959 
2594.475 3143555 3141195 3138180 3134819 3131616 3129463 3129221 3131714 
2598.333 3137004 3144386 3152435 3159467 3164368 3167046 3168670 3171545 
2602.190 3178118 3190255 3208210 3230486 3253859 3274438 3288630 3294251 
2606.048 3290975 3280472 3265564 3249488 3234999 3223833 3216399 3212554 
2609.905 3211574 3213244 3217806 3226136 3239062 3257286 3280349 3306803 
2613.762 3334173 3359418 3379679 3393077 3398962 3398411 3393596 3387441 
2617.620 3382499 3380593 3382190 3386603 3392314 3397768 3401703 3403805 
2621.477 3404494 3404771 3405666 3407931 3411763 3417093 3423491 3430815 
2625.335 3439011 3448233 3458517 3469487 3480228 3489502 3495861 3498353 
2629.192 3496677 3491641 3484815 3478211 3473682 3472628 3475485 3481984 
2633.050 3491103 3501629 3512340 3522353 3531155 3538609 3544860 3550301 
2636.907 3555285 3560208 3565367 3570898 3576754 3582839 3588971 3595106 
2640.764 3601170 3607237 3613333 3619368 3624980 3629655 3632748 3633583 
2644.622 3631849 3627590 3621386 3614129 3606870 3600560 3595776 3592647 
2648.479 3590803 3589482 3587782 3584738 3579656 3572271 3562745 3551822 
2652.337 3540650 3530635 3523074 3518936 3518515 3521403 3526505 3532363 
2656.194 3537396 3540416 3540641 3537869 3532291 3524176 3513753 3500965 
2660.052 3485612 3467422 3446248 3422227 3395887 3367981 3339482 3311379 
2663.909 3284598 3260002 3238317 3220088 3205623 3194860 3187309 3182045 
2667.766 3177841 3173582 3168430 3162232 3155522 3149428 3145224 3144009 
2671.624 3146169 3151448 3158778 3166720 3173763 3178697 3180900 3180161 
2675.481 3176736 3171222 3164229 3156542 3148817 3141800 3135975 3131734 
2679.339 3129197 3128200 3128335 3129335 3130893 3133108 3136136 3140133 
2683.196 3144944 3149921 3154023 3155952 3154526 3149343 3140646 3129552 
2687.053 3117659 3106595 3097586 3091144 3087207 3085318 3084827 3085362 
2690.911 3086757 3088830 3091425 3094086 3096225 3097183 3096610 3094680 
2694.768 3091906 3089177 3087079 3085862 3085010 3083689 3080800 3075725 
2698.626 3068408 3059676 3050886 3043526 3038771 3037155 3038469 3041960 
2702.483 3046648 3051658 3056431 3060903 3065155 3069546 3074160 3079006 
2706.341 3083716 3087763 3090450 3091276 3089920 3086426 3081344 3075709 
2710.198 3070699 3067604 3067338 3070198 3075826 3083274 3091222 3098500 
2714.055 3104230 3108087 3110228 3111094 3111074 3110369 3108897 3106445 
2717.913 3102817 3098134 3092923 3088042 3084520 3083290 3084762 3088900 
2721.770 3094945 3101854 3108247 3113068 3115713 3116218 3115278 3114040 
2725.628 3113701 3115161 3118642 3123610 3128875 3132973 3134752 3133700 
2729.485 3130150 3125242 3120490 3117187 3116111 3117125 3119442 3121991 
2733.343 3123769 3124450 3124331 3124157 3124903 3127259 3131366 3136879 
2737.200 3142926 3148658 3153303 3156401 3157805 3157606 3155794 3152563 
2741.057 3147952 3142219 3135861 3129714 3124843 3122370 3123133 3127491 
2744.915 3134912 3144268 3153807 3161630 3166091 3166432 3162734 3156146 
2748.772 3148443 3141523 3136911 3135262 3136262 3138916 3141872 3144136 
2752.630 3145332 3145855 3146696 3148858 3152849 3158490 3164742 3170330 
2756.487 3173886 3174779 3173026 3169331 3164649 3159937 3155627 3151766 
2760.344 3148016 3144049 3139752 3135370 3131323 3128187 3126214 3125491 
2764.202 3125792 3126816 3128330 3130277 3132733 3135753 3139301 3143208 
2768.059 3147221 3151102 3154797 3158492 3162500 3167093 3172244 3177699 
2771.917 3182806 3187000 3189847 3191411 3192268 3193361 3195634 3199834 
2775.774 3205981 3213689 3221863 3229416 3235261 3238857 3240119 3239499 
2779.632 3237772 3235798 3234268 3233740 3234481 3236584 3239920 3244308 
2783.489 3249369 3254746 3259925 3264480 3268165 3271054 3273565 3276445 
2787.346 3280504 3286501 3294653 3304614 3315537 3326256 3335593 3342850 
2791.204 3347744 3350661 3352334 3353445 3354556 3355869 3357409 3359206 
2795.061 3361548 3364984 3370365 3378281 3388926 3401787 3415539 3428487 
2798.919 3439046 3446136 3449641 3450492 3450313 3451070 3454366 3461122 
2802.776 3471300 3483977 3497616 3510610 3521553 3529735 3535213 3538730 
2806.634 3541463 3544618 3549182 3555568 3563680 3572955 3582732 3592504 
2810.491 3602106 3611789 3622022 3633239 3645478 3658433 3671403 3683782 
2814.348 3695148 3705673 3716018 3727119 3739888 3754674 3771180 3788502 
2818.206 3805571 3821377 3835504 3848200 3860284 3872817 3886687 3902309 
2822.063 3919319 3936915 3953970 3969342 3982390 3993047 4001870 4010078 
2825.921 4019082 4030402 4045280 4064472 4087964 4115307 4145339 4176803 
2829.778 4208442 4239381 4269230 4298154 4326832 4356216 4387405 4421445 
2833.635 4459174 4501212 4547996 4599803 4656958 4719908 4789387 4866468 
2837.493 4952438 5048812 5156961 5277943 5412519 5561203 5724505 5903223 
2841.350 6098675 6312822 6548013 6806785 7091366 7403552 7744397 8114352 
2845.208 8513092 8939368 9390486 9861510 10344471 10828147 11297796 11736313 
2849.065 12125695 12448890 12691782 12844612 12902826 12867068 12742499 
2852.440 12537925 12264663 11935532 11564130 11163981 10747921 10327625 
2855.816 9912841 9511294 9128534 8768102 8431908 8120808 7834828 7573651 
2859.673 7336485 7122355 6929939 6757515 6603241 6465270 6341998 6232164 
2863.531 6134947 6049940 5976790 5915037 5864154 5823153 5790958 5766560 
2867.388 5749082 5738079 5733371 5735022 5742934 5756932 5776436 5800850 
2871.245 5829594 5862400 5899386 5941047 5987758 6039676 6096143 6156024 
2875.103 6217506 6278756 6338190 6394853 6448347 6498798 6546511 6591815 
2878.960 6634956 6676233 6716007 6754818 6793280 6831616 6869670 6906499 
2882.818 6940693 6970817 6995804 7015578 7031196 7044527 7057820 7073033 
2886.675 7091438 7113334 7138260 7165456 7194167 7224150 7255610 7289270 
2890.532 7325933 7366489 7411418 7460861 7514512 7571488 7630568 7690353 
2894.390 7749615 7807720 7864816 7922049 7981135 8043948 8111810 8185056 
2898.247 8262796 8343268 8424338 8504254 8581989 8657367 8731074 8804164 
2902.105 8877712 8953039 9031469 9114857 9205432 9305602 9417453 9542312 
2905.962 9680337 9830805 9992455 10164519 10347159 10542072 10752117 
2909.337 10980922 11232127 11508872 11813582 12148166 12514079 12912311 
2912.713 13343096 13805343 14295909 14809276 15337630 15871570 16400847 
2916.088 16915444 17406134 17864704 18283876 18657058 18978178 19242012 
2919.463 19444508 19583192 19657640 19669462 19622004 19520088 19369584 
2922.838 19176984 18949076 18692862 18414814 18120616 17814582 17499570 
2926.214 17177134 16848076 16513065 16173439 15831624 15491016 15155573 
2929.589 14829291 14515507 14216739 13934547 13669646 13422391 13192879 
2932.964 12981099 12787046 12610613 12451675 12310203 12186062 12079187 
2936.339 11989480 11916591 11860039 11818947 11792266 11778761 11776987 
2939.715 11785135 11800968 11821607 11843695 11863615 11878214 11885114 
2943.090 11883219 11872527 11853635 11826936 11792080 11747468 11690654 
2946.465 11618988 11530618 11425249 11304606 11171938 11031585 10887737 
2949.840 10743836 10602017 10463218 10327304 10193899 10062566 9933097 
2953.216 9805554 9680253 9557398 9437414 9320508 9206974 9097069 8990987 
2957.073 8888635 8789837 8694063 8600741 8509176 8418946 8329829 8242033 
2960.930 8156015 8072640 7992937 7917850 7848202 7784345 7726050 7672389 
2964.788 7622079 7573586 7525587 7477288 7428368 7379168 7330025 7281416 
2968.645 7233403 7186058 7139463 7094017 7050680 7010753 6975525 6945926 
2972.503 6921842 6902431 6886133 6871360 6857104 6843592 6831937 6824125 
2976.360 6822227 6827803 6841514 6863178 6891897 6926702 6966891 7012275 
2980.218 7062994 7119561 7182497 7252188 7329047 7413521 7506327 7608568 
2984.075 7721518 7846378 7983975 8134659 8297905 8472496 8656481 8847417 
2987.932 9042534 9238780 9433251 9623121 9805957 9979890 10143534 10296007 
2991.790 10436585 10564540 10679071 10779147 10863683 10931776 10982705 
2995.165 11016245 11032190 11030694 11011720 10975319 10921772 10851830 
2998.540 10766853 10669101 10561147 10445557 10324438 10198829 10068757 
3001.916 9933689 9792886 9646117 9494057 9338202 9180436 9022515 8865408 
3005.773 8709232 8553215 8396615 8238915 8080624 7923167 7768611 7618715 
3009.630 7474669 7336379 7202789 7072022 6942533 6813304 6684529 6557164 
3013.488 6432767 6312558 6197178 6086152 5978409 5872570 5767745 5663785 
3017.345 5561691 5463053 5369919 5283798 5205389 5134118 5068459 5006203 
3021.203 4945110 4883374 4820274 4755898 4691212 4627668 4566605 4508983 
3025.060 4455288 4405310 4358764 4315174 4274445 4236636 4202090 4170928 
3028.917 4143212 4118341 4095497 4073510 4051301 4028022 4003290 3977075 
3032.775 3949770 3921964 3894269 3867338 3841811 3818341 3797363 3779134 
3036.632 3763647 3750412 3738541 3726875 3714222 3699765 3683171 3664751 
3040.490 3645531 3626732 3609711 3595493 3584638 3577023 3572089 3568801 
3044.347 3566019 3562614 3557685 3550660 3541333 3530011 3517298 3504147 
3048.205 3491791 3481257 3473656 3469652 3469350 3472316 3477669 3484011 
3052.062 3489949 3494156 3495819 3494595 3490648 3484591 3477027 3468451 
3055.919 3459261 3449642 3439916 3430771 3423172 3418398 3417503 3420901 
3059.777 3428056 3437305 3446214 3452232 3453504 3449497 3441210 3431067 
3063.634 3422130 3416970 3417372 3423255 3433131 3444409 3454261 3460321 
3067.492 3461460 3457580 3449798 3439718 3429072 3419144 3410695 3403715 
3071.349 3397799 3392224 3386347 3379746 3372423 3364711 3357259 3350703 
3075.207 3345660 3342528 3341453 3342269 3344936 3349182 3354935 3361988 
3079.064 3369994 3378297 3386058 3392073 3395368 3395250 3391644 3385241 
3082.921 3377170 3368741 3361106 3354778 3349570 3344759 3339569 3333402 
3086.779 3326416 3319376 3313624 3310439 3310704 3314399 3320583 3327419 
3090.636 3332904 3335145 3333156 3326934 3317538 3306574 3295934 3286972 
3094.494 3280361 3275986 3273155 3270890 3268624 3266368 3264679 3264609 
3098.351 3267127 3272621 3280622 3289814 3298273 3303966 3305438 3302108 
3102.208 3294585 3284268 3273148 3263069 3255357 3250700 3249023 3249812 
3106.066 3252467 3256335 3261091 3266523 3272568 3279101 3285931 3292638 
3109.923 3298955 3304430 3308798 3311867 3313638 3314341 3314421 3314481 
3113.781 3315173 3316913 3319627 3322488 3324082 3322554 3316190 3304056 
3117.638 3286468 3264941 3242162 3221126 3204436 3193616 3188870 3189172 
3121.496 3193011 3198694 3205394 3212734 3221039 3230662 3241636 3253418 
3125.353 3264930 3274812 3281885 3285321 3284893 3280750 3273430 3263688 
3129.210 3252478 3241074 3231070 3223952 3221028 3222831 3228831 3237438 
3133.068 3246505 3253777 3257937 3258672 3256949 3254429 3252726 3252780 
3136.925 3254557 3257122 3259252 3259955 3259029 3257026 3255044 3254042 
3140.783 3254562 3256341 3258600 3260422 3261179 3260804 3259886 3259169 
3144.640 3259381 3260628 3262505 3263997 3264017 3261708 3256794 3249784 
3148.498 3241960 3235278 3231819 3233437 3240975 3254117 3271040 3288568 
3152.355 3303108 3311329 3311557 3304068 3291490 3277905 3267892 3264739 
3156.212 3269876 3281997 3297863 3313188 3324114 3328171 3324925 3315705 
3160.070 3303019 3289611 3277660 3268344 3261901 3257742 3254815 3251953 
3163.927 3248037 3242208 3233921 3223119 3210554 3197437 3185596 3176835 
3167.785 3172764 3174214 3181133 3192470 3206585 3221501 3235283 3246436 
3171.642 3254084 3258023 3258625 3256838 3253834 3250829 3248621 3247498 
3175.500 3247140 3246642 3245045 3241669 3236449 3230289 3224560 3220930 
3179.357 3220837 3225002 3233236 3244591 3257589 3270657 3282371 3291636 
3183.214 3297893 3300887 3300912 3298559 3294648 3290186 3285820 3281895 
3187.072 3278164 3273815 3268092 3260614 3251848 3243166 3236657 3234289 
3190.929 3237332 3245484 3257213 3269670 3280021 3286149 3287382 3284736 
3194.787 3280495 3277305 3277409 3281840 3290252 3301075 3312108 3321050 
3198.644 3326261 3326742 3322498 3314170 3302909 3290092 3277283 3265873 
3202.501 3257175 3252125 3251289 3254462 3260778 3268584 3275762 3279985 
3206.359 3279423 3273009 3261001 3245000 3227710 3212322 3201706 3197726 
3210.216 3200927 3210301 3223968 3239676 3255478 3270186 3283297 3294767 
3214.074 3304693 3312802 3318687 3321770 3321810 3319100 3314642 3309768 
3217.931 3305897 3304122 3304890 3308181 3313625 3320851 3329588 3339585 
3221.789 3350537 3361721 3372079 3380220 3384905 3385411 3381824 3374842 
3225.646 3365888 3356308 3347350 3339528 3332996 3327481 3322622 3318221 
3229.503 3314422 3311532 3310042 3310437 3313135 3318278 3325726 3334919 
3233.361 3345026 3354919 3363299 3368948 3371076 3369305 3363778 3355207 
3237.218 3344613 3333258 3322593 3314101 3309178 3308912 3313856 3323693 
3241.076 3337173 3352286 3366645 3378171 3385740 3389325 3390115 3389771 
3244.933 3389890 3391153 3393408 3395544 3396235 3394491 3389936 3382932 
3248.791 3374162 3364156 3353078 3340673 3326822 3311865 3297004 3284237 
3252.648 3275779 3273098 3276319 3283978 3293316 3301244 3305244 3304519 
3256.505 3299872 3293512 3288068 3285627 3286953 3291407 3297376 3302906 
3260.363 3306667 3308218 3308353 3308410 3309951 3313848 3320292 3328454 
3264.220 3336995 3344455 3349755 3352443 3352828 3351571 3349462 3346886 
3268.078 3343610 3338826 3331435 3320449 3305634 3287779 3268745 3251160 
3271.935 3237743 3230733 3231131 3238575 3251392 3267134 3283225 3297535 
3275.792 3308773 3316415 3320714 3322193 3321447 3318924 3315008 3310091 
3279.650 3304840 3299998 3296323 3294371 3294254 3295528 3297170 3298099 
3283.507 3297481 3295159 3291880 3289055 3288446 3291558 3298960 3309966 
3287.365 3322903 3335276 3344877 3350075 3350667 3347776 3343446 3340064 
3291.222 3339559 3342918 3350096 3360012 3371329 3382549 3392744 3401423 
3295.080 3408505 3414093 3418316 3420987 3421901 3420834 3417642 3412389 
3298.937 3405444 3397278 3388583 3379864 3371590 3363986 3356997 3350342 
3302.794 3343774 3337182 3331026 3326392 3324883 3328304 3338015 3354221 
3306.652 3375526 3398893 3420228 3435465 3441759 3438487 3427444 3412399 
3310.509 3397993 3388098 3384661 3387130 3392579 3396871 3396140 3388080 
3314.367 3372823 3352740 3331879 3314275 3303188 3299867 3303631 3312176 
3318.224 3322669 3332559 3340269 3345504 3348748 3350867 3352435 3353507 
3322.082 3353758 3352803 3350629 3347982 3346102 3346271 3349203 3354436 
3325.939 3360359 3364366 3363996 3357555 3344985 3327809 3309028 3292060 
3329.796 3279863 3274288 3275868 3283884 3297120 3314009 3333165 3353277 
3333.654 3373094 3391300 3406381 3416886 3421702 3420375 3413127 3400830 
3337.511 3384738 3366187 3346512 3326857 3308456 3292463 3280021 3272048 
3341.369 3269112 3271192 3277554 3287135 3298600 3310636 3322245 3332668 
3345.226 3341449 3348351 3353383 3356885 3359343 3361427 3363705 3366245 
3349.083 3368660 3369940 3368903 3364673 3357204 3347438 3337124 3328217 
3352.941 3322206 3319558 3319490 3320285 3320092 3317430 3312003 3304494 
3356.798 3296515 3289765 3285640 3284974 3287631 3292907 3299744 3306970 
3360.656 3313482 3318354 3321075 3321540 3320227 3318024 3316049 3315270 
3364.513 3316156 3318444 3321292 3323673 3324914 3325128 3325170 3326331 
3368.371 3329753 3335642 3343132 3350339 3355137 3355799 3351765 3343799 
3372.228 3333772 3323892 3316010 3311179 3309365 3309827 3311489 3313496 
3376.085 3315387 3317153 3319104 3321501 3324471 3327934 3331466 3334565 
3379.943 3336702 3337429 3336645 3334588 3331820 3329372 3328207 3329129 
3383.800 3332424 3337889 3344811 3352402 3360087 3367693 3375360 3383235 
3387.658 3391102 3398052 3402729 3403673 3399963 3391653 3379998 3366833 
3391.515 3354321 3343876 3336211 3331143 3328270 3327593 3329526 3334958 
3395.373 3344499 3357900 3373699 3389252 3401734 3409129 3410846 3408103 
3399.230 3403320 3399099 3397115 3397654 3399704 3401628 3402144 3401127 
3403.087 3399613 3399344 3401903 3407937 3416698 3426430 3434931 3440396 
3406.945 3441853 3439383 3433686 3425758 3416361 3406036 3395016 3383693 
3410.802 3372772 3363155 3355906 3351963 3351858 3355675 3362929 3372522 
3414.660 3382952 3392309 3398484 3399532 3394290 3382896 3367146 3350280 
3418.517 3336319 3329085 3330968 3342169 3360629 3382621 3403916 3421089 
3422.375 3432351 3437674 3438657 3437249 3435121 3433085 3430897 3427744 
3426.232 3423000 3416651 3409371 3402704 3398372 3397828 3401618 3409443 
3430.089 3420016 3431464 3441719 3449078 3452321 3451107 3445899 3437839 
3433.947 3428518 3419604 3412493 3408162 3406847 3408175 3411146 3414480 
3437.804 3416765 3416836 3414121 3408712 3401461 3393833 3387440 3383542 
3441.662 3382674 3384339 3387344 3389989 3390907 3389608 3386709 3383633 
3445.519 3382087 3383319 3387472 3393519 3399566 3403606 3404456 3402138 
3449.376 3397996 3394332 3393427 3397023 3405662 3418727 3434734 3451753 
3453.234 3468100 3482403 3493782 3501850 3506546 3508090 3506903 3503606 
3457.091 3498866 3493280 3487260 3480943 3474485 3468131 3462491 3458656 
3460.949 3457918 3461544 3470243 3483874 3501480 3521313 3541483 3560145 
3464.806 3576062 3588600 3597578 3603242 3606191 3607116 3606770 3606095 
3468.664 3605948 3606909 3609235 3612692 3616846 3621259 3625685 3630396 
3472.521 3635873 3642520 3650523 3659473 3668709 3677617 3686116 3694935 
3476.378 3705540 3719548 3737966 3760515 3785329 3809421 3829492 3843066 
3480.236 3849252 3849265 3845799 3842368 3841953 3846249 3855151 3866921 
3484.093 3879038 3888861 3894707 3896241 3894588 3892057 3891540 3895753 
3487.951 3906573 3924678 3949232 3978200 4008641 4037613 4062439 4081525 
3491.808 4094342 4101517 4104283 4104433 4103692 4103806 4106287 4112469 
3495.666 4123378 4139503 4160541 4185266 4211385 4236120 4256491 4270407 
3499.523 4276922 4276629 4271517 4264375 4258138 4255156 4256709 4263000 
3503.380 4273101 4285557 4298615 4310579 4320037 4325853 4327308 4323959 
3507.238 4315766 4303234 4287350 4269778 4252455 4237567 4226958 4221846 
3511.095 4222331 4227456 4235058 4242305 4246190 4244248 4235062 4218596 
3514.953 4195963 4169365 4141293 4113959 4088981 4066933 4047813 4030917 
3518.810 4015718 4001964 3989991 3980733 3975400 3975203 3980776 3991886 
3522.667 4007336 4024948 4042016 4055841 4064370 4066521 4062387 4052914 
3526.525 4039732 4024460 4008178 3991496 3974225 3956158 3936985 3916898 
3530.382 3896591 3877182 3860024 3846368 3837078 3832609 3832844 3837184 
3534.240 3844503 3853254 3861646 3867675 3869752 3866723 3858478 3845843 
3538.097 3830479 3814655 3800462 3789549 3782672 3779592 3779181 3779913 
3541.955 3780019 3778188 3773456 3765549 3754811 3742098 3728613 3715666 
3545.812 3704558 3696373 3691820 3691395 3694991 3702345 3712591 3724588 
3549.669 3736684 3747014 3753839 3755807 3752543 3744865 3734677 3724596 
3553.527 3717370 3715040 3718258 3726315 3737176 3748244 3756985 3761540 
3557.384 3761084 3755760 3746509 3734900 3722698 3711833 3704157 3701360 
3561.242 3704181 3712503 3724841 3738586 3750485 3757742 3758481 3752637 
3565.099 3741769 3728443 3715247 3704119 3695505 3688790 3682740 3676639 
3568.957 3670682 3666262 3665340 3669675 3679692 3694233 3710682 3725693 
3572.814 3736394 3741276 3740532 3735772 3729275 3722936 3717479 3712410 
3576.671 3706297 3697827 3686466 3673246 3660411 3650622 3646087 3647283 
3580.529 3652887 3659732 3664197 3663366 3656143 3643838 3629732 3617836 
3584.386 3611479 3612148 3618798 3628453 3637248 3641970 3640878 3634676 
3588.244 3625550 3616424 3609571 3605796 3604065 3602467 3598811 3591951 
3592.101 3582070 3571005 3561375 3555933 3556484 3563357 3575449 3590311 
3595.958 3605020 3616771 3623367 3623706 3617860 3607035 3593035 3578044 
3599.816 3564137 3552790 3544857 3540548 3539716 3541996 3546976 3554216 
3603.673 3562948 3572037 3579883 3584749 3585461 3581711 3574671 3566627 
3607.531 3560489 3558850 3562970 3572510 3585577 3599591 3612018 3621548 
3611.388 3627860 3631699 3633887 3635009 3634918 3633296 3629798 3624865 
3615.246 3619783 3616503 3616789 3621526 3630459 3642326 3655031 3666710 
3619.103 3676134 3682812 3686642 3687710 3685892 3680917 3672858 3662683 
3622.960 3652175 3643814 3640011 3642204 3650198 3662362 3675945 3688462 
3626.818 3698239 3705191 3710175 3714853 3720369 3727277 3735419 3744623 
3630.675 3755246 3768571 3786239 3809658 3838697 3871313 3903649 3931124 
3634.533 3949708 3957653 3955980 3948316 3939624 3934624 3936047 3944230 
3638.390 3956866 3970223 3980282 3984136 3980718 3971003 3957513 3943613 
3642.248 3932704 3927582 3929934 3940317 3958157 3981947 4009536 4038513 
3646.105 4066386 4090987 4110673 4124389 4131794 4133110 4129213 4121308 
3649.962 4111030 4100266 4090877 4084689 4083044 4086637 4095287 4108087 
3653.820 4123238 4138596 4151745 4160560 4163533 4160190 4150914 4137282 
3657.677 4121249 4104964 4090180 4077858 4068170 4060681 4054511 4049022 
3661.535 4043956 4039610 4036482 4035085 4035478 4037105 4038870 4039401 
3665.392 4037491 4032267 4023428 4011199 3995903 3978237 3958624 3937862 
3669.250 3916787 3896592 3878626 3864257 3854372 3849383 3849016 3852463 
3673.107 3858641 3866367 3874483 3881677 3886528 3887662 3883667 3873868 
3676.964 3858512 3838899 3817473 3797055 3780366 3769253 3764106 3764049 
3680.822 3767126 3771079 3773909 3774253 3771437 3765483 3756518 3745001 
3684.679 3731307 3716075 3700214 3684889 3671286 3660329 3652271 3646685 
3688.537 3642599 3638974 3635273 3631659 3628931 3628355 3630668 3635921 
3692.394 3643055 3650101 3654921 3655687 3651618 3642966 3630905 3617063 
3696.251 3602844 3589198 3576589 3565142 3555009 3546766 3541252 3539420 
3700.109 3541886 3548602 3558605 3570303 3581717 3591190 3597667 3600897 
3703.966 3601352 3599926 3597181 3593406 3588324 3581332 3571702 3559320 
3707.824 3544637 3528835 3513908 3501955 3495025 3494499 3500997 3514056 
3711.681 3532398 3554079 3576887 3598800 3618328 3634643 3647703 3657909 
3715.539 3666002 3672485 3677434 3680481 3680845 3677819 3670898 3660383 
3719.396 3647320 3633435 3620670 3610650 3604285 3601588 3601436 3602508 
3723.253 3603353 3603226 3602167 3601245 3601950 3605774 3613575 3625230 
3727.111 3639451 3654284 3667480 3677216 3682634 3683982 3682474 3679916 
3730.968 3677938 3677439 3678357 3679477 3679093 3675405 3667426 3655220 
3734.826 3640151 3624447 3610575 3600536 3595481 3595451 3599751 3607282 
3738.683 3617234 3628962 3642075 3656067 3669721 3681465 3689193 3691280 
3742.541 3687100 3677516 3665113 3653558 3646415 3646263 3653574 3667003 
3746.398 3683675 3700468 3714750 3724897 3730586 3732171 3730185 3725059 
3750.255 3717072 3706552 3694404 3682228 3672288 3666885 3667534 3674314 
3754.113 3685778 3699294 3711860 3720941 3725251 3724965 3721394 3716484 
3757.970 3711904 3708699 3706920 3705879 3704404 3701400 3696050 3688060 
3761.828 3677646 3665650 3653179 3641522 3631891 3625113 3621446 3620532 
3765.685 3621582 3623832 3626771 3630489 3635421 3642090 3650408 3659163 
3769.542 3666272 3668938 3664770 3652590 3632998 3608714 3583662 3562197 
3773.400 3547921 3543098 3548061 3561705 3581770 3605640 3630441 3653767 
3777.257 3673507 3688350 3697655 3701866 3702440 3701414 3700862 3702294 
3781.115 3706291 3712325 3719142 3725514 3730681 3734850 3738635 3742857 
3784.972 3747683 3752458 3755747 3756084 3752455 3745127 3735372 3725256 
3788.830 3716780 3711204 3708595 3708334 3709333 3710820 3712525 3714668 
3792.687 3717453 3720805 3724094 3726393 3726982 3725835 3723723 3721971 
3796.544 3721826 3723637 3726632 3729036 3728724 3724176 3715109 3702730 
3800.402 3689460 3678095 3670860 3668917 3672113 3679316 3688816 3698975 
3804.259 3708299 3715770 3720676 3722837 3722393 3720271 3717621 3715976 
3808.117 3716395 3719227 3724047 3729592 3734402 3737574 3738783 3738623 
3811.974 3738024 3737799 3738142 3738460 3737769 3735205 3730519 3724448 
3815.832 3718222 3713416 3710910 3710888 3712753 3715564 3718504 3721303 
3819.689 3724064 3726929 3729910 3732401 3733572 3732760 3729786 3725450 
3823.546 3721152 3718499 3718463 3721187 3725687 3730422 3733796 3734785 
3827.404 3733323 3730045 3726092 3722357 3719608 3718118 3717989 3719417 
3831.261 3722364 3726728 3731728 3736107 3738226 3736644 3730892 3721902 
3835.119 3711989 3704464 3702318 3707488 3719757 3736880 3754998 3769921 
3838.976 3778292 3778545 3771250 3758944 3745347 3734324 3729156 3731694 
3842.833 3742045 3758572 3778348 3797857 3813802 3823874 3827026 3823816 
3846.691 3815572 3804105 3791020 3777227 3763302 3749740 3737218 3727056 
3850.548 3720648 3719183 3722624 3729510 3737143 3742297 3742438 3736927 
3854.406 3727156 3716236 3707598 3703595 3704515 3708479 3712105 3712033 
3858.263 3706054 3694127 3678263 3661756 3647862 3638932 3635504 3636611 
3862.121 3640478 3645274 3649889 3654204 3658703 3664159 3670859 3678739 
3865.978 3687159 3695253 3702445 3708356 3712998 3716566 3719074 3720363 
3869.835 3720040 3717842 3713834 3708527 3703219 3699471 3698908 3702596 
3873.693 3710693 3722177 3734900 3746207 3753370 3754467 3748880 3737565 
3877.550 3722793 3707442 3694228 3685111 3680721 3680430 3682806 3686273 
3881.408 3689544 3692211 3694431 3696797 3699689 3703344 3707317 3711171 
3885.265 3714395 3717173 3719950 3723927 3730182 3739533 3752036 3766992 
3889.123 3782612 3796814 3807263 3812177 3810554 3802797 3790503 3776281 
3892.980 3763137 3753658 3749295 3750037 3754393 3759885 3763862 3764473 
3896.837 3761150 3754737 3746989 3739965 3734908 3732161 3730945 3730006 
3900.695 3728287 3725604 3722588 3720617 3720839 3723863 3728937 3734475 
3904.552 3738414 3739074 3735872 3729415 3721513 3714418 3710245 3710451 
3908.410 3715634 3725570 3739456 3756073 3773796 3790730 3804436 3812340 
3912.267 3811975 3801931 3782275 3755046 3724263 3695253 3673227 3662452 
3916.125 3664891 3679875 3704201 3732980 3761081 3784189 3799857 3807814 
3919.982 3809623 3808060 3805592 3804147 3804004 3804192 3802733 3797923 
3923.839 3788766 3775752 3760848 3747084 3737573 3734615 3738877 3749338 
3927.697 3763474 3778013 3789882 3796989 3798506 3795085 3788294 3780209 
3931.554 3772736 3767432 3765176 3766185 3770083 3775822 3781829 3786064 
3935.412 3786622 3781886 3771416 3756184 3738616 3722287 3710981 3707741 
3939.269 3714024 3729139 3750678 3774826 3797609 3815847 3827399 3831848 
3943.126 3829845 3822804 3812422 3800353 3788177 3777507 3769856 3766748 
3946.984 3769187 3777589 3791088 3807788 3824788 3838702 3846492 3846078 
3950.841 3836855 3819908 3797831 3774252 3753120 3737995 3731209 3733485 
3954.699 3743876 3759949 3778305 3795502 3808830 3816881 3819760 3818871 
3958.556 3816279 3814102 3813949 3816614 3822016 3829794 3839118 3849397 
3962.414 3860016 3870234 3879085 3885159 3887149 3884102 3875921 3863760 
3966.271 3849744 3836557 3826676 3821468 3820764 3823015 3825564 3825962 
3970.128 3822687 3815781 3807031 3799005 3794422 3794909 3800496 3809436 
3973.986 3818890 3825883 3828381 3826030 3820191 3813462 3808712 3808217 
3977.843 3812829 3822090 3834292 3847374 3859625 3869923 3877770 3882947 
3981.701 3885064 3883281 3876639 3864464 3847279 3827069 3807490 3792997 
3985.558 3787787 3794441 3813032 3840800 3872861 3903490 3927589 3941908 
3989.416 3945711 3940711 3930016 3917168 3905090 3895539 3888907 3884953 
3993.273 3883081 3883036 3885102 3889672 3897059 3906939 3918067 3928618 
3997.130 3936406 3939835 3938237 3932261 3923479 3914099 3906045 3900348 
##END=
