##TITLE=Bambu-Lab_ABS_White_Filament_r2_ATR-Corrected
##JCAMP-DX=5.01  $$ Nicolet v. 1
##DATATYPE=INFRARED SPECTRUM
##ORIGIN=Curtin University
##OWNER=Nicolet
##LONGDATE=2024/07/03
##TIME=13:34:44
##SPECTROMETER/DATA SYSTEM=Nicolet iS50
##DATA PROCESSING=
Ratio against background
%Transmittance->Absorbance
ATR Correction
Truncated
ElementMultiply or ElementDivide
##COMMENTS=
Number of sample scans: 32
Collection length: 47.28 sec
Sample gain: 1.0
Background collected on: Wed Jul 03 13:32:34 2024 (GMT+08:00);
Number of background scans: 32
Background gain: 1.0
Sample spacing:  1.000
Number of scan points: 16672
Resolution points: 8192
Number of FFT points: 65536
Apodization: N-B strong;
Phase correction: Mertz;
Laser frequency: 15798.3 cm-1
Number of rejected sample scans: 0
Number of rejected background scans: 0
Bench serial number: AUP1200105;
##RESOLUTION=4.000
##XUNITS=1/CM
##YUNITS=ABSORBANCE
##FIRSTX=400.163452
##LASTX=4000.187744
##FIRSTY=0.015773
##MAXX=4000.187744
##MINX=400.163452
##MAXY=0.426943
##MINY=-0.004685
##XFACTOR=1.000000
##YFACTOR=1.000000E-009
##NPOINTS=7468
##DELTAX=0.482125
##ZPD=8192
##XYDATA=(X++(Y..Y))
400.163 15772505 16148187 16526612 16800850 16886858 16756965 16457094 
403.538 16100401 15835313 15799254 16073188 16652470 17446314 18302420 
406.913 19053492 19565290 19772414 19690462 19401132 19023314 18675632 
410.288 18446940 18377770 18456568 18628546 18815632 18938970 18941534 
413.663 18802734 18543760 18221046 17913292 17698562 17633166 17736178 
417.038 17985016 18324338 18685480 19009462 19264968 19455012 19610202 
420.412 19772854 19976968 20233256 20523382 20804302 21023300 21134436 
423.787 21114204 20971000 20746698 20507774 20329868 20277834 20386858 
427.162 20648530 21008570 21375010 21640842 21711716 21533764 21110940 
430.537 20505264 19821370 19177116 18672430 18364768 18258070 18309774 
433.912 18448470 18601038 18712952 18760316 18747566 18697030 18634134 
437.286 18575868 18526798 18480912 18429290 18367788 18301218 18244974 
440.661 18220310 18247836 18340292 18496648 18698926 18913578 19096604 
444.036 19203388 19199492 19072338 18836840 18534820 18225456 17969332 
447.411 17811178 17766526 17817306 17918328 18011854 18047054 17995226 
450.786 17856874 17658718 17442564 17250630 17114316 17048030 17051366 
454.161 17114732 17226860 17378526 17563044 17772056 17991342 18198890 
457.535 18368618 18476792 18511864 18481136 18413076 18351442 18344944 
460.910 18432678 18632078 18932844 19297880 19672514 20000832 20237668 
464.285 20362568 20382860 20329634 20246410 20174562 20140458 20148606 
467.660 20183024 20214710 20213990 20161674 20055780 19912272 19759652 
471.035 19630368 19551688 19539390 19595086 19707484 19856312 20017642 
474.409 20167776 20287714 20364926 20395046 20381290 20334260 20268252 
477.784 20197880 20134440 20082706 20040698 20001174 19955688 19898990 
481.159 19832106 19763244 19705524 19672690 19673470 19707624 19763852 
484.534 19822078 19857696 19848978 19783274 19662524 19503870 19336648 
487.909 19195412 19110638 19100188 19164412 19285902 19434956 19578820 
491.284 19691202 19759068 19784308 19779126 19758638 19732880 19702428 
494.658 19658328 19587924 19481686 19339460 19172422 19000778 18847530 
498.033 18732574 18668104 18657802 18699064 18786484 18914194 19076634 
501.408 19266760 19475090 19689516 19897834 20091994 20271980 20446738 
504.783 20632348 20846184 21101562 21402764 21744760 22115950 22502898 
508.158 22893930 23280374 23654650 24007358 24325020 24592652 24798262 
511.532 24940560 25034204 25110274 25210836 25378246 25643916 26019778 
514.907 26496112 27046838 27639010 28243616 28843540 29435706 30027898 
518.282 30632768 31261138 31918806 32605402 33316928 34047824 34793188 
521.657 35547680 36304692 37054280 37783852 38480044 39132072 39735896 
525.032 40296072 40824424 41337792 41852432 42380124 42924664 43481140 
528.406 44038248 44581472 45097708 45579456 46026880 46449008 46861808 
531.781 47285284 47738580 48235692 48781824 49371868 49991116 50619000 
535.156 51233044 51813716 52347664 52829436 53260484 53647300 53998620 
538.531 54323684 54630196 54924128 55209448 55488548 55761608 56027308 
541.906 56282940 56525668 56753444 56966336 57166356 57356656 57539264 
545.281 57712964 57871124 58001568 58088016 58113452 58063592 57931220 
548.655 57718324 57436460 57105416 56751012 56400440 56078780 55804584 
552.030 55586952 55423240 55299628 55193368 55077824 54928912 54731140 
555.405 54481856 54192456 53883972 53582156 53309144 53077992 52889404 
558.780 52733300 52593172 52452480 52299864 52131488 51951204 51766632 
562.155 51585756 51413332 51249168 51088920 50925000 50748380 50549700 
565.529 50319688 50049300 49730984 49360692 48940264 48479220 47995408 
568.904 47511616 47051932 46635840 46273508 45964432 45698420 45459508 
572.279 45231268 45000908 44761312 44510920 44250652 43980744 43698176 
575.654 43395980 43064800 42695896 42284880 41834980 41357544 40871140 
579.029 40397832 39958572 39567972 39231128 38942276 38686876 38446096 
582.404 38202104 37943260 37666412 37376644 37083588 36797280 36523612 
585.778 36262800 36010544 35761516 35512948 35267448 35033164 34821108 
589.153 34641100 34498060 34390776 34312260 34253092 34204304 34159604 
592.528 34115772 34071372 34024516 33972424 33911608 33839820 33757628 
595.903 33669752 33583588 33506654 33443436 33392624 33347368 33296860 
599.278 33229578 33136874 33015140 32865782 32694440 32509044 32318312 
602.652 32131522 31957724 31806264 31685766 31602736 31559728 31555154 
606.027 31582520 31633292 31698506 31771452 31848684 31929060 32012880 
609.402 32099336 32186144 32268986 32342646 32402090 32443724 32465074 
612.777 32465402 32445352 32408110 32360538 32314878 32288440 32302190 
616.152 32377272 32529388 32764434 33075198 33440448 33828024 34199504 
619.527 34516952 34748944 34875612 34891164 34803800 34633292 34405836 
622.901 34149284 33887384 33636608 33404686 33192664 32998220 32819788 
626.276 32658782 32519944 32408640 32327146 32270852 32228314 32183122 
629.651 32119244 32026644 31904668 31762886 31617220 31484600 31377896 
633.026 31302702 31257492 31236994 31235696 31251304 31284760 31339016 
636.401 31416096 31514618 31629894 31754512 31880974 32003638 32119210 
639.775 32225978 32322674 32407478 32478128 32533110 32572966 32601468 
643.150 32624058 32646574 32673166 32705680 32744396 32790236 32847378 
646.525 32924138 33031504 33179692 33373914 33611240 33879688 34160652 
649.900 34433468 34680112 34889904 35060468 35197512 35312088 35418196 
653.275 35529376 35657112 35809056 35988268 36193036 36417960 36655476 
656.650 36899276 37146360 37399248 37664892 37952164 38267556 38611660 
660.024 38978032 39354408 39727120 40085920 40427808 40757592 41085240 
663.399 41421700 41774168 42143952 42527384 42918508 43313552 43712968 
666.774 44121380 44545624 44990816 45457452 45940360 46430220 46916372 
670.149 47390324 47847620 48288608 48717636 49141256 49566772 50001620 
673.524 50452292 50924432 51422028 51947404 52500684 53080788 53685804 
676.898 54314752 54968016 55647508 56355512 57093564 57861264 58656900 
680.273 59478880 60328084 61210652 62139072 63132108 64213500 65409140 
683.648 66744984 68244824 69930016 71819304 73930408 76282368 78899272 
687.023 81814664 85077376 88756136 92944240 97762144 103358392 109908848 
690.398 117616272 126708104 137432672 150051808 164824640 181983520 
693.290 201693600 224002064 248772080 275611456 303804832 332272032 
696.183 359586016 384085728 404108544 418300704 425912992 426943424 
699.076 422064896 412382848 399146560 383523424 366475680 348727456 
701.969 330788000 312995808 295567488 278635552 262277632 246533376 
704.861 231414672 216911536 202998544 189643408 176815584 164496256 
707.754 152684144 141395680 130660192 120511072 110976440 102073088 93805984 
711.129 86171560 79162576 72773752 67002988 61848408 57303140 53349632 
714.504 49956288 47077572 44658884 42641736 40969100 39588276 38451128 
717.878 37513212 36732904 36072364 35500736 34996604 34550036 34161152 
721.253 33835688 33579580 33393934 33273384 33207730 33186268 33202566 
724.628 33256606 33354368 33504602 33714192 33984540 34310948 34683864 
728.003 35092228 35526424 35980300 36451400 36940632 37451720 37991744 
731.378 38571688 39207552 39918920 40726684 41648732 42695548 43867128 
734.752 45152380 46530636 47974920 49456012 50945524 52418132 53852920 
738.127 55234688 56554304 57809748 59006440 60155500 61272296 62373752 
741.502 63477188 64599372 65757556 66971028 68262128 69655440 71174680 
744.877 72839592 74662152 76645728 78787096 81079736 83518880 86104368 
748.252 88840976 91736496 94797584 98026288 101418024 104962368 108644184 
751.627 112446568 116351192 120337736 124380904 128448648 132499128 
754.519 136482240 140340976 144015216 147445216 150574400 153350912 
757.412 155727904 157663936 159122672 160074304 160496064 160374400 
760.305 159706672 158501200 156777392 154564720 151900560 148827888 
763.197 145393424 141647072 137641904 133434248 129084768 124657088 
766.090 120215112 115818712 111517984 107348904 103330176 99465008 95744696 
769.465 92156384 88690208 85344248 82126200 79050176 76130664 73375936 
772.840 70783000 68336384 66011304 63779548 61615708 59502304 57431732 
776.214 55404780 53427460 51507272 49650168 47859540 46136460 44481096 
779.589 42893760 41375932 39929892 38558584 37264532 36049856 34915392 
782.964 33860564 32883200 31979024 31141946 30363952 29636162 28949652 
786.339 28296222 27669804 27066426 26484646 25925034 25390094 24883232 
789.714 24407992 23966740 23560556 23188474 22847884 22535284 22247446 
793.089 21982082 21737804 21513336 21306618 21113912 20929622 20747024 
796.463 20560410 20366272 20163938 19955600 19744870 19534880 19327960 
799.838 19125360 18928576 18740900 18567692 18415702 18290852 18195678 
803.213 18128102 18080870 18043756 18006428 17961438 17905070 17837388 
806.588 17760494 17676650 17587292 17493232 17395810 17297870 17203270 
809.963 17115874 17037376 16965480 16894044 16815334 16722908 16614947 
813.337 16495846 16375363 16265852 16178481 16120620 16093891 16095730 
816.712 16119996 16158866 16203903 16245890 16274914 16281573 16258830 
820.087 16204290 16122747 16025184 15926786 15842587 15783198 15751520 
823.462 15743213 15748581 15756540 15757900 15746506 15719907 15677419 
826.837 15619632 15548180 15467633 15386515 15316809 15272132 15263431 
830.212 15295173 15363419 15457125 15562919 15671238 15780792 15899668 
833.586 16042318 16223496 16451886 16725941 17035230 17364226 17698240 
836.961 18028456 18353314 18676904 19004076 19336882 19671740 20000738 
840.336 20314126 20604088 20867040 21103472 21316516 21508816 21681432 
843.711 21833054 21960920 22062292 22135020 22177200 22186122 22157410 
847.086 22085732 21966398 21797318 21582058 21329422 21052596 20766016 
850.460 20482406 20210520 19954990 19716982 19496422 19293014 19106604 
853.835 18936154 18778330 18627270 18475118 18314276 18139526 17950748 
857.210 17752678 17554220 17365890 17197110 17053988 16938804 16849936 
860.585 16783196 16733106 16693307 16657554 16619725 16574228 16516775 
863.960 16445529 16361922 16271105 16181672 16104344 16049225 16023809 
867.335 16029958 16062815 16111130 16159466 16191611 16196022 16168373 
870.709 16114369 16047994 15988056 15952587 15953355 15992556 16062321 
874.084 16148239 16233472 16304551 16354840 16385393 16402993 16417321 
877.459 16436910 16467871 16512565 16571051 16642040 16723832 16814276 
880.834 16910598 17008712 17103616 17190100 17264600 17325924 17375910 
884.209 17418314 17457596 17497346 17539402 17584320 17631808 17681582 
887.583 17734486 17791850 17855376 17926558 18006738 18097644 18201978 
890.958 18323806 18468030 18639268 18840330 19070806 19327098 19603752 
894.333 19895188 20198030 20513666 20847910 21210858 21614932 22073052 
897.708 22597092 23196192 23876826 24642422 25494362 26432582 27457330 
901.083 28570434 29776246 31082018 32496982 34029956 35686148 37464524 
904.458 39355016 41337464 43382628 45453168 47506020 49494872 51372064 
907.832 53090936 54608472 55888252 56903324 57637732 58087472 58258816 
911.207 58165344 57823768 57251880 56466280 55483160 54321136 53002896 
914.582 51557308 50018384 48422804 46805884 45197392 43619392 42085512 
917.957 40602164 39171364 37792956 36466188 35190872 33966720 32794494 
921.332 31675868 30613988 29614820 28686586 27838738 27079784 26415300 
924.706 25845452 25364544 24962120 24623762 24334694 24080854 23850424 
928.081 23634590 23427490 23226478 23031716 22846852 22678026 22533058 
931.456 22419894 22343874 22306792 22305718 22333978 22383080 22445480 
934.831 22516712 22596370 22687454 22795436 22924682 23078370 23256830 
938.206 23458550 23682106 23926122 24190656 24475916 24780440 25100066 
941.581 25426846 25750996 26062090 26352844 26620648 26868526 27103446 
944.955 27333990 27567650 27809364 28061680 28326510 28607522 28911724 
948.330 29249620 29633162 30073202 30576362 31144494 31774954 32464028 
951.705 33210308 34017128 34894040 35855052 36916172 38092560 39396828 
955.080 40838996 42428000 44173592 46087568 48183216 50472804 52964108 
958.455 55656512 58538572 61587160 64767964 68037816 71346328 74638224 
961.829 77855136 80936720 83822624 86454864 88780496 90753992 92340456 
965.204 93516240 94269896 94601664 94522248 94051744 93217624 92053368 
968.579 90596328 88885552 86959288 84853040 82598840 80225280 77759224 
971.954 75228352 72663424 70098464 67571128 65119164 62777064 60572348 
975.329 58523328 56638124 54916476 53352144 51935724 50656716 49504224 
978.703 48466944 47532344 46686580 45915952 45208240 44555372 43955084 
982.078 43410448 42928700 42517096 42180500 41918008 41722924 41583944 
985.453 41488012 41423084 41380988 41357560 41352620 41368560 41409040 
988.828 41478684 41581664 41721532 41899056 42109988 42342644 42576580 
992.203 42784224 42934640 42999412 42959768 42809976 42559212 42228304 
995.578 41844948 41437608 41031944 40649436 40308404 40026620 39821272 
998.952 39708156 39697532 39788792 39967488 40204512 40460584 40693136 
1002.327 40865184 40951412 40942252 40842768 40668772 40441580 40183356 
1005.702 39914128 39650472 39406184 39191616 39013372 38873652 38769360 
1009.077 38692092 38630424 38572708 38510280 38440492 38367128 38299688 
1012.452 38250668 38232564 38254832 38322388 38434996 38588612 38776260 
1015.826 38990792 39226360 39480684 39755020 40054968 40388588 40765292 
1019.201 41193520 41679176 42225224 42832812 43502860 44238248 45045092 
1022.576 45932376 46909776 47984216 49155808 50415056 51740412 53098964 
1025.951 54447560 55736008 56910632 57917500 58706172 59232480 59462552 
1029.326 59374444 58960516 58228456 57200600 55912228 54408420 52740796 
1032.702 50963464 49129660 47289824 45490044 43771284 42169216 40713936 
1036.077 39428976 38329528 37420820 36696160 36136588 35712876 35389308 
1039.452 35130148 34905500 34696412 34497016 34312200 34153080 34030456 
1042.827 33949696 33908688 33898452 33907548 33926600 33951724 33984936 
1046.203 34031952 34098212 34185244 34289164 34401792 34513748 34617888 
1049.578 34712040 34799028 34884964 34976692 35079788 35197736 35332528 
1052.953 35486464 35662864 35866544 36101512 36370392 36672404 37004164 
1056.328 37360692 37738660 38137408 38558960 39006756 39483464 39988152 
1059.704 40515356 41056724 41602836 42146272 42684028 43217288 43750288 
1063.079 44288328 44834604 45389112 45947792 46503188 47045348 47562728 
1066.454 48043536 48476032 48849912 49156160 49388656 49543796 49620000 
1069.829 49616972 49534576 49372604 49131660 48814440 48427384 47981924 
1073.205 47493308 46979224 46455708 45934740 45422288 44918476 44419396 
1076.580 43921064 43420896 42920436 42424576 41940796 41476664 41038648 
1079.955 40630700 40254796 39910676 39596656 39309768 39046236 38801352 
1083.330 38570604 38349836 38136012 37927860 37725112 37528540 37338700 
1086.706 37155964 36980192 36811728 36651400 36500912 36362460 36237512 
1090.081 36126760 36029104 35942644 35865168 35795672 35734036 35681240 
1093.456 35637292 35601912 35571988 35543952 35513928 35480224 35443264 
1096.831 35405728 35370108 35337660 35306148 35269908 35221468 35153992 
1100.207 35064444 34953884 34827984 34694580 34560808 34431288 34305672 
1103.582 34180420 34049308 33905856 33745188 33565032 33366132 33152052 
1106.957 32927930 32700434 32475010 32254868 32039076 31821076 31589360 
1110.332 31328936 31025290 30668566 30256768 29797044 29304654 28799244 
1113.708 28299532 27819392 27365160 26936050 26526164 26127880 25734620 
1117.083 25342202 24948880 24554762 24160824 23768750 23381564 23004554 
1120.458 22644746 22310956 22010814 21748930 21525242 21334502 21168166 
1123.833 21016862 20873368 20734142 20599544 20472602 20356670 20254362 
1127.208 20166026 20091456 20029988 19982766 19952330 19942176 19955448 
1130.584 19993770 20055850 20139080 20239816 20355468 20484894 20628906 
1133.959 20788622 20964954 21157540 21364410 21583878 21815422 22060762 
1137.334 22324356 22612522 22932018 23288004 23683488 24118772 24592382 
1140.709 25102554 25648740 26232052 26856176 27526754 28251218 29038116 
1144.085 29897212 30838230 31870392 33001340 34236208 35576604 37021408 
1147.460 38567160 40209448 41944552 43769064 45679196 47668920 49726620 
1150.835 51833232 53961100 56074168 58130848 60086888 61900136 63533320 
1154.210 64958260 66157648 67125696 67868832 68404336 68757952 68961544 
1157.586 69048656 69051928 68999352 68912320 68804744 68684032 68552032 
1160.961 68407600 68249040 68075888 67890008 67695696 67498720 67304920 
1164.336 67117856 66936696 66756152 66566236 66354552 66109292 65822140 
1167.711 65491104 65120636 64720996 64305244 63885800 63471876 63067920 
1171.087 62674656 62290716 61915784 61551700 61203628 60878092 60581992 
1174.462 60319952 60094176 59905160 59753144 59639504 59568208 59544528 
1177.837 59573164 59654748 59784104 59948276 60127748 60298864 60437400 
1181.212 60521752 60535700 60469916 60320700 60089512 59781680 59403716 
1184.588 58963676 58469640 57930392 57355376 56755008 56141736 55529828 
1187.963 54935132 54374272 53862768 53413284 53034572 52729776 52497460 
1191.338 52331352 52222776 52161452 52136520 52137964 52156968 52186700 
1194.713 52222392 52261680 52304196 52350352 52399968 52450692 52497496 
1198.089 52532232 52546348 52532016 52484964 52405096 52296188 52164268 
1201.464 52015012 51852564 51678824 51494396 51300744 51101196 50901600 
1204.839 50708792 50528260 50362508 50209700 50064016 49917948 49765424 
1208.214 49603144 49431392 49253452 49072836 48891996 48710768 48527068 
1211.590 48338636 48143780 47942856 47738020 47531952 47326728 47122388 
1214.965 46917888 46711664 46503080 46293184 46084956 45882928 45691744 
1218.340 45515560 45357864 45221516 45108808 45021684 44960836 44924900 
1221.715 44909728 44908724 44914304 44920032 44922432 44923432 44929076 
1225.091 44949288 44994372 45073616 45193296 45355620 45560268 45804052 
1228.466 46082240 46388776 46715752 47054228 47394052 47725780 48041568 
1231.841 48336496 48609236 48861124 49094892 49313100 49516596 49704188 
1235.216 49872780 50018200 50135376 50219668 50266344 50270944 50229632 
1238.592 50140164 50002608 49820176 49599156 49348464 49077600 48796000 
1241.967 48511228 48228992 47953764 47689272 47439644 47209876 47004904 
1245.342 46828160 46681124 46561908 46464536 46379984 46297172 46204572 
1248.717 46092088 45952456 45782928 45585612 45367444 45139064 44912772 
1252.093 44700320 44510804 44348896 44215028 44105732 44015604 43938984 
1255.468 43870920 43807808 43747084 43686900 43625448 43561360 43494444 
1258.843 43425800 43358464 43296172 43242056 43196804 43157888 43119652 
1262.218 43074908 43017512 42944768 42859648 42769768 42685840 42618392 
1265.594 42574240 42554016 42551040 42553680 42548000 42522156 42469812 
1268.969 42392000 42297416 42199548 42113108 42050288 42017004 42012564 
1272.344 42029768 42057896 42086068 42106144 42113888 42109448 42094508 
1275.719 42070748 42037468 41991476 41927864 41842292 41733340 41604096 
1279.094 41461936 41316652 41177812 41052244 40941916 40843908 40751264 
1282.470 40655916 40550128 40429324 40292300 40141720 39983144 39824000 
1285.845 39672228 39535756 39421400 39334392 39278532 39255372 39265204 
1289.220 39306752 39377472 39473556 39589716 39719624 39855972 39991244 
1292.595 40119276 40235808 40340372 40435896 40528400 40624988 40732160 
1295.971 40853740 40990348 41138992 41295112 41454160 41613260 41772356 
1299.346 41933956 42102072 42280324 42470632 42671176 42877308 43081732 
1302.721 43276532 43454504 43611600 43747180 43864468 43970024 44072004 
1306.096 44178696 44297176 44431528 44583008 44750424 44929572 45115220 
1309.472 45301340 45481796 45650992 45804376 45939440 46055432 46153976 
1312.847 46237856 46309728 46371256 46421572 46457268 46473456 46465940 
1316.222 46433300 46378912 46309996 46236760 46169272 46113748 46071356 
1319.597 46038004 46006388 45969336 45922104 45865332 45803268 45743048 
1322.973 45690468 45648348 45615876 45588728 45562228 45533040 45501292 
1326.348 45470380 45445608 45431768 45431708 45444052 45464648 45486580 
1329.723 45502504 45506132 45493384 45462332 45413316 45348788 45272424 
1333.098 45188892 45103296 45020844 44946708 44885888 44843672 44825240 
1336.474 44836304 44882580 44968812 45097972 45269856 45481420 45726656 
1339.849 45998748 46291644 46601560 46927436 47270000 47629964 48005736 
1343.224 48392148 48780020 49158512 49516876 49847772 50148408 50420552 
1346.599 50669088 50900068 51118084 51325708 51523344 51710276 51886332 
1349.975 52052332 52210152 52361892 52508468 52649684 52783112 52905516 
1353.350 53014208 53107224 53184988 53249428 53303276 53349532 53390352 
1356.725 53427400 53461248 53492652 53521648 53547804 53569564 53583132 
1360.100 53584024 53566204 53524652 53456452 53362256 53246100 53114048 
1363.476 52972844 52827416 52679548 52526964 52364776 52187244 51989904 
1366.851 51771460 51533816 51282112 51022392 50760676 50500376 50242588 
1370.226 49985364 49725264 49457892 49179304 48886584 48577716 48252080 
1373.601 47909536 47550340 47173864 46779092 46363964 45925368 45459784 
1376.977 44964632 44439132 43885200 43307600 42714076 42113480 41514464 
1380.352 40924412 40349328 39792992 39259136 38751632 38275372 37836116 
1383.727 37439244 37089240 36787484 36532348 36318536 36138264 35981520 
1387.102 35838028 35697680 35551516 35392296 35214368 35014272 34790928 
1390.478 34544632 34277632 33993212 33694876 33386492 33071764 32753822 
1393.853 32435246 32117642 31801108 31484726 31166152 30841926 30510020 
1397.228 30169792 29824174 29479254 29143636 28826776 28536706 28277626 
1400.603 28049534 27847954 27665294 27493122 27324616 27155696 26985934 
1403.979 26819062 26661940 26523662 26414500 26344082 26320814 26349646 
1407.354 26432634 26567998 26751446 26977404 27240836 27538650 27869364 
1410.729 28233552 28632042 29065086 29530770 30025954 30546308 31087398 
1414.104 31645090 32214556 32789416 33358838 33908328 34418204 34867404 
1417.479 35236484 35510760 35684116 35758820 35745452 35660384 35523320 
1420.855 35356136 35182084 35026224 34915416 34876524 34934552 35109032 
1424.230 35411028 35843348 36401028 37077156 37864648 38761000 39767560 
1427.605 40888496 42126552 43480808 44945968 46513004 48172568 49916608 
1430.980 51740316 53640348 55612024 57647300 59732872 61852044 63987488 
1434.356 66125380 68258480 70386976 72517512 74659992 76824976 79021328 
1437.731 81256984 83539440 85879432 88292024 90797992 93423568 96197456 
1441.106 99148696 102303184 105680232 109291408 113139144 117217936 
1443.999 121516112 126018632 130709960 135576848 140611024 145810768 
1446.892 151183568 156746672 162526944 168554608 174848688 181393728 
1449.785 188107584 194808320 201189920 206819920 211169536 213678544 
1452.678 213845328 211320144 205976688 197941360 187576528 175426736 
1455.572 162142992 148403008 134834528 121956864 110144008 99614232 90444656 
1458.947 82600600 75974160 70417344 65768400 61868796 58572924 55753468 
1462.322 53303952 51140828 49202344 47447164 45849336 44392632 43064352 
1465.697 41852276 40743356 39724468 38785200 37919484 37125612 36404236 
1469.073 35754988 35173336 34647684 34160476 33689976 33214800 32717806 
1472.448 32190208 31633220 31056734 30477128 29912724 29380484 28892586 
1475.823 28456224 28073634 27744426 27468042 27245898 27082138 26983862 
1479.198 26959540 27018742 27170574 27425318 27793966 28289946 28929232 
1482.573 29730286 30712108 31894438 33295744 34934068 36829392 39006848 
1485.949 41502288 44368928 47684256 51556124 56123628 61550636 68006728 
1489.324 75633024 84495744 94532728 105502192 116953776 128230512 138517536 
1492.699 146936416 152672864 155116448 153972848 149321744 141600320 
1495.592 131517424 119923264 107673224 95515000 84021360 73568512 64352840 
1498.968 56427032 49743376 44192700 39635172 35921212 32905184 30455116 
1502.343 28457344 26818440 25464314 24337082 23390684 22587030 21893600 
1505.718 21283596 20736674 20240378 19789796 19386372 19033972 18735388 
1509.093 18490290 18293728 18136858 18009196 17899636 17799132 17700530 
1512.469 17599876 17495302 17388212 17281790 17181802 17094232 17024852 
1515.844 16976414 16949388 16939770 16940820 16945020 16944364 16933324 
1519.219 16908800 16870772 16820942 16763380 16703095 16645668 16597003 
1522.594 16562378 16545372 16548282 16571123 16611638 16666319 16730007 
1525.969 16797054 16861604 16918204 16962174 16990536 17002960 17002556 
1529.345 16995234 16990346 16997628 17026244 17082306 17167150 17278160 
1532.720 17409374 17553050 17701854 17850046 17994284 18132680 18265170 
1536.095 18391332 18511308 18626032 18737072 18847148 18959662 19078296 
1539.470 19205050 19339516 19478240 19615600 19744392 19858596 19954198 
1542.846 20031274 20093806 20148416 20203694 20267242 20345334 20440218 
1546.221 20551390 20676062 20810134 20949498 21091192 21233052 21372852 
1549.596 21507510 21631880 21739096 21820962 21868900 21875748 21837540 
1552.971 21753766 21628648 21471260 21293774 21111338 20939942 20794108 
1556.347 20685430 20619990 20598180 20613924 20656978 20715502 20779280 
1559.722 20843262 20909042 20983660 21076686 21196950 21348920 21530352 
1563.097 21732526 21941458 22139438 22308876 22433114 22499320 22498416 
1566.472 22426754 22285742 22083130 21832336 21551392 21261274 20982198 
1569.848 20731438 20520990 20356428 20239158 20166622 20135626 20143302 
1573.223 20187596 20267202 20381948 20531996 20719490 20950262 21234728 
1576.598 21589668 22036514 22600102 23303926 24165602 25191946 26374260 
1579.973 27684606 29075084 30478890 31815146 32996658 33940136 34575320 
1583.349 34854736 34760356 34305588 33535090 32518114 31340632 30093912 
1586.724 28865276 27728492 26739944 25934746 25329022 24922040 24701660 
1590.099 24648708 24741824 24961086 25290686 25719394 26242052 26859336 
1593.474 27579052 28415312 29389026 30527124 31859118 33414256 35215756 
1596.850 37276400 39593716 42144772 44883992 47740128 50617424 53397356 
1600.225 55945972 58123552 59798820 60862880 61243588 60914768 59900356 
1603.600 58270404 56131748 53613464 50850940 47971720 45085644 42279852 
1606.975 39618724 37145652 34886980 32856244 31056018 29480946 28118656 
1610.351 26952554 25962404 25126294 24422296 23828904 23326426 22897358 
1613.726 22526986 22203736 21919414 21668266 21447082 21253652 21086822 
1617.101 20945650 20830370 20741434 20679846 20647004 20642654 20664664 
1620.476 20707914 20764576 20825202 20881546 20927678 20962202 20988048 
1623.852 21012404 21043428 21088888 21154132 21241726 21351428 21481708 
1627.227 21632816 21806792 22009398 22249820 22539544 22890120 23311896 
1630.602 23811486 24391134 25048246 25775988 26563734 27397290 28258702 
1633.977 29125202 29968108 30753378 31442866 31998620 32388210 32589804 
1637.353 32595318 32411442 32056846 31558498 30946514 30249958 29493926 
1640.728 28699214 27881802 27055314 26232080 25424942 24647172 23912264 
1644.103 23233398 22621044 22082278 21619804 21231126 20909560 20644508 
1647.478 20423494 20233924 20064798 19907466 19757260 19613180 19477250 
1650.854 19353906 19248664 19166982 19113204 19088802 19092910 19120480 
1654.229 19164050 19214062 19260894 19297100 19318334 19325256 19322646 
1657.604 19319356 19324518 19346118 19387878 19448532 19522048 19599908 
1660.979 19673122 19735856 19786464 19828378 19869638 19919930 19988724 
1664.354 20082222 20201138 20340790 20491510 20640634 20774754 20882760 
1667.730 20957730 20997528 21005704 20988886 20956284 20916428 20877914 
1671.105 20847474 20830686 20831620 20852628 20892924 20947452 21007152 
1674.480 21059916 21092942 21097016 21068276 21010418 20933832 20851944 
1677.855 20777622 20720030 20682260 20662212 20654806 20654890 20659274 
1681.231 20667660 20681788 20704000 20734654 20771806 20811100 20847434 
1684.606 20876718 20896938 20908494 20914014 20916948 20920568 20926836 
1687.981 20936900 20950364 20965962 20981566 20994990 21004318 21009446 
1691.356 21012552 21018312 21033362 21064694 21117228 21192026 21284960 
1694.732 21388530 21493384 21591944 21682004 21766730 21855684 21959876 
1698.107 22089646 22251348 22445554 22668310 22911930 23169836 23438498 
1701.482 23719454 24019424 24347252 24711624 25118118 25567248 26053334 
1704.857 26567578 27100684 27646248 28205142 28785852 29404412 30080682 
1708.233 30834508 31680666 32626346 33670712 34806220 36023384 37315508 
1711.608 38681468 40127912 41668000 43319000 45097600 47017128 49084592 
1714.983 51300604 53659300 56151400 58765148 61489516 64315012 67234112 
1718.358 70241224 73330760 76496112 79726752 83007232 86317392 89632008 
1721.734 92923448 96164568 99330856 102401208 105358024 108185520 110867304 
1725.109 113384032 115712952 117828672 119706200 121323336 122663104 
1728.002 123714648 124472528 124934704 125100568 124970064 124542992 
1730.895 123820392 122805376 121504688 119927840 118088672 116004704 
1733.788 113695968 111185304 108495936 105650080 102666712 99560016 96339928 
1737.163 93014888 89594672 86094688 82538888 78959424 75394560 71883224 
1740.539 68459336 65148436 61966028 58918992 56009060 53236156 50601444 
1743.914 48109144 45766028 43579672 41557024 39701192 38010052 36474856 
1747.289 35080612 33808052 32635928 31544532 30519342 29552480 28643412 
1750.664 27797694 27022496 26325294 25708574 25169626 24699528 24285484 
1754.040 23912462 23566156 23234692 22909842 22587234 22265664 21946870 
1757.415 21633432 21327732 21030914 20743212 20462946 20187896 19916810 
1760.790 19649804 19389504 19140586 18909628 18703150 18526296 18381650 
1764.165 18267540 18178410 18105768 18038840 17967388 17884274 17787704 
1767.541 17681564 17575856 17483414 17416832 17383978 17384334 17410248 
1770.916 17446742 17476888 17486030 17466218 17417554 17346750 17264010 
1774.291 17179250 17098482 17023988 16954632 16889756 16829898 16778140 
1777.666 16737547 16710300 16694173 16682377 16665991 16635977 16586777 
1781.042 16517477 16431864 16335055 16232297 16124733 16012292 15893415 
1784.417 15768517 15642181 15521470 15415863 15332971 15276062 15243706 
1787.792 15230662 15230481 15238333 15251085 15267835 15288220 15309582 
1791.167 15328293 15339381 15341146 15335885 15332012 15341165 15374814 
1794.542 15438984 15531647 15641782 15752176 15845025 15907668 15935702 
1797.918 15935600 15921326 15910324 15918726 15957380 16029721 16132131 
1801.293 16255938 16389880 16522633 16644495 16748797 16831794 16892606 
1804.668 16932738 16955418 16963674 16959278 16943070 16914374 16872376 
1808.043 16817816 16754963 16690671 16634617 16595991 16580012 16585160 
1811.419 16601529 16611466 16593993 16528845 16403116 16214520 15974211 
1814.794 15705327 15438907 15208315 15043050 14963179 14975312 15072769 
1818.169 15236184 15439345 15653916 15854934 16024537 16153011 16238704 
1821.544 16285265 16298266 16282547 16240178 16170047 16069969 15939992 
1824.920 15785426 15618404 15457068 15322265 15230670 15189637 15192285 
1828.295 15217658 15235938 15214748 15129281 14968387 14737182 14454453 
1831.670 14147089 13842957 13565031 13328990 13142120 13005041 12913194 
1835.045 12855910 12818125 12780324 12722654 12629464 12495791 12330466 
1838.421 12154698 11996689 11880319 11816734 11798544 11802130 11796864 
1841.796 11757469 11674885 11560548 11442324 11353798 11322309 11357319 
1845.171 11449275 11574849 11705101 11815320 11890451 11925118 11920834 
1848.546 11879871 11804384 11697150 11564316 11417691 11274188 11152093 
1851.922 11064975 11017954 11007253 11024124 11062611 11123108 11214673 
1855.297 11347746 11527066 11742399 11966076 12157881 12276457 12292583 
1858.672 12200110 12018875 11788131 11556771 11368433 11252944 11223151 
1862.047 11275353 11396426 11569923 11779441 12010241 12250818 12491023 
1865.423 12723383 12943741 13150694 13344659 13525873 13692363 13840079 
1868.798 13964461 14065544 14149859 14229997 14322672 14441469 14589822 
1872.173 14760385 14937200 15102823 15246294 15369804 15485608 15611487 
1875.548 15758228 15922438 16083779 16210401 16269011 16237644 16112432 
1878.924 15909726 15659422 15395928 15150410 14944757 14792686 14700424 
1882.299 14670665 14701479 14785866 14910792 15057732 15208400 15350320 
1885.674 15482404 15615592 15765816 15944576 16148591 16355056 16526047 
1889.049 16620638 16609738 16488995 16281500 16030444 15785599 15585292 
1892.425 15446202 15361951 15309428 15260074 15191839 15094604 14970219 
1895.800 14826024 14670906 14510049 14344213 14173784 13999722 13822731 
1899.175 13642807 13455536 13251645 13020446 12755227 12461113 12158959 
1902.550 11882088 11668667 11550099 11539207 11626723 11782088 11963051 
1905.926 12127864 12244133 12295132 12277778 12197163 12060954 11875488 
1909.301 11642879 11368326 11059603 10731023 10403562 10100110 9840914 
1912.676 9638598 9498741 9418279 9389801 9406665 9466151 9570416 9724971 
1916.533 9933545 10195126 10498350 10817541 11117815 11358469 11502068 
1919.909 11521210 11405215 11162101 10816326 10401918 9957282 9518522 
1923.284 9117010 8778549 8521979 8360877 8298675 8322470 8403324 8492996 
1927.141 8534597 8474665 8278821 7948156 7522263 7074388 6692533 6459741 
1930.999 6429892 6616144 6990210 7493496 8055007 8608241 9108023 9533670 
1934.856 9886699 10180986 10435840 10664777 10872110 11050067 11182476 
1938.231 11247799 11227356 11111522 10911330 10660567 10418217 10256537 
1941.607 10245084 10428783 10808945 11332870 11901195 12391219 12689594 
1944.982 12731794 12522242 12141842 11726378 11428724 11371387 11606251 
1948.357 12096440 12723024 13323541 13743339 13888609 13756772 13443978 
1951.732 13111376 12936942 13050509 13491916 14190231 14984680 15670875 
1955.108 16065063 16058262 15646296 14924983 14054999 13210384 12534129 
1958.483 12096114 11890223 11849898 11887582 11928643 11935662 11919684 
1961.858 11921493 11994842 12185981 12522069 13010386 13637024 14373586 
1965.233 15173041 15972106 16689857 17245438 17568024 17628566 17438860 
1968.609 17066966 16614426 16193228 15895508 15777290 15848536 16092794 
1971.984 16472239 16952674 17504064 18102884 18723124 19333740 19910860 
1975.359 20449564 20972352 21523846 22148466 22848578 23554172 24121736 
1978.734 24370588 24156760 23432950 22288620 20937190 19657752 18715374 
1982.110 18287810 18409954 18972212 19752478 20492080 20968398 21055170 
1985.485 20735428 20080382 19204958 18223764 17214536 16227612 15298546 
1988.860 14479720 13851874 13512093 13544438 13980790 14770375 15774408 
1992.235 16793344 17610784 18040630 17971344 17382406 16339283 14964350 
1995.611 13410422 11825481 10335728 9036679 7992940 7241288 6796258 6646518 
1999.468 6762282 7090869 7559058 8077170 8550635 8891493 9042309 8990913 
2003.325 8791102 8560063 8464416 8677554 9325963 10439374 11913161 13512829 
2007.183 14936629 15897170 16219646 15895721 15084326 14058982 13115210 
2010.558 12472458 12216823 12280850 12487246 12615581 12491335 12047545 
2013.933 11350579 10566484 9905392 9537280 9538278 9854399 10325334 10735645 
2017.791 10895983 10702327 10174754 9444551 8706835 8139686 7837801 7779134 
2021.648 7835729 7825430 7591085 7072370 6334550 5552795 4957728 4746056 
2025.506 5029067 5788736 6907801 8210198 9524511 10725574 11747588 12567364 
2029.363 13188969 13615123 13855104 13939804 13930466 13921736 14020263 
2032.738 14296935 14763067 15341477 15899541 16299369 16453663 16363982 
2036.114 16114516 15834570 15649861 15623399 15749579 15969768 16206210 
2039.489 16398981 16522188 16580850 16585870 16527010 16368333 16057242 
2042.864 15549992 14836859 13956380 12985428 12028751 11185947 10548061 
2046.239 10193592 10194208 10609403 11463889 12713327 14216049 15727950 
2049.615 16959436 17650674 17657600 16994472 15831418 14440249 13118164 
2052.990 12103375 11518129 11349609 11471963 11707581 11904513 11982346 
2056.365 11946971 11859508 11793352 11789415 11839789 11898623 11915792 
2059.740 11862771 11755086 11641073 11581184 11619738 11768930 12006173 
2063.115 12291609 12583231 12850384 13074631 13238627 13320621 13293300 
2066.491 13133465 12842897 12464630 12086696 11825047 11796687 12082572 
2069.866 12701228 13600995 14669504 15765125 16745441 17498804 17962352 
2073.241 18125684 18026852 17735566 17339400 16920812 16545366 16243374 
2076.616 16011937 15815675 15607254 15342124 15000413 14592029 14156272 
2079.992 13740680 13385039 13103455 12883733 12693972 12503325 12300037 
2083.367 12101106 11947324 11886271 11951661 12144660 12428580 12738448 
2086.742 12999391 13148817 13150521 13001873 12726359 12360978 11941631 
2090.117 11496685 11040535 10583426 10131942 9700302 9310976 8992510 8773454 
2093.975 8678249 8716679 8884017 9156996 9501895 9879659 10258805 10617048 
2097.832 10946257 11248847 11528859 11785123 12005343 12170283 12258571 
2101.208 12257364 12170409 12019127 11838087 11663072 11521040 11424635 
2104.583 11373806 11362288 11387493 11452278 11562964 11720027 11909516 
2107.958 12101956 12259976 12355694 12387350 12387064 12414699 12532176 
2111.333 12777602 13138114 13544170 13884490 14038870 13916851 13483882 
2114.708 12772452 11866636 10875192 9904285 9035090 8320618 7792877 7472190 
2118.566 7371782 7497322 7831988 8324332 8883346 9395169 9743256 9847011 
2122.423 9681736 9293082 8781604 8274507 7888064 7699227 7726819 7936912 
2126.281 8256320 8594402 8862948 8987744 8910893 8593511 8016258 7186556 
2130.138 6142567 4960172 3748126 2634500 1741153 1160832 930726 1023140 
2133.996 1351151 1792578 2222502 2547529 2722902 2762421 2715255 2650386 
2137.853 2626975 2686540 2842232 3091390 3415226 3790369 4179796 4534058 
2141.710 4788039 4867738 4715271 4321248 3740437 3104844 2599285 2414586 
2145.568 2683863 3433508 4574376 5924165 7269558 8441032 9359359 10045715 
2149.425 10575487 11022902 11392548 11598407 11488792 10903161 9742938 
2152.801 8029449 5892352 3547990 1223955 -884046 -2638553 -3936194 -4670731 
2156.658 -4684644 -3792780 -1841979 1187557 5092219 9446104 13708240 
2160.033 17404640 20280994 22320270 23692618 24614930 25242490 25612436 
2163.408 25661458 25300692 24486916 23277618 21829946 20359744 19066448 
2166.784 18076196 17426048 17069876 16925330 16901514 16921370 16913492 
2170.159 16805840 16518015 15974702 15143493 14059145 12833052 11645183 
2173.534 10681718 10089674 9924076 10128676 10566695 11062220 11461435 
2176.909 11661693 11637324 11415077 11061260 10671132 10358005 10262971 
2180.285 10522981 11249769 12473274 14103877 15919309 17616114 18887514 
2183.660 19532980 19518602 18994548 18236204 17548284 17161418 17176118 
2187.035 17542992 18116324 18717970 19208602 19523342 19666342 19675338 
2190.410 19587210 19413180 19140872 18757856 18273462 17732692 17202800 
2193.786 16749980 16413363 16193872 16063979 15990715 15962705 16001141 
2197.161 16155094 16472168 16969988 17614000 18320660 18971130 19452396 
2200.536 19684226 19643354 19360970 18909842 18381434 17865434 17431124 
2203.911 17121176 16949906 16911530 16975466 17100374 17239928 17354624 
2207.287 17416654 17417028 17365702 17282758 17193752 17125430 17101582 
2210.662 17146546 17284166 17539096 17925392 18440530 19052192 19706050 
2214.037 20327360 20849914 21223876 21434058 21501712 21470344 21390526 
2217.412 21306538 21244386 21218200 21229046 21274028 21348200 21444300 
2220.788 21545338 21627004 21663244 21636772 21545446 21412142 21280296 
2224.163 21202050 21224278 21379082 21679740 22126846 22717990 23454880 
2227.538 24350506 25425878 26702414 28203246 29946618 31952918 34241644 
2230.913 36826376 39703048 42835612 46146376 49517904 52811928 55895452 
2234.289 58666488 61068948 63088180 64730532 65993944 66851148 67246840 
2237.664 67114672 66410476 65136708 63357936 61194468 58793096 56299040 
2241.039 53826744 51447964 49193920 47069548 45067848 43177732 41385528 
2244.414 39670064 38000372 36341336 34661604 32949268 31221466 29523242 
2247.790 27917230 26467544 25222142 24200384 23394758 22776184 22306566 
2251.165 21951316 21684516 21491126 21366882 21313012 21333980 21434492 
2254.540 21612562 21855524 22134950 22405932 22612450 22700160 22628008 
2257.915 22383220 21983116 21471850 20907176 20347260 19837398 19407804 
2261.291 19071796 18834748 18695592 18651976 18692862 18801804 18952866 
2264.666 19118390 19276818 19420408 19556264 19703838 19881848 20095002 
2268.041 20331916 20567372 20772114 20928364 21039908 21129448 21228494 
2271.416 21362576 21534966 21724158 21889748 21986654 21982072 21866852 
2274.792 21653986 21374820 21063574 20752832 20466086 20221502 20037786 
2278.167 19932348 19921546 20011290 20190564 20431410 20693166 20935340 
2281.542 21133958 21286194 21413554 21549712 21724378 21952376 22222000 
2284.917 22501796 22751262 22933306 23027298 23032928 22966660 22854452 
2288.292 22721106 22584542 22452592 22324022 22191530 22047204 21883982 
2291.668 21700074 21497656 21282698 21065910 20859402 20674730 20520514 
2295.043 20400950 20315654 20260918 20232560 20227492 20245486 20286174 
2298.418 20347630 20422484 20496986 20554098 20575368 20547702 20466706 
2301.793 20337270 20174020 19997100 19827770 19685406 19586132 19539776 
2305.169 19550090 19611596 19710760 19825332 19929512 19998410 20015696 
2308.544 19979616 19903798 19814762 19743650 19717558 19752440 19849508 
2311.919 19996872 20175500 20364320 20545822 20707780 20844468 20954210 
2315.294 21039646 21107494 21169334 21239906 21336074 21473864 21666188 
2318.670 21922770 22251630 22662080 23164968 23767808 24464772 25225274 
2322.045 25984452 26645100 27091464 27215232 26942394 26257224 25208004 
2325.420 23900338 22474450 21075490 19827030 18807946 18044068 17514168 
2328.795 17164814 16935030 16774969 16657015 16576856 16543621 16568247 
2332.171 16651869 16783304 16939650 17093326 17221370 17309504 17354318 
2335.546 17360422 17337864 17296008 17242712 17183570 17123144 17065688 
2338.921 17016016 16979008 16957756 16952894 16962458 16982674 17008974 
2342.296 17037332 17064602 17089032 17108578 17120392 17120358 17104364 
2345.672 17069074 17012748 16937898 16850612 16760610 16677137 16608035 
2349.047 16557021 16522758 16499087 16476592 16446564 16401723 16339600 
2352.422 16261460 16171966 16077690 15984334 15896175 15814327 15736256 
2355.797 15658075 15574245 15479601 15370816 15247646 15115002 14980818 
2359.173 14856425 14752067 14674325 14621943 14585178 14547520 14489529 
2362.548 14395241 14256540 14076837 13870337 13657365 13459354 13292341 
2365.923 13165225 13078730 13028100 13006450 13009017 13031296 13070988 
2369.298 13124134 13185576 13249350 13311005 13369822 13430255 13498444 
2372.674 13579882 13673869 13770293 13851772 13897966 13892253 13828624 
2376.049 13715109 13571880 13425104 13299910 13213065 13170172 13165655 
2379.424 13187886 13224022 13262488 13295700 13317414 13322827 13307136 
2382.799 13266644 13203427 13125228 13048202 12993313 12982897 13032746 
2386.175 13149871 13328571 13553364 13802504 14052927 14284413 14481846 
2389.550 14635072 14738980 14791763 14793782 14749347 14665270 14550134 
2392.925 14415268 14272004 14131676 14005222 13903819 13838496 13819724 
2396.300 13854526 13944875 14082039 14248268 14415072 14549405 14621173 
2399.676 14609517 14508667 14329888 14098892 13849791 13616376 13427505 
2403.051 13300767 13243107 13252217 13318939 13432343 13581088 13753169 
2406.426 13936984 14119527 14288347 14430000 14534670 14598683 14623865 
2409.801 14619260 14597568 14574247 14561770 14568976 14598876 14649619 
2413.177 14716358 14791561 14870126 14946696 15018593 15084106 15144289 
2416.552 15201414 15259452 15325240 15404956 15504307 15626565 15767191 
2419.927 15917415 16061202 16182177 16264591 16299205 16285576 16231265 
2423.302 16151328 16061828 15977027 15904678 15844377 15789112 15729422 
2426.677 15656734 15566230 15461251 15351993 15252829 15179026 15144390 
2430.053 15157850 15221640 15333346 15486225 15669689 15872808 16083004 
2433.428 16287096 16471896 16626235 16741563 16814394 16846752 16845904 
2436.803 16821348 16782504 16737493 16690083 16644711 16606050 16584126 
2440.178 16592495 16644156 16745957 16892522 17062266 17219848 17324442 
2443.554 17342592 17260332 17089726 16868876 16649051 16482273 16402954 
2446.929 16418867 16511127 16641408 16766066 16851800 16882074 16861980 
2450.304 16810532 16752301 16708160 16690485 16702684 16740637 16798258 
2453.679 16868294 16943150 17012420 17064362 17085322 17064532 16998412 
2457.055 16894636 16771231 16652750 16564764 16523661 16534099 16586762 
2460.430 16662376 16738111 16795068 16821226 16814660 16780900 16729055 
2463.805 16667739 16603496 16538905 16475780 16414793 16359011 16311754 
2467.180 16279671 16266830 16274739 16302502 16343478 16390290 16433543 
2470.556 16467834 16491005 16505778 16517485 16532434 16553797 16580911 
2473.931 16609197 16632585 16646069 16648477 16642142 16630134 16612539 
2477.306 16583096 16530715 16443469 16316753 16159816 15998591 15871514 
2480.681 15818553 15867341 16020045 16250888 16512100 16747992 16912384 
2484.057 16983720 16967618 16893714 16798962 16715888 16660061 16628737 
2487.432 16607855 16582450 16545225 16499028 16453404 16415715 16386388 
2490.807 16354291 16303156 16219823 16103188 15968414 15842913 15757613 
2494.182 15735758 15782744 15887126 16024040 16165631 16288407 16379403 
2497.558 16435491 16459841 16457301 16431984 16389415 16338507 16295575 
2500.933 16282145 16319860 16423400 16593490 16815464 17062164 17304466 
2504.308 17519422 17697552 17843466 17970794 18092528 18213818 18326884 
2507.683 18415162 18457920 18440586 18360428 18228498 18065162 17896968 
2511.059 17746152 17628368 17549790 17508832 17499080 17513354 17543628 
2514.434 17583058 17625804 17667214 17704824 17738386 17770686 17807320 
2517.809 17853720 17914132 17987552 18069822 18150180 18214950 18252064 
2521.184 18250884 18206374 18120052 18000482 17863032 17727160 17614630 
2524.560 17545150 17533626 17584586 17692214 17839366 18001656 18150326 
2527.935 18260146 18313882 18306558 18246396 18151276 18044618 17950634 
2531.310 17887222 17862920 17876982 17920556 17981722 18049064 18116000 
2534.685 18183818 18258842 18351064 18468450 18614182 18782048 18958296 
2538.061 19122402 19252188 19327754 19336132 19274718 19151186 18982316 
2541.436 18793188 18609676 18456534 18350208 18297314 18290242 18310762 
2544.811 18334036 18334250 18293902 18208428 18088618 17958226 17848126 
2548.186 17784752 17784258 17847274 17958308 18092150 18221246 18325656 
2551.562 18396936 18440648 18471906 18510314 18570848 18659458 18769800 
2554.937 18885958 18985894 19047884 19056388 19007068 18905850 18768568 
2558.312 18617722 18475458 18362554 18292210 18270906 18297290 18366300 
2561.687 18467694 18591582 18727528 18866392 19001778 19127896 19242318 
2565.063 19344598 19434642 19512524 19575988 19620264 19639272 19627284 
2568.438 19583166 19513388 19434062 19367532 19337196 19361452 19445442 
2571.813 19579676 19742250 19903694 20037096 20125412 20164008 20161702 
2575.188 20134202 20097658 20065532 20045214 20040618 20055232 20093860 
2578.563 20163460 20268070 20404670 20560312 20712200 20834196 20903350 
2581.939 20910134 20861038 20777842 20689036 20622178 20592102 20599344 
2585.314 20629888 20663662 20680432 20669102 20628074 20563810 20486420 
2588.689 20405250 20325196 20248694 20178368 20118600 20078296 20067086 
2592.064 20092328 20154302 20246132 20353046 20460098 20555292 20635640 
2595.440 20707966 20784000 20876980 20993752 21132146 21279820 21419402 
2598.815 21532814 21608876 21646158 21652900 21644440 21638436 21648950 
2602.190 21682930 21739866 21811070 21884322 21947580 21990708 22010712 
2605.565 22009766 21996140 21980754 21974424 21984308 22011010 22050592 
2608.941 22093980 22132004 22159638 22176872 22189874 22209418 22243872 
2612.316 22296434 22361120 22423438 22465384 22470762 22433818 22361516 
2615.691 22274338 22200308 22168502 22198672 22297130 22453574 22646388 
2619.066 22846558 23027172 23168810 23262658 23311430 23326626 23325240 
2622.442 23326072 23347036 23400830 23493522 23623086 23778468 23940760 
2625.817 24087936 24198926 24259816 24267832 24231016 24168218 24100692 
2629.192 24048260 24021886 24023710 24046982 24081572 24117060 24147310 
2632.567 24171508 24193222 24216906 24247366 24286664 24333736 24386888 
2635.943 24442654 24496470 24545576 24584886 24611702 24624152 24624630 
2639.318 24618852 24615668 24623200 24646652 24683876 24725672 24758366 
2642.693 24769858 24754332 24716248 24671792 24642814 24650350 24706246 
2646.068 24809020 24942208 25081384 25199186 25274530 25298062 25271892 
2649.444 25208392 25123688 25033932 24948912 24873554 24808506 24750070 
2652.819 24695842 24643030 24589572 24534388 24476674 24416148 24354172 
2656.194 24292708 24233744 24178900 24126820 24074092 24014604 23941958 
2659.569 23851218 23740202 23610088 23463916 23305388 23137650 22961860 
2662.945 22779202 22591818 22404852 22225946 22065090 21931376 21830306 
2666.320 21761514 21719540 21694110 21674614 21651962 21622180 21585638 
2669.695 21546458 21511686 21487268 21479246 21491330 21525960 21583610 
2673.070 21662304 21756732 21857976 21953932 22031140 22077752 22087424 
2676.446 22059950 22003638 21931302 21858586 21798684 21760464 21745748 
2679.821 21751470 21770134 21794232 21817158 21833846 21841756 21839256 
2683.196 21825876 21801712 21768752 21731428 21696180 21671612 21665620 
2686.571 21682568 21721470 21776256 21836060 21887534 21920600 21929070 
2689.947 21913200 21879894 21839666 21803334 21779616 21773974 21787146 
2693.322 21815594 21854964 21900074 21944656 21984438 22015308 22033626 
2696.697 22036656 22023568 21995812 21956658 21913208 21871660 21838752 
2700.072 21817774 21810090 21813346 21822620 21832626 21838986 21839048 
2703.448 21833180 21823750 21816140 21815282 21825928 21850640 21888976 
2706.823 21936458 21985606 22027088 22050756 22049106 22018184 21959534 
2710.198 21879832 21790308 21703872 21632694 21586202 21568532 21579504 
2713.573 21613010 21660996 21713942 21765084 21810278 21851094 21892380 
2716.948 21940742 22001694 22075872 22158252 22237452 22300060 22332942 
2720.324 22329554 22291896 22230800 22163526 22106340 22070366 22057634 
2723.699 22060348 22064618 22056662 22028646 21983044 21931544 21892076 
2727.074 21880948 21908106 21971826 22060348 22154336 22233904 22284188 
2730.449 22299276 22281732 22242142 22193314 22147982 22114802 22098410 
2733.825 22098706 22112662 22135120 22160348 22181896 22194854 22195532 
2737.200 22184570 22165926 22146170 22134630 22138524 22161106 22199782 
2740.575 22246336 22287542 22310986 22307136 22273658 22215256 22141746 
2743.950 22064690 21994192 21935156 21887586 21847048 21808532 21769822 
2747.326 21733504 21706718 21699868 21721200 21775938 21862058 21971410 
2750.701 22092794 22212734 22320380 22409484 22476042 22519488 22540532 
2754.076 22540202 22520342 22484940 22440224 22396512 22365440 22356330 
2757.451 22375036 22420288 22484268 22554980 22619852 22670396 22704182 
2760.827 22725394 22742600 22765320 22800724 22850980 22913102 22981778 
2764.202 23048154 23105116 23146316 23168104 23169150 23150296 23115824 
2767.577 23072928 23030486 22998964 22986796 22999308 23037272 23097236 
2770.952 23172192 23255610 23343080 23432368 23524222 23619858 23718540 
2774.328 23816694 23908600 23988170 24049470 24091558 24116488 24130906 
2777.703 24142326 24158722 24185644 24226292 24281236 24348702 24423990 
2781.078 24503540 24581996 24655870 24723000 24784222 24842450 24900898 
2784.453 24961714 25023402 25080310 25123760 25146772 25146028 25125960 
2787.829 25098714 25081270 25089286 25132400 25210162 25311560 25419412 
2791.204 25516928 25592182 25643276 25677286 25706292 25744014 25799328 
2794.579 25875374 25969246 26074882 26186334 26298974 26411278 26523162 
2797.954 26634894 26745348 26854332 26959756 27060486 27155270 27242032 
2801.330 27318006 27379292 27422560 27447222 27456786 27459990 27469276 
2804.705 27496716 27550304 27631488 27733534 27845514 27955446 28055624 
2808.080 28144984 28228666 28315616 28413082 28525456 28651412 28786196 
2811.455 28925612 29069290 29220954 29389578 29583594 29808364 30062396 
2814.831 30337790 30620700 30897936 31159906 31402968 31630930 31853828 
2818.206 32082978 32330562 32605614 32914788 33262734 33651620 34081604 
2821.581 34550728 35053084 35580168 36120756 36664848 37205780 37745400 
2824.956 38293352 38866168 39484012 40164300 40917516 41743544 42633348 
2828.332 43571664 44542984 45537172 46553036 47597264 48681468 49816692 
2831.707 51008876 52255772 53547960 54873144 56219924 57584748 58971644 
2835.082 60392404 61862088 63394248 64996064 66667764 68402592 70188192 
2838.457 72012048 73862248 75728232 77601344 79473872 81338384 83188880 
2841.833 85021776 86838048 88644416 90453200 92279696 94138664 96041160 
2845.208 97988992 99972848 101967944 103935616 105823168 107570080 109111696 
2848.583 110389360 111357488 111991752 112292208 112284224 112013336 
2851.476 111538632 110923952 110229704 109505816 108789312 108102720 
2854.369 107455600 106846840 106266544 105700448 105131632 104543976 
2857.262 103924688 103267024 102569808 101838512 101082152 100311824 
2860.155 99536408 98762232 97990552 97219448 96444224 95662296 94871512 
2863.531 94075224 93281776 92502672 91750568 91036296 90366304 89739848 
2866.906 89149000 88580776 88021936 87462832 86901888 86346816 85813600 
2870.281 85323232 84895288 84544032 84274280 84083280 83961392 83896160 
2873.656 83878464 83901312 83964064 84069040 84219400 84418448 84667152 
2877.031 84964840 85309968 85700720 86137480 86619944 87150064 87729824 
2880.407 88360808 89043240 89776624 90557968 91382584 92245920 93141280 
2883.782 94066216 95020144 96007176 97036008 98116312 99257328 100462896 
2887.157 101729768 103047224 104397336 105759312 107114336 108448248 
2890.050 109755992 111041104 112313576 113586976 114874536 116185696 
2892.943 117523120 118884720 120263376 121650624 123040672 124429784 
2895.836 125820968 127220896 128639056 130085336 131567880 133090752 
2898.729 134654800 136257760 137895824 139564928 141262416 142988368 
2901.623 144746256 146543760 148391808 150304784 152298192 154384048 
2904.516 156570080 158854592 161227696 163670976 166164592 168691280 
2907.409 171242192 173819184 176434816 179108080 181856144 184691536 
2910.302 187615952 190620448 193687312 196792816 199910704 203015232 
2913.195 206078800 209074624 211974192 214749696 217375376 219828496 
2916.088 222092368 224152480 225997904 227617104 228998288 230131968 
2918.981 231012976 231645216 232042928 232233008 232247536 232120320 
2921.874 231880080 231546880 231129312 230628304 230039536 229357920 
2924.767 228580016 227704992 226736016 225679568 224546256 223351456 
2927.660 222114992 220860592 219610128 218379456 217173824 215984592 
2930.553 214791264 213565136 212278336 210909040 209446896 207894720 
2933.446 206265472 204577584 202849648 201097568 199331520 197558848 
2936.339 195782256 194002784 192219264 190428256 188624464 186801488 
2939.232 184954176 183080080 181180816 179262672 177333264 175400112 
2942.125 173466624 171532240 169591904 167640832 165675744 163698224 
2945.019 161715536 159738032 157776016 155837280 153923360 152030880 
2947.912 150151984 148278208 146401184 144516400 142621136 140715040 
2950.805 138798128 136871216 134935584 132994232 131052672 129119176 
2953.698 127200872 125304656 123430584 121573976 119723368 117865848 
2956.591 115989344 114088672 112167576 110237648 108316008 106421288 
2959.484 104566424 102756480 100987696 99249624 97529792 95820376 94120008 
2962.859 92437424 90787464 89186600 87648000 86177128 84769192 83410896 
2966.234 82086304 80782016 79493072 78227080 76999616 75835536 74757408 
2969.610 73782352 72915000 72146920 71458440 70824840 70219720 69623216 
2972.985 69024112 68419984 67816496 67223776 66651076 66105320 65588772 
2976.360 65099752 64631604 64176336 63724912 63268320 62799016 62312420 
2979.735 61806092 61283220 60750464 60218500 59700428 59210436 58761640 
2983.111 58362784 58017476 57724044 57472540 57248412 57032616 56805728 
2986.486 56550484 56256968 55926844 55573968 55223556 54908044 54659648 
2989.861 54504200 54453164 54501528 54628560 54805360 55001388 55193456 
2993.236 55372152 55544940 55733416 55967872 56279840 56698336 57241376 
2996.612 57916196 58719548 59636764 60646152 61719044 62822856 63923044 
2999.987 64985400 65979832 66882284 67676152 68353568 68911872 69351272 
3003.362 69671512 69868840 69935616 69862600 69643456 69276840 68772552 
3006.737 68151808 67446392 66694564 65937088 65208816 64537928 63939012 
3010.113 63417956 62972324 62596692 62288444 62050712 61894032 61838112 
3013.488 61907148 62127812 62526576 63124508 63936664 64971960 66231316 
3016.863 67711616 69404928 71302144 73394448 75673568 78132536 80765184 
3020.238 83562152 86510600 89586992 92758376 95979184 99192880 102335400 
3023.614 105338736 108136288 110666832 112876928 114721096 116163384 
3026.507 117174816 117732928 117823648 117440224 116587440 115280920 
3029.400 113550944 111440368 109003896 106304880 103410360 100387360 
3032.293 97299736 94203120 91143952 88159640 85277832 82520680 79901704 
3035.668 77430256 75110920 72940960 70913728 69017304 67237336 65558964 
3039.043 63971652 62467996 61048400 59715812 58475660 57332064 56285644 
3042.418 55332444 54466420 53680700 52971216 52338384 51786232 51319832 
3045.794 50944264 50659828 50462176 50344408 50299832 50327820 50434620 
3049.169 50635716 50951448 51401300 51997424 52740208 53613760 54589296 
3052.544 55630080 56698272 57764268 58809976 59832032 60839204 61847952 
3055.919 62874764 63930416 65014748 66114476 67205096 68254152 69225464 
3059.295 70085016 70804360 71362848 71747152 71950088 71968168 71800648 
3062.670 71447336 70912968 70207336 69349552 68364112 67284680 66145904 
3066.045 64981000 63816220 62668508 61547416 60455956 59394520 58365452 
3069.420 57374356 56428796 55538232 54710848 53954188 53273136 52672608 
3072.796 52156740 51728752 51390852 51140656 50971076 50871520 50829744 
3076.171 50838564 50898632 51020256 51222752 51526564 51946968 52483788 
3079.546 53118984 53815640 54525404 55195556 55780976 56250308 56588912 
3082.921 56794688 56872960 56827912 56657252 56349700 55889164 55260520 
3086.297 54457416 53488716 52378328 51165304 49893128 48602556 47322592 
3089.672 46066564 44834612 43620556 42418752 41235292 40088932 39010704 
3093.047 38034428 37189116 36487524 35923192 35473460 35107008 34793704 
3096.422 34514900 34267328 34061188 33913328 33837452 33839764 33912216 
3099.798 34036616 34189300 34346576 34490636 34609128 34696660 34749732 
3103.173 34766420 34744072 34681188 34577248 34435692 34260980 34059736 
3106.548 33837252 33596052 33336144 33054468 32747644 32412420 32046896 
3109.923 31650558 31224478 30771296 30297150 29810484 29324478 28854086 
3113.299 28414060 28015844 27665340 27360092 27092834 26852192 26628358 
3116.674 26414924 26210612 26018376 25841594 25683094 25541734 25414032 
3120.049 25294624 25180458 25069314 24964682 24870980 24792844 24732818 
3123.424 24689844 24659400 24634536 24609238 24581088 24549974 24520642 
3126.800 24498160 24486322 24485458 24489756 24488884 24469546 24421054 
3130.175 24338132 24225412 24095558 23969586 23869776 23814512 23813424 
3133.550 23864842 23957604 24074492 24197136 24310524 24404698 24474366 
3136.925 24517488 24532050 24515500 24465062 24379888 24263136 24121792 
3140.301 23968668 23816782 23678742 23563332 23473740 23410824 23371930 
3143.676 23354856 23358756 23383216 23428040 23491850 23573288 23669184 
3147.051 23775824 23889728 24006532 24119028 24218084 24293486 24335984 
3150.426 24340130 24308574 24253100 24191440 24143268 24123992 24138632 
3153.802 24178696 24226750 24259178 24257032 24211678 24128958 24027266 
3157.177 23933324 23870656 23855456 23889874 23964774 24062920 24167078 
3160.552 24267004 24361852 24460358 24574574 24712632 24874636 25046642 
3163.927 25206008 25326138 25384688 25372102 25293382 25166982 25016302 
3167.302 24865384 24728640 24609398 24503168 24401294 24300146 24202822 
3170.678 24121722 24074070 24074842 24130162 24234918 24372138 24516906 
3174.053 24644704 24735292 24777924 24771726 24723422 24644030 24546194 
3177.428 24440616 24334906 24235714 24145710 24068442 24006270 23961342 
3180.803 23935810 23931178 23945208 23972330 24002786 24023918 24023476 
3184.179 23994482 23938640 23868822 23806290 23773596 23787288 23850190 
3187.554 23947812 24051924 24130484 24157786 24124988 24044102 23945346 
3190.929 23867652 23846840 23905636 24049360 24264404 24524884 24798306 
3194.304 25051604 25253708 25380102 25412726 25343866 25181700 24950904 
3197.680 24691392 24452882 24281846 24209360 24241700 24358536 24518152 
3201.055 24670382 24773976 24806328 24768910 24683522 24583092 24497766 
3204.430 24446456 24432520 24444950 24465488 24475870 24463766 24426022 
3207.805 24369562 24308104 24259722 24240756 24263768 24331596 24437330 
3211.181 24564218 24692134 24799616 24874852 24917164 24939656 24961614 
3214.556 25000812 25066158 25150838 25233372 25285662 25282720 25213894 
3217.931 25087520 24931048 24780848 24674144 24635712 24674370 24782116 
3221.306 24938794 25120092 25302990 25470740 25612674 25722566 25796270 
3224.682 25831686 25826736 25782478 25702612 25596052 25474766 25351278 
3228.057 25239200 25148000 25083686 25045492 25028316 25022788 25018352 
3231.432 25005084 24978838 24941684 24902556 24873338 24865708 24885776 
3234.807 24932028 24995542 25064090 25128078 25183900 25236240 25294280 
3238.183 25368286 25461658 25567516 25669918 25748410 25784718 25769418 
3241.558 25705652 25607852 25497782 25399060 25329198 25300026 25315496 
3244.933 25373442 25467098 25585754 25716614 25843796 25948672 26015658 
3248.308 26034424 26004964 25937764 25852128 25771956 25717422 25701058 
3251.684 25722422 25770570 25828058 25875356 25897528 25888628 25852708 
3255.059 25802060 25754470 25729726 25744960 25811300 25931418 26098192 
3258.434 26295500 26501364 26692128 26846760 26951352 27000488 26997982 
3261.809 26953066 26878180 26785314 26685268 26587728 26501076 26432920 
3265.185 26389980 26375576 26389508 26424936 26473504 26525282 26572878 
3268.560 26614318 26654110 26699326 26756802 26828878 26912574 26998504 
3271.935 27075738 27134096 27168156 27178574 27168754 27144234 27109742 
3275.310 27067058 27017398 26962850 26908288 26861018 26831546 26827972 
3278.686 26856712 26917898 27006794 27116208 27239734 27372832 27515396 
3282.061 27669224 27836744 28018646 28212160 28410970 28605204 28786302 
3285.436 28944926 29075164 29174888 29245530 29293172 29327602 29361044 
3288.811 29407834 29480012 29586702 29731382 29910638 30115352 30333968 
3292.187 30555020 30768692 30970760 31161416 31345468 31530480 31724386 
3295.562 31933560 32163146 32413286 32680180 32956370 33231352 33493594 
3298.937 33731676 33938304 34109408 34243740 34341592 34401060 34416508 
3302.312 34377372 34270996 34085116 33812808 33455528 33024058 32538384 
3305.688 32023496 31507190 31015220 30569608 30185896 29873120 29632386 
3309.063 29454960 29324166 29217522 29110856 28984016 28826150 28640150 
3312.438 28439234 28244220 28074362 27940976 27842592 27765242 27688436 
3315.813 27593798 27470924 27322148 27161586 27008834 26882262 26792968 
3319.188 26742972 26725120 26729786 26748238 26777454 26819124 26876728 
3322.564 26951852 27040788 27130882 27204846 27242686 27226884 27148538 
3325.939 27007970 26816964 26597296 26377376 26187958 26056340 26002956 
3329.314 26035696 26148206 26320076 26521466 26719792 26883564 26991940 
3332.689 27036460 27020680 26957862 26867676 26768808 26678132 26607694 
3336.065 26564036 26548848 26560002 26592560 26637292 26685642 26728706 
3339.440 26761304 26782640 26795526 26805372 26815890 26827204 26834010 
3342.815 26827274 26797066 26736158 26645668 26533148 26411456 26294822 
3346.190 26193066 26110250 26043674 25986108 25932486 25881898 25840782 
3349.566 25821346 25839186 25907538 26031412 26207336 26419858 26645136 
3352.941 26853084 27014266 27104526 27108646 27027048 26873412 26676038 
3356.316 26470590 26292632 26170132 26115902 26125882 26181066 26255872 
3359.691 26326624 26379146 26413544 26440466 26476352 26533352 26613172 
3363.067 26704590 26786732 26836548 26837558 26786900 26693866 26578444 
3366.442 26461402 26358312 26273596 26201582 26131258 26053984 25968398 
3369.817 25884380 25818186 25788122 25806248 25872250 25973180 26086088 
3373.192 26183908 26244550 26255470 26215740 26136838 26036288 25934804 
3376.568 25848896 25791098 25767102 25777732 25819120 25885126 25967800 
3379.943 26058588 26148380 26227828 26289734 26328274 26342182 26333502 
3383.318 26308838 26277546 26250246 26234804 26235572 26250160 26270912 
3386.693 26287334 26289476 26272764 26240166 26203440 26179852 26185634 
3390.069 26231090 26315446 26425788 26541094 26636754 26691810 26696636 
3393.444 26651774 26568546 26463542 26353588 26250834 26162134 26090600 
3396.819 26034968 25993408 25963188 25939712 25916804 25886328 25841278 
3400.194 25779486 25705752 25633490 25581624 25571716 25619160 25730860 
3403.570 25900550 26111980 26341062 26561976 26750122 26886168 26955950 
3406.945 26951948 26874138 26731118 26540244 26327272 26120242 25945374 
3410.320 25819692 25746872 25716246 25710792 25711548 25707014 25697412 
3413.695 25693566 25710772 25761254 25846526 25955658 26069208 26164132 
3417.071 26224286 26245620 26234914 26209682 26188128 26186400 26211546 
3420.446 26262184 26330604 26405626 26475130 26528382 26555784 26549708 
3423.821 26507720 26431070 26329228 26216732 26111030 26028414 25977196 
3427.196 25956126 25954808 25955680 25942458 25904716 25840952 25759944 
3430.572 25675910 25605970 25564226 25562150 25605540 25698700 25841084 
3433.947 26028434 26250368 26488620 26718046 26910488 27040044 27090914 
3437.322 27059580 26957364 26806194 26631794 26457826 26301350 26171636 
3440.697 26073798 26010628 25988630 26016642 26103038 26250530 26452654 
3444.073 26690756 26936980 27159942 27333592 27443346 27488240 27479876 
3447.448 27435904 27371678 27297200 27212926 27111998 26988112 26839068 
3450.823 26671144 26500162 26344398 26221200 26140114 26100694 26093390 
3454.198 26104486 26121408 26136934 26148974 26160310 26174680 26191968 
3457.573 26209492 26223526 26230912 26234570 26241026 26260780 26301546 
3460.949 26364722 26443442 26523588 26588930 26628718 26641070 26636484 
3464.324 26632832 26650208 26699844 26782458 26882750 26974892 27029164 
3467.699 27020524 26936664 26781182 26572450 26338768 26113598 25925484 
3471.074 25793490 25725238 25715466 25752042 25818826 25902134 25994488 
3474.450 26095656 26210564 26345548 26504954 26686108 26880586 27074436 
3477.825 27252056 27399112 27505490 27567062 27581918 27552158 27481750 
3481.200 27378208 27252210 27119142 26995328 26896976 26833144 26804196 
3484.575 26798620 26798564 26783234 26737328 26654616 26541074 26410466 
3487.951 26281830 26172102 26095044 26060306 26072256 26133392 26243494 
3491.326 26398130 26586134 26788584 26981100 27138582 27241910 27282678 
3494.701 27268404 27217462 27155424 27106220 27086490 27102258 27148700 
3498.076 27215094 27287172 27352310 27400466 27426560 27430220 27415924 
3501.452 27394542 27380004 27388030 27429494 27507372 27613410 27730478 
3504.827 27836118 27911152 27946458 27945098 27919240 27885558 27856016 
3508.202 27834394 27814778 27787934 27746276 27691466 27634866 27594006 
3511.577 27584170 27613192 27675408 27755062 27830714 27883738 27905232 
3514.953 27895422 27863784 27823474 27785526 27756824 27739740 27733338 
3518.328 27737492 27750082 27768962 27789870 27806148 27811500 27800818 
3521.703 27775390 27742950 27716442 27708940 27729262 27778234 27846610 
3525.078 27919162 27978892 28010918 28007370 27967046 27895174 27802926 
3528.454 27704470 27616114 27557022 27542452 27583130 27678376 27814990 
3531.829 27969168 28110892 28213080 28260452 28252504 28204592 28139262 
3535.204 28079518 28039326 28020478 28014990 28011652 28002576 27988368 
3538.579 27978692 27986322 28020952 28083414 28165368 28252612 28329838 
3541.955 28387968 28425186 28445910 28454690 28451978 28430136 28374902 
3545.330 28271440 28111250 27897304 27646490 27386430 27148116 26959548 
3548.705 26838298 26789180 26805862 26874852 26978584 27100302 27224820 
3552.080 27338602 27430852 27493414 27520274 27513098 27478832 27431840 
3555.456 27390240 27371646 27388308 27442886 27526510 27620604 27700560 
3558.831 27741284 27723316 27636054 27480096 27267310 27018234 26758452 
3562.206 26516284 26318756 26187358 26134462 26161778 26257086 26397958 
3565.581 26553910 26695366 26796838 26843266 26831620 26768978 26667104 
3568.957 26539230 26397734 26253688 26120806 26015208 25956034 25961342 
3572.332 26040668 26189368 26384354 26589536 26761788 26866012 26881934 
3575.707 26811428 26674610 26499920 26312902 26129600 25954220 25782552 
3579.082 25613628 25455406 25325854 25251974 25255614 25347542 25517426 
3582.458 25739386 25975070 26187552 26350242 26451622 26494442 26490636 
3585.833 26453476 26392498 26314822 26224320 26125824 26026454 25935532 
3589.208 25860788 25805496 25767844 25741308 25718522 25693058 25662512 
3592.583 25627116 25587836 25544432 25494240 25434350 25363312 25283534 
3595.958 25203136 25133016 25083584 25063450 25075528 25119958 25194090 
3599.334 25298176 25432364 25596540 25788672 25998350 26208714 26397436 
3602.709 26542400 26626454 26644472 26603582 26521260 26420700 26324732 
3606.084 26251224 26208198 26195902 26207668 26232444 26259050 26280430 
3609.459 26295860 26310320 26335488 26382438 26461036 26572402 26708520 
3612.835 26854056 26989414 27099354 27178874 27235386 27286184 27354182 
3616.210 27456710 27598900 27770296 27945046 28093130 28185368 28204504 
3619.585 28151124 28042660 27909756 27790262 27719832 27724870 27819196 
3622.960 27998598 28241010 28511400 28766126 28962482 29067396 29066734 
3626.336 28967310 28796026 28592776 28399164 28247996 28155544 28119010 
3629.711 28121034 28137504 28146754 28137262 28111602 28081770 28068222 
3633.086 28089472 28159620 28283846 28457160 28665730 28890946 29113304 
3636.461 29315742 29485970 29619054 29716932 29786100 29834398 29870176 
3639.837 29900186 29929220 29960844 29998994 30046130 30104098 30170942 
3643.212 30240632 30302964 30347220 30362680 30344784 30295488 30221674 
3646.587 30133810 30039764 29943852 29844596 29738056 29622124 29499652 
3649.962 29379732 29276674 29205384 29176950 29195474 29256520 29350132 
3653.338 29462638 29580482 29691214 29784576 29853666 29893518 29902272 
3656.713 29883628 29843734 29792350 29736384 29680648 29622556 29554320 
3660.088 29466548 29353436 29214968 29061040 28907078 28771872 28669144 
3663.463 28604574 28575588 28572552 28583972 28599730 28613876 28622466 
3666.839 28622394 28608468 28573382 28508588 28410248 28279218 28125888 
3670.214 27965854 27817670 27696686 27610342 27558262 27534030 27527614 
3673.589 27530482 27537072 27543406 27548260 27548160 27537148 27508048 
3676.964 27451544 27363424 27241814 27092662 26928368 26765280 26623246 
3680.340 26524448 26487502 26527680 26651586 26853812 27117924 27411688 
3683.715 27694284 27919234 28044386 28041226 27900996 27638848 27291686 
3687.090 26911586 26554960 26270358 26088460 26016958 26041478 26133110 
3690.465 26256086 26378484 26478414 26543924 26573264 26570886 26543130 
3693.841 26497324 26440306 26379544 26322872 26278260 26251566 26244156 
3697.216 26252812 26271052 26292286 26312162 26333282 26362508 26407440 
3700.591 26473074 26558304 26655902 26752534 26836718 26900964 26945396 
3703.966 26975982 26998588 27017332 27031958 27037478 27029880 27008542 
3707.342 26979954 26956104 26949742 26969114 27013734 27072744 27127890 
3710.717 27163052 27165202 27133088 27072200 26996660 26919484 26852168 
3714.092 26801602 26771674 26763258 26774242 26799874 26829514 26848276 
3717.467 26839356 26787856 26688998 26552416 26400908 26268158 26186874 
3720.843 26180246 26253934 26393828 26570498 26749236 26900196 27005290 
3724.218 27064498 27091466 27108904 27140280 27203300 27305514 27443682 
3727.593 27605132 27773808 27933866 28074116 28191282 28288614 28373020 
3730.968 28451160 28522402 28580830 28612462 28602818 28540796 28428274 
3734.344 28276702 28108108 27945912 27807860 27699124 27610392 27524910 
3737.719 27424302 27299490 27154122 27006968 26884350 26813108 26810142 
3741.094 26880130 27014172 27192630 27391330 27586446 27757284 27888434 
3744.469 27970398 27999626 27979244 27918834 27831384 27731800 27631182 
3747.844 27538122 27454770 27380364 27315042 27262080 27231726 27237248 
3751.220 27291554 27400736 27560524 27753504 27953382 28130054 28259078 
3754.595 28326246 28331914 28289210 28220036 28151104 28105706 28100826 
3757.970 28142560 28222314 28323632 28421306 28489724 28509100 28471926 
3761.345 28384402 28265032 28137772 28026602 27949270 27911372 27908734 
3764.721 27928544 27956106 27976694 27980404 27959994 27914690 27849318 
3768.096 27772628 27701254 27654634 27651568 27703126 27808060 27950516 
3771.471 28104336 28240152 28339518 28399610 28436948 28479768 28555938 
3774.846 28678708 28838692 29004838 29133858 29186362 29142192 29006662 
3778.222 28811358 28602910 28425772 28310396 28266740 28281684 28331176 
3781.597 28384372 28420118 28426932 28406708 28370920 28337036 28324060 
3784.972 28346936 28414602 28527084 28674964 28841022 29003182 29143294 
3788.347 29248958 29318618 29360304 29387688 29413416 29445540 29484328 
3791.723 29526060 29564098 29596896 29624072 29649084 29671536 29684910 
3795.098 29676008 29628562 29527842 29369990 29163200 28926164 28682698 
3798.473 28455600 28261888 28112202 28013708 27971796 27992768 28081504 
3801.848 28234462 28436688 28659754 28869830 29035214 29137156 29176648 
3805.224 29172772 29154528 29149876 29176030 29233394 29312084 29397864 
3808.599 29480708 29562038 29650332 29754328 29874684 30000348 30109332 
3811.974 30178482 30193104 30152406 30071688 29974354 29881636 29803694 
3815.349 29736028 29661792 29562562 29427534 29259264 29074880 28898712 
3818.725 28755082 28659068 28614914 28614918 28644936 28688348 28733198 
3822.100 28769288 28793276 28805932 28811496 28817450 28832432 28865206 
3825.475 28920308 28995926 29082016 29162588 29219686 29236278 29205104 
3828.850 29125512 29004852 28853952 28684312 28507412 28334746 28179232 
3832.226 28058036 27989250 27987216 28058160 28196444 28382970 28590632 
3835.601 28790486 28958722 29082268 29159402 29194898 29197920 29175314 
3838.976 29133548 29076366 29010758 28946170 28895808 28870562 28878716 
3842.351 28919124 28984812 29062816 29141500 29212292 29272604 29323602 
3845.727 29367994 29405914 29433340 29444290 29432804 29395746 29332988 
3849.102 29249970 29156160 29061426 28978354 28919280 28897196 28922754 
3852.477 28999754 29123920 29278268 29435658 29565542 29639444 29643018 
3855.852 29577810 29461746 29320818 29182728 29065946 28977362 28912178 
3859.228 28857250 28800358 28732530 28651932 28563774 28476370 28397806 
3862.603 28336012 28295942 28282164 28300272 28352766 28440698 28559528 
3865.978 28700026 28847992 28987668 29104054 29183960 29218634 29200756 
3869.353 29129002 29006484 28843246 28657938 28475342 28322856 28222922 
3872.729 28188074 28213376 28281756 28366208 28441546 28491048 28513530 
3876.104 28519036 28525850 28550566 28601676 28678026 28772178 28874588 
3879.479 28979774 29086566 29195874 29305868 29408698 29487866 29526350 
3882.854 29511164 29444522 29342376 29234584 29155188 29132874 29178668 
3886.229 29287222 29437088 29599456 29749552 29870462 29956518 30011254 
3889.605 30043048 30058316 30061252 30052250 30029070 29989082 29930314 
3892.980 29852100 29756412 29649018 29540028 29443100 29375174 29353068 
3896.355 29389012 29484218 29628726 29801666 29975984 30125642 30232868 
3899.730 30289878 30301380 30279078 30235846 30182206 30124478 30063972 
3903.106 29999898 29932784 29862888 29792980 29723712 29654960 29585400 
3906.481 29514374 29445710 29386644 29349302 29345938 29385530 29468888 
3909.856 29588912 29729934 29873248 30000380 30097872 30158446 30180634 
3913.231 30167596 30124852 30059528 29980330 29898868 29827826 29781846 
3916.607 29771914 29803446 29874610 29974604 30085980 30190658 30273022 
3919.982 30325132 30347110 30346876 30335794 30324710 30318648 30316686 
3923.357 30311414 30292642 30250970 30182152 30086452 29972332 29851434 
3926.732 29736880 29640434 29571382 29535418 29535334 29571016 29640216 
3930.108 29735674 29847062 29960068 30057072 30124400 30154880 30151816 
3933.483 30130308 30113046 30123766 30177480 30274878 30398710 30518604 
3936.858 30599888 30613726 30549474 30417064 30246780 30079788 29956606 
3940.233 29906470 29940554 30049066 30208516 30389022 30563476 30714310 
3943.609 30834726 30927382 30998624 31055122 31097786 31122090 31122698 
3946.984 31095204 31038810 30962422 30880954 30810532 30764734 30748508 
3950.359 30755590 30770536 30771630 30740458 30665294 30549980 30407048 
3953.734 30259168 30129390 30035990 29986446 29979832 30006830 30057310 
3957.110 30119942 30189668 30262614 30336782 30408162 30471286 30518668 
3960.485 30545756 30549078 30534224 30510680 30491814 30491246 30520088 
3963.860 30585158 30687280 30818726 30968934 31121464 31259860 31368722 
3967.235 31440000 31472072 31474418 31461910 31450730 31452678 31470430 
3970.611 31498230 31523764 31537644 31538256 31536050 31549666 31601362 
3973.986 31703758 31853538 32029524 32196842 32318990 32367208 32334342 
3977.361 32232870 32091226 31942454 31812448 31715590 31650406 31604950 
3980.736 31564456 31517766 31461936 31399642 31337600 31281602 31235394 
3984.112 31198184 31169296 31147120 31131666 31123328 31123598 31133010 
3987.487 31150898 31178474 31215880 31265408 31325982 31393434 31459424 
3990.862 31510356 31534358 31524166 31482040 31420640 31359504 31318020 
3994.237 31308598 31332724 31378288 31427908 31464324 31479046 31476234 
3997.613 31471264 31484906 31534978 31630930 31768486 31931720 32097314 
##END=
