##TITLE=Bambu-Lab_PLA-CF_Blue_Filament_r7_ATR-Corrected
##JCAMP-DX=5.01  $$ Nicolet v. 1
##DATATYPE=INFRARED SPECTRUM
##ORIGIN=Curtin University
##OWNER=Nicolet
##LONGDATE=2024/07/10
##TIME=14:57:59
##SPECTROMETER/DATA SYSTEM=Nicolet iS50
##DATA PROCESSING=
Ratio against background
%Transmittance->Absorbance
ATR Correction
Truncated
ElementMultiply or ElementDivide
##COMMENTS=
Number of sample scans: 32
Collection length: 47.29 sec
Sample gain: 1.0
Background collected on: Wed Jul 10 14:52:21 2024 (GMT+08:00);
Number of background scans: 32
Background gain: 1.0
Sample spacing:  1.000
Number of scan points: 16672
Resolution points: 8192
Number of FFT points: 65536
Apodization: N-B strong;
Phase correction: Mertz;
Laser frequency: 15798.3 cm-1
Number of rejected sample scans: 0
Number of rejected background scans: 0
Bench serial number: AUP1200105;
##RESOLUTION=4.000
##XUNITS=1/CM
##YUNITS=ABSORBANCE
##FIRSTX=400.163452
##LASTX=4000.187744
##FIRSTY=0.091636
##MAXX=4000.187744
##MINX=400.163452
##MAXY=1.223350
##MINY=-0.007937
##XFACTOR=1.000000
##YFACTOR=1.000000E-008
##NPOINTS=7468
##DELTAX=0.482125
##ZPD=8192
##XYDATA=(X++(Y..Y))
400.163 9163551 9169772 9207674 9251427 9274364 9258299 9197806 9100731 
404.020 8984283 8868780 8771058 8700129 8655308 8627630 8603591 8569753 
407.877 8516718 8441279 8345946 8237046 8121819 8005954 7892112 7779946 
411.734 7667365 7552626 7436229 7321787 7215659 7125222 7056708 7013155 
415.591 6993331 6992205 7002454 7016857 7030256 7040726 7049254 7058406 
419.448 7070312 7085182 7100747 7112924 7117304 7110855 7092941 7065575 
423.305 7032732 6999016 6968403 6943391 6924827 6912246 6904582 6900637 
427.162 6899283 6899295 6898996 6896297 6888925 6875015 6853732 6825798 
431.019 6793269 6759133 6726408 6697371 6673620 6655740 6643943 6638485 
434.876 6639803 6648122 6662651 6680923 6698547 6709876 6709565 6694355 
438.733 6664536 6624299 6580648 6541317 6512133 6495004 6487094 6481841 
442.590 6471187 6448618 6411613 6362682 6308576 6257980 6218623 6194843 
446.447 6186400 6189048 6196214 6201499 6200555 6192111 6177670 6160386 
450.304 6143426 6128851 6116998 6106809 6096605 6085010 6071560 6056769 
454.161 6041701 6027405 6014295 6001990 5989456 5975566 5959640 5941862 
458.017 5923344 5905840 5891204 5880805 5875103 5873533 5874677 5876732 
461.874 5877974 5877257 5874162 5868663 5861820 5854436 5847124 5840149 
465.731 5833512 5827186 5821354 5816615 5813895 5814209 5818221 5825817 
469.588 5835817 5846053 5853681 5855878 5850614 5837340 5817314 5793417 
473.445 5769540 5749519 5736083 5730095 5730295 5733753 5736782 5736137 
477.302 5729968 5718411 5703334 5687688 5674396 5665450 5661373 5661373 
481.159 5663895 5667501 5671485 5676104 5682206 5690583 5701200 5712868 
485.016 5723373 5730238 5731710 5727588 5719642 5711229 5706362 5708411 
488.873 5719001 5737448 5760854 5785010 5805598 5819380 5825010 5823222 
492.730 5816300 5807215 5798621 5791977 5787902 5785955 5785409 5785942 
496.587 5787915 5792295 5800155 5811991 5827225 5844065 5859931 5872192 
500.444 5879042 5880147 5876701 5871069 5865947 5863506 5864776 5869578 
504.301 5876840 5885283 5894038 5902964 5912545 5923456 5935991 5949675 
508.158 5963140 5974522 5982030 5984599 5982326 5976519 5969361 5963294 
512.015 5960307 5961456 5966593 5974518 5983384 5991243 5996546 5998464 
515.871 5996856 5992158 5984970 5975884 5965298 5953601 5941423 5929831 
519.728 5920326 5914602 5913920 5918508 5927149 5937249 5945368 5948284 
523.585 5943941 5932211 5914894 5894986 5875959 5860251 5848636 5840277 
527.442 5833274 5825774 5816869 5807052 5798017 5791932 5790577 5794659 
531.299 5803627 5816078 5830342 5845159 5859939 5874626 5889218 5903256 
535.156 5915516 5924142 5927085 5922759 5910629 5891425 5867078 5840320 
539.013 5814134 5791314 5774101 5764033 5761888 5767617 5780373 5798502 
542.870 5819617 5840797 5858975 5871389 5876090 5872357 5860933 5843995 
546.727 5824817 5807177 5794608 5789656 5793258 5804552 5821062 5839380 
550.584 5856108 5868760 5876464 5879972 5881299 5882808 5886318 5892454 
554.441 5900467 5908662 5915063 5918181 5917690 5914337 5909663 5905446 
558.298 5903138 5903462 5906422 5911406 5917539 5923873 5929630 5934235 
562.155 5937319 5938789 5938825 5937873 5936549 5935531 5935265 5935869 
566.012 5937067 5938387 5939443 5940266 5941453 5944105 5949536 5958805 
569.869 5972313 5989614 6009486 6030270 6050332 6068462 6084074 6097219 
573.725 6108339 6118005 6126643 6134481 6141488 6147600 6152802 6157258 
577.582 6161340 6165532 6170272 6175887 6182410 6189630 6197087 6204225 
581.439 6210543 6215715 6219696 6222768 6225416 6228249 6231836 6236629 
585.296 6242854 6250605 6259828 6270423 6282299 6295318 6309314 6324038 
589.153 6339179 6354401 6369403 6384003 6398138 6411852 6425202 6438242 
593.010 6450918 6463167 6474936 6486289 6497491 6509001 6521376 6535156 
596.867 6550711 6568103 6587028 6606842 6626641 6645436 6662310 6676607 
600.724 6688039 6696777 6703412 6708898 6714376 6721011 6729784 6741359 
604.581 6755954 6773364 6793038 6814201 6836094 6858124 6880057 6902034 
608.438 6924556 6948328 6974002 7001993 7032258 7064366 7097516 7130829 
612.295 7163486 7194978 7225088 7253824 7281311 7307675 7333050 7357692 
616.152 7382053 7406909 7433183 7461736 7492998 7526671 7561695 7596446 
620.009 7629239 7658941 7685402 7709606 7733438 7759069 7788273 7821832 
623.866 7859257 7898981 7938824 7976669 8011012 8041360 8068222 8092876 
627.723 8116898 8141708 8168179 8196422 8225814 8255195 8283224 8308822 
631.579 8331489 8351535 8370044 8388593 8408770 8431674 8457525 8485560 
635.436 8514234 8541778 8566707 8588360 8607096 8624157 8641232 8659938 
639.293 8681343 8705701 8732476 8760632 8788864 8816078 8841487 8864746 
643.150 8885834 8905025 8922665 8939166 8954889 8970112 8985072 8999974 
647.007 9015059 9030684 9047353 9065669 9086190 9109303 9134982 9162754 
650.864 9191711 9220748 9248829 9275325 9300054 9323301 9345568 9367203 
654.721 9388203 9408137 9426273 9441976 9455048 9466021 9476076 9486791 
658.578 9499606 9515314 9533718 9553599 9573036 9590017 9603077 9611828 
662.435 9617096 9620745 9625102 9632310 9643683 9659430 9678654 9699743 
666.292 9720899 9740666 9758260 9773654 9787361 9800100 9812465 9824755 
670.149 9836965 9849000 9860763 9872388 9884153 9896345 9909044 9921962 
674.006 9934454 9945573 9954368 9960134 9962586 9961943 9958864 9954351 
677.863 9949543 9945638 9943760 9944922 9949826 9958816 9971790 9988061 
681.720 10006466 10025497 10043531 10059132 10071303 10079627 10084397 
685.094 10086498 10087284 10088333 10091134 10096870 10106107 10118725 
688.469 10133940 10150515 10167081 10182514 10196272 10208435 10219640 
691.844 10230750 10242427 10254934 10267904 10280565 10292001 10301551 
695.219 10309018 10314770 10319553 10324219 10329415 10335355 10341867 
698.594 10348440 10354521 10359667 10363618 10366356 10367920 10368308 
701.969 10367369 10364837 10360359 10353613 10344417 10332805 10319059 
705.343 10303641 10287131 10270091 10252893 10235599 10217854 10198911 
708.718 10177698 10153168 10124508 10091563 10054934 10016061 9976951 
712.093 9939854 9906748 9878919 9856621 9839065 9824501 9810497 9794336 
715.950 9773338 9745135 9707884 9660275 9601610 9531716 9450950 9360161 
719.807 9260682 9154288 9043062 8929314 8815339 8703145 8594374 8490139 
723.664 8391108 8297708 8210446 8130150 8058153 7996264 7946464 7910441 
727.521 7889099 7882156 7888069 7904274 7927789 7956037 7987544 8022412 
731.378 8062302 8109916 8168170 8239273 8323954 8421171 8528339 8641881 
735.235 8758115 8873960 8987416 9097603 9204528 9308653 9410492 9510423 
739.091 9608658 9705330 9800604 9894610 9987355 10078556 10167525 10253293 
742.948 10334910 10411806 10484175 10552963 10619781 10686409 10754347 
746.323 10824387 10896558 10970238 11044580 11118837 11192689 11266225 
749.698 11339824 11413806 11488196 11562476 11635648 11706247 11772602 
753.073 11832982 11885753 11929429 11962755 11984584 11993828 11989313 
756.448 11969712 11933568 11879466 11806347 11713924 11603006 11475607 
759.823 11334730 11183935 11026613 10865512 10702420 10538305 10373695 
763.197 10209274 10046142 9885920 9730341 9580785 9437786 9300936 9169081 
767.054 9040921 8915497 8792607 8672670 8556445 8444513 8336899 8233116 
770.911 8132488 8034533 7939312 7847494 7759889 7676869 7597948 7521625 
774.768 7445763 7368278 7287893 7204591 7119587 7034839 6952288 6873121 
778.625 6797535 6724740 6653537 6582856 6512268 6442056 6373057 6306129 
782.482 6241785 6179853 6119517 6059571 5998789 5936325 5872008 5806349 
786.339 5740450 5675702 5613470 5554728 5499857 5448616 5400248 5353798 
790.196 5308490 5263976 5220517 5178803 5139725 5103956 5071730 5042769 
794.053 5016496 4992262 4969772 4949121 4930835 4915559 4903780 4895633 
797.910 4890834 4888763 4888732 4890091 4892378 4895227 4898300 4901249 
801.767 4903672 4905180 4905452 4904306 4901485 4896600 4889086 4878300 
805.624 4863852 4845855 4825271 4803794 4783597 4766734 4754578 4747440 
809.481 4744578 4744526 4745723 4747031 4748063 4749121 4750912 4754055 
813.337 4758809 4764899 4771755 4778693 4785231 4791202 4796658 4801705 
817.194 4806352 4810435 4813737 4816117 4817695 4818854 4820142 4822080 
821.051 4824988 4828893 4833633 4838937 4844650 4850776 4857450 4864754 
824.908 4872656 4880882 4889001 4896589 4903451 4909675 4915700 4922125 
828.765 4929500 4938108 4947867 4958279 4968647 4978258 4986643 4993700 
832.622 4999786 5005648 5012240 5020697 5032085 5047311 5067132 5092109 
836.479 5122673 5159025 5201197 5248936 5301726 5358794 5419301 5482441 
840.336 5547676 5614728 5683597 5754330 5826827 5900601 5974805 6048262 
844.193 6119823 6188452 6253484 6314405 6370739 6421751 6466452 6503772 
848.050 6533145 6555035 6571483 6586118 6603767 6629590 6668105 6722395 
851.907 6793804 6882114 6986255 7105018 7237733 7384397 7545521 7721545 
855.764 7912377 8116975 8333364 8558831 8790343 9024805 9259365 9491264 
859.621 9717912 9936769 10145522 10342200 10525455 10694552 10849363 
862.995 10989999 11116547 11228821 11326348 11408509 11474832 11525197 
866.370 11559907 11579536 11584684 11575746 11552887 11516022 11465095 
869.745 11400203 11321746 11230276 11126396 11010551 10883017 10743964 
873.120 10593776 10433213 10263614 10086749 9904669 9719277 9532174 9344437 
876.977 9156691 8969288 8782472 8596576 8412122 8229806 8050564 7875580 
880.834 7706361 7544725 7392784 7252700 7126451 7015394 6920131 6840422 
884.691 6775366 6723839 6684825 6657684 6642131 6637901 6644328 6659931 
888.548 6682324 6708468 6735193 6759872 6780922 6797936 6811482 6822493 
892.405 6831774 6839582 6845627 6849304 6850207 6848403 6844614 6839988 
896.262 6835684 6832448 6830426 6829138 6827789 6825629 6822291 6817815 
900.118 6812668 6807413 6802555 6798453 6795356 6793463 6793096 6794598 
903.975 6798271 6804124 6811848 6820737 6829933 6838539 6845888 6851505 
907.832 6855093 6856403 6855197 6851307 6844876 6836541 6827562 6819588 
911.689 6814275 6812759 6815193 6820573 6827061 6832448 6834947 6833587 
915.546 6828527 6820733 6811524 6802001 6792683 6783443 6773821 6763397 
919.403 6752158 6740615 6729645 6720113 6712477 6706529 6701471 6696113 
923.260 6689363 6680530 6669637 6657237 6644258 6631534 6619490 6608020 
927.117 6596470 6583900 6569448 6552644 6533625 6513151 6492438 6472833 
930.974 6455518 6441222 6430147 6422035 6416345 6412451 6409912 6408418 
934.831 6407861 6408173 6409250 6410878 6412853 6414982 6417355 6420308 
938.688 6424445 6430539 6439341 6451449 6467142 6486410 6508938 6534175 
942.545 6561462 6590091 6619422 6648979 6678556 6708242 6738496 6770024 
946.402 6803703 6840344 6880531 6924510 6972120 7022793 7075753 7130068 
950.259 7184852 7239353 7293097 7345875 7397751 7448876 7499297 7548571 
954.116 7595549 7638098 7673201 7697259 7706643 7698357 7670694 7623522 
957.972 7558390 7478165 7386475 7287161 7183756 7079225 6975985 6875875 
961.829 6780375 6690629 6607519 6531583 6463121 6402182 6348771 6302888 
965.686 6264642 6234180 6211588 6196689 6188951 6187445 6190988 6198259 
969.543 6208079 6219570 6232171 6245601 6259745 6274499 6289698 6305077 
973.400 6320385 6335478 6350437 6365530 6381243 6398090 6416475 6436588 
977.257 6458420 6481731 6506278 6531898 6558629 6586650 6616190 6647374 
981.114 6680049 6713742 6747788 6781496 6814391 6846383 6877852 6909452 
984.971 6941944 6975947 7011779 7049429 7088667 7129245 7171037 7214010 
988.828 7258224 7303729 7350412 7398019 7446260 7494927 7544099 7594102 
992.685 7645472 7698688 7754031 7811390 7870405 7930507 7991296 8052636 
996.542 8114781 8178305 8243900 8312230 8383741 8458733 8537377 8619825 
1000.399 8706281 8796946 8891949 8991273 9094697 9201882 9312592 9426802 
1004.256 9544919 9667808 9796668 9932840 10077588 10231881 10396367 10571334 
1008.113 10756858 10952926 11159671 11377312 11606368 11847440 12101231 
1011.487 12368320 12649095 12943663 13251846 13573301 13907680 14254786 
1014.862 14614642 14987534 15373752 15773359 16185901 16610217 17044408 
1018.237 17485992 17932240 18380452 18828336 19274134 19716586 20154852 
1021.612 20588342 21016610 21439434 21856870 22269338 22677728 23083304 
1024.987 23487608 23892382 24299484 24711018 25129438 25557772 25999564 
1028.362 26458752 26939260 27444544 27977080 28538082 29127460 29744000 
1031.737 30385778 31050456 31735740 32439368 33159050 33892192 34635504 
1035.113 35384628 36133988 36876672 37604688 38309388 38981996 39614268 
1038.488 40199064 40730700 41204996 41619204 41971620 42261396 42488220 
1041.863 42652436 42754904 42797296 42781828 42711068 42587780 42414760 
1045.238 42194844 41931464 41628776 41292096 40927744 40542592 40143304 
1048.614 39735860 39325096 38914888 38508452 38108836 37719236 37342692 
1051.989 36981736 36637756 36310608 35998692 35699484 35410392 35129612 
1055.364 34856872 34593576 34342792 34108716 33896360 33711224 33559196 
1058.739 33446432 33379438 33364842 33409208 33518672 33698888 33954708 
1062.115 34290184 34708576 35212200 35802288 36478772 37240012 38082920 
1065.490 39003040 39995104 41053520 42172988 43348800 44576912 45853804 
1068.865 47176236 48540936 49944556 51383508 52854084 54352348 55874192 
1072.240 57415380 58971648 60539156 62114732 63696064 65281552 66869496 
1075.615 68457184 70039848 71610352 73159280 74675664 76148312 77566392 
1078.991 78919568 80197552 81388992 82481384 83461016 84314488 85030184 
1082.366 85599872 86019216 86287392 86406152 86378936 86210416 85906872 
1085.741 85476520 84929664 84278200 83534632 82710800 81817448 80863992 
1089.116 79859512 78813176 77734920 76634824 75522432 74405568 73289696 
1092.492 72177768 71070896 69969224 68872904 67782416 66698760 65623020 
1095.867 64556044 63498216 62449508 61409552 60377980 59354432 58338684 
1099.242 57330560 56330048 55337460 54353720 53380336 52419520 51473724 
1102.617 50545372 49636332 48747988 47881196 47036804 46216024 45420748 
1105.993 44653560 43917544 43215888 42551668 41927476 41345476 40807392 
1109.368 40314568 39867784 39467192 39112088 38800800 38530948 38299680 
1112.743 38104120 37941792 37810676 37709196 37635872 37589084 37566932 
1116.118 37567444 37588912 37630444 37692244 37775632 37882648 38015436 
1119.494 38175564 38363532 38578668 38819344 39083252 39367872 39670408 
1122.869 39987684 40315592 40648616 40979604 41299748 41599156 41867636 
1126.244 42095680 42275152 42400080 42466688 42473308 42419936 42307740 
1129.619 42138444 41913832 41635360 41303940 40919976 40483396 39993916 
1132.995 39451452 38856316 38209568 37513116 36769588 35982252 35154780 
1136.370 34291100 33395368 32472032 31525982 30562642 29587924 28608022 
1139.745 27629116 26657152 25697514 24755046 23834086 22938596 22072332 
1143.120 21238852 20441434 19683058 18966244 18293042 17664944 17082854 
1146.496 16547041 16057029 15611593 15208746 14845918 14520259 14228965 
1149.871 13969563 13740088 13538988 13365009 13216892 13093260 12992528 
1153.246 12913038 12853231 12811852 12788041 12781350 12791528 12818377 
1156.621 12861650 12920959 12995890 13086146 13191709 13312975 13450857 
1159.997 13606779 13782631 13980746 14203751 14454490 14735901 15050912 
1163.372 15402392 15793198 16226359 16705205 17233626 17816154 18457996 
1166.747 19164852 19942780 20797912 21736466 22764588 23888574 25114778 
1170.122 26449576 27899014 29468316 31161184 32979224 34921336 36983408 
1173.498 39158128 41434792 43799032 46232344 48711500 51207984 53687816 
1176.873 56112080 58438284 60622596 62622504 64399464 65921040 67162624 
1180.248 68108464 68752184 69097072 69155760 68949184 68504960 67854776 
1183.623 67032128 66070040 64999628 63849248 62644176 61406528 60155100 
1186.999 58905500 57670056 56458216 55277036 54131788 53026716 51965260 
1190.374 50950344 49984176 49068152 48202668 47387256 46620856 45902076 
1193.749 45229548 44601940 44017940 43476064 42974572 42511420 42084380 
1197.124 41691336 41330428 41000204 40699532 40427424 40182732 39963944 
1200.500 39769076 39595700 39441032 39302196 39176376 39060948 38953476 
1203.875 38851632 38753100 38655384 38555596 38450460 38336496 38210188 
1207.250 38068384 37908624 37729312 37529640 37309400 37068520 36806768 
1210.625 36523612 36218300 35890228 35539272 35166104 34772204 34359592 
1214.000 33930628 33487458 33032068 32566154 32091296 31609110 31121340 
1217.376 30629822 30136376 29642776 29150658 28661638 28177304 27699128 
1220.751 27228370 26765794 26311616 25865578 25427112 24995908 24572036 
1224.126 24156274 23749844 23353978 22969536 22596634 22234660 21882672 
1227.501 21539848 21205994 20881748 20568488 20267948 19981586 19710260 
1230.877 19453904 19211666 18982054 18763406 18554088 18352752 18158398 
1234.252 17970434 17788646 17613200 17444434 17282746 17128372 16981220 
1237.627 16840788 16706336 16577119 16452709 16333182 16219226 16111794 
1241.002 16011931 15920238 15836778 15760951 15691753 15628065 15568943 
1244.378 15513785 15462345 15414667 15370905 15331264 15295982 15265316 
1247.753 15239507 15218757 15203106 15192294 15185919 15183401 15184295 
1251.128 15188460 15196188 15208124 15225099 15247850 15276818 15312044 
1254.503 15353222 15399885 15451525 15507627 15567726 15631276 15697597 
1257.879 15765986 15835734 15906408 15977848 16050133 16123393 16197488 
1261.254 16271876 16345482 16416916 16484742 16547756 16605170 16656512 
1264.629 16701491 16739683 16770387 16792726 16805722 16808634 16801088 
1268.004 16783130 16755049 16717155 16669522 16611928 16543873 16464689 
1271.380 16373760 16270566 16154774 16026175 15884694 15730439 15563752 
1274.755 15385281 15195988 14997041 14789639 14574812 14353305 14125629 
1278.130 13892150 13653262 13409613 13162145 12912153 12661062 12410589 
1281.505 12162467 11918554 11680779 11451081 11231288 11022907 10827018 
1284.881 10644267 10474928 10319193 10177403 10050271 9938916 9844656 
1288.256 9768705 9711779 9673897 9654246 9651426 9663633 9689084 9726107 
1292.113 9773188 9828977 9892028 9960771 10033546 10108748 10184942 10261066 
1295.971 10336383 10410415 10482769 10552952 10620363 10684242 10743871 
1299.346 10798664 10848285 10892694 10932021 10966465 10996288 11021664 
1302.721 11042784 11059862 11073278 11083549 11091352 11097476 11102696 
1306.096 11107637 11112722 11118061 11123443 11128341 11132042 11133741 
1309.472 11132782 11128725 11121598 11111796 11100090 11087466 11074866 
1312.847 11063024 11052359 11042934 11034585 11027091 11020336 11014402 
1316.222 11009581 11006195 11004480 11004368 11005443 11007012 11008256 
1319.597 11008526 11007572 11005608 11003267 11001505 11001237 11003175 
1322.973 11007734 11015039 11025076 11037851 11053557 11072551 11095261 
1326.348 11122070 11153198 11188630 11228278 11272112 11320332 11373323 
1329.723 11431598 11495568 11565261 11640228 11719579 11802253 11887378 
1333.098 11974631 12064431 12157760 12255956 12360211 12471223 12588932 
1336.474 12712628 12841119 12973118 13107519 13243596 13381030 13519864 
1339.849 13660306 13802756 13947688 14095698 14247510 14403954 14565918 
1343.224 14734198 14909436 15092029 15282010 15479171 15682964 15892597 
1346.599 16107135 16325529 16546787 16769993 16994360 17219154 17443624 
1349.975 17666726 17887134 18103122 18312774 18514154 18705550 18885622 
1353.350 19053380 19208058 19348994 19475428 19586534 19681628 19760294 
1356.725 19822662 19869410 19901730 19921144 19929204 19927390 19916918 
1360.100 19898920 19874356 19844260 19809688 19771680 19731132 19688692 
1363.476 19644494 19598172 19548734 19494670 19433994 19364376 19283318 
1366.851 19188294 19077068 18947764 18799194 18631200 18444800 18242734 
1370.226 18029582 17812068 17599038 17401216 17230686 17100072 17021598 
1373.601 17005812 17060522 17189818 17393318 17666080 17998808 18378592 
1376.977 18789922 19215918 19639596 20044992 20418080 20747326 21023764 
1380.352 21240802 21393796 21479646 21496580 21444144 21323388 21136918 
1383.727 20888796 20584304 20229540 19830976 19395168 18928564 18437388 
1387.102 17927388 17403806 16871134 16333061 15792593 15252286 14714420 
1390.478 14181265 13655104 13138303 12633151 12141893 11666827 11210270 
1393.853 10774691 10362601 9976283 9617496 9287229 8985490 8711465 8463743 
1397.710 8240548 8040066 7860484 7700021 7556794 7428807 7313962 7210164 
1401.568 7115619 7028965 6949348 6876445 6810224 6750750 6697882 6651127 
1405.425 6609659 6572368 6538053 6505633 6474343 6443820 6414143 6385684 
1409.282 6359094 6335053 6314128 6296737 6283019 6272761 6265554 6260778 
1413.140 6257775 6255965 6254960 6254616 6254999 6256356 6259007 6263186 
1416.997 6269008 6276466 6285432 6295793 6307463 6320491 6334961 6351023 
1420.855 6368790 6388318 6409596 6432596 6457339 6483923 6512551 6543536 
1424.712 6577213 6613984 6654205 6698193 6746284 6798694 6855606 6917179 
1428.570 6983514 7054755 7131228 7213370 7301852 7397459 7501064 7613590 
1432.427 7736009 7869553 8015834 8177014 8355833 8555381 8778810 9028965 
1436.284 9308088 9617893 9959742 10335101 10745838 11194272 11682794 
1439.660 12213313 12786397 13400808 14053175 14738135 15448706 16176730 
1443.035 16913256 17648918 18374316 19080370 19758934 20403176 21007930 
1446.410 21569512 22085578 22554674 22976012 23349354 23675082 23954042 
1449.785 24187440 24376332 24521354 24622550 24679454 24691620 24659026 
1453.161 24582242 24462320 24300400 24097222 23852958 23567436 23240696 
1456.536 22873582 22468128 22027496 21555478 21056124 20533294 19990774 
1459.911 19432474 18862620 18285700 17706186 17128148 16554897 15989004 
1463.286 15432677 14888120 14357866 13844714 13351344 12879802 12431083 
1466.662 12005163 11601365 11218998 10857835 10518283 10201051 9906475 
1470.037 9633677 9379969 9140886 8910625 8683239 8453880 8219968 7981875 
1473.894 7742725 7507737 7282976 7074104 6885419 6719215 6575740 6453471 
1477.752 6349800 6261656 6186128 6120689 6063457 6012954 5968095 5928106 
1481.609 5892414 5860690 5832801 5808702 5788303 5771278 5757055 5744852 
1485.467 5733823 5723260 5712815 5702473 5692555 5683466 5675573 5669037 
1489.324 5663779 5659535 5655984 5652671 5649177 5645029 5639760 5632929 
1493.181 5624241 5613683 5601445 5588019 5573988 5559886 5546064 5532607 
1497.039 5519458 5506518 5493811 5481539 5469997 5459448 5450012 5441532 
1500.896 5433648 5425900 5417957 5409697 5401278 5393051 5385403 5378612 
1504.754 5372832 5368149 5364615 5362464 5362030 5363702 5367734 5374055 
1508.611 5382209 5391345 5400425 5408501 5414881 5419291 5421944 5423303 
1512.469 5423912 5424181 5424227 5423891 5422774 5420440 5416604 5411130 
1516.326 5404206 5396203 5387579 5378803 5370273 5362245 5354842 5348104 
1520.183 5341892 5336031 5330238 5324210 5317688 5310516 5302688 5294386 
1524.041 5285899 5277532 5269510 5261955 5254833 5248057 5241589 5235478 
1527.898 5229873 5224887 5220513 5216464 5212209 5207101 5200657 5192733 
1531.756 5183756 5174571 5166282 5159794 5155596 5153504 5152816 5152555 
1535.613 5151848 5150200 5147532 5144021 5139879 5135030 5129203 5121841 
1539.470 5112582 5101434 5088969 5076206 5064321 5054290 5046606 5041240 
1543.328 5037710 5035506 5034238 5033863 5034622 5036795 5040498 5045456 
1547.185 5051012 5056308 5060521 5063071 5063789 5062919 5060994 5058620 
1551.043 5056365 5054656 5053766 5053833 5054920 5057022 5060045 5063781 
1554.900 5067945 5072132 5075950 5079018 5081092 5082076 5082030 5081243 
1558.758 5080138 5079186 5078885 5079587 5081457 5084409 5088244 5092638 
1562.615 5097351 5102157 5106993 5111713 5116123 5119801 5122139 5122468 
1566.472 5120224 5115201 5107644 5098240 5088019 5078086 5069372 5062419 
1570.330 5057446 5054318 5052780 5052576 5053581 5055720 5058999 5063368 
1574.187 5068688 5074764 5081366 5088269 5095305 5102333 5109214 5115760 
1578.045 5121809 5127161 5131738 5135588 5138900 5141992 5145170 5148704 
1581.902 5152760 5157275 5162199 5167361 5172624 5177923 5183184 5188358 
1585.760 5193301 5197911 5201969 5205376 5208154 5210519 5212844 5215608 
1589.617 5219223 5223875 5229494 5235681 5241925 5247730 5252860 5257418 
1593.474 5261852 5266721 5272424 5278928 5285675 5291673 5295863 5297497 
1597.332 5296572 5293874 5290887 5289316 5290546 5295184 5302874 5312446 
1601.189 5322293 5330925 5337396 5341502 5343693 5344818 5345755 5347195 
1605.047 5349542 5352981 5357634 5363628 5371155 5380331 5391066 5402954 
1608.904 5415321 5427334 5438265 5447604 5455242 5461388 5466498 5471103 
1612.761 5475685 5480605 5486151 5492551 5500006 5508670 5518561 5529506 
1616.619 5541154 5552918 5564226 5574573 5583625 5591259 5597625 5602958 
1620.476 5607532 5611662 5615512 5619225 5622817 5626299 5629637 5632795 
1624.334 5635755 5638501 5640974 5643120 5644829 5645929 5646289 5645841 
1628.191 5644674 5643084 5641638 5640976 5641744 5644430 5649231 5655929 
1632.049 5664062 5672953 5681915 5690400 5698051 5704733 5710449 5715157 
1635.906 5718850 5721331 5722386 5721779 5719365 5715225 5709629 5703087 
1639.763 5696277 5689858 5684483 5680500 5678009 5676749 5676288 5676056 
1643.621 5675552 5674491 5672852 5670921 5669160 5668045 5668017 5669186 
1647.478 5671408 5674315 5677417 5680314 5682844 5685163 5687735 5691280 
1651.336 5696443 5703683 5712976 5723693 5734772 5744932 5753139 5758866 
1655.193 5762333 5764409 5766397 5769634 5775115 5783300 5793971 5806402 
1659.051 5819626 5832823 5845462 5857429 5868937 5880339 5891904 5903756 
1662.908 5915873 5928081 5940302 5952562 5965103 5978289 5992514 6008111 
1666.765 6025189 6043726 6063417 6083773 6104205 6124056 6142791 6160027 
1670.623 6175630 6189665 6202433 6214282 6225625 6236788 6248017 6259525 
1674.480 6271493 6284182 6297861 6312808 6329261 6347319 6367023 6388293 
1678.338 6410959 6434859 6459737 6485276 6511048 6536532 6561213 6584678 
1682.195 6606770 6627701 6647976 6668339 6689520 6712018 6735985 6761172 
1686.052 6787067 6813179 6839189 6865186 6891706 6919658 6950168 6984308 
1689.910 7022817 7065964 7113276 7163601 7215283 7266477 7315562 7361568 
1693.767 7404439 7445147 7485466 7527577 7573511 7624656 7681558 7743941 
1697.625 7811142 7882524 7957873 8037416 8121811 8211694 8307455 8409061 
1701.482 8515947 8627332 8742545 8861192 8983319 9109387 9240118 9376384 
1705.340 9519052 9668959 9826823 9993231 10168639 10353246 10546969 10749458 
1709.197 10960156 11178505 11404027 11636607 11876421 12123991 12380096 
1712.572 12645414 12920524 13205616 13500418 13804224 14115961 14434326 
1715.948 14758049 15086037 15417546 15752141 16089743 16430479 16774650 
1719.323 17122694 17475362 17833732 18199354 18574182 18960442 19360448 
1722.698 19776546 20211088 20666624 21146176 21653486 22193054 22770196 
1726.073 23390694 24060676 24786208 25573340 26427862 27355308 28361114 
1729.448 29450620 30629430 31904090 33282468 34774356 36391324 38145828 
1732.824 40049608 42111604 44336312 46723216 49267872 51964448 54808420 
1736.199 57798372 60935648 64221836 67654784 71224712 74911896 78687064 
1739.574 82514176 86354520 90169816 93923488 97579352 101099792 104444896 
1742.949 107574216 110450472 113043616 115333128 117307272 118959760 
1745.843 120286824 121285584 121955600 122301456 122335040 122075320 
1748.736 121545640 120769752 119769312 118562880 117167560 115600880 
1751.629 113882104 112030592 110064112 107996240 105835688 103587736 
1754.522 101257112 98850952 96380624 93861536 91311112 88746496 86182544 
1757.897 83631016 81101464 78602040 76140672 73725384 71364056 69063816 
1761.272 66830884 64670408 62586844 60584032 58664972 56831264 55082440 
1764.647 53415580 51825804 50307040 48853712 47461696 46129168 44856120 
1768.023 43643416 42491452 41398936 40362524 39377096 38436500 37534456 
1771.398 36665148 35823436 35004608 34204132 33417412 32639950 31867644 
1774.773 31097284 30326864 29555634 28783864 28012362 27242088 26473758 
1778.148 25707748 24944276 24183554 23426194 22673252 21926328 21187420 
1781.524 20458768 19742644 19041294 18356736 17690950 17045576 16422087 
1784.899 15821719 15245490 14694265 14168890 13670231 13199095 12756158 
1788.274 12341700 11955407 11596412 11263240 10954054 10667068 10400552 
1791.649 10152978 9922887 9708779 9509091 9322135 9146433 8980788 8824459 
1795.507 8677091 8538613 8408938 8288008 8175564 8071254 7974811 7885882 
1799.364 7804008 7728459 7658095 7591593 7527633 7465418 7404791 7346365 
1803.222 7291068 7239624 7192006 7147132 7103041 7057453 7008471 6955258 
1807.079 6898242 6839028 6779832 6722995 6670363 6623226 6582223 6547349 
1810.937 6518057 6493103 6470359 6447168 6420529 6387963 6348344 6302467 
1814.794 6253171 6204751 6161944 6128614 6106688 6095618 6092603 6093496 
1818.651 6093914 6090361 6080814 6064771 6043019 6016963 5988344 5958882 
1822.509 5929949 5902631 5877640 5855245 5835205 5817049 5799961 5783042 
1826.366 5765447 5746247 5724627 5699838 5671409 5639370 5604479 5568336 
1830.224 5532992 5500499 5472324 5448772 5428848 5410568 5391614 5370100 
1834.081 5345072 5316711 5286098 5254727 5223925 5194495 5166703 5140452 
1837.938 5115424 5091481 5068520 5046585 5025716 5005971 4987422 4970282 
1841.796 4954800 4941097 4928889 4917533 4905868 4892659 4877028 4858995 
1845.653 4839340 4819692 4801707 4786614 4774759 4765634 4758246 4751727 
1849.511 4745769 4740874 4737863 4737562 4740032 4744306 4748660 4750892 
1853.368 4749256 4742849 4732001 4718087 4703124 4689330 4678431 4671503 
1857.226 4668563 4668830 4670680 4672179 4671361 4666867 4658244 4646170 
1861.083 4632073 4618016 4605672 4596191 4589808 4586102 4584191 4583278 
1864.940 4582685 4581796 4579749 4575449 4567535 4554970 4537629 4516880 
1868.798 4495365 4476515 4463401 4457711 4459095 4465478 4473941 4481883 
1872.655 4488040 4492810 4497679 4504250 4513130 4523457 4532997 4539216 
1876.513 4540238 4535691 4527077 4517112 4508918 4505035 4506705 4513996 
1880.370 4525881 4540828 4557150 4573251 4587549 4598543 4604823 4605362 
1884.228 4599546 4587447 4569564 4546808 4520144 4490708 4459796 4429216 
1888.085 4401221 4378236 4362276 4354199 4353045 4356071 4359382 4358974 
1891.942 4352087 4338118 4318875 4298205 4280770 4270984 4271707 4283695 
1895.800 4305393 4333263 4362509 4388039 4405370 4411465 4405531 4388982 
1899.657 4365008 4337791 4311100 4287476 4267543 4250436 4234633 4219002 
1903.515 4203659 4189983 4179933 4175050 4175390 4179322 4184020 4186746 
1907.372 4185757 4181164 4174627 4168279 4163665 4160897 4158759 4155629 
1911.229 4150607 4144416 4139574 4139165 4145512 4158735 4176173 4193335 
1915.087 4205316 4208792 4203154 4190807 4175666 4161914 4151632 4144144 
1918.944 4136232 4123217 4100977 4067420 4023260 3971798 3918080 3867326 
1922.802 3823540 3788944 3763479 3745610 3732951 3723434 3715862 3710474 
1926.659 3708507 3711778 3722034 3740459 3767303 3802208 3844452 3893208 
1930.517 3947184 4004367 4061099 4112121 4150415 4169089 4162899 4130507 
1934.374 4075295 4005070 3929885 3859619 3800279 3753188 3714722 3679091 
1938.231 3641091 3599536 3558363 3526056 3512469 3525436 3566901 3631727 
1942.089 3708030 3780351 3833567 3857311 3848317 3811573 3758217 3702782 
1945.946 3658808 3635501 3635095 3653132 3679540 3703040 3713975 3708214 
1949.804 3688102 3661643 3639436 3631347 3641937 3669465 3705786 3739401 
1953.661 3758624 3755674 3727973 3678541 3613706 3541139 3467309 3396821 
1957.519 3332787 3277932 3235973 3211591 3209145 3231421 3277390 3342661 
1961.376 3419539 3499630 3575386 3641763 3695485 3734886 3757768 3761283 
1965.233 3742107 3697669 3627550 3535787 3429368 3318362 3213432 3124891 
1969.091 3060732 3028232 3033518 3081550 3173869 3306616 3466432 3630781 
1972.948 3769425 3852253 3857832 3783954 3651454 3502350 3389174 3359680 
1976.806 3440241 3626370 3882509 4155402 4391838 4558938 4650662 4686270 
1980.663 4696801 4711346 4744796 4795235 4845719 4874170 4863310 4809117 
1984.521 4722151 4624447 4540628 4489339 4476723 4496040 4530214 4559263 
1988.378 4566682 4544116 4492580 4420885 4341428 4266449 4204659 4159771 
1992.235 4130358 4111269 4095783 4078533 4057166 4035392 4022095 4030154 
1996.093 4072298 4156251 4280042 4431066 4586086 4717338 4798045 4810096 
1999.950 4747042 4615605 4432874 4221673 4005311 3804211 3633360 3502572 
2003.808 3416473 3375286 3373998 3403062 3447730 3491805 3519978 3523649 
2007.665 3502043 3462777 3417945 3379717 3355172 3345403 3344717 3344356 
2011.522 3334909 3309638 3265553 3204898 3133269 3060146 2996890 2955897 
2015.380 2946583 2973970 3034977 3119082 3209172 3287915 3342009 3367728 
2019.237 3370327 3361250 3351760 3347601 3345276 3334836 3305107 3251331 
2023.095 3179719 3107847 3059357 3055974 3108359 3213503 3353604 3503544 
2026.952 3636273 3730485 3772452 3757469 3686101 3564734 3404037 3221557 
2030.810 3040067 2887186 2789863 2767136 2822815 2943937 3102207 3263868 
2034.667 3398867 3490738 3538916 3556798 3563695 3577434 3608020 3656518 
2038.524 3717200 3780855 3839066 3886367 3919402 3937165 3938654 3923750 
2042.382 3893299 3850530 3801246 3754036 3717735 3700033 3706643 3740589 
2046.239 3803195 3895406 4017193 4166563 4336419 4513596 4678360 4808653 
2050.097 4884888 4896172 4843326 4739791 4608374 4476239 4368956 4304754 
2053.954 4289634 4317306 4371186 4431035 4478995 4505817 4511440 4503291 
2057.812 4490997 4481321 4474518 4464420 4440770 4394742 4323369 4232458 
2061.669 4135160 4048631 3988637 3964737 3977764 4020856 4081551 4146609 
2065.526 4204770 4249184 4277086 4289368 4288953 4280087 4267522 4256456 
2069.384 4251086 4254227 4265934 4283735 4302944 4319386 4330959 4339289 
2073.241 4349085 4366309 4394654 4433654 4477575 4517883 4546455 4559633 
2077.099 4559938 4555624 4557058 4572270 4602777 4642758 4680567 4703208 
2080.956 4701052 4671417 4619061 4554471 4489375 4433445 4391563 4363898 
2084.813 4347244 4337848 4333073 4332321 4336193 4345618 4360004 4377259 
2088.671 4393886 4406191 4411039 4407018 4393857 4372665 4344991 4313177 
2092.528 4279448 4246726 4218035 4196153 4182812 4178215 4180572 4187039 
2096.386 4194285 4200190 4204227 4207995 4214190 4225749 4244330 4269885 
2100.243 4300346 4332398 4362431 4388007 4408170 4424441 4439419 4456338 
2104.101 4477044 4501192 4525423 4544346 4551511 4541997 4514144 4470734 
2107.958 4418118 4365188 4320284 4289202 4273686 4271813 4279127 4290814 
2111.815 4303306 4314932 4325521 4335618 4345205 4353599 4359714 4363037 
2115.673 4363840 4363379 4362689 4361587 4357210 4344605 4317605 4271110 
2119.530 4203041 4115570 4014867 3909778 3809180 3720698 3648968 3596387 
2123.388 3562902 3547482 3548009 3561326 3582870 3607088 3627789 3639826 
2127.245 3639786 3626811 3601500 3564902 3516548 3454383 3375446 3278351 
2131.103 3165633 3045704 2931973 2840411 2784245 2770342 2795588 2848369 
2134.960 2911335 2967262 3003275 3014299 3001706 2971886 2932860 2892020 
2138.817 2854525 2823876 2800771 2783944 2768765 2748363 2714491 2660813 
2142.675 2585054 2492195 2393289 2302950 2234089 2193601 2179277 2181419 
2146.532 2186270 2182413 2164092 2133503 2096824 2061104 2028831 1997348 
2150.390 1959322 1907407 1836662 1746578 1638192 1510754 1358057 1168684 
2154.247 928767 631308 283522 -86581 -431069 -687468 -793686 -702634 -399420 
2158.587 91510 708584 1369270 1992382 2518049 2915540 3183695 3340467 
2162.444 3414985 3438051 3437992 3434981 3440827 3456683 3476077 3487172 
2166.302 3478407 3441859 3376710 3288667 3188204 3086982 2994638 2915348 
2170.159 2848355 2788403 2728040 2659749 2579176 2485416 2382949 2280019 
2174.016 2188670 2120981 2087254 2091925 2132818 2200094 2279539 2355093 
2177.874 2415111 2454044 2475533 2489817 2512117 2557496 2637203 2755136 
2181.731 2906712 3079262 3255514 3415821 3543815 3628026 3665721 3661233 
2185.589 3626554 3577626 3531387 3501892 3497784 3519677 3561673 3612068 
2189.446 3657867 3687261 3693150 3673727 3632934 3578574 3520673 3468282 
2193.303 3428220 3403178 3391977 3389626 3389752 3385763 3374414 3356766 
2197.161 3338759 3329938 3340511 3377114 3440134 3521867 3608125 3681151 
2201.018 3725736 3733256 3705252 3652842 3594209 3548663 3531550 3549208 
2204.876 3598380 3667311 3740251 3801904 3842477 3858969 3856019 3842963 
2208.733 3831417 3831339 3849968 3889805 3949975 4026013 4111923 4200297 
2212.591 4283077 4352353 4401420 4425572 4423518 4397612 4353799 4299545 
2216.448 4242758 4189396 4142742 4102932 4068825 4038679 4012670 3992373 
2220.305 3981280 3982574 3998411 4028785 4071491 4122856 4179563 4238657 
2224.163 4298043 4355462 4407790 4449969 4476275 4481085 4461847 4420105 
2228.020 4362603 4299542 4242732 4201898 4182709 4185450 4206338 4238631 
2231.878 4276133 4314245 4351111 4386681 4422194 4457811 4492501 4523650 
2235.735 4548144 4563397 4568559 4565038 4556465 4547469 4543053 4546287 
2239.593 4558160 4576286 4595830 4610123 4613140 4600743 4572879 4533656 
2243.450 4491024 4454440 4432710 4430821 4449166 4482916 4524051 4563159 
2247.307 4592660 4608338 4609826 4600107 4584034 4566207 4550368 4538601 
2251.165 4532418 4533177 4543324 4566042 4604704 4661147 4734371 4819220 
2255.022 4907068 4987072 5048749 5084540 5092038 5073976 5037889 4993123 
2258.880 4948595 4910301 4880577 4858268 4840762 4825693 4813199 4805756 
2262.737 4807914 4824114 4856894 4905371 4965256 5029813 5092044 5146236 
2266.594 5189445 5221505 5244308 5260309 5271679 5279430 5283693 5284213 
2270.452 5281176 5275384 5268541 5262784 5260431 5263080 5271728 5286333 
2274.309 5305859 5328372 5351741 5373660 5392542 5407897 5420733 5432779 
2278.167 5446281 5462927 5483212 5506256 5530441 5554073 5576641 5598925 
2282.024 5622945 5650710 5683066 5718740 5754263 5784759 5805611 5813941 
2285.882 5809395 5794212 5772192 5747204 5722083 5697722 5673580 5648311 
2289.739 5620951 5591547 5561522 5533107 5508717 5490165 5478093 5471796 
2293.596 5469663 5469535 5469296 5467184 5462234 5454293 5443980 5432658 
2297.454 5422031 5413731 5409087 5408814 5412772 5420294 5430234 5441193 
2301.311 5451786 5460611 5466485 5468322 5465808 5459334 5450529 5441921 
2305.169 5436463 5436721 5443868 5457208 5474284 5491603 5505854 5514987 
2309.026 5518985 5519676 5519971 5522668 5529662 5541181 5556230 5572936 
2312.884 5589612 5604959 5618481 5630211 5640623 5650244 5659879 5670475 
2316.741 5683212 5699270 5719490 5744121 5773078 5806255 5844359 5888994 
2320.598 5942466 6006441 6080220 6159014 6233478 6290855 6317694 6303358 
2324.456 6243038 6139243 6001685 5844889 5685543 5538942 5416427 5323909 
2328.313 5261736 5225884 5209836 5206590 5210107 5215884 5221005 5223737 
2332.171 5223164 5219191 5212327 5203774 5195302 5188632 5185160 5185311 
2336.028 5188702 5194084 5199906 5204713 5207459 5207545 5204786 5199258 
2339.885 5191248 5181106 5169573 5157580 5146211 5136560 5129512 5125602 
2343.743 5124926 5127336 5132458 5139881 5148924 5158650 5167627 5174145 
2347.600 5176322 5172711 5162756 5147001 5127271 5106016 5086106 5069924 
2351.458 5059004 5053817 5053969 5058208 5064963 5072508 5079343 5084179 
2355.315 5086336 5085613 5082568 5078135 5073519 5069730 5067187 5065531 
2359.173 5063822 5060620 5054539 5044668 5030589 5012527 4990896 4966237 
2363.030 4939010 4909760 4879142 4848267 4818728 4792394 4771092 4756280 
2366.887 4748747 4748467 4754873 4766854 4783166 4802232 4822380 4841674 
2370.745 4858196 4870312 4877184 4878992 4877140 4873622 4870588 4869458 
2374.602 4870563 4873069 4875577 4876814 4876400 4875045 4874432 4876278 
2378.460 4881837 4891057 4902662 4914719 4925350 4933464 4939246 4943822 
2382.317 4948723 4955041 4963127 4972160 4980691 4987196 4990617 4990730 
2386.175 4988113 4983836 4979092 4974876 4971913 4970609 4971231 4973771 
2390.032 4978130 4983672 4989522 4994403 4997040 4996384 4992125 4984670 
2393.889 4975256 4965541 4957427 4952591 4952305 4957040 4966525 4979638 
2397.747 4994382 5008267 5018730 5023726 5022333 5015098 5003955 4991639 
2401.604 4980923 4973675 4970374 4970094 4971175 4972072 4972334 4972762 
2405.462 4975414 4982773 4996609 5017304 5043568 5072570 5100886 5125257 
2409.319 5143285 5153691 5156266 5151407 5140152 5123901 5104499 5084363 
2413.177 5066161 5052512 5045246 5044893 5050308 5058993 5067698 5073314 
2417.034 5073864 5068917 5059797 5048874 5038992 5032494 5030781 5033928 
2420.891 5040931 5049972 5059053 5066409 5071006 5072496 5071432 5068597 
2424.749 5064969 5061036 5056915 5052126 5046315 5039404 5032323 5026572 
2428.606 5024246 5026864 5034962 5047083 5060461 5071343 5076525 5074319 
2432.464 5065516 5053024 5041137 5033957 5034033 5041502 5054087 5067854 
2436.321 5078656 5083447 5081038 5072367 5059887 5046709 5035485 5027945 
2440.178 5024505 5024505 5026804 5030096 5033634 5037174 5041216 5046710 
2444.036 5054840 5066650 5082758 5103014 5126317 5150791 5173934 5192952 
2447.893 5205507 5210034 5206169 5194880 5178441 5160028 5143120 5130973 
2451.751 5126014 5129376 5140839 5158783 5180628 5203407 5224329 5241041 
2455.608 5252111 5256785 5254969 5246799 5232897 5213877 5190920 5165580 
2459.466 5139877 5115993 5095900 5081029 5071899 5068094 5068514 5071764 
2463.323 5076455 5081609 5086601 5091108 5094887 5097700 5099255 5099316 
2467.180 5097854 5094983 5091184 5086973 5082965 5079703 5077639 5077180 
2471.038 5078549 5081789 5086354 5091288 5095115 5096135 5093037 5085099 
2474.895 5072739 5057237 5040496 5024290 5009818 4997611 4987318 4978442 
2478.753 4970904 4965238 4962745 4965018 4973524 4988859 5010637 5037322 
2482.610 5066582 5095750 5122156 5143468 5157954 5164664 5163791 5156758 
2486.468 5146127 5135330 5127864 5126240 5131305 5141690 5154261 5165122 
2490.325 5170839 5169755 5162564 5151866 5141398 5134571 5133426 5137927 
2494.182 5146426 5156391 5165320 5171783 5175549 5177547 5179336 5182497 
2498.040 5188395 5197888 5211401 5228881 5249612 5272070 5293885 5311962 
2501.897 5323085 5324720 5315810 5297212 5271696 5243217 5215943 5193142 
2505.755 5176526 5166150 5160709 5158278 5157171 5156524 5156347 5157409 
2509.612 5160919 5167937 5179046 5194036 5211887 5230881 5248951 5264148 
2513.469 5275016 5281204 5283291 5282783 5281373 5280277 5279592 5278144 
2517.327 5273859 5264584 5249238 5228393 5204731 5181986 5164279 5154332 
2521.184 5152841 5158204 5167214 5176229 5182502 5184930 5184229 5182255 
2525.042 5181105 5182366 5186426 5192621 5199695 5206351 5211629 5214987 
2528.899 5216421 5216071 5214341 5211923 5210023 5210154 5213856 5222222 
2532.757 5235166 5251339 5268224 5282959 5293392 5298647 5299726 5298830 
2536.614 5298540 5300605 5305221 5311056 5315622 5316570 5312511 5303568 
2540.471 5291363 5278334 5266970 5259013 5255443 5256342 5261396 5269995 
2544.329 5281401 5294475 5307669 5319003 5326641 5329314 5327065 5321323 
2548.186 5314650 5310021 5309865 5315363 5326368 5341492 5358903 5376855 
2552.044 5394009 5409297 5421830 5430361 5433520 5430146 5420068 5404413 
2555.901 5386000 5368639 5356316 5351859 5356362 5368713 5386187 5405200 
2559.759 5422522 5435933 5444646 5449049 5450279 5449683 5448444 5447338 
2563.616 5446747 5446817 5447556 5448741 5450212 5451691 5452965 5453928 
2567.473 5454639 5455136 5455589 5456067 5456662 5457481 5458915 5461541 
2571.331 5466010 5472798 5481745 5492164 5502615 5511699 5518431 5522915 
2575.188 5526468 5531170 5539299 5552079 5569172 5588570 5607171 5621667 
2579.046 5629905 5631363 5627481 5620738 5613939 5608963 5606468 5605850 
2582.903 5605980 5605982 5606110 5607733 5612894 5623577 5640551 5662932 
2586.760 5687985 5711789 5730247 5740149 5740126 5730886 5715044 5696408 
2590.618 5678915 5665806 5658915 5658405 5662989 5670430 5678325 5684696 
2594.475 5688574 5690218 5690824 5692133 5695852 5702900 5713074 5724992 
2598.333 5736488 5745163 5749355 5748572 5743919 5737795 5733254 5733048 
2602.190 5738790 5750487 5766418 5783782 5799602 5811348 5817850 5819226 
2606.048 5816830 5812443 5807980 5804900 5804153 5806136 5810949 5818393 
2609.905 5828053 5839209 5850835 5861737 5870929 5877855 5882597 5885925 
2613.762 5888891 5892339 5896573 5901112 5905056 5907524 5908229 5907801 
2617.620 5907739 5909759 5915234 5924321 5936037 5948179 5958257 5964166 
2621.477 5964916 5960712 5953011 5943804 5935126 5928588 5925272 5925610 
2625.335 5929612 5936987 5947089 5959101 5971982 5984683 5996490 6007138 
2629.192 6016898 6026516 6036835 6048390 6061172 6074493 6087341 6098466 
2633.050 6107064 6112905 6116177 6117536 6117818 6117638 6117579 6117951 
2636.907 6118995 6120853 6123521 6126881 6130527 6133991 6136892 6139157 
2640.764 6141156 6143634 6147479 6153303 6161327 6170943 6181081 6190409 
2644.622 6197669 6202138 6203527 6202123 6198477 6193258 6187165 6180867 
2648.479 6175122 6170699 6168368 6168675 6171789 6177295 6184230 6191271 
2652.337 6196902 6199856 6199258 6194678 6186394 6175092 6161837 6147856 
2656.194 6134260 6121877 6111023 6101399 6092182 6082312 6070813 6057168 
2660.052 6041540 6024645 6007486 5990983 5975387 5960270 5944695 5927508 
2663.909 5908080 5886391 5863425 5840808 5820389 5803635 5791392 5783641 
2667.766 5779762 5778670 5779203 5780248 5780929 5780568 5778785 5775494 
2671.624 5771104 5766487 5762763 5761122 5762245 5766022 5771662 5777555 
2675.481 5781997 5783645 5782021 5777461 5771164 5764587 5759079 5755452 
2679.339 5753952 5754436 5756480 5759764 5763964 5768819 5773928 5778646 
2683.196 5782188 5783806 5782995 5779893 5775117 5769750 5765025 5761992 
2687.053 5761099 5762366 5765169 5768608 5771768 5773945 5774727 5774180 
2690.911 5772667 5770769 5769150 5768319 5768602 5769926 5772037 5774495 
2694.768 5776832 5778739 5780157 5781229 5782131 5783005 5783776 5784087 
2698.626 5783513 5781673 5778402 5773899 5768633 5763279 5758433 5754392 
2702.483 5751151 5748405 5745705 5742666 5739220 5735680 5732637 5730927 
2706.341 5731347 5734468 5740340 5748579 5758082 5767543 5775395 5780326 
2710.198 5781478 5778865 5773176 5765758 5758347 5752510 5749399 5749562 
2714.055 5752754 5758196 5764736 5771192 5776516 5780028 5781422 5780794 
2717.913 5778698 5775959 5773597 5772425 5773080 5775561 5779225 5783034 
2721.770 5785621 5785907 5783351 5778178 5771337 5764151 5757998 5753822 
2725.628 5752042 5752492 5754609 5757713 5761331 5765092 5768788 5772218 
2729.485 5775080 5776888 5777186 5775680 5772443 5768035 5763447 5759759 
2733.343 5758104 5759252 5763492 5770434 5779320 5788837 5797633 5804415 
2737.200 5808304 5809003 5806864 5802904 5798569 5795312 5794311 5796255 
2741.057 5800974 5807812 5815797 5823805 5831165 5837374 5842352 5846082 
2744.915 5848570 5849712 5849307 5847218 5843571 5838660 5833155 5827687 
2748.772 5822856 5819029 5816243 5814354 5813106 5812297 5811900 5811836 
2752.630 5812097 5812628 5813329 5814059 5814800 5815740 5817094 5819089 
2756.487 5821727 5824780 5827553 5829225 5829054 5826503 5821542 5814697 
2760.344 5806920 5799332 5793104 5789162 5788098 5790107 5795067 5802660 
2764.202 5812305 5823327 5835123 5846983 5858481 5869272 5879189 5888129 
2768.059 5896004 5902570 5907473 5910264 5910542 5908090 5903197 5896414 
2771.917 5888836 5881652 5876057 5872959 5872794 5875484 5880404 5886592 
2775.774 5892916 5898267 5901862 5903283 5902607 5900239 5896941 5893536 
2779.632 5890767 5889131 5888894 5890070 5892562 5896186 5900829 5906412 
2783.489 5912906 5920169 5927957 5936028 5943938 5951347 5957992 5963678 
2787.346 5968396 5972147 5975101 5977445 5979459 5981424 5983702 5986610 
2791.204 5990356 5995151 6000998 6007926 6015887 6024921 6035242 6046968 
2795.061 6060248 6074974 6090806 6106997 6122707 6136874 6148628 6157422 
2798.919 6163215 6166393 6167964 6169191 6171434 6175817 6182984 6192899 
2802.776 6204810 6217519 6229469 6239351 6246401 6250614 6252834 6254340 
2806.634 6256637 6260962 6267904 6277394 6288789 6301127 6313541 6325450 
2810.491 6336725 6347523 6358238 6369163 6380436 6392036 6403751 6415391 
2814.348 6427054 6438939 6451566 6465447 6481025 6498481 6517559 6537600 
2818.206 6557710 6576924 6594559 6610328 6624585 6637960 6651302 6665152 
2822.063 6679630 6694311 6708444 6721360 6732846 6743398 6754221 6766985 
2825.921 6783031 6803161 6827114 6853812 6881722 6909381 6935963 6961615 
2829.778 6987253 7014134 7043513 7076076 7111978 7150896 7192445 7236530 
2833.635 7283544 7334296 7389834 7451080 7518819 7593550 7675671 7765703 
2837.493 7864436 7973019 8092788 8225227 8371827 8534142 8713851 8912949 
2841.350 9133787 9379147 9652022 9955364 10291860 10663618 11071831 11516550 
2845.208 11996216 12507099 13042931 13594167 14147900 14688055 15196039 
2848.583 15652092 16036841 16333196 16528182 16614042 16589125 16457775 
2851.958 16229759 15919010 15542240 15117294 14661558 14191093 13719514 
2855.333 13257669 12813616 12392616 11997758 11630227 11290059 10976400 
2858.709 10688250 10424403 10183821 9965695 9769133 9593178 9436728 9298450 
2862.566 9176955 9070756 8978580 8899299 8831982 8775843 8730111 8694041 
2866.424 8666920 8648115 8637043 8633405 8636862 8647178 8664039 8687013 
2870.281 8715669 8749584 8788440 8832077 8880258 8932616 8988436 9046704 
2874.138 9106126 9165324 9223227 9279142 9332993 9385106 9436218 9487069 
2877.996 9538326 9590328 9643062 9696047 9748361 9798677 9845475 9887204 
2881.853 9922806 9951908 9975146 9994071 10010801 10027546 10046060 10067172 
2885.711 10090872 10116420 10142911 10169605 10196435 10223901 10252878 
2889.086 10284322 10318941 10357128 10398987 10444488 10493608 10546274 
2892.461 10602358 10661549 10723138 10786328 10850365 10914788 10979661 
2895.836 11045644 11113705 11184770 11259404 11337590 11418708 11501808 
2899.212 11585924 11670344 11754695 11839043 11923698 12009066 12095714 
2902.587 12184290 12275837 12371661 12473700 12584065 12705113 12838858 
2905.962 12986988 13150637 13330398 13526627 13739736 13970567 14220554 
2909.337 14492026 14788048 15112069 15467611 15857731 16284499 16748415 
2912.713 17248260 17780704 18340316 18919368 19508062 20094982 20667222 
2916.088 21211540 21715092 22166398 22556276 22878172 23128396 23305654 
2919.463 23410708 23445644 23413598 23318752 23166168 22962014 22713524 
2922.838 22428388 22114406 21778602 21426718 21062998 20690488 20311448 
2926.214 19927916 19542504 19158316 18779012 18408188 18049090 17704086 
2929.589 17374628 17061342 16764301 16483468 16219017 15971422 15741463 
2932.964 15530086 15338287 15166800 15016276 14886865 14778514 14690828 
2936.339 14623131 14574352 14543091 14527667 14526068 14536177 14555730 
2939.715 14582594 14614549 14649439 14685036 14718863 14748207 14770244 
2943.090 14782232 14781797 14767137 14737312 14692168 14632115 14557897 
2946.465 14470297 14370045 14257652 14133824 13999358 13855585 13704124 
2949.840 13547006 13386410 13224666 13064075 12906936 12755471 12611526 
2953.216 12476403 12350461 12232909 12121873 12014781 11908972 11802463 
2956.591 11694426 11585299 11476778 11370970 11269873 11174846 11086360 
2959.966 11004134 10927469 10855681 10788213 10724480 10664045 10605944 
2963.341 10548990 10491747 10432817 10371394 10307524 10242005 10176340 
2966.717 10112369 10051619 9995001 9942704 9894161 9848413 9804515 9761988 
2970.574 9721094 9682811 9648709 9620395 9598956 9584671 9576792 9573795 
2974.431 9573956 9575996 9579629 9585735 9595881 9611958 9635174 9665702 
2978.289 9702595 9744097 9788605 9835292 9884505 9937939 9997986 10067140 
2982.146 10147273 10239545 10344151 10461028 10589876 10730618 10883110 
2985.521 11046895 11220980 11403549 11592110 11784057 11976952 12169018 
2988.897 12359190 12546879 12731676 12912768 13088731 13257520 13416386 
2992.272 13562334 13692211 13803041 13892289 13957992 13999075 14015497 
2995.647 14008267 13979419 13931566 13867602 13790268 13701664 13603325 
2999.022 13495992 13380107 13255781 13123092 12982342 12834072 12679209 
3002.398 12519041 12355357 12190065 12025147 11862254 11702262 11545299 
3005.773 11390577 11236926 11083126 10928229 10772169 10615473 10459251 
3009.148 10304808 10153328 10005635 9862027 9722430 9586581 9453955 9324070 
3013.006 9196579 9071313 8948619 8829050 8713599 8603272 8498976 8401016 
3016.863 8309109 8222271 8139219 8058633 7979525 7901676 7825301 7751305 
3020.720 7680598 7614021 7552030 7494543 7441176 7391152 7343516 7297312 
3024.578 7251564 7205723 7159399 7112714 7066182 7020698 6977194 6936547 
3028.435 6899356 6865971 6836486 6810972 6789220 6770909 6755376 6741670 
3032.293 6728520 6714596 6698882 6681228 6662177 6643153 6625903 6611842 
3036.150 6601660 6594967 6590576 6586936 6582607 6576730 6569171 6560305 
3040.008 6550560 6540198 6529251 6517393 6504556 6491049 6477772 6466038 
3043.865 6457193 6452062 6450648 6452041 6454661 6456712 6456621 6453497 
3047.722 6447331 6438637 6428405 6417482 6406437 6395424 6384121 6372177 
3051.580 6359437 6346035 6332674 6320327 6310089 6302745 6298518 6297029 
3055.437 6297470 6298793 6300234 6301513 6302965 6305095 6308331 6312611 
3059.295 6317112 6320330 6320528 6316271 6306982 6293138 6276333 6258824 
3063.152 6242960 6230689 6223063 6220148 6221105 6224489 6228737 6232346 
3067.010 6234539 6235222 6235093 6235445 6237778 6243499 6253222 6266753 
3070.867 6282922 6299858 6315337 6327289 6334271 6335382 6330663 6320645 
3074.724 6306588 6290103 6273241 6258150 6246857 6240775 6240481 6245209 
3078.582 6253221 6262089 6269475 6273611 6273780 6270087 6263409 6254522 
3082.439 6244179 6232882 6221143 6209925 6200695 6195231 6194925 6200327 
3086.297 6210431 6222906 6234625 6242930 6246253 6244944 6240836 6236556 
3090.154 6234526 6235917 6240473 6246726 6252831 6257102 6258925 6258376 
3094.011 6256140 6252894 6249109 6244817 6240075 6235114 6230487 6226985 
3097.869 6225255 6225451 6226914 6228615 6229401 6228583 6226507 6224139 
3101.726 6223029 6224611 6229422 6237120 6246274 6255108 6261695 6264520 
3105.584 6262788 6256214 6245143 6230232 6212611 6193629 6175215 6159363 
3109.441 6148038 6142759 6144164 6151772 6164075 6178564 6192539 6203410 
3113.299 6209469 6210063 6205851 6198589 6190731 6184861 6183008 6186116 
3117.156 6193851 6204703 6216317 6226267 6232640 6234394 6231612 6225052 
3121.013 6216021 6205754 6195463 6186089 6178685 6174352 6174200 6179141 
3124.871 6189358 6204090 6221547 6239098 6254077 6264209 6268160 6265913 
3128.728 6258519 6247815 6235727 6224148 6214433 6207593 6204065 6203770 
3132.586 6206193 6210397 6215209 6219351 6222101 6223351 6223787 6224603 
3136.443 6227181 6232370 6240128 6249404 6258593 6265871 6270100 6271007 
3140.301 6269434 6266767 6264581 6263918 6264999 6267204 6269539 6270817 
3144.158 6270372 6268050 6264102 6259159 6253669 6247961 6242074 6235958 
3148.015 6229719 6223718 6218558 6215021 6214018 6216094 6221568 6230256 
3151.873 6241658 6254803 6268532 6281498 6292404 6300238 6304495 6305425 
3155.730 6303991 6301703 6300245 6300857 6303988 6308993 6314341 6318088 
3159.588 6318591 6315215 6308579 6300606 6293890 6290868 6293177 6301190 
3163.445 6313839 6329169 6344735 6358298 6368054 6372980 6372686 6367315 
3167.302 6357691 6344951 6330836 6317323 6306302 6299049 6296005 6296247 
3171.160 6298305 6300264 6300826 6299890 6298382 6298240 6301265 6308610 
3175.017 6320029 6334052 6348368 6360792 6369992 6375744 6378960 6381009 
3178.875 6383256 6386254 6389861 6393191 6395276 6395361 6393128 6388875 
3182.732 6383349 6377579 6372624 6369612 6369361 6372381 6378585 6387233 
3186.590 6396978 6406263 6413769 6418845 6421674 6423253 6424756 6426934 
3190.447 6429765 6432199 6432717 6429989 6423404 6413760 6402696 6392072 
3194.304 6383384 6377022 6372209 6367639 6362258 6356011 6350095 6346804 
3198.162 6348505 6356540 6370713 6388832 6407270 6421983 6429859 6429405 
3202.019 6421341 6408419 6394494 6383621 6378981 6382042 6392463 6408170 
3205.877 6426162 6443260 6457106 6466625 6472207 6475351 6477961 6481664 
3209.734 6487105 6493841 6500543 6505600 6507859 6507029 6503880 6499926 
3213.592 6496997 6496500 6499181 6504910 6512817 6521530 6529778 6536486 
3217.449 6541096 6543630 6544744 6545445 6546895 6550134 6555420 6562283 
3221.306 6569329 6574642 6576274 6573196 6565461 6554600 6543223 6534170 
3225.164 6529718 6530929 6537258 6546894 6557362 6566253 6571942 6573742 
3229.021 6572190 6568371 6563869 6560004 6557864 6557900 6560056 6563797 
3232.879 6568300 6572646 6576232 6578661 6580124 6581060 6581918 6582989 
3236.736 6584284 6585365 6585975 6586001 6585914 6586669 6589370 6594839 
3240.594 6603045 6613245 6623921 6633586 6641184 6646531 6650392 6654005 
3244.451 6658668 6665001 6672947 6681504 6689456 6695423 6698528 6698417 
3248.308 6695246 6689660 6682503 6675017 6668511 6664385 6663714 6667028 
3252.166 6673993 6683513 6693645 6702346 6707827 6709014 6705767 6698663 
3256.023 6688820 6677615 6666499 6656898 6650144 6647497 6649533 6656141 
3259.881 6666195 6677621 6687850 6694628 6696523 6693322 6686003 6676145 
3263.738 6665355 6654789 6645060 6636507 6629686 6625722 6626177 6632431 
3267.595 6645071 6663061 6683863 6703889 6719699 6728959 6731292 6728296 
3271.453 6722867 6718039 6716165 6718142 6723658 6731551 6740574 6749996 
3275.310 6759638 6769603 6780150 6791100 6801872 6811609 6819483 6824986 
3279.168 6827916 6828373 6826549 6822537 6816423 6808380 6798933 6788993 
3283.025 6779952 6773464 6771103 6773924 6782394 6795959 6813215 6831975 
3286.883 6849728 6863965 6872765 6875249 6871935 6864527 6855732 6848399 
3290.740 6844943 6846574 6853231 6863457 6875176 6886051 6894228 6898468 
3294.597 6898297 6893979 6886281 6876437 6865996 6856754 6850571 6848685 
3298.455 6851807 6859355 6869784 6880755 6889897 6895355 6896236 6892881 
3302.312 6886448 6878499 6870457 6863214 6856970 6851447 6846038 6840121 
3306.170 6833306 6825434 6816835 6808085 6800228 6794450 6791946 6793464 
3310.027 6799134 6808082 6818585 6828392 6835299 6837710 6834919 6827292 
3313.885 6816025 6802729 6788946 6776036 6764861 6756035 6749911 6746653 
3317.742 6746287 6748614 6753318 6759923 6768017 6777289 6787625 6798923 
3321.599 6811077 6823697 6836218 6847843 6858016 6866184 6872249 6876332 
3325.457 6878530 6878949 6877774 6875037 6871294 6867271 6863999 6862299 
3329.314 6862610 6864518 6867097 6868994 6869201 6867267 6863745 6859795 
3333.172 6856723 6855468 6856262 6858679 6862058 6865842 6870022 6875049 
3337.029 6881457 6889385 6898360 6907001 6913765 6917143 6916574 6912372 
3340.886 6905755 6898183 6891086 6885078 6880288 6876251 6872342 6867966 
3344.744 6862833 6856746 6849681 6841708 6833234 6824955 6818010 6813761 
3348.601 6813405 6817549 6825753 6836542 6847463 6855885 6859501 6856961 
3352.459 6848028 6833655 6815694 6796460 6778213 6762863 6751550 6744415 
3356.316 6740726 6739038 6737781 6735673 6732516 6729380 6728399 6732069 
3360.174 6742363 6759610 6782429 6807670 6831384 6849947 6860984 6863941 
3364.031 6859726 6850160 6837099 6821814 6805055 6787347 6769391 6752470 
3367.888 6738433 6728963 6725380 6727803 6735383 6746601 6759940 6774371 
3371.746 6789545 6805496 6822016 6838096 6851793 6860621 6862211 6855234 
3375.603 6840077 6818706 6794473 6770952 6751271 6737353 6729829 6728223 
3379.461 6731352 6737986 6746921 6757197 6768014 6778495 6787712 6794713 
3383.318 6798793 6799667 6797666 6793783 6789477 6786391 6785971 6788981 
3387.176 6795332 6803880 6812668 6819140 6820887 6816140 6804169 6785668 
3391.033 6762469 6737399 6713559 6693822 6680293 6674102 6675097 6682259 
3394.890 6693635 6706960 6719886 6730381 6737321 6740397 6740271 6738186 
3398.748 6735594 6733685 6732954 6733084 6733131 6731997 6728884 6723843 
3402.605 6717777 6712334 6709402 6710507 6716273 6726173 6738709 6751723 
3406.463 6763028 6770991 6774905 6775094 6772671 6769056 6765567 6762846 
3410.320 6760975 6759530 6758085 6756437 6755190 6755353 6758307 6764921 
3414.177 6775194 6787827 6800466 6810063 6813892 6809923 6797822 6778538 
3418.035 6754354 6728202 6703206 6681835 6666149 6657073 6654739 6658358 
3421.892 6666386 6676802 6687421 6696371 6702561 6705712 6706348 6705308 
3425.750 6703319 6700547 6696691 6690947 6682908 6672895 6662073 6652210 
3429.607 6645232 6642270 6643369 6647466 6652999 6658524 6663467 6668161 
3433.465 6673714 6680945 6689963 6699509 6707319 6710940 6708451 6699554 
3437.322 6685690 6669583 6654474 6642971 6636397 6634564 6635993 6638663 
3441.179 6640774 6641382 6640668 6639679 6640155 6643733 6651629 6664016 
3445.037 6680069 6697883 6714952 6728647 6736924 6738667 6734100 6724586 
3448.894 6712188 6699168 6687303 6677659 6670668 6666315 6664484 6665189 
3452.752 6668570 6674634 6683042 6692818 6702514 6710656 6715975 6718025 
3456.609 6717010 6713779 6709240 6704127 6698663 6692755 6686258 6679280 
3460.467 6672564 6667272 6664856 6666552 6673116 6684372 6699507 6717120 
3464.324 6735567 6753420 6769611 6783417 6794741 6803617 6810248 6814585 
3468.181 6816506 6815554 6811379 6803907 6793787 6782522 6772385 6765905 
3472.039 6765363 6771958 6785741 6805246 6828347 6852820 6876857 6899470 
3475.896 6920511 6939812 6957143 6971669 6982157 6987639 6987931 6984047 
3479.754 6978168 6973062 6971249 6974208 6982121 6993998 7008430 7024196 
3483.611 7040681 7058031 7076657 7096620 7117464 7137904 7156560 7172447 
3487.469 7185337 7196013 7206049 7216962 7229988 7245370 7262712 7281092 
3491.326 7299550 7317275 7333768 7348591 7361085 7370511 7376110 7377455 
3495.183 7374863 7369412 7362755 7356646 7352394 7350720 7351441 7354060 
3499.041 7357982 7362903 7368847 7375961 7384319 7393605 7403309 7412784 
3502.898 7421724 7430253 7439029 7448758 7459844 7471983 7484246 7495184 
3506.756 7503611 7508804 7510826 7510356 7508214 7504764 7499747 7492410 
3510.613 7481908 7467957 7451217 7433193 7415984 7401204 7389536 7380249 
3514.470 7371558 7361204 7347571 7330209 7310217 7289780 7271529 7257467 
3518.328 7248328 7243186 7240020 7236208 7229507 7218757 7204154 7187186 
3522.185 7170082 7154979 7143263 7135018 7128923 7122681 7113475 7099068 
3526.043 7078467 7052456 7023493 6995091 6970893 6953520 6943936 6940958 
3529.900 6941919 6943478 6942861 6938667 6931227 6922330 6914446 6909745 
3533.758 6909476 6913553 6921100 6930499 6940355 6949428 6957008 6962237 
3537.615 6964252 6961840 6954202 6940858 6922568 6901243 6879560 6860478 
3541.472 6846113 6837316 6833450 6832415 6831898 6829758 6824931 6817683 
3545.330 6809352 6801794 6796984 6796030 6799496 6806808 6816678 6827154 
3549.187 6836194 6841623 6841776 6835647 6823282 6805771 6785211 6764129 
3553.045 6745271 6730727 6721689 6718334 6719786 6724438 6730198 6734925 
3556.902 6736689 6734032 6726277 6713508 6697017 6678924 6661900 6648703 
3560.760 6641523 6641523 6648460 6660904 6676532 6692758 6707447 6718948 
3564.617 6726715 6730968 6732483 6732209 6731280 6730499 6730581 6731615 
3568.474 6733562 6735892 6737901 6738823 6738104 6735281 6730532 6724247 
3572.332 6717158 6709944 6703382 6697871 6693754 6690997 6689390 6688473 
3576.189 6687606 6686046 6683124 6678272 6671486 6662917 6653257 6643446 
3580.047 6634291 6626704 6621356 6618781 6619597 6624167 6632689 6644609 
3583.904 6658739 6673095 6685200 6692499 6693336 6687055 6674482 6657504 
3587.761 6638737 6620550 6604792 6592107 6582248 6574163 6566322 6557177 
3591.619 6545560 6530703 6512727 6492676 6472659 6455581 6444768 6443064 
3595.476 6452021 6471488 6499184 6531130 6562730 6589656 6608920 6619259 
3599.334 6621278 6616853 6608654 6599273 6590959 6585394 6583626 6586087 
3603.191 6592733 6602645 6614440 6625889 6634826 6639115 6637510 6629709 
3607.049 6616757 6600686 6584301 6570468 6561869 6560352 6566654 6580279 
3610.906 6599524 6621734 6643777 6662534 6675762 6682238 6682217 6676773 
3614.763 6667630 6656384 6644211 6631750 6619497 6607906 6598086 6591526 
3618.621 6589905 6594472 6605655 6622635 6643574 6666024 6687505 6705964 
3622.478 6720046 6729020 6733048 6732604 6728950 6724016 6720423 6720991 
3626.336 6728167 6743169 6765241 6791387 6816740 6835700 6843564 6837655 
3630.193 6818530 6789569 6756136 6724119 6698567 6682354 6676034 6677899 
3634.051 6685115 6694370 6703312 6710737 6717145 6724082 6733588 6747573 
3637.908 6767097 6791903 6820681 6851186 6881100 6908292 6931412 6950016 
3641.765 6964288 6974757 6981886 6985724 6985967 6982009 6973582 6960848 
3645.623 6944807 6927210 6910596 6897537 6890660 6891887 6902318 6921794 
3649.480 6949098 6981871 7017214 7051701 7082458 7107244 7124990 7135691 
3653.338 7140380 7140588 7138048 7134164 7129937 7125683 7121466 7116970 
3657.195 7111750 7105349 7097288 7086942 7073946 7058069 7039629 7019388 
3661.052 6998889 6980062 6964969 6955275 6951932 6954888 6963032 6974413 
3664.910 6986863 6998189 7006901 7012278 7014597 7014630 7013635 7012626 
3668.767 7012444 7013136 7014248 7014700 7013016 7007454 6996377 6978634 
3672.625 6953862 6922718 6887494 6851544 6819264 6795013 6782131 6781786 
3676.482 6792629 6810885 6831424 6848841 6858948 6859594 6850923 6834922 
3680.340 6814909 6794219 6775743 6761129 6750878 6744394 6740198 6736397 
3684.197 6731116 6722931 6711372 6697147 6682297 6669762 6662661 6663100 
3688.054 6671411 6685737 6702516 6717297 6726259 6727201 6719970 6706271 
3691.912 6688845 6670244 6652430 6636386 6622471 6610796 6601761 6595976 
3695.769 6593991 6595859 6600675 6606604 6611512 6613216 6610223 6601864 
3699.627 6588320 6570276 6548935 6526047 6503998 6485703 6474567 6473430 
3703.484 6483625 6504260 6531947 6561436 6587162 6604650 6611931 6609900 
3707.342 6601456 6590169 6579060 6569431 6561018 6552795 6544082 6535331 
3711.199 6528241 6525106 6527593 6536139 6549468 6565323 6581351 6596141 
3715.056 6609640 6622541 6635600 6648662 6660152 6667472 6667989 6660253 
3718.914 6644784 6624204 6602490 6583599 6570431 6563911 6562978 6565202 
3722.771 6567902 6568818 6566943 6562333 6556127 6549817 6545074 6543349 
3726.629 6545662 6552424 6563636 6578365 6595415 6613023 6629596 6643791 
3730.486 6654978 6663193 6669167 6673946 6678932 6685376 6694321 6706376 
3734.344 6721350 6738250 6755247 6769758 6779086 6781240 6775542 6762886 
3738.201 6745863 6727676 6711539 6699517 6692194 6688796 6687836 6687885 
3742.058 6688229 6688987 6690832 6694266 6699110 6704484 6708825 6710943 
3745.916 6710358 6707729 6704570 6702159 6701237 6701205 6700553 6697403 
3749.773 6690535 6680353 6668810 6658972 6653885 6655335 6662951 6674352 
3753.631 6685769 6693250 6694123 6687555 6674945 6659312 6644468 6634055 
3757.488 6630744 6635978 6649694 6670461 6695893 6722971 6748229 6768561 
3761.345 6781561 6786016 6782429 6772643 6759514 6746125 6735045 6727810 
3765.203 6724629 6725009 6727782 6732259 6738218 6745675 6754774 6764890 
3769.060 6774906 6783087 6787979 6788937 6786823 6783784 6782567 6785506 
3772.918 6793435 6805079 6817380 6826321 6828471 6822028 6807602 6788140 
3776.775 6767855 6750983 6740590 6737680 6741176 6748233 6755304 6758972 
3780.633 6756688 6747290 6731155 6709951 6686502 6664052 6645740 6633963 
3784.490 6629926 6633226 6642336 6654885 6668861 6682881 6696723 6711066 
3788.347 6726721 6743780 6761250 6776803 6787572 6790895 6785515 6772084 
3792.205 6753086 6732135 6713053 6698630 6690553 6688863 6692777 6701157 
3796.062 6712907 6727294 6743822 6761941 6780827 6799470 6816611 6831147 
3799.920 6842078 6848655 6850378 6846823 6837830 6823626 6805242 6784481 
3803.777 6764161 6747528 6737721 6737092 6746562 6765256 6790736 6819278 
3807.635 6846778 6869542 6884736 6890791 6887651 6876324 6859100 6838806 
3811.492 6818325 6800396 6786648 6777687 6772925 6770924 6770030 6769015 
3815.349 6767501 6766104 6766076 6768565 6774110 6782002 6790437 6797001 
3819.207 6799258 6795858 6786983 6774364 6760937 6750067 6744416 6745451 
3823.064 6753044 6765863 6781865 6799037 6815763 6830977 6844096 6854708 
3826.922 6862125 6865804 6865322 6860847 6853487 6845136 6838171 6834537 
3830.779 6835212 6839575 6845715 6850730 6852016 6847969 6838599 6825299 
3834.636 6810459 6796504 6785247 6777363 6772853 6771096 6771735 6774639 
3838.494 6780019 6787866 6797715 6808216 6817514 6823500 6824875 6821248 
3842.351 6813550 6803731 6794278 6787319 6784283 6785492 6790364 6797505 
3846.209 6805365 6812405 6817374 6819491 6818578 6814983 6809356 6802622 
3850.066 6795544 6788476 6781406 6773818 6765363 6755951 6746455 6738394 
3853.924 6733814 6734390 6740725 6752112 6766325 6780383 6791449 6797489 
3857.781 6797992 6794090 6788096 6782979 6781549 6785740 6796337 6812493 
3861.638 6832319 6852885 6870886 6883197 6887699 6883435 6871288 6853523 
3865.496 6833394 6814278 6798798 6788333 6782816 6781246 6782158 6784218 
3869.353 6786813 6789781 6793270 6797135 6800986 6804237 6806274 6806934 
3873.211 6806846 6807026 6808555 6812022 6817014 6822235 6825972 6826741 
3877.068 6824140 6819048 6813353 6809517 6809414 6813846 6822110 6832342 
3880.926 6842123 6849321 6853024 6853381 6851780 6850125 6850439 6853970 
3884.783 6861149 6871358 6883421 6895581 6906378 6914600 6919725 6921819 
3888.640 6921562 6919990 6918096 6916725 6916414 6916949 6917927 6918557 
3892.498 6918217 6916642 6914193 6911515 6909495 6908858 6909793 6911644 
3896.355 6913212 6913072 6910120 6904048 6895903 6887606 6881879 6880967 
3900.213 6886178 6897206 6912248 6928371 6942603 6952540 6957090 6956293 
3904.070 6951128 6942727 6932128 6919815 6906274 6892028 6878321 6866726 
3907.927 6858959 6855989 6857805 6862899 6869142 6874103 6876449 6876135 
3911.785 6874541 6873701 6875466 6880485 6888193 6896698 6904031 6908556 
3915.642 6909758 6908258 6905392 6902539 6900806 6900629 6902073 6905059 
3919.500 6909492 6915238 6921974 6928737 6934162 6936680 6935367 6930142 
3923.357 6922289 6913811 6906917 6902984 6902086 6903177 6904648 6905240 
3927.215 6904799 6904455 6906197 6911801 6922045 6936317 6952670 6968566 
3931.072 6981753 6990834 6995383 6995506 6991505 6983577 6971794 6956640 
3934.929 6939460 6922443 6908395 6899709 6897647 6901398 6908615 6915928 
3938.787 6920144 6919537 6914051 6905423 6896209 6888787 6884844 6884843 
3942.644 6888515 6895069 6903801 6913993 6924989 6935921 6945916 6954239 
3946.502 6960890 6966834 6973870 6983699 6997237 7013371 7029058 7039775 
3950.359 7041110 7030282 7007602 6976448 6942788 6912885 6891940 6882350 
3954.217 6883571 6892770 6906270 6920974 6935233 6949085 6963256 6978443 
3958.074 6994275 7009157 7020764 7026825 7026110 7019146 7008232 6996863 
3961.931 6988814 6987000 6992800 7005659 7023213 7041935 7058038 7068162 
3965.789 7070295 7064145 7050996 7033300 7014246 6996709 6982990 6974197 
3969.646 6970650 6971783 6976835 6984930 6995233 7006704 7018137 7027885 
3973.504 7034197 7035640 7031666 7022793 7010983 6998953 6989746 6985558 
3977.361 6987297 6994319 7004611 7015330 7023910 7028511 7028468 7024307 
3981.219 7017328 7009179 7001360 6994883 6990440 6988331 6988613 6991301 
3985.076 6996285 7003113 7011111 7019235 7026467 7031678 7034372 7034480 
3988.933 7032522 7029298 7025673 7022199 7019193 7016474 7013879 7011668 
3992.791 7010325 7010910 7014360 7021326 7031655 7044220 7057218 7068618 
3996.648 7076975 7081925 7084297 7085952 7089056 7095197 7104776 7116622 
4000.506 7128431 
##END=
