##TITLE=Bambu-Lab_PLA_White_Filament_r1_ATR-Corrected
##JCAMP-DX=5.01  $$ Nicolet v. 1
##DATATYPE=INFRARED SPECTRUM
##ORIGIN=Curtin University
##OWNER=Nicolet
##LONGDATE=2024/07/03
##TIME=09:21:10
##SPECTROMETER/DATA SYSTEM=Nicolet iS50
##DATA PROCESSING=
Ratio against background
%Transmittance->Absorbance
ATR Correction
Truncated
ElementMultiply or ElementDivide
##COMMENTS=
Number of sample scans: 32
Collection length: 47.27 sec
Sample gain: 1.0
Background collected on: Wed Jul 03 09:19:09 2024 (GMT+08:00);
Number of background scans: 32
Background gain: 1.0
Sample spacing:  1.000
Number of scan points: 16672
Resolution points: 8192
Number of FFT points: 65536
Apodization: N-B strong;
Phase correction: Mertz;
Laser frequency: 15798.3 cm-1
Number of rejected sample scans: 0
Number of rejected background scans: 0
Bench serial number: AUP1200105;
##RESOLUTION=4.000
##XUNITS=1/CM
##YUNITS=ABSORBANCE
##FIRSTX=400.163452
##LASTX=4000.187744
##FIRSTY=0.058256
##MAXX=4000.187744
##MINX=400.163452
##MAXY=1.089661
##MINY=-0.030549
##XFACTOR=1.000000
##YFACTOR=1.000000E-008
##NPOINTS=7468
##DELTAX=0.482125
##ZPD=8192
##XYDATA=(X++(Y..Y))
400.163 5825584 5693085 5564206 5439361 5320232 5211317 5117567 5041758 
404.020 4982862 4935704 4892357 4844579 4786264 4715077 4632675 4543450 
407.877 4452593 4364204 4280242 4200624 4123940 4048606 3973580 3898532 
411.734 3823476 3748186 3671924 3593569 3512183 3427783 3341988 3258070 
415.591 3180581 3114261 3062926 3028475 3010358 3005609 3009487 3016351 
419.448 3020767 3018466 3006866 2985379 2955233 2918932 2879656 2840449 
423.305 2803751 2771042 2742861 2719191 2699938 2685351 2676198 2673640 
427.162 2678630 2691254 2710077 2731860 2751799 2764404 2764773 2749982 
431.019 2719952 2677698 2628618 2578997 2534768 2499731 2474998 2459088 
434.876 2448875 2440997 2433139 2424875 2417659 2414047 2416514 2426282 
438.733 2442589 2462788 2483102 2499806 2510375 2514132 2512241 2506951 
442.590 2500487 2494017 2487150 2478077 2464465 2444531 2418069 2386772 
446.447 2353892 2323156 2297461 2277899 2263525 2251950 2240605 2228089 
450.304 2214938 2203524 2197023 2197785 2205984 2218950 2231720 2238650 
454.161 2235398 2220558 2196263 2167475 2140295 2119907 2109035 2107359 
458.017 2112110 2119527 2126466 2131523 2135268 2139489 2146022 2155609 
461.874 2167303 2178670 2186564 2187851 2181161 2166401 2144965 2119296 
465.731 2092283 2066744 2044975 2028493 2017742 2012060 2009725 2008271 
469.588 2005172 1998584 1988045 1974771 1961311 1950742 1945420 1946003 
473.445 1950916 1956692 1958987 1953927 1939407 1915716 1885467 1852720 
477.302 1821836 1796311 1778020 1767117 1762384 1761849 1763474 1765560 
481.159 1766960 1767025 1765522 1762548 1758445 1753836 1749525 1746357 
485.016 1744992 1745675 1748057 1751244 1753982 1755008 1753432 1749078 
488.873 1742497 1734875 1727667 1722120 1718889 1717845 1718132 1718485 
492.730 1717718 1715153 1710927 1705723 1701183 1698770 1699559 1703886 
496.587 1711222 1720411 1729956 1738442 1744819 1748568 1749721 1748742 
500.444 1746365 1743397 1740585 1738389 1736904 1735719 1733981 1730597 
504.301 1724585 1715499 1703760 1690775 1678703 1669934 1666485 1669383 
508.158 1678418 1692233 1708756 1725760 1741386 1754357 1763950 1769767 
512.015 1771467 1768739 1761377 1749582 1734235 1716933 1699767 1684800 
515.871 1673481 1666168 1661986 1659048 1655050 1647928 1636502 1620794 
519.728 1602002 1582170 1563640 1548453 1537937 1532358 1530998 1532353 
523.585 1534577 1536041 1535779 1533633 1530678 1528437 1528466 1531689 
527.442 1537992 1546083 1553847 1558941 1559530 1554834 1545264 1532170 
531.299 1517256 1502020 1487302 1473323 1459942 1447161 1435447 1425804 
535.156 1419435 1417189 1419060 1423932 1429758 1434113 1434956 1431216 
539.013 1423124 1412024 1399877 1388623 1379690 1373778 1370982 1371085 
542.870 1373925 1379521 1388051 1399642 1414072 1430620 1448096 1465013 
546.727 1479964 1491873 1500257 1505269 1507656 1508555 1509223 1510772 
550.584 1513801 1518169 1522888 1526178 1525884 1520042 1507584 1488847 
554.441 1465786 1441690 1420407 1405366 1398860 1401312 1411307 1426143 
558.298 1442629 1457976 1470333 1479014 1484224 1486611 1486826 1485245 
562.155 1481997 1477191 1471158 1464638 1458773 1454846 1454023 1457047 
566.012 1464102 1474818 1488330 1503493 1518982 1533405 1545437 1553974 
569.869 1558330 1558481 1555207 1550071 1545195 1542757 1544472 1551090 
573.725 1562153 1576079 1590552 1603177 1612129 1616666 1617289 1615586 
577.582 1613701 1613737 1617135 1624339 1634776 1647134 1659881 1671776 
581.439 1682271 1691580 1700553 1710207 1721277 1733856 1747261 1760205 
585.296 1771146 1778861 1782803 1783401 1782017 1780579 1781114 1785128 
589.153 1793212 1804794 1818278 1831464 1842106 1848566 1850273 1847854 
593.010 1842932 1837644 1833942 1833068 1835207 1839562 1844750 1849351 
596.867 1852446 1853889 1854287 1854631 1855844 1858428 1862286 1866887 
600.724 1871634 1876219 1880858 1886210 1893165 1902348 1913863 1927103 
604.581 1940911 1953890 1964867 1973203 1978965 1982870 1986095 1989991 
608.438 1995856 2004774 2017542 2034629 2056146 2081823 2110958 2142517 
612.295 2175179 2207498 2238158 2266088 2290653 2311632 2329254 2344065 
616.152 2356895 2368683 2380413 2392994 2407097 2423044 2440693 2459440 
620.009 2478299 2496135 2511976 2525304 2536341 2546063 2556089 2568299 
623.866 2584405 2605478 2631648 2662036 2694972 2728434 2760519 2789905 
627.723 2816036 2839060 2859590 2878319 2895743 2912002 2927009 2940646 
631.579 2953027 2964584 2976023 2988099 3001312 3015732 3030967 3046319 
635.436 3061068 3074783 3087433 3099397 3111258 3123619 3136901 3151287 
639.293 3166808 3183456 3201277 3220335 3240639 3261993 3283894 3305627 
643.150 3326362 3345427 3362498 3377734 3391728 3405301 3419342 3434506 
647.007 3451140 3469207 3488316 3507870 3527189 3545624 3562764 3578432 
650.864 3592805 3606310 3619541 3633104 3647449 3662834 3679321 3696881 
654.721 3715543 3735457 3756857 3779892 3804433 3829920 3855374 3879559 
658.578 3901283 3919697 3934555 3946220 3955543 3963606 3971487 3980080 
662.435 3990045 4001820 4015645 4031561 4049380 4068666 4088782 4109070 
666.292 4129119 4148931 4169053 4190393 4213962 4240387 4269675 4301076 
670.149 4333274 4364758 4394223 4420841 4444345 4464897 4482858 4498599 
674.006 4512465 4524851 4536376 4547928 4560570 4575287 4592684 4612741 
677.863 4634821 4657906 4680972 4703458 4725310 4747040 4769389 4792829 
681.720 4817270 4841958 4865657 4887052 4905258 4920129 4932405 4943458 
685.577 4954934 4968279 4984374 5003362 5024699 5047349 5070085 5091768 
689.433 5111554 5129030 5144239 5157671 5170214 5183063 5197631 5215344 
693.290 5237437 5264743 5297488 5335189 5376696 5420387 5464438 5507141 
697.147 5547148 5583585 5615974 5644081 5667656 5686310 5699490 5706573 
701.004 5707125 5701074 5688820 5671183 5649309 5624440 5597836 5570699 
704.861 5544246 5519702 5498279 5480936 5468077 5459267 5453091 5447346 
708.718 5439469 5427227 5409310 5385728 5357736 5327474 5297203 5268553 
712.575 5242029 5216831 5191155 5162740 5129490 5090018 5043906 4991612 
716.432 4934183 4872842 4808642 4742224 4673767 4603090 4529874 4453864 
720.289 4375067 4293834 4210881 4127211 4043981 3962357 3883406 3808009 
724.146 3736886 3670660 3609957 3555438 3507882 3468040 3436598 3414046 
728.003 3400604 3396303 3401146 3415263 3439136 3473691 3520147 3579767 
731.860 3653418 3741199 3842121 3954124 4074313 4199487 4326671 4453595 
735.717 4578825 4701639 4821665 4938422 5051069 5158442 5259371 5353155 
739.574 5439951 5520875 5597735 5672482 5746651 5820911 5895096 5968555 
743.431 6040752 6111851 6182802 6255293 6331040 6411250 6496086 6584650 
747.287 6675321 6766373 6856569 6945492 7033527 7121401 7209735 7298606 
751.144 7387369 7474792 7559340 7639447 7713613 7780341 7837932 7884367 
755.001 7917344 7934519 7933917 7914288 7875431 7818060 7743674 7654167 
758.858 7551480 7437424 7313571 7181328 7042010 6896975 6747622 6595461 
762.715 6442115 6289266 6138568 5991538 5849331 5712573 5581340 5455207 
766.572 5333546 5215868 5102076 4992525 4887851 4788520 4694456 4604718 
770.429 4517602 4431021 4343081 4252615 4159596 4065037 3970655 3878330 
774.286 3789643 3705487 3626102 3551153 3479999 3411892 3346136 3282075 
778.143 3219211 3157152 3095741 3035031 2975252 2916660 2859344 2803070 
782.000 2747246 2691089 2633859 2575186 2515146 2454302 2393425 2333212 
785.857 2274108 2216242 2159631 2104468 2051330 2001210 1955280 1914467 
789.714 1879077 1848535 1821498 1796226 1771041 1744825 1717262 1688741 
793.571 1660052 1632028 1605196 1579663 1555217 1531571 1508557 1486346 
797.428 1465361 1446168 1429267 1414960 1403263 1394003 1386908 1381716 
801.285 1378274 1376475 1376191 1377140 1378961 1381074 1382809 1383521 
805.141 1382705 1380117 1375837 1370306 1364248 1358665 1354676 1353360 
808.998 1355621 1361952 1372269 1385848 1401268 1416618 1429745 1438634 
812.855 1441806 1438619 1429451 1415613 1399140 1382338 1367403 1356019 
816.712 1349213 1347253 1349824 1356201 1365433 1376471 1388244 1399708 
820.569 1409946 1418287 1424440 1428669 1431694 1434582 1438380 1443724 
824.426 1450568 1458140 1465168 1470357 1472981 1473235 1472358 1472330 
828.283 1475203 1482477 1494528 1510528 1528733 1547145 1564220 1579401 
832.140 1593192 1606872 1621876 1639241 1659209 1681278 1704566 1728377 
835.997 1752744 1778610 1807625 1841761 1882695 1931363 1987763 2050994 
839.854 2119583 2191761 2265806 2340182 2413607 2485104 2554044 2620154 
843.711 2683519 2744456 2803260 2859966 2914098 2964645 3010237 3049540 
847.568 3081695 3106603 3125043 3138589 3149303 3159472 3171518 3187922 
851.425 3211337 3244647 3290862 3352878 3433108 3533249 3654063 3795504 
855.282 3956874 4137036 4334508 4547355 4772967 5007960 5248210 5489263 
859.139 5726837 5957506 6179067 6390569 6591981 6783619 6965571 7137365 
862.995 7297931 7445930 7580074 7699558 7804128 7894034 7969784 8031887 
866.852 8080660 8116192 8138368 8146967 8141581 8121705 8086664 8035682 
870.709 7968041 7883299 7781472 7663131 7529302 7381265 7220305 7047517 
874.566 6863753 6669850 6466817 6256181 6040015 5820949 5601841 5385503 
878.423 5174380 4970391 4774880 4588761 4412607 4246869 4091880 3947962 
882.280 3815445 3694757 3586429 3491135 3409715 3342926 3291304 3254879 
886.137 3232928 3223950 3225638 3235233 3249851 3266990 3284873 3302715 
889.994 3320596 3339242 3359506 3381876 3406152 3431363 3456018 3478546 
893.851 3497839 3513591 3526340 3537197 3547379 3557653 3568114 3578185 
897.708 3587063 3594201 3599804 3605016 3611727 3622189 3638347 3661462 
901.565 3691891 3729225 3772606 3821189 3874370 3931877 3993659 4059591 
905.422 4129237 4201681 4275509 4348957 4420113 4487185 4548629 4603245 
909.279 4650160 4688717 4718332 4738359 4747982 4746294 4732442 4705897 
913.136 4666736 4615890 4555151 4487138 4414853 4341315 4269075 4199949 
916.993 4134831 4073785 4016215 3961211 3907747 3855020 3802606 3750565 
920.849 3699422 3650038 3603351 3560083 3520411 3483878 3449467 3415894 
924.706 3382125 3347768 3313312 3280040 3249717 3223975 3203881 3189586 
928.563 3180449 3175293 3172852 3172141 3172645 3174265 3177084 3181150 
932.420 3186296 3192137 3198104 3203673 3208442 3212271 3215243 3217793 
936.277 3220609 3224636 3230958 3240610 3254332 3272299 3294042 3318526 
940.134 3344464 3370683 3396526 3422055 3447929 3475163 3504727 3537310 
943.991 3573220 3612539 3655401 3702165 3753453 3809985 3872277 3940325 
947.848 4013526 4090805 4170957 4253024 4336632 4422074 4510250 4602314 
951.705 4699412 4802343 4911406 5026289 5146112 5269424 5394378 5518910 
955.562 5640986 5758941 5871705 5978999 6081244 6179392 6274664 6368214 
959.419 6460987 6553641 6646555 6739913 6833571 6927012 7019130 7108162 
963.276 7191684 7266897 7330887 7381040 7415189 7431754 7429600 7407978 
967.133 7366311 7304360 7222243 7120630 7000828 6864747 6714818 6553776 
970.990 6384612 6210440 6034474 5859907 5689719 5526379 5371526 5225806 
974.847 5089010 4960361 4839121 4725076 4618766 4521464 4434686 4359639 
978.703 4296693 4245265 4203841 4170595 4143821 4122407 4105921 4094481 
982.560 4088410 4087897 4092796 4102633 4116799 4134715 4156061 4180795 
986.417 4209107 4241397 4278092 4319690 4366479 4418568 4475631 4536691 
990.274 4600106 4663580 4724606 4780848 4830727 4873722 4910407 4942131 
994.131 4970587 4997155 5022592 5046959 5069841 5090806 5109775 5127344 
997.988 5144684 5163415 5185133 5211153 5242237 5278652 5320244 5366703 
1001.845 5417749 5473307 5533562 5599019 5670408 5748714 5835061 5930564 
1005.702 6036219 6152697 6280195 6418457 6566807 6724470 6890797 7065692 
1009.559 7249690 7444052 7650482 7870856 8106726 8359059 8627995 8912960 
1013.416 9212849 9526350 9852289 10189828 10538565 10898478 11269722 
1016.791 11652347 12046176 12450578 12864418 13286152 13713780 14145082 
1020.166 14577667 15009110 15437043 15859209 16273618 16678716 17073464 
1023.540 17457558 17831440 18196314 18553980 18906694 19257020 19607714 
1026.916 19961720 20322322 20693176 21078356 21482220 21909060 22362770 
1030.291 22846372 23361758 23909586 24489490 25100294 25740436 26408116 
1033.666 27101276 27817438 28553268 29304240 30064512 30826982 31583772 
1037.041 32326758 33048252 33741436 34400620 35021140 35599048 36130680 
1040.417 36612292 37040016 37409824 37718044 37961752 38139392 38250996 
1043.792 38298412 38285044 38215516 38095168 37929584 37724128 37483812 
1047.167 37213196 36916544 36598044 36262092 35913456 35557304 35198788 
1050.542 34842824 34493484 34153512 33824292 33505892 33197582 32898388 
1053.917 32607674 32325470 32052532 31790298 31540736 31306356 31090334 
1057.293 30896824 30731150 30599982 30510950 30472336 30492390 30578872 
1060.668 30738720 30977992 31301922 31714926 32220564 32821312 33518234 
1064.043 34310720 35196448 36171708 37231880 38372160 39588012 40875420 
1067.418 42230560 43649332 45126684 46656056 48229512 49838284 51473660 
1070.794 53128080 54795720 56472672 58156204 59843792 61531872 63215060 
1074.169 64885848 66535212 68153328 69730928 71259976 72734312 74149248 
1077.544 75500784 76784624 77994912 79123552 80160096 81092632 81909112 
1080.919 82598928 83154488 83571688 83849600 83989320 83992824 83862152 
1084.295 83599352 83207448 82691512 82059160 81320744 80488392 79574944 
1087.670 78592952 77554368 76470680 75353424 74214224 73064480 71914200 
1091.045 70770944 69638840 68518608 67408224 66304344 65203912 64105248 
1094.420 63008396 61914940 60827184 59747456 58677508 57618356 56570388 
1097.796 55533564 54507560 53491880 52485768 51488448 50499248 49517920 
1101.171 48544848 47581124 46628420 45688732 44763800 43855248 42964344 
1104.546 42092380 41241016 40412532 39609988 38837020 38097540 37395448 
1107.921 36734172 36116560 35544796 35020544 34544904 34118588 33741852 
1111.297 33414530 33136040 32905394 32721164 32581704 32485074 32429240 
1114.672 32412046 32431302 32484894 32570928 32687828 32834390 33009952 
1118.047 33214214 33447182 33709052 33999948 34319840 34668396 35044904 
1121.422 35447948 35875256 36323352 36787280 37260268 37733684 38197292 
1124.798 38639460 39048080 39411112 39717628 39958544 40127200 40219836 
1128.173 40235536 40175980 40044924 39847420 39589028 39275064 38910072 
1131.548 38497568 38039780 37537876 36992112 36402164 35767468 35087712 
1134.923 34363124 33594800 32785020 31937188 31055778 30146110 29213962 
1138.299 28265276 27305922 26341494 25377342 24418694 23470752 22538854 
1141.674 21628388 20744722 19892924 19077428 18301754 17568392 16878858 
1145.049 16233790 15633240 15076883 14564115 14094122 13665855 13277967 
1148.424 12928881 12616760 12339678 12095697 11882895 11699307 11542936 
1151.800 11411633 11303157 11215258 11145893 11093364 11056467 11034548 
1155.175 11027402 11035193 11058302 11097230 11152615 11225171 11315720 
1158.550 11425093 11554078 11703296 11873223 12064253 12276869 12511899 
1161.925 12770706 13055339 13368410 13713081 14092866 14511545 14973184 
1165.301 15482312 16044044 16664225 17349442 18106892 18944132 19868804 
1168.676 20888440 22010304 23241402 24588410 26057562 27654440 29383462 
1172.051 31247374 33246406 35377692 37634428 40005128 42472840 45014416 
1175.426 47599892 50192220 52747584 55216764 57547260 59686548 61585672 
1178.802 63202768 64505868 65474808 66101916 66391932 66361020 66035252 
1182.177 65448408 64639284 63648624 62516408 61279560 59970592 58617276 
1185.552 57242708 55866044 54503072 53166728 51867264 50612432 49407588 
1188.927 48255880 47158740 46116252 45127656 44191792 43307356 42473072 
1192.302 41687720 40950140 40259172 39613624 39012276 38453836 37936924 
1195.678 37460128 37021936 36620688 36254544 35921480 35619216 35345420 
1199.053 35097708 34874008 34672596 34492280 34332268 34191944 34070476 
1202.428 33966512 33877896 33801728 33734496 33672600 33612628 33551610 
1205.803 33487064 33416880 33338962 33251160 33151090 33036224 32904124 
1209.179 32752726 32580298 32385600 32167744 31926144 31660488 31370770 
1212.554 31057480 30721558 30364406 29987752 29593450 29183328 28759140 
1215.929 28322712 27875954 27421096 26960636 26497174 26033214 25570894 
1219.304 25111816 24657002 24207002 23762066 23322352 22888056 22459518 
1222.680 22037176 21621644 21213542 20813536 20422318 20040564 19668942 
1226.055 19308058 18958422 18620378 18294100 17979594 17676722 17385276 
1229.430 17105146 16836296 16578932 16333301 16099685 15878144 15668444 
1232.805 15469921 15281607 15102282 14930792 14766216 14608051 14456154 
1236.181 14310671 14171804 14039698 13914327 13795416 13682528 13575198 
1239.556 13472894 13375193 13281725 13192248 13106635 13024917 12947257 
1242.931 12873912 12805106 12740995 12681498 12626413 12575406 12528262 
1246.306 12484991 12445889 12411556 12382625 12359629 12342841 12332203 
1249.682 12327550 12328627 12335410 12348051 12366803 12391885 12423217 
1253.057 12460441 12502952 12550119 12601498 12656984 12716781 12781142 
1256.432 12850159 12923507 13000463 13079952 13160989 13242778 13324966 
1259.807 13407527 13490519 13573827 13656963 13738973 13818659 13894743 
1263.183 13966204 14032219 14092264 14145836 14192374 14231059 14260982 
1266.558 14281100 14290488 14288314 14273949 14246841 14206518 14152575 
1269.933 14084706 14002781 13906839 13797018 13673528 13536458 13385808 
1273.308 13221633 13044208 12854233 12652878 12441748 12222599 11997018 
1276.684 11766113 11530419 11289971 11044554 10794088 10538875 10279758 
1280.059 10018235 9756149 9495658 9238911 8987859 8744154 8508972 8283145 
1283.916 8067124 7861309 7666150 7482477 7311507 7154790 7014051 6890791 
1287.774 6786103 6700402 6633631 6585333 6554991 6542176 6546546 6567608 
1291.631 6604443 6655352 6717767 6788434 6863755 6940406 7015694 7087947 
1295.489 7156354 7220811 7281464 7338472 7391745 7441047 7486061 7526617 
1299.346 7562726 7594614 7622564 7646852 7667619 7684976 7698983 7709823 
1303.203 7717803 7723307 7726729 7728341 7728243 7726373 7722620 7716885 
1307.061 7709215 7699783 7688871 7676705 7663490 7649281 7634072 7617897 
1310.918 7600939 7583578 7566358 7549895 7534668 7520915 7508480 7496881 
1314.776 7485476 7473616 7460948 7447553 7433989 7421181 7410179 7401851 
1318.633 7396654 7394450 7394580 7396057 7397838 7399080 7399373 7398814 
1322.490 7397894 7397360 7397987 7400422 7405068 7412153 7421725 7433790 
1326.348 7448455 7465884 7486487 7510803 7539478 7573191 7612540 7657879 
1330.205 7709310 7766556 7829087 7896105 7966757 8040235 8115909 8193336 
1334.063 8272345 8353001 8435576 8520614 8608806 8700972 8797924 8900283 
1337.920 9008332 9121960 9240682 9363877 9490994 9621800 9756431 9895403 
1341.778 10039318 10188675 10343729 10504428 10670607 10842192 11019371 
1345.153 11202588 11392397 11589169 11792839 12002865 12218273 12437946 
1348.528 12661037 12887034 13115826 13347346 13581201 13816355 14050943 
1351.903 14282443 14508075 14725110 14931267 15124898 15304765 15469976 
1355.279 15619737 15753177 15869461 15967917 16048107 16110057 16154273 
1358.654 16181767 16193990 16192810 16180262 16158584 16129914 16096212 
1362.029 16059083 16019703 15978836 15936816 15893595 15848710 15801138 
1365.404 15749188 15690397 15621544 15538897 15438582 15317161 15172194 
1368.780 15002783 14809844 14596356 14367303 14129519 13891596 13663460 
1372.155 13456056 13280860 13149264 13071778 13057205 13111697 13237980 
1375.530 13434772 13696620 14013995 14374058 14761506 15159918 15553053 
1378.905 15926087 16266482 16564284 16812020 17004086 17136198 17204984 
1382.281 17207874 17143502 17012086 16815784 16558711 16246666 15886503 
1385.656 15485570 15051152 14590134 14108923 13613254 13108318 12598498 
1389.031 12087428 11577894 11071891 10570814 10075682 9587497 9107490 
1392.406 8637375 8179416 7736339 7311181 6907100 6526905 6172995 5847011 
1396.264 5549786 5281314 5040673 4826230 4635638 4466114 4314650 4178333 
1400.121 4054579 3941422 3837460 3741888 3654286 3574399 3502004 3436796 
1403.979 3378306 3326014 3279314 3237607 3200288 3166736 3136311 3108403 
1407.836 3082455 3057997 3034719 3012494 2991399 2971769 2954162 2939286 
1411.693 2927935 2920788 2918261 2920361 2926624 2936169 2947908 2960809 
1415.551 2974083 2987369 3000631 3014091 3027952 3042219 3056710 3071075 
1419.408 3085017 3098451 3111723 3125555 3140924 3158900 3180469 3206393 
1423.266 3237224 3273360 3315212 3363208 3417898 3479896 3549761 3627902 
1427.123 3714464 3809314 3911969 4021721 4137719 4259109 4385184 4515464 
1430.980 4649736 4788106 4930876 5078603 5232114 5392440 5561008 5739651 
1434.838 5930644 6136678 6360873 6606577 6877348 7176725 7508073 7874479 
1438.695 8278474 8721785 9205151 9728098 10288844 10884344 11510456 12162009 
1442.553 12832899 13516195 14204167 14888461 15560488 16211823 16834678 
1445.928 17422264 17968958 18470318 18923106 19325352 19676518 19977402 
1449.303 20230044 20437192 20601644 20725614 20810362 20856142 20862538 
1452.678 20828994 20755136 20640882 20486292 20291296 20055548 19778580 
1456.054 19460192 19100866 18702178 18266786 17798194 17300380 16777340 
1459.429 16233072 15671456 15096384 14511651 13920988 13327838 12735409 
1462.804 12146807 11565199 10994047 10437093 9898029 9380115 8885679 8415915 
1466.662 7970962 7550307 7153273 6779395 6428667 6101280 5797324 5516513 
1470.519 5257794 5019458 4799257 4594769 4403691 4224154 4054869 3895165 
1474.376 3744899 3604342 3473939 3354102 3245017 3146445 3057828 2978252 
1478.234 2906714 2842309 2784386 2732540 2686532 2646120 2610859 2579989 
1482.091 2552507 2527231 2503072 2479101 2454755 2429785 2404221 2378294 
1485.949 2352401 2327032 2302710 2280009 2259455 2241443 2226175 2213613 
1489.806 2203394 2194958 2187544 2180285 2172325 2162941 2151588 2137985 
1493.664 2122172 2104516 2085585 2066111 2046794 2028191 2010599 1994055 
1497.521 1978470 1963667 1949568 1936201 1923681 1912174 1901845 1892749 
1501.378 1884856 1878117 1872398 1867598 1863523 1859979 1856621 1853128 
1505.236 1849212 1844739 1839832 1834876 1830328 1826619 1823967 1822216 
1509.093 1820871 1819215 1816504 1812196 1806141 1798574 1790122 1781594 
1512.951 1773782 1767326 1762587 1759484 1757725 1756721 1755857 1754501 
1516.808 1752246 1748869 1744405 1739045 1733031 1726606 1719871 1712869 
1520.666 1705527 1697856 1689911 1681915 1674148 1666858 1660180 1654052 
1524.523 1648169 1642200 1635823 1628945 1621851 1615053 1609331 1605368 
1528.380 1603628 1604129 1606348 1609326 1611890 1612887 1611544 1607575 
1532.238 1601320 1593496 1585173 1577330 1570691 1565583 1561919 1559316 
1536.095 1557326 1555516 1553643 1551643 1549501 1547263 1544951 1542496 
1539.953 1539836 1536908 1533685 1530262 1526622 1522744 1518472 1513643 
1543.810 1508073 1501731 1494851 1487779 1481070 1475264 1470784 1467878 
1547.667 1466569 1466706 1468049 1470322 1473225 1476413 1479493 1482033 
1551.525 1483639 1483964 1482858 1480383 1476839 1472614 1468139 1463751 
1555.382 1459644 1455851 1452356 1449106 1446123 1443460 1441237 1439589 
1559.240 1438631 1438416 1438924 1440060 1441620 1443334 1444853 1445875 
1563.097 1446109 1445487 1444116 1442327 1440505 1439015 1438059 1437558 
1566.955 1437280 1436857 1436025 1434631 1432763 1430611 1428374 1426130 
1570.812 1423830 1421301 1418489 1415451 1412586 1410433 1409609 1410547 
1574.669 1413354 1417693 1422828 1427891 1432025 1434655 1435553 1434897 
1578.527 1433125 1430881 1428854 1427681 1427909 1429858 1433568 1438801 
1582.384 1445000 1451375 1457122 1461532 1464213 1465120 1464584 1463140 
1586.242 1461400 1459895 1458996 1458907 1459704 1461411 1464022 1467474 
1590.099 1471616 1476229 1480975 1485556 1489746 1493594 1497401 1501609 
1593.957 1506759 1513170 1520844 1529366 1538008 1545882 1552219 1556611 
1597.814 1559204 1560584 1561732 1563720 1567434 1573324 1581301 1590798 
1601.671 1600894 1610611 1619155 1626085 1631431 1635556 1639085 1642670 
1605.529 1646834 1651873 1657874 1664696 1672107 1679790 1687462 1694838 
1609.386 1701678 1707774 1713031 1717449 1721148 1724383 1727505 1730947 
1613.244 1735097 1740323 1746869 1754818 1764056 1774234 1784820 1795149 
1617.101 1804557 1812574 1819061 1824270 1828767 1833293 1838516 1844812 
1620.958 1852198 1860294 1868484 1876189 1882959 1888673 1893495 1897750 
1624.816 1901814 1905980 1910464 1915410 1920951 1927199 1934227 1941980 
1628.673 1950259 1958694 1966907 1974703 1982115 1989610 1997865 2007645 
1632.531 2019557 2033850 2050386 2068715 2088235 2108318 2128440 2148110 
1636.388 2166745 2183606 2197766 2208253 2214240 2215267 2211391 2203176 
1640.246 2191583 2177669 2162377 2146345 2129864 2112945 2095488 2077442 
1644.103 2058901 2040277 2022207 2005515 1991134 1979882 1972283 1968416 
1647.960 1967836 1969568 1972380 1975040 1976646 1976847 1975856 1974363 
1651.818 1973196 1973057 1974252 1976691 1979988 1983721 1987596 1991558 
1655.675 1995714 2000222 2005156 2010437 2016054 2022019 2028564 2035978 
1659.533 2044517 2054137 2064397 2074421 2083238 2090123 2094948 2098375 
1663.390 2101684 2106459 2114048 2125094 2139456 2156212 2174044 2191583 
1667.248 2207882 2222411 2235154 2246310 2256218 2265094 2273119 2280424 
1671.105 2287213 2293686 2300134 2306718 2313454 2320206 2326693 2332742 
1674.962 2338365 2343876 2349993 2357588 2367592 2380727 2397318 2417232 
1678.820 2439826 2464136 2489027 2513466 2536734 2558527 2578953 2598385 
1682.677 2617341 2636267 2655443 2674977 2694990 2715633 2737330 2760699 
1686.535 2786491 2815424 2847930 2884139 2923738 2966089 3010290 3055382 
1690.392 3100285 3144036 3185806 3224939 3261183 3294801 3326597 3357877 
1694.250 3390275 3425469 3464901 3509432 3559380 3614524 3674314 3738060 
1698.107 3805231 3875392 3948277 4023723 4101725 4182572 4266714 4354907 
1701.964 4447989 4546792 4651799 4763131 4880564 5003700 5132228 5266227 
1705.822 5406246 5553217 5708157 5871866 6044752 6226562 6416745 6614689 
1709.679 6819995 7032838 7254007 7484789 7726755 7981506 8250306 8533944 
1713.537 8832701 9146242 9473804 9814376 10166872 10530357 10904178 11288011 
1717.394 11681906 12086176 12501225 12927586 13365947 13817020 14281769 
1720.769 14761238 15256579 15768814 16298871 16847620 17416080 18005674 
1724.145 18618406 19256968 19924366 20623670 21357602 22128252 22937186 
1727.520 23785466 24674212 25604558 26577976 27596036 28660514 29773432 
1730.895 30937454 32156234 33434788 34779100 36195656 37690308 39267432 
1734.270 40929492 42677592 44512768 46437360 48456092 50575988 52805120 
1737.646 55150576 57616352 60201792 62901132 65704156 68597352 71564824 
1741.021 74588560 77647928 80718760 83772960 86779160 89704072 92514208 
1744.396 95177240 97662592 99941792 101989112 103783360 105309928 106562952 
1747.771 107545128 108265624 108735992 108966080 108961856 108725848 
1750.664 108260000 107569336 106664048 105559336 104273032 102822312 
1753.557 101221336 99480936 97609872 95617048 93513208 91311496 89026728 
1756.933 86674360 84269584 81827120 79361888 76889528 74426160 71987904 
1760.308 69589528 67243200 64957952 62740052 60593756 58522516 56529528 
1763.683 54617880 52790028 51047076 49388244 47811056 46311544 44885124 
1767.058 43527252 42233612 41000336 39823688 38699792 37624764 36594568 
1770.434 35605260 34652956 33733728 32843464 31977764 31132034 30301920 
1773.809 29483706 28674748 27873400 27078796 26290158 25506318 24725294 
1777.184 23944710 23162202 22376382 21587362 20797024 20008584 19225884 
1780.559 18452572 17691528 16944584 16213030 15498015 14801240 14125106 
1783.935 13472582 12846611 12249412 11681935 11143740 10633324 10148594 
1787.310 9687831 9250060 8835299 8444397 8078580 7738849 7425460 7137769 
1791.167 6874040 6631692 6407671 6198956 6003021 5818288 5644259 5481431 
1795.025 5330724 5193101 5068801 4957029 4855934 4762823 4674855 4589513 
1798.882 4505084 4420786 4336694 4253442 4171954 4093314 4018596 3948797 
1802.740 3884754 3826842 3774717 3727252 3682736 3639282 3595459 3550842 
1806.597 3506259 3463399 3424249 3390115 3361044 3335564 3310979 3284232 
1810.454 3252678 3214850 3170623 3121031 3067742 3012540 2957004 2902502 
1814.312 2850358 2802103 2759422 2724027 2697128 2678992 2668592 2663718 
1818.169 2661310 2658208 2651813 2640533 2624007 2602849 2578306 2552051 
1822.027 2525554 2500061 2476314 2454581 2434569 2415492 2396341 2376001 
1825.884 2353580 2328710 2301455 2272419 2242413 2212216 2182364 2153024 
1829.741 2124052 2095126 2066016 2036826 2007967 1980199 1954274 1930908 
1833.599 1910287 1892150 1875532 1859095 1841284 1820766 1796813 1769495 
1837.456 1739714 1709151 1679760 1653499 1631729 1615061 1603240 1595179 
1841.314 1589336 1583995 1577698 1569487 1559142 1547099 1534386 1522321 
1845.171 1512090 1504453 1499399 1496113 1493049 1488206 1479688 1466013 
1849.029 1446545 1421763 1393177 1363128 1334359 1309644 1290990 1279459 
1852.886 1274683 1274984 1277562 1279367 1277683 1270990 1259371 1244582 
1856.743 1229338 1216668 1208774 1206488 1209045 1214261 1219392 1221880 
1860.601 1219812 1212454 1200146 1184141 1166227 1148633 1133764 1123749 
1864.458 1120301 1123973 1133928 1147764 1161930 1172502 1176502 1172624 
1868.316 1161874 1147157 1132322 1120950 1115132 1115080 1119177 1124967 
1872.173 1130087 1133052 1133614 1132383 1130300 1128110 1126006 1123807 
1876.031 1121222 1118289 1115273 1112545 1110106 1107237 1102624 1094544 
1879.888 1081633 1063471 1040905 1015885 990897 968303 949559 935227 924887 
1884.228 917850 913400 911309 911599 914233 918759 924084 928602 930750 
1888.567 929475 925022 918845 913437 911542 915113 924574 938409 953433 
1892.907 965611 971252 968027 955814 936637 914108 892304 874749 863336 
1897.246 858265 858209 861046 864691 867696 869538 870363 870928 871963 
1901.586 874286 878622 885732 896275 910645 928488 948539 968560 985626 
1905.926 997034 1000911 997110 987026 973396 959306 947342 938700 933171 
1910.265 929170 924667 917722 907086 892495 874632 854760 834536 815403 
1914.605 798442 784319 772876 763498 755244 747077 738445 729289 720143 
1918.944 711584 704047 697033 689355 679344 665602 647664 626590 604624 
1923.284 584688 569059 558707 552678 548867 544561 538043 529061 518926 
1927.624 509764 503445 500459 499961 500266 500082 499930 502559 512677 
1931.963 535233 573444 627021 691263 757875 816865 859304 879778 878034 
1936.303 858579 829482 799098 773705 755318 741424 726228 703652 669926 
1940.642 626103 578571 537309 513207 514208 542381 593192 656339 718961 
1944.982 769075 798829 806193 794010 768653 736782 703626 671923 641934 
1949.322 612755 583447 553368 522237 489477 454016 414690 370880 323829 
1953.661 277112 236358 207347 194029 196356 209956 226796 238295 238276 
1958.001 225682 206078 189702 188330 211086 260399 330319 408552 478946 
1962.340 527141 544187 528572 486713 430109 372490 326011 299172 295859 
1966.680 315740 355175 408462 468293 526672 575372 607119 616636 602669 
1971.020 567803 518146 460493 399877 338053 273954 206528 139457 84835 64176 
1975.841 103660 224721 434981 718933 1039768 1348831 1601796 1773578 1863863 
1980.181 1894098 1895042 1893752 1903314 1920121 1927319 1904341 1837003 
1984.038 1724619 1580833 1428412 1289861 1179418 1098288 1036815 980385 
1987.896 918153 848390 779462 726167 702612 715189 759421 820280 876612 
1992.235 908042 899863 847193 755287 637246 512016 399975 320298 287716 
1996.575 309770 384276 499118 633304 761128 857886 905675 897685 838655 
2000.915 743028 630092 518883 424349 355667 316340 307155 326623 371938 
2005.254 437835 515738 593668 658628 699408 711413 697089 666013 630160 
2009.594 600204 582077 575873 577896 582321 584280 580198 567655 544300 
2013.933 507442 454131 383605 298938 208118 123270 57766 23075 25254 63134 
2018.755 129078 211411 296385 372508 431144 468497 486739 493363 500051 
2023.095 520586 566024 641144 740558 848686 943242 1000750 1005545 954220 
2027.434 858440 741223 630659 552076 521799 544028 612818 715109 835454 
2031.774 957660 1067007 1149463 1193056 1189869 1139698 1052533 947862 
2035.631 850932 785095 764941 791650 853381 929732 1000063 1049309 1072802 
2039.971 1075881 1069655 1065144 1068244 1077405 1084639 1078784 1049850 
2043.828 992522 907734 802824 690264 585859 506342 467064 479033 545990 
2048.168 661756 810318 967873 1108755 1212281 1267267 1274196 1242998 
2052.025 1188710 1126833 1069810 1024572 993235 973998 963868 960122 960733 
2056.365 963816 966261 963483 949898 920991 875174 815794 750535 689654 
2060.705 642436 614196 604746 608368 616334 620098 614412 598961 577831 
2065.044 557558 544867 543975 555978 578768 609029 643124 679125 716125 
2069.384 754450 794047 834241 872691 905927 929848 940547 935214 912967 
2073.723 875471 827479 776432 732281 705305 703992 732077 786866 858418 
2078.063 931130 987565 1013063 1000381 952308 881021 804896 742878 708957 
2082.403 708162 735449 778323 821181 850484 859174 847537 822603 794283 
2086.742 771962 761414 763424 774416 788353 798869 801093 792755 774010 
2091.082 747060 715335 682803 653187 629600 613954 606916 607901 615909 
2095.421 630052 650373 678054 714369 759572 811248 863804 909019 938303 
2099.761 944781 926213 885239 829258 767603 709009 659246 620339 591680 
2104.101 571687 559933 557633 567201 590258 625671 668658 711079 743914 
2108.440 759904 755829 733708 699720 662235 629107 605834 595000 596256 
2112.780 607799 627062 651133 676746 699900 715646 719051 706094 675144 
2117.119 627712 568274 503259 439487 382435 335767 301256 279286 269961 
2121.459 273252 288638 314151 345620 376740 399573 406309 391249 351971 
2125.799 289657 208036 111704 4849 -109789 -230344 -354592 -478462 -595737 
2130.138 -698062 -777041 -826007 -842390 -827585 -786923 -727827 -657360 
2133.996 -581671 -505449 -432721 -368571 -319497 -292894 -295085 -329283 
2137.853 -393754 -482127 -584830 -691800 -794976 -889727 -974620 -1049872 
2141.710 -1115274 -1169383 -1209450 -1233326 -1240843 -1236096 -1226290 
2145.086 -1220422 -1225691 -1245494 -1277502 -1315966 -1352728 -1381533 
2148.461 -1399242 -1406844 -1408127 -1408668 -1414065 -1430181 -1463214 
2151.836 -1519787 -1607129 -1730446 -1890866 -2083443 -2296065 -2511603 
2155.211 -2710783 -2876130 -2993986 -3054908 -3051516 -2976495 -2821623 
2158.587 -2582915 -2265543 -1890803 -1495076 -1122611 -814073 -596684 
2161.962 -476522 -441735 -465312 -515344 -562920 -589594 -590581 -573401 
2165.819 -552964 -545380 -562309 -607278 -674468 -750684 -817856 -857765 
2169.677 -855647 -804244 -706303 -575140 -432291 -302814 -209630 -166952 
2173.534 -177003 -230833 -311567 -400872 -485141 -558301 -621071 -677175 
2177.392 -727415 -766392 -782268 -761103 -693172 -578911 -431977 -277171 
2181.249 -143808 -57334 -30528 -60286 -128753 -210087 -279360 -319691 
2185.106 -325555 -301860 -258618 -205305 -146346 -79546 1689 103135 225938 
2189.446 362220 496212 607640 677610 694301 657387 576863 470740 358241 
2193.786 255488 170658 104901 54397 14689 -16530 -37576 -45181 -36697 -13195 
2198.607 19866 54777 84129 104585 118411 131887 151837 181900 219724 257294 
2203.429 284556 293744 283281 258933 231870 214157 214599 235944 275761 
2207.769 328493 389886 458272 534942 621405 716053 812128 898247 961178 
2212.108 990508 982080 939547 872742 794254 715448 643883 583144 534524 
2216.448 499216 479532 478691 498922 539304 594676 656597 716087 766430 
2220.788 805601 836260 863941 893738 927973 964236 997245 1020188 1027985 
2225.127 1018932 995018 960730 921055 880158 840518 803483 769840 740927 
2229.467 718632 705063 701851 709262 726568 751792 782430 815800 849106 
2233.806 879464 903988 920297 927120 924987 916540 906160 898597 897526 
2238.146 904538 918141 935034 950955 962859 969597 972160 972940 973937 
2242.486 975370 975159 968920 951686 919816 872723 813793 750203 691071 
2246.825 645550 619961 616451 632079 660078 691841 719956 739933 752384 
2251.165 761791 775210 799153 837309 888542 947317 1004907 1052595 1083759 
2255.504 1096331 1092476 1077870 1059451 1043581 1034671 1034726 1043675 
2259.362 1060310 1082435 1107566 1132645 1154111 1168173 1171858 1163739 
2263.219 1145141 1120257 1095846 1079502 1077964 1094921 1130381 1180102 
2267.077 1237133 1293292 1341424 1376665 1397436 1405001 1402805 1394924 
2270.934 1385453 1377298 1372309 1371371 1374609 1381798 1392352 1405426 
2274.792 1419860 1434264 1447460 1458642 1467679 1475333 1482762 1491229 
2278.649 1501386 1513235 1526394 1540174 1554392 1569301 1585700 1604199 
2282.506 1624708 1645859 1665255 1679983 1687789 1687591 1680192 1667683 
2286.364 1652868 1638233 1625366 1614838 1606555 1600359 1596495 1595483 
2290.221 1597785 1603111 1610137 1616310 1618873 1615400 1605007 1588619 
2294.079 1568689 1548578 1531420 1519501 1513680 1513627 1518256 1525979 
2297.936 1535136 1543888 1550277 1552242 1547994 1536344 1517315 1492268 
2301.793 1463826 1435498 1410863 1393143 1384619 1386550 1399051 1421055 
2305.651 1450366 1483692 1516980 1546015 1567343 1579121 1581634 1577309 
2309.508 1569850 1563204 1560374 1562675 1569784 1580157 1592115 1604359 
2313.366 1616439 1628392 1640422 1652442 1663985 1674364 1683281 1690906 
2317.223 1698074 1705871 1715389 1727476 1743024 1763203 1789741 1824578 
2321.081 1868929 1921665 1978484 2031408 2070020 2083824 2065111 2011197 
2324.938 1925362 1816147 1695461 1575856 1468201 1379673 1313163 1267657 
2328.795 1239437 1223679 1215917 1212683 1211739 1211637 1211450 1210371 
2332.653 1207649 1202760 1195552 1186089 1174877 1162410 1149391 1136619 
2336.510 1125049 1115863 1110299 1109306 1113373 1122041 1134107 1147567 
2340.368 1160203 1169911 1175166 1175330 1170571 1161838 1150604 1138511 
2344.225 1127209 1117763 1110680 1105699 1101840 1097878 1092782 1086041 
2348.083 1077984 1069603 1062249 1056921 1054172 1053610 1054266 1054955 
2351.940 1054738 1053072 1049996 1045697 1040420 1034108 1026660 1018058 
2355.797 1008570 998875 989846 982029 975345 969005 961583 951759 938840 
2360.137 923249 906440 890424 876905 866562 858838 852176 844675 835095 
2364.477 823253 810310 798169 788860 783617 782591 784790 788729 793088 
2368.816 797109 800902 805125 810592 817510 825564 833693 840796 846103 
2373.156 849668 852520 856508 863458 874751 890567 909672 929591 947232 
2377.495 959644 964975 962729 954181 941709 928301 916529 908160 903719 
2381.835 902923 904738 908242 912752 917948 923737 929999 936398 942490 
2386.175 947731 951865 954979 957590 960363 964008 968876 975145 982600 
2390.514 991003 999977 1009139 1017953 1025899 1032384 1037245 1040602 
2394.372 1043224 1046207 1050498 1056443 1063401 1069776 1073603 1073233 
2398.229 1068190 1059453 1049235 1040218 1034620 1033334 1035703 1039937 
2402.086 1043908 1046104 1046233 1045220 1044819 1046774 1052240 1061331 
2405.944 1073149 1086269 1099090 1110209 1118615 1123654 1125033 1122805 
2409.801 1117380 1109533 1100335 1090802 1081768 1073619 1066363 1059768 
2413.659 1053953 1049405 1047158 1048288 1053583 1062825 1074749 1087246 
2417.516 1097863 1104729 1106981 1104983 1100165 1094324 1089064 1085285 
2421.374 1082989 1081445 1079471 1075777 1069340 1059575 1046627 1031257 
2425.231 1015081 1000085 988420 981612 980111 982977 987987 992220 992929 
2429.571 988519 978987 966048 952617 941873 936661 938587 948078 964317 
2433.910 985694 1009965 1034667 1057021 1074701 1085572 1088625 1083995 
2437.768 1073234 1058799 1043626 1029901 1018956 1010521 1003537 996354 
2441.625 987969 978037 967507 957741 950463 946615 946597 949898 955767 
2445.965 963389 972306 982349 993608 1006052 1019443 1033268 1047059 1060258 
2450.304 1072709 1084404 1095399 1105464 1114121 1120392 1123142 1121309 
2454.162 1114496 1102947 1088091 1071999 1057234 1046197 1040516 1040589 
2458.019 1045464 1052974 1060405 1065098 1065282 1060477 1051635 1040624 
2461.876 1029709 1020620 1014254 1010449 1008298 1006863 1005659 1005105 
2465.734 1006275 1010645 1019300 1032382 1048946 1067105 1084564 1099131 
2469.591 1109407 1114742 1115282 1111645 1104581 1094743 1082916 1069935 
2473.449 1056951 1045386 1036790 1032331 1032524 1037115 1045021 1054722 
2477.306 1064584 1073289 1079851 1083620 1084071 1080714 1073064 1061037 
2481.164 1045329 1027526 1010334 996690 989344 989661 997129 1009479 1023288 
2485.503 1034952 1042038 1044029 1042451 1040340 1041091 1047369 1060179 
2489.361 1078527 1100076 1121480 1139626 1152160 1157840 1156420 1148530 
2493.218 1135195 1117999 1098679 1079339 1062106 1049002 1041531 1040229 
2497.075 1044473 1052620 1062276 1071050 1077010 1079284 1078262 1075491 
2500.933 1073079 1073336 1077646 1086227 1097686 1109326 1117895 1120491 
2504.790 1115668 1104202 1088950 1074399 1065078 1064477 1073635 1090913 
2508.648 1112524 1133736 1150423 1160411 1163870 1163127 1161550 1162438 
2512.505 1167558 1177098 1189245 1201422 1210590 1214436 1211779 1202824 
2516.363 1188844 1172128 1155190 1140448 1129445 1122621 1119185 1117290 
2520.220 1114754 1109913 1102253 1092810 1083963 1078591 1078949 1085783 
2524.077 1097732 1111857 1124231 1131192 1130563 1122034 1107328 1089473 
2527.935 1072113 1058740 1051921 1053188 1062757 1079730 1101997 1126658 
2531.792 1150350 1169842 1182728 1187933 1185919 1178548 1168392 1158003 
2535.650 1149335 1143372 1140167 1139484 1141043 1144836 1150986 1159561 
2539.507 1169934 1180882 1190456 1196725 1198280 1194889 1187690 1179059 
2543.365 1171950 1169233 1172803 1183354 1200013 1220826 1243015 1263818 
2547.222 1280764 1292322 1297965 1298279 1294593 1288813 1282911 1278674 
2551.079 1277308 1279431 1284754 1292226 1300053 1306008 1307821 1303710 
2554.937 1292796 1275704 1254360 1231796 1211198 1195127 1184910 1180276 
2558.794 1179736 1181544 1184261 1187725 1192759 1200841 1212967 1229194 
2562.652 1247892 1266370 1281420 1290779 1293540 1290697 1284568 1278092 
2566.509 1273877 1273531 1277264 1284294 1292946 1301473 1308099 1311618 
2570.366 1311390 1307655 1301565 1295223 1291319 1292604 1301118 1317737 
2574.224 1341633 1370698 1401846 1432038 1458685 1479995 1494826 1502557 
2578.081 1502518 1494366 1478011 1454536 1425991 1395851 1368105 1346553 
2581.939 1333819 1330830 1336820 1349699 1366796 1385653 1404268 1421176 
2585.796 1435142 1445191 1450357 1449967 1443976 1433249 1419340 1404420 
2589.654 1390416 1378903 1370454 1364999 1361829 1360231 1359710 1360207 
2593.511 1361912 1365436 1371302 1380138 1392409 1408403 1427926 1450195 
2597.368 1473488 1495460 1513238 1524306 1527041 1521370 1508817 1492296 
2601.226 1475327 1461139 1452004 1448779 1450952 1457188 1465683 1474845 
2605.083 1483461 1490794 1496346 1499834 1500961 1499636 1496009 1490847 
2608.941 1485290 1480904 1479215 1481364 1487667 1497533 1509559 1521986 
2612.798 1533042 1541663 1547495 1551144 1553546 1555757 1558398 1561410 
2616.656 1564246 1566178 1566748 1566201 1565470 1565969 1569091 1575760 
2620.513 1585937 1598707 1612417 1625244 1635776 1643164 1647337 1648787 
2624.370 1648225 1646349 1643545 1640052 1636010 1631525 1626809 1622366 
2628.228 1618600 1616053 1615121 1616195 1619426 1624797 1632125 1640897 
2632.085 1650231 1659126 1666413 1671358 1673541 1673272 1671417 1669303 
2635.943 1668413 1669861 1674244 1681449 1690555 1700038 1708228 1713520 
2639.800 1714809 1711899 1705321 1696608 1687644 1680464 1676594 1676794 
2643.657 1680832 1687620 1695468 1702661 1707785 1710098 1709635 1707107 
2647.515 1703572 1700214 1697977 1697413 1698506 1700811 1703491 1705494 
2651.372 1705894 1703939 1699192 1691643 1681602 1669543 1656053 1641712 
2655.230 1627064 1612708 1599347 1587759 1578622 1572455 1569196 1568150 
2659.087 1568033 1567084 1563563 1556073 1543890 1527271 1507165 1485142 
2662.945 1462821 1441782 1423144 1407548 1395068 1385391 1377784 1371400 
2666.802 1365292 1358716 1351324 1343206 1334960 1327553 1321977 1319030 
2670.659 1319009 1321584 1325788 1330371 1334032 1335653 1334693 1331242 
2674.517 1325736 1319099 1312228 1305973 1300764 1296649 1293285 1290100 
2678.374 1286528 1282281 1277396 1272393 1267980 1264931 1263650 1264236 
2682.232 1266251 1269175 1272351 1275510 1278571 1281652 1284778 1287816 
2686.089 1290252 1291491 1291021 1288848 1285496 1281971 1279301 1278296 
2689.947 1279039 1280962 1283003 1284099 1283535 1281258 1277988 1274761 
2693.804 1272716 1272682 1274931 1279177 1284688 1290428 1295347 1298452 
2697.661 1299000 1296620 1291418 1284018 1275513 1267167 1260104 1255064 
2701.519 1252086 1250717 1250171 1249724 1248969 1247925 1246897 1246096 
2705.376 1245503 1244683 1243020 1240078 1235803 1230819 1226160 1222887 
2709.234 1221617 1222415 1224565 1227088 1229113 1230221 1230576 1230586 
2713.091 1230714 1231014 1231069 1230252 1228062 1224516 1220378 1216958 
2716.948 1215573 1217062 1221336 1227359 1233411 1237645 1238629 1235752 
2720.806 1229258 1220165 1209831 1199694 1190876 1184279 1180387 1179366 
2724.663 1181097 1185237 1191311 1198657 1206699 1214881 1222711 1229868 
2728.521 1236005 1240837 1244099 1245782 1246157 1245764 1245381 1245783 
2732.378 1247348 1250020 1253252 1256238 1258134 1258695 1258047 1256877 
2736.236 1255934 1255853 1256680 1257928 1258745 1258316 1256107 1252145 
2740.093 1246980 1241547 1236847 1233788 1232959 1234718 1239003 1245421 
2743.950 1253136 1261084 1268016 1272706 1274466 1273310 1269974 1265771 
2747.808 1262111 1259995 1259728 1260787 1262002 1262269 1260842 1257682 
2751.665 1253398 1249075 1245745 1243991 1243969 1245441 1247928 1251089 
2755.523 1254611 1258180 1261298 1263272 1263244 1260565 1255143 1247742 
2759.380 1239960 1233792 1230996 1232477 1238053 1246212 1254854 1261872 
2763.238 1265802 1266263 1263967 1260216 1256372 1253452 1251716 1250823 
2767.095 1250115 1248906 1246871 1244030 1240697 1237260 1233979 1230902 
2770.952 1227917 1224865 1221766 1218898 1216715 1215813 1216684 1219718 
2774.810 1224843 1231763 1239800 1248063 1255615 1261644 1265583 1267393 
2778.667 1267399 1266465 1265577 1265695 1267273 1270361 1274353 1278431 
2782.525 1281671 1283636 1284343 1284416 1284704 1286045 1288917 1293357 
2786.382 1298965 1305275 1311802 1318435 1325210 1332333 1339805 1347429 
2790.240 1354860 1361789 1368113 1374215 1380693 1388288 1397186 1407091 
2794.097 1416858 1425056 1430193 1431490 1429149 1424474 1419431 1416197 
2797.954 1416441 1421085 1429990 1442212 1456335 1470888 1484489 1496245 
2801.812 1505693 1512834 1518021 1522091 1525852 1530320 1536116 1543515 
2805.669 1552281 1561824 1571257 1579959 1587581 1594235 1600279 1606145 
2809.527 1612071 1618140 1624221 1630446 1637097 1644923 1654858 1667687 
2813.384 1683764 1702760 1723742 1745500 1766958 1787337 1806468 1824461 
2817.241 1841620 1857934 1873269 1887302 1899872 1911279 1922293 1934223 
2821.099 1948399 1965849 1987023 2011715 2039216 2068665 2099281 2130744 
2824.956 2163054 2196622 2231765 2268780 2307670 2348103 2389547 2431344 
2828.814 2472777 2513481 2553418 2593036 2633380 2675859 2721926 2772775 
2832.671 2828772 2889521 2953811 3020119 3087082 3153967 3220970 3289015 
2836.529 3359505 3433703 3512342 3595452 3682599 3773026 3866200 3961962 
2840.386 4060698 4163129 4269985 4382013 4499824 4624111 4755634 4895710 
2844.243 5045974 5208227 5383820 5573382 5775990 5988977 6207596 6425450 
2848.101 6634718 6827052 6994615 7130709 7230702 7292355 7315723 7302748 
2851.958 7256625 7181164 7080313 6957839 6817673 6663769 6500366 6331870 
2855.816 6162433 5995637 5833892 5678438 5529337 5386112 5248053 5114872 
2859.673 4986918 4865085 4750600 4644575 4547763 4460360 4382127 4312461 
2863.531 4250724 4196319 4148748 4107566 4072399 4043074 4019457 4001798 
2867.388 3990581 3986622 3990628 4003205 4024279 4053191 4088596 4128780 
2871.245 4171991 4216853 4262533 4308946 4356394 4405474 4456534 4509536 
2875.103 4563922 4618892 4673389 4726602 4777952 4827239 4874360 4919103 
2878.960 4961019 4999257 5032812 5060681 5082212 5097341 5106647 5111412 
2882.818 5113172 5113658 5114325 5116364 5120515 5127246 5136430 5147969 
2886.675 5161475 5176622 5193132 5210954 5230302 5251585 5275374 5302252 
2890.532 5332571 5366746 5404930 5447420 5494625 5546950 5604898 5668435 
2894.390 5736984 5809138 5882752 5955356 6024623 6089073 6148437 6203731 
2898.247 6257099 6311314 6368892 6431795 6500745 6575416 6654512 6736278 
2902.105 6818895 6901031 6981955 7061799 7141369 7221903 7304877 7391749 
2905.962 7483633 7581234 7684593 7793335 7906694 8023889 8144445 8268662 
2909.820 8397841 8534258 8681050 8841574 9018710 9214052 9427489 9657063 
2913.677 9899429 10150525 10406476 10664217 10921630 11177181 11429139 
2917.052 11674871 11910173 12129512 12326724 12496109 12633595 12737438 
2920.427 12808499 12849644 12864853 12858301 12833561 12793599 12740585 
2923.803 12676357 12602727 12521499 12434476 12343191 12248889 12152413 
2927.178 12054440 11955545 11856209 11757044 11658269 11560094 11462525 
2930.553 11365886 11270997 11179658 11094486 11018644 10955065 10905928 
2933.928 10871943 10852492 10845953 10850129 10863074 10883547 10910983 
2937.304 10945491 10987215 11036170 11091837 11153135 11218490 11285768 
2940.679 11352561 11415987 11473066 11520756 11556191 11577246 11582368 
2944.054 11570928 11542635 11497480 11435349 11355937 11258961 11144587 
2947.429 11013839 10868894 10712787 10549344 10382140 10214204 10047419 
2950.805 9882637 9719873 9558798 9399164 9241210 9085416 8932532 8783244 
2954.662 8637895 8496536 8358916 8224803 8094213 7967467 7845319 7728555 
2958.520 7617853 7513416 7414808 7320853 7230073 7140633 7051064 6960398 
2962.377 6868505 6775719 6683280 6592326 6504322 6420313 6341216 6267547 
2966.234 6199517 6137039 6079640 6026690 5977350 5930722 5886258 5843762 
2970.092 5803644 5766634 5733584 5705134 5681340 5661794 5645824 5632702 
2973.949 5622460 5615702 5613802 5618347 5630647 5651060 5678932 5712561 
2977.807 5749727 5788389 5827323 5866353 5906554 5949953 5998995 6056063 
2981.664 6123321 6202191 6293676 6398159 6515711 6645986 6788424 6942322 
2985.521 7106749 7280772 7463496 7653933 7851133 8053928 8260765 8469599 
2989.379 8677889 8882484 9080225 9267622 9441680 9599725 9739685 9859969 
2993.236 9959518 10037413 10093191 10126454 10137503 10127019 10096668 
2996.612 10048721 9985874 9910829 9825929 9732816 9632326 9524699 9409936 
3000.469 9288064 9159318 9024039 8882600 8735070 8581116 8420441 8252906 
3004.326 8079128 7900633 7719780 7539282 7361506 7187928 7018809 6853477 
3008.184 6690792 6529862 6370567 6213666 6060509 5912535 5770511 5634440 
3012.041 5503133 5375026 5248293 5121759 4994839 4867860 4741812 4618000 
3015.899 4497814 4382298 4272126 4167316 4067373 3971373 3878286 3787296 
3019.756 3698162 3611447 3528289 3450173 3378252 3313084 3254108 3200056 
3023.614 3149272 3100421 3052946 3007176 2963972 2924088 2887526 2853216 
3027.471 2819100 2782841 2742542 2697573 2648836 2598607 2549794 2505160 
3031.328 2466574 2434567 2408266 2385922 2365283 2344232 2321060 2294928 
3035.186 2265774 2234163 2201362 2168754 2137749 2109247 2083514 2060067 
3039.043 2038009 2016100 1993431 1969675 1945108 1920682 1897662 1877135 
3042.901 1859835 1845854 1834847 1826005 1818244 1810595 1802196 1792578 
3046.758 1781576 1769466 1756843 1744492 1733244 1723805 1716441 1711226 
3050.615 1707759 1705602 1704213 1703130 1702026 1700441 1697952 1694203 
3054.473 1688946 1682406 1675341 1668982 1664703 1663580 1665895 1670866 
3058.330 1676825 1681595 1683133 1680287 1673077 1662774 1651421 1641257 
3062.188 1634120 1630997 1631860 1635786 1641439 1647454 1652720 1656785 
3066.045 1659761 1662244 1665171 1669477 1675750 1684147 1694184 1705008 
3069.903 1715681 1725246 1733092 1739035 1742875 1744366 1742948 1737712 
3073.760 1727679 1712401 1692189 1668723 1644687 1623434 1608119 1600962 
3077.617 1602751 1612601 1628206 1646327 1663506 1676537 1682991 1681394 
3081.475 1671473 1654097 1631135 1605275 1579433 1556348 1537879 1524929 
3085.332 1517164 1513441 1512199 1512083 1512051 1511542 1510112 1507460 
3089.190 1503131 1496606 1487626 1476686 1464916 1453961 1445531 1440692 
3093.047 1439487 1440675 1442277 1441953 1437845 1429113 1416087 1400073 
3096.905 1383009 1366822 1353266 1343523 1338246 1337646 1341204 1348022 
3100.762 1356792 1365878 1373689 1379116 1381667 1381632 1379748 1376970 
3104.619 1373942 1370861 1367342 1362949 1357307 1350624 1343658 1337585 
3108.477 1333466 1332091 1333578 1337395 1342713 1348657 1354603 1360187 
3112.334 1365272 1369870 1373740 1376641 1378282 1378527 1377364 1375106 
3116.192 1372044 1368480 1364581 1360306 1355768 1351250 1347222 1344528 
3120.049 1343796 1345330 1348786 1353141 1356871 1358438 1356694 1351322 
3123.906 1343022 1333318 1324115 1317376 1314411 1315607 1320381 1327333 
3127.764 1334633 1340460 1343545 1343396 1340503 1335934 1331154 1327462 
3131.621 1325424 1324832 1324617 1323364 1319877 1313810 1305802 1297729 
3135.479 1291982 1290796 1295454 1305715 1319738 1334523 1346720 1353554 
3139.336 1353657 1347320 1336515 1324142 1313364 1306545 1305011 1308712 
3143.194 1316473 1326508 1336800 1345780 1352300 1355907 1356610 1354733 
3147.051 1350707 1345164 1338703 1332071 1325839 1320531 1316434 1313516 
3150.908 1311367 1309354 1306908 1303670 1299725 1295758 1292781 1291892 
3154.766 1293978 1299220 1307029 1315929 1323986 1329237 1330190 1326431 
3158.623 1318656 1308596 1298640 1291144 1287927 1289719 1296038 1305342 
3162.481 1315537 1324277 1329696 1330661 1327084 1319822 1310526 1301428 
3166.338 1294870 1292970 1297192 1307911 1324462 1345060 1367120 1387885 
3170.196 1404808 1416123 1420988 1419590 1412670 1401342 1386761 1370202 
3174.053 1352897 1336290 1321963 1311510 1306122 1306160 1310875 1318492 
3177.910 1326633 1332991 1336032 1335341 1331651 1326586 1321680 1318177 
3181.768 1316451 1316182 1316797 1317667 1318729 1320228 1322527 1325689 
3185.625 1329172 1331995 1332953 1331225 1326884 1320825 1314754 1310451 
3189.483 1309209 1311232 1315720 1321010 1325287 1327260 1326446 1323421 
3193.340 1319455 1316171 1314821 1316195 1320391 1327100 1335714 1345669 
3197.198 1356515 1367878 1379332 1390340 1400217 1408299 1414295 1418418 
3201.055 1421717 1425683 1431985 1441785 1455117 1470598 1485443 1496129 
3204.912 1499424 1493241 1477523 1454353 1427508 1401400 1379852 1365320 
3208.770 1358322 1357689 1361254 1366925 1373200 1379456 1385853 1392671 
3212.627 1400137 1407907 1415303 1421712 1426788 1430651 1433782 1436559 
3216.485 1438971 1440522 1440189 1437227 1431388 1423371 1414694 1407169 
3220.342 1402443 1401231 1403360 1407699 1412784 1417396 1420683 1422535 
3224.199 1422932 1421957 1419352 1414707 1407792 1398997 1389573 1381573 
3228.057 1377384 1379026 1387454 1402078 1420977 1441117 1459211 1472552 
3231.914 1479470 1479766 1474293 1464944 1453946 1443336 1434651 1428605 
3235.772 1425082 1423269 1421867 1419565 1415334 1408912 1400755 1391924 
3239.629 1383839 1377855 1374872 1375163 1378416 1383936 1390890 1398519 
3243.487 1406260 1413699 1420380 1425913 1429763 1431497 1430992 1428401 
3247.344 1424212 1419032 1413546 1408113 1402766 1397396 1391774 1385955 
3251.201 1380178 1375008 1371067 1368756 1368121 1368879 1370410 1372246 
3255.059 1374225 1376683 1380405 1386253 1394806 1406000 1418931 1431998 
3258.916 1443259 1450902 1453714 1451484 1444910 1435387 1424584 1414041 
3262.774 1404740 1397021 1390708 1385300 1380382 1375681 1371350 1367707 
3266.631 1365198 1364252 1365000 1367388 1371144 1375983 1381644 1387952 
3270.489 1394821 1402075 1409397 1416261 1422099 1426317 1428444 1428545 
3274.346 1427112 1425163 1423838 1424388 1427547 1433569 1441951 1451653 
3278.203 1461303 1469475 1475103 1477713 1477217 1474205 1469490 1463939 
3282.061 1458342 1453250 1448859 1445160 1441931 1438813 1435429 1431549 
3285.918 1427240 1422753 1418827 1416317 1416140 1419066 1425382 1434859 
3289.776 1446707 1459848 1472851 1484459 1493614 1499564 1501856 1500422 
3293.633 1495459 1487605 1477742 1467171 1457204 1449088 1443740 1441535 
3297.490 1442385 1445797 1451153 1457868 1465381 1473074 1480105 1485305 
3301.348 1487335 1485076 1478129 1467212 1454258 1441932 1432998 1429303 
3305.205 1431038 1436623 1443106 1447256 1446570 1440029 1428604 1414608 
3309.063 1401020 1390362 1384076 1382295 1384202 1388480 1394134 1400620 
3312.920 1407973 1416282 1425436 1434827 1443289 1449523 1452453 1451565 
3316.778 1447236 1440586 1433246 1427036 1423668 1424397 1429869 1439998 
3320.635 1453787 1469415 1484383 1495919 1501564 1499635 1489784 1473232 
3324.492 1452494 1430841 1411587 1397260 1389039 1386558 1388073 1391224 
3328.350 1393652 1393732 1391260 1387307 1383988 1383698 1388177 1397919 
3332.207 1411666 1426778 1439800 1447672 1448372 1441920 1429942 1415417 
3336.065 1401536 1390934 1384840 1383421 1385787 1390890 1397926 1406585 
3339.922 1416789 1428203 1439890 1450295 1457405 1459606 1456293 1448279 
3343.780 1437601 1427133 1419282 1415692 1416221 1419504 1423067 1424471 
3347.637 1421842 1414340 1402311 1387131 1370716 1355262 1342695 1334664 
3351.494 1332077 1335093 1342919 1353943 1365980 1376586 1383673 1385847 
3355.352 1382668 1374740 1363511 1350831 1338732 1329078 1323251 1322071 
3359.209 1325596 1332998 1342683 1352552 1360378 1364564 1364490 1360941 
3363.067 1355760 1351568 1350636 1354475 1363312 1376102 1391013 1405987 
3366.924 1419332 1429912 1437024 1440284 1439329 1433898 1424013 1410427 
3370.781 1394753 1379539 1367558 1361359 1362388 1370626 1384734 1402493 
3374.639 1421456 1439477 1455033 1467114 1474793 1477151 1473202 1462312 
3378.496 1444557 1421362 1395428 1370339 1349803 1336679 1332280 1336009 
3382.354 1345778 1358605 1371493 1382077 1388918 1391618 1390424 1386024 
3386.211 1379256 1371140 1362772 1355398 1350391 1348759 1351116 1357315 
3390.069 1366486 1377157 1387685 1396877 1404099 1409677 1414599 1420249 
3393.926 1427876 1438038 1450339 1463452 1475216 1483143 1485048 1479653 
3397.783 1466879 1447995 1425368 1402124 1381242 1365292 1355751 1352987 
3401.641 1356375 1364519 1375727 1388224 1400533 1411480 1420232 1426243 
3405.498 1429236 1429221 1426359 1421056 1413814 1405260 1395917 1386378 
3409.356 1377327 1369597 1364089 1361887 1363927 1370531 1381326 1394783 
3413.213 1408440 1419349 1424541 1422080 1411612 1394583 1374080 1354110 
3417.071 1338638 1330361 1330183 1337010 1348184 1360367 1370725 1377552 
3420.928 1380789 1381739 1382369 1384418 1388733 1394997 1401915 1407873 
3424.785 1411474 1412302 1410828 1408196 1405781 1404547 1404790 1406054 
3428.643 1407410 1407803 1406452 1403128 1397932 1391589 1384990 1379275 
3432.500 1375577 1375036 1378559 1386584 1398804 1414050 1430381 1445318 
3436.358 1456476 1461890 1460485 1452236 1438119 1419905 1399767 1380259 
3440.215 1363910 1353012 1349302 1353621 1365561 1383238 1403686 1423174 
3444.073 1438304 1446629 1447500 1442020 1432769 1422940 1415450 1412085 
3447.930 1413354 1418258 1424916 1431127 1434881 1434805 1430446 1422241 
3451.787 1411507 1400078 1389962 1383032 1380545 1382840 1389364 1398801 
3455.645 1409663 1420425 1430173 1438329 1444601 1448782 1450558 1449626 
3459.502 1445939 1440331 1434350 1430383 1430802 1437173 1449789 1467102 
3463.360 1486484 1504843 1519672 1529787 1535544 1538298 1539823 1541360 
3467.217 1543315 1545317 1546635 1546711 1545614 1543982 1542744 1542785 
3471.074 1544777 1548907 1555294 1564159 1575736 1590293 1607591 1626849 
3474.932 1646581 1665041 1680654 1692639 1701145 1707021 1711488 1715303 
3478.789 1718910 1722051 1724517 1726447 1728623 1732339 1738880 1748959 
3482.647 1762462 1778387 1795392 1812416 1829131 1845816 1862918 1880400 
3486.504 1897246 1911605 1921161 1924271 1920662 1911843 1900822 1891261 
3490.362 1886523 1888891 1899155 1916767 1940258 1967675 1996874 2025724 
3494.219 2052052 2073931 2090078 2100136 2105030 2106647 2107384 2109367 
3498.076 2113747 2120327 2128061 2135538 2141795 2146772 2151255 2156223 
3501.934 2162333 2169376 2176609 2183054 2188266 2192784 2197880 2205170 
3505.791 2215526 2228467 2242026 2253348 2259544 2258533 2249794 2234104 
3509.649 2213268 2189196 2163764 2138495 2114957 2094778 2079846 2071589 
3513.506 2070647 2076159 2085497 2095146 2101184 2100799 2092890 2078400 
3517.364 2059844 2040694 2024046 2012309 2006453 2006161 2009863 2015043 
3521.221 2018676 2017640 2009309 1992497 1967807 1937842 1906751 1879181 
3525.078 1858891 1847747 1845174 1848418 1853781 1857772 1858121 1854411 
3528.936 1847623 1839508 1831734 1825356 1820704 1817744 1816228 1816085 
3532.793 1817044 1818476 1819210 1817586 1811980 1801526 1786494 1768639 
3536.651 1750746 1735588 1725417 1721195 1722414 1727475 1734245 1740614 
3540.508 1745110 1746653 1744802 1739758 1731971 1722425 1712343 1702900 
3544.365 1694868 1688259 1682099 1674858 1664835 1650927 1633309 1613278 
3548.223 1593102 1575310 1561744 1553450 1550191 1551376 1556044 1563624 
3552.080 1573788 1586357 1600797 1616135 1630848 1643281 1652158 1656895 
3555.938 1657894 1656344 1653829 1651837 1651573 1653596 1657931 1663914 
3559.795 1670529 1676265 1679533 1678794 1673212 1662952 1649373 1634598 
3563.653 1621384 1611831 1607049 1606801 1609453 1612727 1614593 1613748 
3567.510 1610145 1604880 1599852 1596950 1597692 1602723 1611666 1623025 
3571.367 1634807 1644440 1649626 1648689 1641146 1627762 1610475 1591773 
3575.225 1574146 1559184 1547474 1538695 1531960 1526708 1522903 1521288 
3579.082 1522751 1527687 1535511 1544476 1552161 1556158 1554881 1548125 
3582.940 1537099 1523806 1510498 1498914 1489918 1483582 1479440 1476496 
3586.797 1473887 1470474 1465104 1456696 1444603 1428727 1409931 1389849 
3590.655 1370580 1354117 1341960 1334842 1332944 1336101 1343906 1356049 
3594.512 1371801 1389841 1408021 1423695 1434311 1438148 1435129 1426744 
3598.369 1415722 1404987 1396801 1392295 1391446 1393498 1397838 1404082 
3602.227 1412254 1422199 1433172 1443799 1452212 1457059 1458110 1456400 
3606.084 1454050 1453135 1454728 1458253 1461597 1462299 1458608 1450667 
3609.942 1440613 1431848 1427596 1429815 1438170 1450453 1463562 1474633 
3613.799 1482130 1486111 1487603 1487935 1488012 1487751 1486594 1483720 
3617.656 1478800 1472075 1464369 1456758 1450343 1445937 1444350 1446019 
3621.514 1451189 1459521 1469891 1480422 1488896 1493422 1493342 1489527 
3625.371 1484523 1481265 1482226 1488367 1498877 1511599 1524132 1534981 
3629.229 1544122 1552828 1562752 1574793 1588430 1601877 1612970 1620164 
3633.086 1623626 1624875 1626490 1630489 1637715 1647072 1656506 1663909 
3636.944 1668501 1671122 1674145 1680386 1691868 1708899 1730034 1752567 
3640.801 1773669 1791266 1804464 1813674 1819725 1823666 1826276 1828020 
3644.658 1829447 1831326 1834367 1839327 1846390 1855070 1864522 1873611 
3648.516 1881822 1888934 1895375 1901341 1906623 1910046 1909943 1904562 
3652.373 1893204 1876516 1856887 1837854 1823167 1815923 1817572 1827834 
3656.231 1844753 1865246 1885906 1903851 1916970 1924326 1926126 1923545 
3660.088 1918398 1912538 1907265 1903207 1900020 1896574 1891788 1884827 
3663.946 1875998 1866245 1857178 1850272 1846153 1844479 1844034 1843231 
3667.803 1840880 1836511 1830678 1824488 1819082 1815164 1812611 1810671 
3671.660 1808227 1804157 1797552 1788016 1775254 1759437 1741057 1721161 
3675.518 1701459 1684191 1671671 1665772 1667074 1674496 1685234 1695260 
3679.375 1700373 1697146 1683899 1661457 1632839 1602715 1576334 1558194 
3683.233 1550770 1554042 1564957 1578254 1587820 1587904 1575124 1549195 
3687.090 1513408 1473565 1436654 1408854 1393799 1391687 1399651 1412650 
3690.948 1425246 1432971 1433282 1425866 1412227 1395006 1377178 1361260 
3694.805 1349216 1341947 1339739 1341964 1347573 1355173 1363492 1371566 
3698.662 1379074 1386164 1393368 1400956 1409018 1417056 1424405 1430271 
3702.520 1434417 1436857 1437948 1437863 1436130 1431723 1423189 1409390 
3706.377 1390546 1368257 1345618 1326519 1314639 1312134 1319255 1334112 
3710.235 1353585 1374232 1393360 1409642 1422990 1434307 1444795 1454840 
3714.092 1464255 1471735 1475653 1474279 1466556 1452296 1432616 1409852 
3717.949 1387309 1368814 1358044 1357574 1368439 1389340 1417064 1446852 
3721.807 1473780 1493673 1504274 1505626 1499483 1488644 1475511 1461242 
3725.664 1445563 1427055 1404384 1377401 1348025 1320053 1298331 1287165 
3729.522 1288939 1302945 1325480 1350853 1372908 1387127 1391546 1387360 
3733.379 1377971 1367869 1360921 1359524 1364080 1373406 1385518 1398122 
3737.237 1409430 1418057 1423025 1423608 1419568 1411027 1399397 1386703 
3741.094 1375993 1370195 1371496 1380677 1396902 1417762 1440345 1461747 
3744.951 1479914 1493830 1503266 1508308 1508991 1505037 1496183 1482501 
3748.809 1464606 1444002 1422755 1403298 1387799 1378050 1375445 1380473 
3752.666 1393215 1412772 1437417 1464306 1489976 1510785 1523714 1526962 
3756.524 1520525 1505983 1486175 1464266 1443133 1424711 1410231 1400009 
3760.381 1393981 1391659 1392277 1394856 1397939 1400294 1401014 1400011 
3764.239 1398228 1397061 1398108 1401987 1407994 1414040 1417167 1414842 
3768.096 1405705 1390295 1371117 1351672 1335612 1325493 1322388 1325542 
3771.953 1333195 1343094 1353122 1361829 1368483 1372945 1375568 1377143 
3775.811 1378619 1381003 1385104 1391136 1398699 1406616 1413350 1417660 
3779.668 1418775 1417024 1413452 1409450 1405914 1403048 1400155 1396112 
3783.526 1390120 1382572 1375061 1370228 1370858 1378685 1393650 1413416 
3787.383 1434190 1451552 1461918 1463763 1457920 1447313 1435969 1427689 
3791.240 1424880 1427925 1435268 1444120 1451505 1455215 1454373 1449636 
3795.098 1442438 1434439 1426692 1419401 1412057 1403734 1393963 1383136 
3798.955 1372486 1363813 1358845 1358624 1363126 1371274 1381456 1391973 
3802.813 1401653 1409711 1415851 1419729 1420799 1418360 1412080 1402389 
3806.670 1390878 1380293 1373980 1375045 1385182 1404218 1429818 1457950 
3810.528 1483839 1502667 1510923 1506832 1490606 1464690 1433140 1401115 
3814.385 1374110 1356875 1352293 1360800 1380006 1405213 1430481 1450158 
3818.242 1460321 1459459 1448793 1431832 1413093 1397174 1387469 1385690 
3822.100 1391663 1403537 1418469 1433469 1445599 1453106 1455194 1452411 
3825.957 1446328 1439029 1432676 1428789 1427984 1430019 1434127 1439529 
3829.815 1445662 1452424 1459751 1467221 1473899 1477979 1477601 1471163 
3833.672 1458367 1440111 1418623 1396672 1376665 1360205 1347754 1338785 
3837.530 1332673 1328944 1327727 1329496 1334844 1343770 1355522 1368907 
3841.387 1382348 1394419 1404210 1411242 1415387 1416657 1415177 1411321 
3845.244 1406038 1400830 1397626 1398354 1404069 1414440 1427578 1440490 
3849.102 1449803 1452815 1448185 1436360 1419052 1398692 1377736 1357808 
3852.959 1339885 1324198 1310760 1299727 1291511 1286794 1286465 1291043 
3856.817 1300759 1315102 1332839 1352012 1370122 1384462 1392784 1393822 
3860.674 1387908 1376847 1363668 1351777 1343922 1341367 1343793 1349368 
3864.531 1355848 1361478 1365482 1368313 1371170 1374893 1379676 1384306 
3868.389 1387076 1386292 1381321 1373065 1363850 1356586 1353768 1356368 
3872.246 1363896 1374220 1384716 1393119 1398327 1400404 1400358 1399445 
3876.104 1398492 1397565 1395887 1392472 1386595 1378256 1368295 1358176 
3879.961 1349676 1344090 1342222 1344009 1348921 1356012 1364610 1374236 
3883.819 1384746 1396220 1408632 1421826 1435168 1447774 1458591 1466645 
3887.676 1471348 1472583 1470725 1466619 1461367 1456140 1451952 1449440 
3891.533 1448892 1449982 1452021 1454009 1454866 1453654 1449956 1443810 
3895.391 1435905 1427244 1418998 1412248 1407683 1405578 1405895 1408296 
3899.248 1412262 1417088 1421888 1425479 1426724 1424462 1418315 1408868 
3903.106 1397790 1387674 1381338 1381104 1387706 1400036 1415476 1430243 
3906.963 1440850 1444997 1442120 1433665 1422310 1411175 1402885 1398773 
3910.821 1398854 1401810 1405602 1408220 1408040 1404161 1396660 1386228 
3914.678 1374409 1362953 1353784 1348562 1348414 1353617 1363687 1377242 
3918.535 1392385 1406957 1418994 1426987 1430083 1428255 1422417 1414036 
3922.393 1405037 1397243 1391949 1389656 1389696 1390404 1389867 1386170 
3926.250 1378419 1366916 1353129 1339497 1328459 1321722 1320101 1323123 
3930.108 1329558 1337806 1346200 1353534 1359071 1362219 1362583 1360122 
3933.965 1354982 1347987 1340491 1334414 1331699 1333847 1341477 1353843 
3937.823 1369251 1385189 1399200 1409516 1415348 1417206 1416458 1414828 
3941.680 1413921 1414476 1416256 1418181 1418657 1416248 1410650 1402546 
3945.537 1394059 1387784 1386029 1389877 1398564 1409510 1419218 1424365 
3949.395 1423048 1415595 1404366 1392977 1384978 1382546 1385857 1393221 
3953.252 1402080 1409898 1415499 1419000 1421829 1425584 1431362 1439071 
3957.110 1447602 1455289 1460717 1463064 1462382 1459253 1454310 1447871 
3960.967 1440159 1431308 1421873 1413059 1406453 1403566 1405140 1410688 
3964.824 1418607 1426370 1431472 1432110 1427606 1418502 1406216 1392443 
3968.682 1379000 1367144 1358005 1352323 1350658 1352983 1359022 1367650 
3972.539 1377474 1386877 1394583 1400155 1403790 1406230 1408393 1410702 
3976.397 1413210 1415534 1417233 1418335 1419531 1421736 1426029 1432863 
3980.254 1442052 1452640 1463631 1474359 1484903 1496023 1508545 1522414 
3984.112 1536462 1548009 1553645 1550369 1536699 1513487 1483930 1452572 
3987.969 1424197 1402107 1387808 1380568 1378576 1379676 1382815 1388154 
3991.826 1397081 1410944 1430521 1454894 1481571 1506938 1527293 1539724 
3995.684 1543168 1538105 1526602 1511516 1495813 1482166 1472738 1468880 
3999.541 1471570 1480862 1496013 
##END=
