##TITLE=Bambu-Lab_PLA_White_Filament_r3_ATR-Corrected
##JCAMP-DX=5.01  $$ Nicolet v. 1
##DATATYPE=INFRARED SPECTRUM
##ORIGIN=Curtin University
##OWNER=Nicolet
##LONGDATE=2024/07/03
##TIME=09:32:39
##SPECTROMETER/DATA SYSTEM=Nicolet iS50
##DATA PROCESSING=
Ratio against background
%Transmittance->Absorbance
ATR Correction
Truncated
ElementMultiply or ElementDivide
##COMMENTS=
Number of sample scans: 32
Collection length: 47.27 sec
Sample gain: 1.0
Background collected on: Wed Jul 03 09:31:03 2024 (GMT+08:00);
Number of background scans: 32
Background gain: 1.0
Sample spacing:  1.000
Number of scan points: 16672
Resolution points: 8192
Number of FFT points: 65536
Apodization: N-B strong;
Phase correction: Mertz;
Laser frequency: 15798.3 cm-1
Number of rejected sample scans: 0
Number of rejected background scans: 0
Bench serial number: AUP1200105;
##RESOLUTION=4.000
##XUNITS=1/CM
##YUNITS=ABSORBANCE
##FIRSTX=400.163452
##LASTX=4000.187744
##FIRSTY=0.058613
##MAXX=4000.187744
##MINX=400.163452
##MAXY=1.049762
##MINY=-0.036734
##XFACTOR=1.000000
##YFACTOR=1.000000E-008
##NPOINTS=7468
##DELTAX=0.482125
##ZPD=8192
##XYDATA=(X++(Y..Y))
400.163 5861340 5748453 5626578 5499160 5371311 5249717 5140226 5046226 
404.020 4968434 4905180 4853547 4810286 4772512 4737781 4703882 4668124 
407.877 4627257 4577523 4515610 4439797 4351074 4253458 4153311 4057527 
411.734 3971554 3897543 3833958 3776109 3718163 3655150 3584691 3507404 
415.591 3426265 3344956 3266362 3191817 3121295 3054507 2992080 2936162 
419.448 2890067 2856964 2838154 2831860 2833121 2834821 2829807 2812857 
423.305 2782354 2740513 2692718 2645869 2606596 2579850 2568093 2571029 
427.162 2585881 2607884 2630987 2648657 2655042 2646090 2620750 2581475 
431.019 2534017 2486099 2445456 2417688 2405238 2406391 2416251 2428217 
434.876 2435897 2434740 2422802 2400676 2370649 2335613 2298393 2261288 
438.733 2226395 2195778 2171830 2156921 2152987 2160750 2179214 2205536 
442.590 2235574 2264706 2289011 2306062 2315375 2318203 2316777 2313288 
446.447 2309131 2304403 2298143 2288901 2275527 2257789 2236663 2214089 
450.304 2192550 2174452 2161730 2155728 2157293 2166913 2184768 2210425 
454.161 2242498 2278228 2313522 2343378 2362959 2368711 2359444 2336648 
458.017 2304104 2266699 2229119 2194613 2164575 2138695 2115874 2095023 
461.874 2075851 2058859 2044967 2034511 2027520 2022655 2017924 2011367 
465.731 2001911 1989747 1976402 1964071 1954829 1949830 1948902 1950566 
469.588 1952594 1952678 1949125 1941203 1929210 1914148 1897319 1879827 
473.445 1862402 1845220 1828165 1810931 1793371 1775576 1757924 1740972 
477.302 1725358 1711623 1700198 1691387 1685374 1682201 1681680 1683223 
481.159 1685762 1687834 1687871 1684719 1678168 1669321 1660516 1654701 
485.016 1654489 1661060 1673496 1688759 1702522 1710561 1710232 1701489 
488.873 1687015 1671364 1659472 1655013 1659370 1671367 1687921 1705274 
492.730 1720235 1731013 1737357 1739933 1740120 1738739 1736011 1731629 
496.587 1725268 1716976 1707452 1697930 1689887 1684598 1682910 1685009 
500.444 1690546 1698684 1708262 1717813 1725701 1730286 1730221 1724768 
504.301 1714097 1699263 1682075 1664546 1648492 1635124 1625024 1618254 
508.158 1614682 1614163 1616566 1621589 1628461 1635815 1641783 1644456 
512.015 1642431 1635355 1624156 1610872 1598117 1588396 1583541 1584277 
515.871 1590275 1600292 1612521 1624892 1635280 1641684 1642432 1636380 
519.728 1623219 1603577 1579036 1551807 1524268 1498408 1475473 1455802 
523.585 1439024 1424440 1411424 1399568 1389186 1380766 1374891 1372008 
527.442 1372319 1375690 1381686 1389525 1398146 1406221 1412343 1415289 
531.299 1414369 1409661 1402152 1393460 1385462 1379702 1377022 1377308 
535.156 1379730 1383043 1386073 1387950 1388221 1386672 1383179 1377532 
539.013 1369586 1359446 1347752 1335700 1324906 1316935 1312808 1312667 
542.870 1315749 1320729 1326244 1331428 1336141 1340897 1346406 1353092 
546.727 1360765 1368585 1375358 1380051 1382174 1381933 1380058 1377387 
550.584 1374423 1371122 1366917 1361090 1353216 1343519 1333009 1323220 
554.441 1315889 1312453 1313704 1319606 1329638 1342658 1357331 1372224 
558.298 1386016 1397558 1406014 1410975 1412568 1411378 1408403 1404731 
562.155 1401333 1398799 1397309 1396706 1396759 1397349 1398598 1400823 
566.012 1404359 1409332 1415501 1422244 1428754 1434254 1438302 1440868 
569.869 1442325 1443244 1444182 1445502 1447308 1449555 1452213 1455427 
573.725 1459620 1465384 1473356 1483978 1497352 1513126 1530583 1548717 
577.582 1566457 1582795 1596910 1608248 1616562 1621899 1624632 1625384 
581.439 1625009 1624454 1624656 1626382 1630164 1636174 1644245 1653853 
585.296 1664201 1674273 1682994 1689407 1692817 1693009 1690402 1685981 
589.153 1681217 1677726 1676885 1679494 1685513 1694096 1703820 1713075 
593.010 1720506 1725349 1727569 1727793 1727039 1726458 1727079 1729708 
596.867 1734897 1743004 1754249 1768596 1785779 1805105 1825544 1845779 
600.724 1864519 1880718 1893842 1903912 1911416 1917017 1921385 1924928 
604.581 1927863 1930285 1932363 1934408 1936883 1940221 1944646 1950015 
608.438 1955851 1961603 1966980 1972279 1978534 1987323 2000391 2019041 
612.295 2043613 2073225 2105871 2138892 2169631 2196199 2217938 2235541 
616.152 2250848 2266195 2283729 2304778 2329465 2356692 2384539 2410793 
620.009 2433678 2452295 2466859 2478562 2489175 2500516 2513947 2530078 
623.866 2548777 2569321 2590735 2612119 2632874 2652800 2672049 2691075 
627.723 2710517 2731079 2753421 2777959 2804694 2833018 2861749 2889248 
631.579 2913832 2934219 2949966 2961634 2970673 2978942 2988163 2999351 
635.436 3012610 3027197 3041879 3055460 3067165 3076819 3084780 3091683 
639.293 3098232 3105034 3112622 3121580 3132596 3146420 3163695 3184719 
643.150 3209266 3236552 3265395 3294501 3322717 3349200 3373438 3395172 
647.007 3414310 3430919 3445222 3457735 3469180 3480382 3492079 3504646 
650.864 3518086 3532145 3546637 3561750 3578176 3596938 3618946 3644412 
654.721 3672565 3701612 3729279 3753574 3773479 3789390 3802874 3816084 
658.578 3830931 3848402 3868397 3889924 3911743 3932906 3953028 3972186 
662.435 3990481 4007659 4022951 4035384 4044348 4050180 4054502 4059997 
666.292 4069726 4086196 4110564 4142224 4179024 4217919 4255794 4290246 
670.149 4319980 4344864 4365653 4383610 4400117 4416423 4433432 4451627 
674.006 4470999 4491115 4511200 4530447 4548259 4564496 4579506 4594017 
677.863 4608768 4624224 4640358 4656803 4672959 4688485 4703527 4718685 
681.720 4734771 4752464 4771929 4792745 4814064 4834957 4854814 4873528 
685.577 4891459 4909223 4927363 4946172 4965648 4985662 5006139 5027165 
689.433 5048965 5071705 5095319 5119491 5143740 5167750 5191635 5216063 
693.290 5242161 5271156 5303961 5340846 5381274 5424072 5467680 5510461 
697.147 5550925 5587743 5619724 5645757 5664873 5676384 5680090 5676441 
701.004 5666456 5651577 5633350 5613066 5591694 5569777 5547641 5525573 
704.861 5503998 5483454 5464502 5447544 5432665 5419531 5407460 5395518 
708.718 5382679 5368025 5350802 5330597 5307241 5280883 5251953 5221001 
712.575 5188623 5155265 5121186 5086390 5050671 5013682 4974929 4933839 
716.432 4889711 4841734 4789054 4730954 4667027 4597348 4522512 4443531 
720.289 4361535 4277528 4192156 4105733 4018397 3930480 3842745 3756562 
724.146 3673843 3596801 3527623 3468186 3419904 3383676 3359939 3348713 
728.003 3349638 3362040 3384907 3417097 3457556 3505562 3560942 3624067 
731.860 3695706 3776710 3867638 3968490 4078643 4196860 4321452 4450442 
735.717 4581664 4712874 4841832 4966555 5085560 5198121 5304391 5405226 
739.574 5501836 5595229 5685798 5773212 5856653 5935301 6008931 6078177 
743.431 6144570 6210049 6276383 6344754 6415558 6488674 6563885 6641324 
747.287 6721600 6805528 6893665 6985771 7080569 7175862 7269053 7357831 
751.144 7440607 7516744 7586263 7649437 7706266 7756259 7798353 7831156 
755.001 7853184 7862957 7859038 7839997 7804397 7751061 7679441 7589998 
758.858 7484445 7365580 7236854 7101661 6962719 6821728 6679407 6535919 
762.715 6391383 6246374 6102041 5959989 5821876 5688959 5561833 5440344 
766.572 5323771 5211090 5101294 4993577 4887373 4782333 4678287 4575193 
770.429 4473214 4372762 4274519 4179391 4088474 4002713 3922709 3848566 
774.286 3779777 3715276 3653637 3593329 3532970 3471591 3408742 3344456 
778.143 3279127 3213303 3147520 3082163 3017447 2953521 2890481 2828450 
782.000 2767528 2707743 2648930 2590757 2532817 2474772 2416500 2358169 
785.857 2300169 2242945 2186786 2131736 2077628 2024279 1971731 1920416 
789.714 1871148 1824894 1782493 1744323 1710218 1679568 1651584 1625646 
793.571 1601480 1579181 1559047 1541310 1525965 1512768 1501313 1491275 
797.428 1482441 1474695 1467839 1461392 1454537 1446298 1435868 1423005 
801.285 1408249 1392832 1378304 1365988 1356688 1350402 1346531 1344324 
805.141 1343291 1343416 1345095 1348824 1354771 1362596 1371502 1380505 
808.998 1388852 1396207 1402671 1408436 1413452 1417231 1418835 1417293 
812.855 1412092 1403482 1392573 1380984 1370266 1361441 1354682 1349540 
816.712 1345343 1341778 1339190 1338617 1341333 1348302 1359671 1374552 
820.569 1391200 1407486 1421448 1431788 1438049 1440586 1440342 1438565 
824.426 1436541 1435438 1436149 1439164 1444513 1451705 1459842 1467904 
828.283 1475052 1480975 1486019 1491087 1497303 1505565 1516217 1528924 
832.140 1542890 1557269 1571614 1586208 1602097 1620789 1643758 1671997 
835.997 1705690 1744210 1786290 1830443 1875386 1920374 1965387 2011096 
839.854 2058755 2109889 2165941 2227972 2296285 2370334 2448701 2529291 
843.711 2609687 2687560 2761002 2828699 2889958 2944501 2992315 3033422 
847.568 3067871 3095827 3117779 3134748 3148408 3161137 3175836 3195763 
851.425 3224220 3264291 3318627 3389243 3477468 3583949 3708766 3851533 
855.282 4011576 4188031 4379762 4585331 4802797 5029647 5262810 5498887 
859.139 5734365 5966063 6191289 6408030 6614820 6810643 6994705 7166331 
862.995 7324955 7470187 7601820 7719898 7824551 7915853 7993676 8057642 
866.852 8107155 8141654 8160728 8164301 8152584 8125912 8084526 8028443 
870.709 7957361 7870885 7768665 7650697 7517390 7369563 7208314 7034839 
874.566 6850312 6655947 6453015 6243100 6028084 5810188 5591839 5375450 
878.423 5163261 4957227 4758886 4569443 4389747 4220365 4061751 3914333 
882.280 3778750 3656007 3547470 3454727 3379207 3321813 3282410 3259724 
886.137 3251374 3254353 3265494 3282064 3301993 3323949 3347087 3370823 
889.994 3394561 3417672 3439551 3459834 3478407 3495358 3510733 3524378 
893.851 3535790 3544303 3549372 3550949 3549769 3547261 3545312 3545731 
897.708 3549848 3558252 3570834 3587140 3606693 3629336 3655243 3684772 
901.565 3718226 3755654 3796840 3841515 3889642 3941596 3998214 4060532 
905.422 4129333 4204678 4285615 4370089 4455194 4537501 4613584 4680358 
909.279 4735324 4776716 4803509 4815428 4812832 4796704 4768497 4729914 
913.136 4682777 4628817 4569534 4506169 4439673 4370790 4300035 4227780 
916.993 4154312 4079968 4005334 3931387 3859585 3791755 3729809 3675297 
920.849 3628982 3590566 3558663 3531189 3505768 3480411 3453863 3425848 
924.706 3396894 3368064 3340469 3314978 3292102 3271904 3254195 3238680 
928.563 3225135 3213487 3203819 3196338 3191262 3188712 3188667 3190778 
932.420 3194425 3198719 3202689 3205454 3206483 3205714 3203651 3201216 
936.277 3199583 3199928 3203187 3210048 3220860 3235763 3254724 3277547 
940.134 3303871 3333119 3364487 3397063 3429992 3462712 3495143 3527796 
943.991 3561707 3598208 3638726 3684448 3736204 3794362 3858901 3929500 
947.848 4005705 4087016 4172961 4263131 4357207 4454888 4555968 4660259 
951.705 4767648 4878017 4991224 5107076 5225144 5344770 5464943 5584349 
955.562 5701492 5814850 5923181 6025714 6122275 6213383 6300086 6383741 
959.419 6465783 6547500 6629880 6713582 6798867 6885562 6972944 7059624 
963.276 7143441 7221573 7290640 7347072 7387529 7409179 7409947 7388526 
967.133 7344324 7277357 7188221 7078100 6948766 6802740 6643085 6473224 
970.990 6296670 6116754 5936430 5758293 5584595 5417355 5258361 5109061 
974.847 4970436 4842889 4726299 4620226 4524163 4437827 4361219 4294552 
978.703 4237883 4190860 4152564 4121543 4096138 4074987 4057290 4043036 
982.560 4032788 4027354 4027345 4032891 4043576 4058684 4077497 4099620 
986.417 4125090 4154346 4187906 4226252 4269394 4317032 4368548 4423131 
990.274 4479832 4537638 4595349 4651645 4705030 4754106 4797750 4835372 
994.131 4867008 4893354 4915482 4934655 4952033 4968528 4984740 5001055 
997.988 5017752 5035119 5053564 5073666 5096171 5122044 5152363 5188290 
1001.845 5230939 5281241 5339813 5406942 5482552 5566347 5658018 5757434 
1005.702 5864737 5980412 6105154 6239824 6385188 6541899 6710384 6890895 
1009.559 7083574 7288532 7505958 7736196 7979808 8237565 8510314 8798851 
1013.416 9103658 9424718 9761348 10112295 10475860 10850324 11234308 
1016.791 11626992 12028170 12438034 12856747 13284051 13718775 14158858 
1020.166 14601541 15043740 15482493 15915339 16340558 16757129 17164566 
1023.540 17562828 17952102 18332958 18706390 19074004 19438166 19801954 
1026.916 20169120 20543768 20930152 21332342 21754104 22198762 22669244 
1030.291 23168054 23697332 24258704 24853230 25481066 26141432 26832336 
1033.666 27550730 28292652 29053440 29827934 30610594 31395468 32176068 
1037.041 32945276 33695364 34418356 35106432 35752608 36351032 36897324 
1040.417 37388296 37821748 38195968 38509564 38761468 38951208 39079060 
1043.792 39146312 39155128 39108364 39009308 38861664 38669468 38437372 
1047.167 38170828 37876072 37559916 37229404 36891160 36551204 36214344 
1050.542 35884316 35563568 35253380 34953932 34664448 34383588 34109832 
1053.917 33842076 33580144 33325088 33079266 32846162 32630062 32435736 
1057.293 32268270 32133194 32036596 31985220 31986650 32049068 32180994 
1060.668 32390880 32686800 33076072 33564988 34158544 34860240 35671712 
1064.043 36592712 37621124 38753392 39984996 41311120 42727084 44228428 
1067.418 45810628 47468560 49196004 50985424 52828188 54715204 56637608 
1070.794 58587200 60556160 62536524 64519180 66493420 68447112 70367856 
1074.169 72244272 74067536 75831760 77533320 79169432 80736776 82230040 
1077.544 83641920 84963712 86186040 87299216 88293160 89156720 89877816 
1080.919 90443472 90842192 91065672 91110792 90980128 90681120 90224176 
1084.295 89620864 88882792 88021704 87049976 85981640 84832496 83619608 
1087.670 82359840 81068720 79759112 78441048 77121648 75805936 74497296 
1091.045 73198096 71909992 70634320 69372216 68124760 66893024 65677928 
1094.420 64479972 63299036 62134308 60984536 59848244 58724404 57612468 
1097.796 56512664 55425484 54351556 53291000 52243536 51208544 50185432 
1101.171 49174000 48174740 47188832 46218076 45264572 44330672 43418728 
1104.546 42531108 41670144 40838096 40036912 39268272 38533596 37834316 
1107.921 37172020 36548864 35967548 35431256 34943192 34506156 34122104 
1111.297 33791864 33515272 33291208 33117888 32993076 32914164 32878214 
1114.672 32882068 32922548 32996670 33102116 33237442 33402100 33596320 
1118.047 33820700 34075812 34361972 34679072 35026760 35404460 35811420 
1121.422 36246268 36706640 37188408 37685240 38188328 38686616 39167456 
1124.798 39617388 40023204 40372740 40655716 40864216 40993060 41040020 
1128.173 41005628 40892868 40706544 40452524 40136892 39765440 39343104 
1131.548 38874076 38361584 37808124 37215472 36584736 35916416 35210688 
1134.923 34467648 33687712 32872052 32022786 31143078 30236944 29309080 
1138.299 28364562 27408678 26446792 25484272 24526468 23578674 22646106 
1141.674 21733820 20846642 19989276 19166108 18381026 17637446 16937972 
1145.049 16284397 15677568 15117522 14603615 14134721 13709438 13326055 
1148.424 12982640 12676910 12406235 12167721 11958418 11775619 11617070 
1151.800 11481146 11366839 11273525 11200762 11148021 11114582 11099610 
1155.175 11102176 11121533 11157147 11208790 11276487 11360502 11461333 
1158.550 11579759 11716747 11873532 12051472 12251920 12476119 12725231 
1161.925 13000451 13303363 13636184 14002100 14405282 14850782 15344247 
1165.301 15891604 16498807 17171850 17916822 18740244 19649244 20651722 
1168.676 21756310 22972212 24308840 25775448 27380586 29131672 31034362 
1172.051 33091966 35304604 37668504 40175024 42809720 45551276 48370568 
1175.426 51229768 54081940 56871624 59536548 62010932 64230208 66136436 
1178.802 67683552 68841256 69596840 69955024 69935824 69571608 68903680 
1182.177 67978808 66845960 65553092 64144664 62659664 61130752 59584112 
1185.552 58040212 56514860 55020256 53566032 52159708 50807100 49512500 
1188.927 48278792 47107740 46000084 44955756 43973960 43053140 42191076 
1192.302 41384952 40631584 39927804 39270692 38657908 38087560 37558220 
1195.678 37068624 36617464 36203328 35824608 35479620 35166560 34883600 
1199.053 34628724 34399740 34194308 34010120 33845088 33697508 33566128 
1202.428 33449974 33347946 33258500 33179342 33107620 33039942 32972900 
1205.803 32903298 32828424 32745970 32653794 32549840 32431912 32297874 
1209.179 32145808 31974242 31782206 31569200 31334894 31079066 30801464 
1212.554 30501934 30180738 29838690 29477358 29098886 28705704 28300178 
1215.929 27884314 27459678 27027452 26588734 26144770 25697064 25247508 
1219.304 24798136 24350994 23907898 23470374 23039442 22615778 22199648 
1222.680 21791098 21390008 20996276 20609916 20231212 19860670 19499002 
1226.055 19147030 18805448 18474788 18155336 17847140 17550198 17264556 
1229.430 16990378 16727956 16477562 16239309 16013016 15798138 15593766 
1232.805 15398760 15211906 15032122 14858639 14691029 14529394 14374164 
1236.181 14226019 14085680 13953626 13829969 13714269 13605635 13502818 
1239.556 13404541 13309674 13217504 13127805 13040724 12956738 12876390 
1242.931 12800285 12728918 12662739 12602107 12547225 12498176 12454751 
1246.306 12416518 12382867 12353159 12326898 12303813 12284014 12267818 
1249.682 12255673 12248083 12245481 12248330 12257165 12272587 12295344 
1253.057 12326095 12365261 12412830 12468220 12530391 12597978 12669548 
1256.432 12743835 12819916 12897234 12975623 13055129 13136004 13218525 
1259.807 13302906 13389178 13477023 13565750 13654248 13741127 13824864 
1263.183 13903996 13977233 14043416 14101477 14150243 14188436 14214753 
1266.558 14228074 14227776 14213808 14186797 14147697 14097448 14036657 
1269.933 13965303 13882883 13788603 13681766 13562047 13429628 13285010 
1273.308 13128801 12961428 12783054 12593579 12392882 12181137 11958939 
1276.684 11727392 11487962 11242231 10991662 10737543 10480861 10222512 
1280.059 9963401 9704597 9447369 9193102 8943269 8699258 8462361 8233741 
1283.916 8014545 7805890 7609044 7425296 7256074 7102756 6966647 6848826 
1287.774 6750075 6670795 6610964 6570070 6547219 6541162 6550402 6573345 
1291.631 6608348 6653843 6708345 6770392 6838573 6911385 6987215 7064341 
1295.489 7140874 7214983 7284964 7349449 7407564 7458971 7503838 7542637 
1299.346 7575950 7604248 7627851 7646892 7661566 7672179 7679320 7683770 
1303.203 7686322 7687558 7687659 7686427 7683379 7677999 7670067 7659658 
1307.061 7647209 7633318 7618438 7602761 7586229 7568565 7549549 7529168 
1310.918 7507708 7485664 7463535 7441777 7420574 7400029 7380205 7361309 
1314.776 7343802 7328300 7315449 7305769 7299380 7296037 7295062 7295560 
1318.633 7296502 7296961 7296235 7293997 7290326 7285796 7281311 7278005 
1322.490 7276984 7278995 7284321 7292627 7303158 7314934 7327162 7339472 
1326.348 7352137 7365903 7381940 7401491 7425702 7455465 7491387 7533697 
1330.205 7582344 7636908 7696644 7760586 7827689 7897141 7968575 8042215 
1334.063 8118815 8199403 8284886 8375668 8471561 8571709 8674959 8780192 
1337.920 8886664 8994281 9103463 9215078 9330129 9449647 9574381 9704948 
1341.778 9841724 9984920 10134666 10291006 10453889 10623277 10799133 
1345.153 10981476 11170287 11365489 11566842 11773929 11986210 12203147 
1348.528 12424322 12649460 12878320 13110495 13345151 13580877 13815700 
1351.903 14047267 14273188 14491346 14700043 14897911 15083769 15256323 
1355.279 15414159 15555802 15679944 15785857 15873508 15943676 15997657 
1358.654 16037090 16063628 16078793 16084075 16081029 16071415 16057163 
1362.029 16040258 16022260 16004124 15985800 15966304 15943737 15915625 
1365.404 15879154 15831406 15769343 15689914 15590084 15466952 15318127 
1368.780 15142241 14939524 14712353 14465542 14206482 13944811 13691941 
1372.155 13460329 13262564 13110605 13014814 12983271 13021103 13130035 
1375.530 13308176 13550013 13846719 14186655 14556023 14939760 15322413 
1378.905 15689117 16026370 16322660 16568758 16757666 16884496 16946288 
1382.281 16941718 16871120 16736297 16540428 16287880 15983973 15634665 
1385.656 15246403 14825858 14379737 13914455 13435842 12948838 12457233 
1389.031 11963700 11469895 10976865 10485332 9996200 9510779 9030961 8559322 
1392.888 8099027 7653682 7227168 6823092 6444538 6093638 5771300 5477267 
1396.746 5210333 4968618 4750176 4553191 4376179 4217989 4077522 3953510 
1400.603 3844291 3747769 3661599 3583423 3511271 3443721 3380046 3320083 
1404.461 3264024 3212129 3164477 3120923 3081180 3044909 3011952 2982369 
1408.318 2956396 2934348 2916358 2902366 2891983 2884652 2879766 2876843 
1412.176 2875595 2875899 2877739 2881063 2885714 2891404 2897786 2904600 
1416.033 2911757 2919358 2927683 2937067 2947780 2959930 2973383 2987795 
1419.890 3002752 3017948 3033401 3049514 3067172 3087668 3112433 3142829 
1423.748 3179909 3224212 3275787 3334339 3399454 3470892 3548673 3633093 
1427.605 3724588 3823423 3929561 4042577 4161776 4286354 4415703 4549468 
1431.463 4687655 4830533 4978541 5132252 5292430 5460168 5637034 5825169 
1435.320 6027349 6246784 6487008 6751638 7044301 7368425 7727200 8123373 
1439.177 8558973 9034951 9551029 10105436 10695022 11315408 11961333 
1442.553 12626790 13305160 13989232 14671293 15343350 15997402 16625857 
1445.928 17221888 17779542 18293882 18760954 19177856 19543046 19856334 
1449.303 20118994 20333492 20502912 20630308 20718180 20768200 20781096 
1452.678 20756950 20695420 20595812 20457210 20278372 20057926 19794556 
1456.054 19487474 19136822 18743986 18311546 17842982 17342304 16813804 
1459.429 16261846 15690912 15105532 14510277 13909478 13307102 12706615 
1462.804 12111127 11523668 10947341 10385530 9841640 9318806 8819468 8345107 
1466.662 7896309 7472982 7074688 6701009 6351596 6026164 5724182 5444817 
1470.519 5186678 4947994 4726675 4520570 4327702 4146427 3975599 3814533 
1474.376 3663191 3521930 3391464 3272547 3165682 3070893 2987546 2914384 
1478.234 2849778 2792023 2739628 2691572 2647292 2606576 2569332 2535431 
1482.091 2504518 2476014 2449276 2423614 2398557 2373862 2349573 2325987 
1485.949 2303512 2282591 2263553 2246455 2231025 2216707 2202800 2188551 
1489.806 2173519 2157557 2140955 2124250 2108029 2092653 2078104 2064003 
1493.664 2049671 2034485 2018077 2000446 1982088 1963678 1945920 1929315 
1497.521 1914114 1900169 1887266 1875102 1863542 1852574 1842292 1832807 
1501.378 1824187 1816417 1809476 1803402 1798236 1794126 1791064 1788948 
1505.236 1787405 1785890 1783693 1780232 1775157 1768483 1760471 1751720 
1509.093 1742800 1734210 1726297 1719265 1713133 1707876 1703397 1699580 
1512.951 1696176 1692867 1689259 1684957 1679763 1673730 1667216 1660893 
1516.808 1655499 1651685 1649812 1649795 1651164 1653191 1655078 1656198 
1520.666 1656154 1654871 1652469 1649166 1645153 1640527 1635318 1629515 
1524.523 1623089 1616130 1608743 1601016 1593077 1585050 1577082 1569379 
1528.380 1562206 1555806 1550368 1545845 1542041 1538561 1534985 1530970 
1532.238 1526471 1521667 1516891 1512559 1508911 1505979 1503663 1501752 
1536.095 1500137 1498811 1497849 1497277 1496933 1496365 1494894 1491920 
1539.953 1487029 1480335 1472484 1464420 1457181 1451433 1447363 1444529 
1543.810 1442178 1439440 1435743 1430955 1425495 1420068 1415455 1412284 
1547.667 1410744 1410649 1411445 1412351 1412592 1411568 1408953 1404821 
1551.525 1399610 1394070 1389063 1385429 1383663 1383856 1385647 1388233 
1555.382 1390752 1392367 1392572 1391277 1388716 1385326 1381566 1377829 
1559.240 1374364 1371282 1368710 1366811 1365782 1365760 1366816 1368827 
1563.097 1371501 1374488 1377450 1380129 1382406 1384187 1385387 1385871 
1566.955 1385366 1383661 1380587 1376250 1370940 1365180 1359508 1354400 
1570.812 1350128 1346699 1344021 1341904 1340285 1339208 1338847 1339406 
1574.669 1340966 1343463 1346536 1349701 1352421 1354183 1354725 1354019 
1578.527 1352241 1349762 1346998 1344350 1342187 1340801 1340356 1341031 
1582.384 1342932 1346095 1350432 1355740 1361684 1367840 1373818 1379333 
1586.242 1384235 1388523 1392305 1395615 1398450 1400701 1402217 1402970 
1590.099 1403100 1403031 1403316 1404543 1407133 1411172 1416453 1422541 
1593.957 1428917 1435223 1441252 1446950 1452382 1457525 1462304 1466627 
1597.814 1470433 1473906 1477337 1481193 1485782 1491208 1497304 1503674 
1601.671 1509908 1515777 1521340 1526901 1532758 1539082 1545692 1552094 
1605.529 1557734 1562239 1565615 1568312 1570978 1574260 1578428 1583356 
1609.386 1588593 1593745 1598687 1603770 1609696 1617173 1626573 1637644 
1613.244 1649542 1661094 1671306 1679690 1686457 1692433 1698687 1706059 
1617.101 1714853 1724728 1734919 1744550 1752890 1759590 1764611 1768120 
1620.958 1770386 1771634 1772089 1772120 1772173 1772848 1774693 1778096 
1624.816 1783096 1789435 1796524 1803751 1810545 1816547 1821601 1825794 
1628.673 1829380 1832852 1836797 1841985 1849207 1859101 1872022 1887895 
1632.531 1906231 1926334 1947538 1969378 1991738 2014648 2038029 2061436 
1636.388 2083865 2103822 2119670 2130073 2134247 2132301 2124993 2113539 
1640.246 2099287 2083429 2066792 2049915 2033132 2016662 2000651 1985155 
1644.103 1970095 1955321 1940676 1926137 1911967 1898688 1887018 1877528 
1647.960 1870550 1865923 1863098 1861399 1860204 1859227 1858501 1858342 
1651.818 1859127 1861096 1864253 1868428 1873366 1878936 1885167 1892220 
1655.675 1900189 1909070 1918560 1928203 1937458 1945900 1953304 1959774 
1659.533 1965621 1971211 1976986 1983245 1990136 1997676 2005679 2013904 
1663.390 2021935 2029421 2036146 2042142 2047802 2053806 2060916 2069723 
1667.248 2080401 2092519 2105107 2116986 2127000 2134485 2139472 2142621 
1671.105 2145053 2148085 2152922 2160410 2171084 2185051 2202138 2221898 
1674.962 2243608 2266374 2289273 2311435 2332297 2351729 2369907 2387255 
1678.820 2404260 2421077 2437654 2453649 2468707 2482709 2496007 2509360 
1682.677 2523865 2540598 2560341 2583327 2609177 2637116 2666194 2695571 
1686.535 2724831 2753943 2783240 2813250 2844533 2877411 2911918 2947718 
1690.392 2984185 3020531 3056075 3090490 3123934 3157130 3191220 3227495 
1694.250 3267071 3310606 3358170 3409344 3463532 3520236 3579328 3641075 
1698.107 3705984 3774514 3846820 3922598 4001223 4081985 4164454 4248748 
1701.964 4335532 4425890 4521072 4622121 4729825 4844556 4966434 5095410 
1705.822 5231411 5374395 5524285 5681079 5844769 6015505 6193749 6380228 
1709.679 6576018 6782350 7000343 7230814 7474160 7730254 7998713 8279001 
1713.537 8570694 8873527 9187403 9512318 9848233 10194933 10552098 10919359 
1717.394 11296405 11683155 12079874 12487247 12906322 13338448 13785158 
1720.769 14247923 14728113 15226768 15744662 16282612 16841450 17422486 
1724.145 18027488 18658662 19318304 20008514 20730962 21486810 22277038 
1727.520 23102658 23965176 24866710 25809920 26797726 27833090 28918844 
1730.895 30058014 31253952 32510718 33832888 35225156 36691572 38235092 
1734.270 39857508 41560168 43345192 45216636 47181028 49246720 51422264 
1737.646 53714092 56124516 58650440 61283408 64010740 66816984 69685056 
1741.021 72596152 75529248 78459832 81360080 84199656 86947944 89576136 
1744.396 92058656 94372728 96497456 98412728 100099512 101541760 102729104 
1747.771 103658912 104336128 104771136 104976240 104962608 104739152 
1750.664 104313160 103692176 102885744 101905360 100763360 99470936 98036920 
1754.040 96467944 94770008 92950760 91020856 88994304 86887160 84715744 
1757.415 82494992 80237760 77955344 75658480 73358280 71066792 68796576 
1760.790 66560184 64369108 62233472 60161740 58160716 56235360 54388808 
1764.165 52622044 50933932 49321584 47781264 46309236 44902812 43560700 
1767.541 42282512 41067968 39915660 38822152 37781812 36787268 35830612 
1770.916 34904552 34003492 33123592 32262666 31419054 30590922 29775584 
1774.291 28969582 28169174 27371112 26573322 25775092 24976892 24179768 
1777.666 23384634 22591918 21801458 21012864 20226140 19442032 18662344 
1781.042 17889692 17126962 16377150 15642977 14927050 14231953 13560520 
1784.417 12915643 12299899 11714981 11161292 10637887 10142791 9673877 
1787.792 9229623 8809631 8414743 8046507 7706325 7394670 7110648 6851930 
1791.649 6615145 6396609 6193122 6002353 5823072 5654945 5498076 5352628 
1795.507 5218368 5094435 4979371 4871230 4768052 4668195 4570759 4475679 
1799.364 4383781 4296317 4214552 4139259 4070458 4007467 3949174 3894484 
1803.222 3842634 3793326 3746481 3701847 3658738 3615867 3571801 3525396 
1807.079 3476485 3426164 3376644 3330574 3290157 3256232 3227840 3202317 
1810.937 3176044 3145389 3107703 3061899 3008696 2950324 2889939 2831114 
1814.794 2777279 2731273 2695279 2670357 2656385 2651921 2654307 2660001 
1818.651 2665287 2666835 2662392 2650911 2632578 2608402 2579937 2548718 
1822.509 2516136 2483369 2451216 2420268 2390786 2362652 2335397 2308430 
1826.366 2281140 2253073 2224168 2194641 2164973 2135673 2107092 2079432 
1830.224 2052789 2027105 2002405 1978633 1955552 1932703 1909256 1884287 
1834.081 1857036 1827093 1794770 1761094 1727633 1696182 1668319 1645212 
1837.938 1627332 1614482 1605822 1599982 1595233 1589692 1581573 1569661 
1841.796 1553445 1533385 1510849 1487754 1466134 1447464 1432391 1420512 
1845.653 1410682 1401358 1391246 1379573 1366352 1352378 1338904 1327425 
1849.511 1319087 1314427 1313187 1313972 1314663 1312810 1306340 1294239 
1853.368 1277167 1257351 1238235 1223288 1215030 1214004 1218684 1225790 
1857.226 1231563 1232776 1227839 1216960 1201762 1184340 1166456 1148879 
1861.083 1131597 1114216 1096692 1079845 1065156 1054328 1048494 1047489 
1864.940 1049788 1052745 1053669 1050477 1042527 1030664 1016948 1003823 
1868.798 993538 987431 985980 988769 994946 1003551 1013592 1024204 1034509 
1873.137 1043607 1050692 1055234 1057254 1057721 1058384 1061641 1069907 
1876.995 1084790 1106410 1132702 1159642 1181651 1193037 1189235 1168245 
1880.852 1131256 1082800 1029511 978773 936869 907436 890934 884870 884761 
1885.192 885771 884014 877608 867022 854581 843634 837421 837882 845254 
1889.531 857729 872086 884489 891561 891237 883271 869079 851206 832448 
1893.871 815154 800663 789386 781301 776332 774842 777564 785028 797156 
1898.211 812728 829346 844152 854515 858905 857424 851449 843129 834347 
1902.550 826147 818231 809668 799146 785950 770208 753066 736339 722054 
1906.890 711804 706630 706885 712051 721066 732365 744188 754742 762676 
1911.229 767112 767689 764551 757651 746847 731823 712470 689568 665209 
1915.569 642597 625634 617379 619083 629557 645378 662075 675739 684020 
1919.909 686488 683966 677355 666616 650597 627796 597893 562661 526214 
1924.248 493766 469511 454581 446221 438736 425962 404187 374265 341601 
1928.588 314095 299060 300014 315557 340139 366727 390025 408208 423200 
1932.927 438542 456845 477622 496874 508316 506036 486600 450220 400393 
1937.267 342283 281484 223075 172202 134789 117554 127523 169622 244246 
1941.607 345536 462066 578730 681633 760771 812833 840529 849610 845484 
1945.946 830476 802701 757887 691832 603999 498959 386473 279575 191515 
1950.286 132466 107826 116721 152651 204511 259128 303876 329224 330924 
1954.625 311192 277714 242069 216103 209209 226357 267874 330197 408588 
1958.965 497974 594727 694767 793275 883333 956671 1004886 1022332 1006907 
1963.305 960203 885576 786080 663011 517200 350480 169695 -12053 -175991 
1967.644 -302363 -375630 -390254 -352265 -277848 -188065 -102481 -33892 
1971.502 13894 43930 63487 79426 96450 117697 144823 180508 228293 290892 
1976.323 369343 461547 562368 666724 770378 871141 967149 1054174 1124225 
1980.663 1165857 1166713 1118786 1021525 885288 728624 574616 444197 350644 
1985.003 296722 275594 273436 275596 270221 251364 219955 182145 146940 
1989.342 124814 124184 150654 205457 285167 381088 481244 572059 641542 
1993.682 681268 688658 667271 625489 574600 526532 491366 476740 486551 
1998.021 520827 575633 643037 711661 768203 799528 795827 752002 669537 
2002.361 555676 421437 279209 140610 14597 -91482 -172921 -226283 -249559 
2006.701 -243314 -210380 -155455 -84405 -1736 88765 185082 284740 383221 
2011.040 473760 548406 599475 624046 624774 609491 588541 569944 555749 
2015.380 540609 513672 463558 383281 274620 148006 19682 -93336 -178367 
2019.719 -230958 -255116 -262386 -267750 -286403 -331029 -408490 -519305 
2023.577 -655737 -802397 -938411 -1041406 -1092858 -1083757 -1016329 -903375 
2027.434 -764134 -617173 -475431 -343297 -218828 -98155 19402 128009 216977 
2031.774 274928 295671 282132 245922 202477 165095 139021 120146 99173 66919 
2036.596 21244 -30886 -75652 -97722 -86707 -42273 25958 100345 161134 192414 
2041.417 185844 142225 70444 -15701 -100607 -169955 -212393 -221614 -195732 
2045.757 -137447 -51984 54449 176747 311041 454045 600340 740933 862173 
2050.097 948527 986066 967864 896388 784652 654210 530502 437272 390856 
2054.436 396082 446379 526425 617479 703091 772025 819219 844358 849568 
2058.776 837937 812400 775809 731177 681525 629745 577902 527604 480733 
2063.115 440005 409909 395881 402260 430372 476240 530367 580625 615541 
2067.455 628728 621375 601551 581164 571128 576983 597196 624096 647816 
2071.795 660779 660795 651554 640795 636156 642505 660040 685547 714593 
2076.134 744280 774746 808466 848050 893900 942243 985705 1014984 1022022 
2080.474 1002692 958177 894376 820358 745574 678033 622849 582159 555664 
2084.813 541358 536139 536582 539091 540510 538742 533029 524216 514294 
2089.153 505392 499006 495089 492125 487648 479470 466523 449761 432277 
2093.493 418578 413775 422515 448285 492283 553564 628377 710441 791642 
2097.832 862764 915447 943996 947066 928425 896188 860658 831871 816182 
2102.172 814957 824415 837374 845796 843928 829682 805213 775639 747258 
2106.511 725456 713625 712860 722603 741373 767370 798399 831730 863501 
2110.851 889068 903555 903160 886066 853408 808744 757098 703615 652348 
2115.191 605537 563870 526928 494158 464620 437095 409579 378831 341088 
2119.530 293030 233383 164336 91829 24597 -27998 -58811 -65115 -49704 -20130 
2124.352 13416 40404 52510 44601 14858 -35915 -105660 -191312 -288790 
2128.692 -393085 -497900 -596193 -681873 -751046 -803225 -841620 -871486 
2132.549 -898536 -926381 -955258 -982293 -1002869 -1013045 -1012091 -1002463 
2136.406 -989762 -980459 -980175 -992205 -1017212 -1053706 -1098813 -1148336 
2140.264 -1197400 -1240065 -1270902 -1285817 -1284006 -1269100 -1249112 
2143.639 -1233771 -1232262 -1248861 -1282011 -1325186 -1369825 -1410456 
2147.014 -1447453 -1487589 -1541840 -1620165 -1726898 -1858302 -2004112 
2150.390 -2150833 -2288115 -2411068 -2522167 -2628005 -2736406 -2851726 
2153.765 -2974686 -3102830 -3232367 -3360284 -3482305 -3589346 -3662705 
2157.140 -3673413 -3586167 -3372134 -3026138 -2576310 -2084233 -1625916 
2160.515 -1266545 -1038720 -936254 -921526 -943552 -954042 -923562 -845273 
2164.373 -732395 -608562 -496201 -407893 -344617 -298418 -260218 -224729 
2168.230 -194438 -177887 -184985 -222125 -288461 -375641 -470332 -558260 
2172.088 -628462 -675482 -699526 -704499 -696412 -680738 -662479 -646384 
2175.945 -637004 -638807 -655646 -688742 -735653 -789125 -838390 -871191 
2179.802 -876472 -847939 -785663 -697014 -595479 -496472 -414412 -358061 
2183.660 -328815 -320695 -322432 -321745 -309006 -280105 -238444 -192768 
2187.517 -154895 -135965 -142555 -174864 -226884 -287154 -342848 -382060 
2191.375 -396685 -383493 -343896 -282629 -206193 -121190 -34388 47939 119400 
2195.714 173081 202442 202801 172196 114632 39481 -38556 -102612 -137616 
2200.054 -134130 -92039 -20701 63275 140376 194326 216780 209445 183684 
2204.394 156023 142346 153237 190003 245654 307501 361956 399540 417299 
2208.733 419308 414533 413138 422267 443969 473907 503161 520948 517634 
2213.073 488285 434036 362628 286525 220548 177588 166050 186943 234088 
2217.412 295706 357640 407904 439625 453520 456745 460251 475538 509513 
2221.752 563075 630266 700158 760264 800009 813536 801545 770279 730116 
2226.092 692462 666826 658961 669433 694066 725314 754226 773501 778673 
2230.431 769620 749686 724118 698180 675440 656346 639272 621435 600696 
2234.771 577181 553483 534012 523981 527126 544725 575214 614545 657076 
2239.110 697013 729342 750925 760513 758993 749404 735688 722028 711320 
2243.450 704023 698019 688867 671751 643839 606173 564538 528210 507372 
2247.790 509839 537523 585725 644172 699947 741796 763476 765129 753022 
2252.129 736409 724619 724262 737431 762311 794617 829313 862363 890806 
2256.469 912901 927498 933699 930991 919897 902062 880506 858924 840577 
2260.808 827483 819840 816334 815027 814551 815019 817968 826025 841441 
2265.148 864831 894712 927094 956701 978357 988331 985832 973174 955313 
2269.488 938791 929727 932848 950100 980442 1020442 1065095 1109314 1149022 
2273.827 1181649 1206160 1222882 1232927 1237685 1238756 1237705 1236103 
2277.685 1235318 1236198 1238685 1241860 1244234 1244604 1242832 1240592 
2281.542 1241260 1249041 1267587 1298321 1339683 1386964 1433627 1473132 
2285.399 1500798 1514971 1517368 1511948 1503480 1495956 1491430 1489850 
2289.257 1489402 1487483 1481649 1470307 1453106 1430640 1404472 1376352 
2293.114 1348151 1321440 1297327 1276530 1259308 1245656 1235588 1229177 
2296.972 1226846 1229092 1236333 1248475 1264726 1283564 1302931 1320764 
2300.829 1335433 1345945 1352155 1354495 1353805 1351110 1347610 1344657 
2304.687 1343801 1346397 1353454 1365044 1380182 1396732 1412127 1424064 
2308.544 1431267 1433901 1433525 1432451 1432866 1436217 1442841 1452164 
2312.401 1463125 1474821 1486766 1498871 1511233 1523733 1535873 1546930 
2316.259 1556167 1563336 1568738 1573393 1578768 1586752 1599378 1618889 
2320.116 1647445 1686489 1736157 1793957 1854353 1908880 1947389 1960335 
2323.974 1940983 1887535 1803560 1697381 1580218 1463877 1358499 1270896 
2327.831 1203787 1156373 1125352 1106484 1096014 1091277 1090699 1093329 
2331.688 1098319 1104546 1110634 1115358 1118027 1118751 1118207 1117422 
2335.546 1117230 1117828 1118779 1119127 1117667 1113582 1106645 1097316 
2339.403 1086730 1076376 1067656 1061559 1058384 1057606 1058075 1058238 
2343.261 1056769 1052828 1046421 1038262 1029669 1021928 1015857 1011731 
2347.118 1009080 1007064 1004914 1002150 998819 995353 992153 989431 986968 
2351.458 984338 981023 976928 972539 968716 966632 966979 969855 974418 
2355.797 979196 982502 982963 980010 974051 966260 958143 950962 945318 
2360.137 940736 935932 929168 918699 903490 883524 859866 834601 810225 
2364.477 789041 772819 762293 757292 756941 760105 765594 772468 779907 
2368.816 787152 793245 797220 798031 795201 789006 780583 771856 765083 
2373.156 762205 764356 771438 782225 794714 806607 815919 821402 822752 
2377.495 820568 816224 811489 808333 808298 812467 821050 833446 848410 
2381.835 864393 880002 894330 907152 918817 929747 940156 949709 957591 
2386.175 962644 964060 961580 955954 948569 941133 935133 931439 930061 
2390.514 930609 932259 934566 937529 941461 946956 954325 963379 973438 
2394.854 983261 991599 997417 1000239 1000320 998340 995252 991810 988287 
2399.193 984441 979574 973117 964803 955297 946094 939345 937012 940518 
2403.533 950012 964157 980690 997015 1011072 1021867 1029665 1035525 1040630 
2407.873 1045665 1050477 1054395 1056671 1057277 1056932 1057063 1059195 
2411.730 1063943 1070760 1077831 1082643 1083061 1078033 1068153 1055256 
2415.587 1041716 1029603 1019921 1012701 1007323 1003237 1000686 1000651 
2419.445 1004517 1013282 1026650 1042715 1058278 1069456 1073033 1067400 
2423.302 1053176 1033029 1011044 991577 978132 972437 974213 981572 991548 
2427.642 1001334 1008851 1013374 1015167 1015109 1013928 1011471 1006825 
2431.499 998517 985645 968449 948924 930370 916489 909934 911237 918311 
2435.839 927180 933121 932629 924415 909990 892914 877463 867019 863099 
2440.178 865185 871300 879048 886840 894138 901554 910157 920855 933845 
2444.518 948697 964505 980354 995459 1009140 1020724 1029252 1033574 1032688 
2448.858 1026173 1014626 999847 984499 971630 963929 963004 969203 981047 
2453.197 996138 1011015 1022312 1027259 1024463 1014372 999267 982910 969465 
2457.537 962400 963460 972173 986259 1002335 1017284 1029327 1038387 1045705 
2461.876 1052994 1061308 1070590 1079340 1085604 1087581 1084561 1077231 
2465.734 1067053 1055783 1044789 1034701 1025666 1017644 1010766 1005472 
2469.591 1001969 999851 997782 993548 985064 971049 952004 930162 908969 
2473.931 891937 881464 878130 880757 887041 894634 901876 908093 913262 
2478.271 917448 920459 921575 920113 916032 910217 904599 901467 902753 
2482.610 909067 919673 932467 944985 955042 961740 965308 967100 969041 
2486.950 973070 980577 992205 1007642 1025526 1043486 1058357 1066611 
2490.807 1065276 1052821 1029952 999703 967159 938154 917827 909396 913364 
2495.147 927547 947827 969461 988053 1000535 1005555 1003227 994898 982591 
2499.486 968717 955583 945112 938649 936766 939312 945523 954230 964237 
2503.826 974324 983286 989848 992778 990866 983423 970732 954216 936549 
2508.166 920863 910051 905842 908288 915927 926395 937364 947381 955934 
2512.505 963314 969724 974632 976634 973594 963995 947710 926705 905124 
2516.845 888020 880102 884214 900450 925978 956185 985654 1009816 1025874 
2521.184 1033061 1032389 1026108 1016569 1005913 995566 986196 978088 971370 
2525.524 966195 962994 962283 964603 969974 978077 987984 998200 1007372 
2529.864 1014306 1018739 1021159 1022851 1025400 1030194 1037937 1048591 
2533.721 1061097 1073838 1084983 1092671 1095187 1091186 1079850 1060855 
2537.578 1035067 1004574 972694 943663 922026 911297 913286 927458 950988 
2541.918 979655 1008663 1034280 1054228 1068205 1077354 1083348 1087641 
2545.775 1090590 1091521 1088992 1081434 1068299 1050150 1029192 1008460 
2549.633 991390 980853 978302 983646 995347 1010893 1027625 1043282 1056512 
2553.972 1066938 1074770 1080666 1085128 1088505 1090943 1092620 1093819 
2557.830 1095283 1097758 1101895 1107900 1115176 1122575 1128546 1131510 
2561.687 1130643 1125890 1118366 1109905 1102761 1099108 1100302 1106542 
2565.545 1116933 1129346 1141164 1149782 1153204 1150764 1143062 1131892 
2569.402 1119704 1108829 1101158 1097546 1098096 1102269 1109439 1119100 
2573.260 1130961 1144810 1160286 1176597 1192692 1207459 1219877 1229547 
2577.117 1236537 1241276 1244272 1245766 1245930 1244823 1242618 1239963 
2580.974 1237774 1236855 1237726 1240128 1243120 1245637 1246839 1246812 
2584.832 1246603 1247841 1252006 1259458 1269227 1278914 1285535 1286589 
2588.689 1281086 1269976 1256086 1243174 1234814 1233368 1239449 1251811 
2592.547 1267887 1284745 1299717 1311044 1318098 1321370 1322094 1321765 
2596.404 1321967 1323580 1326890 1331465 1336198 1339827 1341287 1340132 
2600.261 1336641 1331718 1326480 1322043 1319051 1317786 1318292 1320666 
2604.119 1325336 1332907 1343950 1358517 1375897 1394581 1412548 1427900 
2607.976 1439496 1447106 1451515 1454060 1456011 1458119 1460377 1462093 
2611.834 1462390 1460441 1455932 1448913 1439857 1429430 1418298 1407181 
2615.691 1397043 1388903 1383867 1382779 1386037 1393273 1403437 1415029 
2619.549 1426599 1437112 1446231 1454140 1461366 1468340 1475080 1481302 
2623.406 1486444 1490170 1492602 1494348 1496491 1500062 1505707 1513462 
2627.263 1522747 1532423 1541195 1548001 1552056 1553003 1550823 1545789 
2631.121 1538429 1529423 1519779 1510671 1503345 1498926 1498131 1501041 
2634.978 1507145 1515428 1524662 1533881 1542441 1550313 1557879 1565669 
2638.836 1574101 1583059 1592022 1599932 1605592 1608059 1606835 1602069 
2642.693 1594583 1585684 1576924 1569769 1565250 1563954 1565856 1570372 
2646.551 1576507 1583116 1589007 1593273 1595405 1595277 1593343 1590170 
2650.408 1586479 1582823 1579530 1576683 1574118 1571669 1569246 1566830 
2654.265 1564423 1561827 1558669 1554305 1548013 1539187 1527645 1513808 
2658.123 1498548 1483035 1468464 1455541 1444453 1434710 1425454 1415767 
2661.980 1404909 1392556 1378834 1364251 1349505 1335397 1322626 1311754 
2665.838 1303130 1296862 1292790 1290262 1288502 1286536 1283505 1278828 
2669.695 1272468 1264729 1256423 1248268 1240960 1234848 1229970 1226137 
2673.552 1223109 1220662 1218679 1217089 1215875 1214957 1214217 1213584 
2677.410 1213130 1213053 1213693 1215283 1217924 1221427 1225228 1228653 
2681.267 1230876 1231304 1229612 1225998 1221007 1215584 1210770 1207590 
2685.125 1206756 1208393 1212099 1216804 1221170 1223828 1223786 1220657 
2688.982 1214845 1207373 1199468 1192352 1186711 1182771 1180352 1179050 
2692.840 1178558 1178724 1179530 1180905 1182586 1183997 1184525 1183636 
2696.697 1181311 1177966 1174475 1171733 1170289 1170101 1170400 1170085 
2700.554 1168152 1164194 1158562 1152395 1147230 1144568 1145315 1149680 
2704.412 1157152 1166563 1176566 1185831 1193162 1197588 1198472 1195450 
2708.269 1188601 1178487 1166123 1152902 1140232 1129354 1121139 1115860 
2712.127 1113572 1113907 1116536 1121001 1126965 1133784 1140662 1146560 
2715.984 1150408 1151357 1149162 1144166 1137367 1130167 1124038 1119980 
2719.842 1118632 1119986 1123524 1128530 1134247 1139976 1145178 1149417 
2723.699 1152418 1153998 1154102 1152893 1150744 1148075 1145514 1143427 
2727.556 1142105 1141568 1141688 1142254 1143059 1144010 1145153 1146597 
2731.414 1148435 1150667 1153137 1155590 1157723 1159382 1160556 1161520 
2735.271 1162768 1164877 1168259 1173080 1179020 1185357 1191192 1195599 
2739.129 1197982 1198175 1196515 1193690 1190451 1187476 1185033 1182975 
2742.986 1180934 1178425 1175152 1171070 1166509 1162057 1158311 1155721 
2746.844 1154564 1154813 1156266 1158712 1162005 1166054 1170822 1176097 
2750.701 1181586 1186608 1190407 1192145 1191331 1187855 1182230 1175415 
2754.558 1168644 1163079 1159466 1158046 1158378 1159669 1160905 1161237 
2758.416 1160222 1157785 1154322 1150490 1147062 1144806 1144230 1145732 
2762.273 1149332 1154635 1160863 1166937 1171607 1173763 1172811 1168843 
2766.131 1162763 1156025 1150357 1147197 1147333 1150755 1156652 1163885 
2769.988 1171270 1177870 1183266 1187265 1189957 1191250 1191030 1189094 
2773.845 1185309 1179918 1173541 1167116 1161691 1158196 1157218 1158887 
2777.703 1162972 1168945 1176176 1183949 1191595 1198490 1204132 1208091 
2781.560 1210405 1211341 1211486 1211649 1212557 1214733 1218438 1223664 
2785.418 1230271 1238242 1247653 1258691 1271386 1285458 1300032 1313856 
2789.275 1325360 1333186 1336511 1335358 1330596 1323896 1317064 1311895 
2793.133 1309539 1310448 1314333 1320307 1327323 1334331 1340640 1345930 
2796.990 1350323 1354258 1358222 1362535 1367346 1372375 1377274 1381631 
2800.847 1385219 1388133 1390842 1393955 1398065 1403548 1410405 1418167 
2804.705 1426271 1434039 1441029 1447129 1452694 1458356 1464970 1473452 
2808.562 1484471 1498462 1515334 1534505 1555062 1575752 1595349 1612963 
2812.420 1628282 1641557 1653583 1665329 1677525 1690313 1703191 1715195 
2816.277 1725301 1732866 1738133 1742256 1746968 1754372 1766147 1783226 
2820.135 1805575 1832338 1862124 1893360 1924795 1955517 1985135 2013753 
2823.992 2041692 2069552 2097989 2127633 2158952 2192186 2227195 2263657 
2827.849 2301039 2338837 2376869 2415336 2454948 2496757 2541927 2591563 
2831.707 2646422 2706705 2772067 2841510 2913583 2986557 3058695 3128654 
2835.564 3195744 3260124 3322956 3386044 3451572 3521453 3597109 3679270 
2839.422 3767944 3862828 3963665 4070405 4183272 4302598 4428528 4560804 
2843.279 4699040 4842677 4991819 5147270 5310741 5484289 5669588 5866757 
2847.136 6073537 6284918 6493280 6689436 6863755 7007627 7114511 7180612 
2850.994 7204862 7188667 7135300 7049280 6935899 6800890 6650071 6489104 
2854.851 6323165 6156690 5993075 5834463 5681920 5535510 5394745 5258915 
2858.709 5127472 5000110 4877075 4758906 4646568 4541087 4443700 4355587 
2862.566 4277657 4210418 4153756 4106792 4068018 4035429 4006907 3980911 
2866.424 3956687 3934675 3916414 3904140 3900217 3906414 3923532 3950952 
2870.281 3986998 4029205 4075029 4122309 4169612 4216458 4263049 4309859 
2874.138 4357472 4406085 4455453 4505054 4554146 4601949 4647875 4691557 
2877.996 4732831 4771654 4807907 4841373 4871606 4897993 4919848 4936679 
2881.853 4948222 4954773 4957162 4956827 4955540 4955145 4957295 4963217 
2885.711 4973367 4987611 5005285 5025376 5046841 5068893 5090978 5113032 
2889.568 5135357 5158581 5183651 5211622 5243651 5280894 5324210 5374067 
2893.426 5430375 5492415 5558945 5628360 5699080 5769811 5839781 5908865 
2897.283 5977376 6045823 6114672 6184125 6254072 6324182 6394209 6464085 
2901.140 6534175 6605094 6677700 6752761 6830694 6911829 6996011 7083229 
2904.998 7173394 7266599 7363017 7462785 7566027 7672734 7783036 7897348 
2908.855 8016438 8141590 8274489 8416742 8569788 8734485 8911330 9100371 
2912.713 9301497 9514548 9739300 9975114 10220695 10473656 10730588 10987200 
2916.570 11238762 11480615 11708708 11919607 12110599 12279301 12423666 
2919.945 12541787 12632293 12694445 12728636 12736380 12720209 12683250 
2923.321 12628822 12559885 12479047 12388362 12289857 12185456 12077344 
2926.696 11967834 11859129 11753174 11651392 11554556 11462832 11375964 
2930.071 11293297 11214161 11137919 11064295 10993584 10926785 10865598 
2933.446 10812271 10769285 10738664 10721791 10719004 10729652 10752454 
2936.822 10785845 10828449 10879104 10936835 11000616 11068983 11139914 
2940.197 11210852 11278893 11341290 11395598 11439952 11472751 11492789 
2943.572 11498801 11489416 11463400 11419724 11357961 11278170 11181208 
2946.947 11068341 10941148 10801332 10650754 10491305 10325217 10154848 
2950.323 9982575 9810615 9640679 9473708 9309931 9149035 8990411 8833768 
2954.180 8679333 8527964 8381076 8240356 8107237 7982627 7866567 7758187 
2958.037 7655947 7557968 7462506 7368186 7274290 7180682 7087725 6995935 
2961.895 6905704 6817215 6730509 6645488 6562325 6481338 6403205 6328625 
2965.752 6258242 6192258 6130585 6072694 6018046 5966102 5916624 5869609 
2969.610 5825314 5783924 5745630 5710453 5678547 5650094 5625630 5605812 
2973.467 5591402 5583038 5580959 5584920 5594390 5608548 5626646 5648204 
2977.324 5673101 5701660 5734524 5772556 5816703 5867830 5926600 5993224 
2981.182 6067552 6149020 6236991 6330987 6431164 6538540 6655019 6783172 
2985.039 6925451 7083733 7258505 7448603 7651319 7862796 8078664 8294704 
2988.897 8507225 8713283 8910586 9097439 9272336 9433997 9581338 9713476 
2992.754 9829635 9929159 10011465 10075631 10120747 10145731 10149713 
2996.129 10132278 10093550 10034538 9956943 9862986 9755322 9636744 9509923 
2999.987 9377246 9240631 9101517 8960527 8817796 8672913 8525141 8373704 
3003.844 8218050 8057929 7893567 7725557 7554792 7382457 7209781 7038092 
3007.702 6868538 6702070 6539325 6380375 6224908 6072356 5921918 5773002 
3011.559 5625471 5479499 5335690 5194925 5058003 4925693 4798510 4676618 
3015.417 4559912 4448009 4340236 4235750 4133563 4032950 3933456 3835148 
3019.274 3738726 3645194 3555843 3471715 3393397 3320986 3254154 3192219 
3023.131 3134531 3080316 3028886 2979458 2931201 2883409 2835680 2788148 
3026.989 2741837 2698169 2658689 2624438 2595129 2569318 2544271 2517041 
3030.846 2485111 2447439 2404691 2359100 2313593 2271062 2233357 2201027 
3034.704 2173417 2149107 2126724 2105197 2084035 2063093 2042251 2021150 
3038.561 1999310 1976108 1951297 1925236 1898845 1873514 1850469 1830445 
3042.418 1813381 1798348 1783997 1768897 1751923 1732748 1711802 1690085 
3046.276 1668969 1649852 1633901 1621862 1613838 1609451 1607691 1607147 
3050.133 1606266 1603584 1598220 1589918 1579137 1567024 1555030 1544487 
3053.991 1536583 1531870 1530525 1532313 1536744 1543185 1550847 1558778 
3057.848 1566046 1571645 1574826 1575330 1573342 1569691 1565444 1561853 
3061.706 1559923 1560189 1562940 1568023 1575100 1583956 1594101 1605092 
3065.563 1616149 1626141 1633761 1637742 1637043 1631496 1621647 1608851 
3069.420 1594911 1581781 1570963 1563386 1559245 1558131 1559251 1561649 
3073.278 1564551 1567321 1569690 1571462 1572605 1573068 1572727 1571406 
3077.135 1568816 1564646 1558669 1550782 1540962 1529552 1516837 1503315 
3080.993 1489357 1475251 1461235 1447495 1434258 1421927 1410945 1401841 
3084.850 1394903 1390183 1387353 1385690 1384160 1381865 1377967 1372145 
3088.708 1364492 1355761 1347008 1339555 1334552 1332805 1334461 1338943 
3092.565 1344771 1350146 1353183 1352534 1347525 1338694 1327353 1315119 
3096.422 1303524 1293409 1284855 1277304 1270062 1262819 1255915 1250326 
3100.280 1247338 1247864 1251957 1258686 1266207 1272651 1276678 1278060 
3104.137 1277770 1277460 1278915 1283155 1289931 1297758 1304435 1307871 
3107.995 1306660 1300706 1291017 1279517 1268201 1258828 1252209 1248428 
3111.852 1246905 1246630 1246583 1245736 1243263 1238686 1231692 1222561 
3115.709 1211980 1201115 1191488 1184546 1181280 1181900 1185700 1191085 
3119.567 1196149 1199046 1198595 1194638 1188010 1180263 1173245 1168375 
3123.424 1166395 1167107 1169783 1173138 1176264 1178608 1180180 1181480 
3127.282 1182874 1184521 1185979 1186360 1184765 1180617 1174167 1166501 
3131.139 1159513 1155130 1154951 1159442 1167965 1178826 1189974 1199397 
3134.997 1206037 1209775 1211366 1212003 1212714 1214106 1215919 1217385 
3138.854 1217394 1215199 1210620 1204162 1196778 1189654 1183810 1179654 
3142.711 1177010 1175332 1173936 1172382 1170692 1169337 1168833 1169727 
3146.569 1171862 1174450 1176271 1175872 1172370 1165762 1157079 1148269 
3150.426 1141540 1138662 1140363 1146086 1154077 1162133 1168064 1170487 
3154.284 1169127 1164636 1158394 1151959 1146473 1142777 1141148 1141628 
3158.141 1144018 1148140 1153719 1160356 1167502 1174545 1180830 1185912 
3161.999 1189527 1191717 1192628 1192440 1191416 1189842 1188183 1186999 
3165.856 1186990 1188726 1192410 1197726 1203710 1209177 1212888 1214100 
3169.713 1212749 1209511 1205413 1201580 1198720 1197143 1196667 1196955 
3173.571 1197720 1198857 1200440 1202468 1204773 1206803 1207815 1207212 
3177.428 1204698 1200707 1196194 1192530 1190978 1192424 1196867 1203469 
3181.286 1210605 1216180 1218045 1214538 1204807 1189295 1169653 1148582 
3185.143 1129433 1115484 1109151 1111447 1121835 1138561 1159108 1181049 
3189.000 1202659 1223095 1242239 1260186 1276680 1290810 1301232 1306425 
3192.858 1305544 1298767 1287556 1274388 1261943 1252669 1247858 1247533 
3196.715 1250671 1255605 1260424 1263790 1264953 1264042 1261751 1259117 
3200.573 1257124 1256424 1257085 1258709 1260397 1261272 1260819 1259199 
3204.430 1257278 1256567 1258589 1264362 1273772 1285662 1297879 1307976 
3208.288 1314042 1315194 1311785 1305370 1297783 1291020 1286210 1283794 
3212.145 1283406 1284447 1286252 1288433 1290915 1293872 1297463 1301852 
3216.002 1307069 1313074 1319716 1326672 1333383 1338997 1342278 1341886 
3219.860 1336605 1325678 1309126 1287853 1263711 1239190 1216970 1199681 
3223.717 1189217 1186616 1191728 1203168 1218774 1235853 1251903 1265252 
3227.575 1275078 1281647 1285929 1288853 1290957 1292176 1291807 1289072 
3231.432 1283732 1276349 1268240 1261101 1256079 1253574 1252680 1251785 
3235.290 1249322 1244479 1237785 1231089 1226706 1226737 1232050 1241954 
3239.147 1254439 1266940 1277268 1284359 1288279 1290096 1291057 1291943 
3243.004 1292754 1292805 1291131 1287092 1280579 1272360 1263455 1254853 
3246.862 1246943 1239617 1232159 1223863 1214251 1203487 1192372 1182026 
3250.719 1173665 1168322 1166474 1168190 1172971 1180143 1188884 1198390 
3254.577 1207920 1216920 1225021 1232004 1237693 1242024 1244669 1245343 
3258.434 1243741 1239721 1233466 1225750 1217726 1210856 1206534 1205623 
3262.292 1208178 1213502 1220181 1226535 1231058 1232898 1231978 1229147 
3266.149 1225716 1223190 1222781 1225112 1230011 1236703 1243769 1249865 
3270.006 1253776 1254781 1252845 1248590 1242945 1237124 1232034 1228244 
3273.864 1225865 1224590 1223796 1222970 1221683 1220001 1218319 1217272 
3277.721 1217681 1220369 1225994 1234832 1246906 1261704 1278405 1295771 
3281.579 1312168 1326079 1335913 1340698 1339907 1333843 1323341 1309750 
3285.436 1294486 1278901 1264049 1250721 1239489 1230903 1225534 1223900 
3289.293 1226377 1232834 1242636 1254576 1266883 1277753 1285556 1289212 
3293.151 1288366 1283401 1275352 1265649 1256109 1248616 1244998 1246844 
3297.008 1255081 1269725 1289612 1312574 1335512 1355338 1369455 1376544 
3300.866 1376745 1371568 1363308 1354262 1345899 1338816 1332504 1326201 
3304.723 1319101 1311193 1303250 1296785 1293294 1293968 1299012 1307684 
3308.581 1318384 1329165 1338257 1344341 1346707 1345397 1340798 1333628 
3312.438 1324629 1314553 1303920 1293142 1282339 1271578 1260682 1249495 
3316.295 1238062 1226660 1215987 1207063 1200908 1198566 1200503 1206633 
3320.153 1216093 1227487 1239007 1249000 1255932 1259012 1258073 1253513 
3324.010 1246219 1237389 1228258 1220102 1213956 1210854 1211340 1215741 
3327.868 1223834 1234932 1247715 1260825 1272682 1282217 1288804 1292376 
3331.725 1293276 1291937 1288581 1283275 1275816 1266384 1255388 1243878 
3335.583 1233302 1224875 1219277 1216220 1214511 1212601 1209252 1204251 
3339.440 1198668 1194657 1194584 1200169 1211584 1227323 1244532 1259904 
3343.297 1270679 1275400 1274041 1267897 1258778 1248651 1238901 1230525 
3347.155 1224003 1219672 1217555 1217428 1218543 1219871 1220282 1219025 
3351.012 1216088 1212377 1209472 1208929 1211489 1216795 1223133 1228318 
3354.870 1230512 1229075 1225013 1220614 1218591 1221043 1228634 1240256 
3358.727 1253779 1266656 1277033 1284202 1288464 1290884 1292261 1292974 
3362.584 1292598 1290490 1286110 1279683 1271995 1264406 1257884 1252868 
3366.442 1248750 1244316 1238148 1229346 1217975 1205275 1193146 1183715 
3370.299 1178583 1178413 1182692 1190046 1198361 1205720 1210467 1211824 
3374.157 1209765 1205214 1199614 1194689 1192040 1192864 1197716 1206394 
3378.014 1218054 1231310 1244560 1256323 1265143 1270249 1271120 1267911 
3381.872 1261344 1252448 1242793 1234017 1227489 1224340 1225079 1229484 
3385.729 1236842 1245922 1255425 1264138 1271065 1275571 1277282 1276002 
3389.586 1271743 1264481 1254453 1242178 1228418 1214507 1201908 1192332 
3393.444 1187197 1187287 1192512 1201787 1213277 1224805 1234397 1240950 
3397.301 1244236 1245037 1244771 1244845 1245942 1248163 1250613 1251960 
3401.159 1250820 1246223 1237966 1226569 1213100 1199197 1186531 1176932 
3405.016 1171948 1172648 1179366 1191490 1207226 1224118 1239365 1250735 
3408.874 1257142 1259006 1257931 1256149 1255506 1256846 1259554 1262161 
3412.731 1262750 1259997 1253651 1244679 1234667 1225497 1218528 1214272 
3416.588 1212663 1213325 1215814 1219901 1225178 1231062 1236445 1239853 
3420.446 1239936 1235950 1228341 1218626 1209069 1202014 1198948 1200226 
3424.303 1205107 1212129 1219885 1227553 1234959 1242483 1250238 1257915 
3428.161 1264507 1268488 1268563 1264112 1255534 1244374 1232731 1222725 
3432.018 1216007 1213438 1215030 1220224 1227897 1236961 1246167 1254399 
3435.875 1260705 1264395 1265205 1263407 1259529 1254502 1249071 1243937 
3439.733 1239527 1236161 1234311 1234541 1237324 1242948 1250817 1259528 
3443.590 1266988 1271009 1270174 1264711 1256519 1249107 1246450 1251519 
3447.448 1265366 1286327 1310409 1332334 1347176 1351851 1345938 1331753 
3451.305 1313596 1296256 1283701 1278157 1279571 1286189 1295141 1303623 
3455.163 1309521 1311806 1310615 1306939 1302234 1298198 1296495 1298537 
3459.020 1305319 1317179 1333530 1352861 1372686 1390366 1403421 1410518 
3462.877 1411594 1408096 1402373 1397030 1393980 1394174 1397370 1402572 
3466.735 1408784 1415451 1422745 1431574 1442783 1456840 1473235 1490543 
3470.592 1506730 1519903 1528666 1532724 1532682 1529953 1526155 1522844 
3474.450 1520951 1520964 1522769 1525783 1529264 1532525 1535019 1536815 
3478.307 1538553 1541654 1547819 1558785 1575428 1597661 1623854 1651319 
3482.165 1676977 1698107 1713047 1721724 1725243 1725634 1725067 1725247 
3486.022 1727215 1731473 1738070 1747181 1758845 1773342 1790628 1810273 
3489.879 1831365 1852606 1872649 1890417 1905368 1917501 1927235 1935214 
3493.737 1941895 1947662 1952622 1956880 1960505 1963744 1966973 1970671 
3497.594 1975204 1980713 1986893 1993252 1998871 2002966 2004922 2004798 
3501.452 2003382 2002094 2002946 2007749 2017647 2032689 2051455 2071464 
3505.309 2089610 2102851 2109018 2107340 2098346 2083860 2066425 2048823 
3509.167 2033550 2022470 2016396 2015212 2017575 2021353 2023907 2022675 
3513.024 2015982 2003485 1986420 1967524 1950042 1937121 1930544 1930455 
3516.881 1935227 1942043 1947940 1950544 1948651 1942458 1932969 1921470 
3520.739 1908787 1895039 1879552 1861617 1840667 1817269 1792936 1769993 
3524.596 1750886 1737659 1730926 1729757 1731777 1733917 1733291 1728126 
3528.454 1718407 1705909 1693537 1684557 1681038 1683563 1690582 1699166 
3532.311 1705753 1707442 1702538 1691228 1674860 1655638 1635382 1615361 
3536.168 1595869 1576753 1557659 1538833 1520881 1505045 1492605 1484579 
3540.026 1481512 1483325 1489332 1498657 1509918 1521680 1532213 1539951 
3543.883 1543635 1542873 1538468 1532401 1527235 1525520 1528802 1536915 
3547.741 1547951 1558754 1565938 1567125 1561540 1550607 1537058 1524160 
3551.598 1514551 1509397 1508152 1508987 1509417 1507470 1502216 1494047 
3555.456 1484485 1475801 1470184 1469455 1474616 1485848 1502442 1523030 
3559.313 1545592 1567674 1586572 1599946 1605718 1603360 1593525 1578106 
3563.170 1559966 1542002 1526397 1513997 1504301 1496000 1487566 1478294 
3567.028 1468746 1460712 1456434 1457717 1464921 1476747 1490273 1502156 
3570.885 1509742 1511821 1509098 1503744 1498306 1495053 1494777 1497155 
3574.743 1500908 1504663 1507414 1508969 1509508 1509543 1508993 1507712 
3578.600 1505197 1501246 1496047 1490129 1483922 1477343 1469348 1458464 
3582.458 1443230 1423201 1399527 1375060 1353297 1337545 1329542 1328774 
3586.315 1332848 1338612 1343372 1346262 1348122 1351373 1358404 1370296 
3590.172 1386201 1403168 1417115 1424306 1422131 1410011 1389204 1362148 
3594.030 1331848 1301028 1271828 1246084 1225116 1210161 1201940 1200816 
3597.887 1206191 1216781 1230896 1246783 1263121 1279140 1294672 1309692 
3601.745 1324019 1337160 1348283 1356519 1361494 1363652 1364159 1364884 
3605.602 1367645 1373638 1382947 1394369 1405602 1413895 1416750 1412861 
3609.459 1402480 1387487 1371055 1356732 1347464 1344940 1349079 1358314 
3613.317 1370282 1382712 1394180 1404505 1414300 1424618 1435920 1447588 
3617.174 1457965 1464910 1466436 1461779 1451554 1437865 1423339 1410831 
3621.032 1402062 1397951 1398222 1402234 1409094 1418270 1429423 1442338 
3624.889 1456662 1471926 1487583 1503161 1518562 1534005 1549830 1566061 
3628.747 1582080 1596647 1607720 1613341 1611890 1603013 1587814 1568747 
3632.604 1549459 1533924 1525740 1527292 1539313 1560668 1588454 1618772 
3636.461 1647473 1670961 1686859 1694514 1694641 1689308 1681148 1673119 
3640.319 1667661 1666882 1672114 1683944 1702097 1725332 1751592 1778228 
3644.176 1802434 1821715 1834539 1840562 1840243 1835035 1826501 1816046 
3648.034 1804794 1793601 1783225 1774730 1769058 1767250 1769783 1776586 
3651.891 1786756 1799132 1812590 1826530 1840756 1855625 1871209 1887228 
3655.749 1902431 1915236 1923705 1926546 1923169 1914186 1900759 1884435 
3659.606 1866599 1848355 1830674 1814523 1800970 1791391 1786730 1787383 
3663.463 1792614 1800560 1808607 1814003 1814450 1809050 1797887 1782324 
3667.321 1764226 1745427 1727484 1711529 1698053 1687426 1679758 1675185 
3671.178 1673623 1675085 1679128 1685448 1693258 1701747 1709598 1715237 
3675.036 1716767 1712155 1699934 1679402 1651185 1617589 1581959 1548346 
3678.893 1520639 1501603 1492201 1491547 1496556 1503523 1508227 1507612 
3682.750 1500050 1485834 1466776 1445744 1425436 1408107 1394777 1385437 
3686.608 1379298 1375351 1372635 1370744 1369198 1367836 1365955 1362965 
3690.465 1358248 1351852 1344456 1337761 1333692 1333780 1338643 1347259 
3694.323 1357544 1366944 1373247 1375612 1374803 1372920 1372259 1374662 
3698.180 1380464 1388629 1396907 1403086 1405520 1403847 1398786 1391830 
3702.038 1384143 1376590 1369036 1361010 1351818 1341251 1329705 1318255 
3705.895 1308264 1301154 1297993 1299487 1305687 1316336 1330519 1347099 
3709.752 1364330 1380512 1393998 1403642 1408935 1410136 1407949 1403342 
3713.610 1396996 1389382 1380824 1371593 1362224 1353710 1346957 1342823 
3717.467 1341221 1341556 1342314 1341966 1339283 1333914 1326418 1318188 
3721.325 1310566 1304520 1300101 1296726 1293388 1289463 1284942 1280742 
3725.182 1278532 1280041 1286515 1298319 1314508 1333667 1353804 1373288 
3729.040 1390923 1406272 1419119 1429577 1437307 1441783 1442082 1437303 
3732.897 1427057 1411569 1391873 1370004 1348082 1328591 1313539 1304474 
3736.754 1302171 1306845 1317937 1334552 1354983 1377071 1398054 1414846 
3740.612 1424568 1425101 1415906 1398293 1375362 1351466 1331381 1318897 
3744.469 1315877 1321751 1333531 1347104 1358067 1363449 1362147 1355210 
3748.327 1345292 1335885 1330120 1329953 1335511 1345718 1358248 1370894 
3752.184 1381902 1390456 1396592 1400748 1403286 1404257 1403070 1398920 
3756.042 1391180 1379823 1365502 1349722 1334178 1320490 1309649 1302045 
3759.899 1297478 1295547 1295650 1297600 1300983 1305321 1309774 1313473 
3763.756 1315716 1316551 1317159 1319705 1326703 1340108 1360160 1384965 
3767.614 1410473 1431609 1443481 1443200 1430508 1408151 1380865 1354118 
3771.471 1332521 1319135 1314743 1318578 1328716 1343067 1359604 1376387 
3775.329 1391751 1403839 1410971 1412048 1406661 1395858 1381531 1366293 
3779.186 1352605 1342184 1335259 1331212 1328502 1325842 1322424 1318563 
3783.043 1315269 1313958 1315692 1320840 1328581 1337297 1344815 1349135 
3786.901 1348914 1344114 1335758 1326109 1317926 1313930 1316084 1325037 
3790.758 1339766 1357831 1375864 1390509 1399024 1400304 1394817 1384675 
3794.616 1372845 1362521 1356139 1355018 1359020 1366918 1376467 1385486 
3798.473 1391931 1394507 1392678 1386812 1377731 1366884 1355641 1345412 
3802.331 1337341 1332213 1330363 1331827 1336049 1342242 1349060 1355117 
3806.188 1358976 1359631 1356726 1350869 1343319 1335945 1330427 1327771 
3810.045 1328003 1330245 1332807 1334006 1332647 1328716 1323268 1318201 
3813.903 1315655 1317222 1323389 1333560 1345747 1357581 1366690 1371492 
3817.760 1371371 1366953 1359548 1351172 1343611 1338575 1336996 1339079 
3821.618 1344430 1351941 1360015 1367070 1371508 1372282 1368878 1361639 
3825.475 1351742 1341011 1331480 1325181 1323303 1326282 1333136 1342204 
3829.333 1351442 1359019 1363822 1365823 1365739 1364823 1363919 1363233 
3833.190 1361945 1358748 1352285 1341991 1328378 1313174 1298672 1286922 
3837.047 1279141 1275215 1273940 1273856 1273683 1273638 1274785 1278984 
3840.905 1287801 1301725 1319554 1338801 1356232 1369099 1375922 1377019 
3844.762 1374199 1370197 1367478 1367752 1371239 1377220 1384012 1389971 
3848.620 1393694 1394305 1391393 1384969 1375174 1362495 1347498 1331123 
3852.477 1314539 1298995 1285648 1275271 1268148 1264253 1263291 1265007 
3856.334 1269207 1275855 1284681 1295301 1306761 1317915 1327268 1333634 
3860.192 1336070 1334393 1328886 1320360 1309795 1298429 1287356 1277611 
3864.049 1270159 1265919 1265574 1269641 1278021 1290250 1305065 1320815 
3867.907 1335381 1346930 1353856 1355627 1352539 1346102 1338410 1331776 
3871.764 1327973 1327957 1331433 1337290 1343783 1349307 1352774 1353991 
3875.622 1353474 1352114 1350832 1350172 1350107 1350495 1351207 1352566 
3879.479 1355339 1360419 1368403 1379164 1391420 1402992 1411234 1413783 
3883.336 1409171 1397435 1379715 1358437 1336288 1315952 1299571 1288560 
3887.194 1283594 1284817 1291467 1302247 1315147 1327779 1337557 1342543 
3891.051 1341734 1335637 1325964 1315379 1306404 1301054 1299863 1302143 
3894.909 1306154 1310035 1312123 1311687 1308882 1304672 1300214 1296808 
3898.766 1295329 1296257 1299816 1305927 1314242 1324082 1334317 1343460 
3902.624 1349726 1351704 1348534 1340435 1328709 1315677 1304039 1296284 
3906.481 1293901 1297165 1304996 1315348 1325480 1333031 1336420 1335293 
3910.338 1330665 1324809 1320362 1319820 1324541 1334516 1347906 1361783 
3914.196 1372579 1377324 1374408 1364128 1348379 1330274 1312925 1298777 
3918.053 1288839 1282811 1279305 1276741 1273836 1270263 1266245 1262631 
3921.911 1260129 1259197 1259718 1261471 1263918 1267020 1270923 1275770 
3925.768 1281771 1288705 1296073 1303181 1309281 1314150 1317787 1320691 
3929.625 1323293 1325949 1328618 1331144 1333040 1334136 1334391 1334017 
3933.483 1333129 1331927 1330251 1328022 1325097 1321777 1318430 1315726 
3937.340 1313915 1312945 1312054 1310308 1306878 1301764 1295872 1291150 
3941.198 1289822 1293677 1303350 1318147 1335989 1354523 1371391 1385326 
3945.055 1395786 1403074 1407173 1407780 1403720 1393633 1376476 1352382 
3948.913 1323024 1291397 1261138 1235623 1216895 1205772 1201528 1202941 
3952.770 1208719 1218205 1231296 1248245 1268749 1292061 1316384 1339502 
3956.627 1359219 1374001 1383368 1387991 1389152 1388501 1387216 1386009 
3960.485 1384802 1383185 1380324 1375741 1369133 1360843 1351625 1342948 
3964.342 1336466 1334127 1337308 1346925 1362678 1383059 1405449 1426628 
3968.200 1443372 1453466 1455765 1451060 1441196 1428994 1417096 1407703 
3972.057 1401744 1399353 1399788 1402241 1406154 1411662 1419216 1429401 
3975.915 1442233 1456716 1470606 1480965 1484535 1479025 1463782 1440333 
3979.772 1412070 1383818 1360336 1345558 1341347 1347560 1361846 1380820 
3983.629 1400399 1417217 1428622 1433521 1431817 1424813 1414505 1403250 
3987.487 1393511 1387273 1385629 1388834 1395970 1405654 1416260 1426577 
3991.344 1436096 1444831 1453035 1460694 1466968 1470495 1469378 1462214 
3995.202 1448282 1428621 1405286 1381363 1359612 1342396 1330464 1323590 
3999.059 1320505 1319890 1320596 1322051 
##END=
