##TITLE=Bambu-Lab_PLA_Beige_Filament_r3_ATR-Corrected
##JCAMP-DX=5.01  $$ Nicolet v. 1
##DATATYPE=INFRARED SPECTRUM
##ORIGIN=Curtin University
##OWNER=Nicolet
##LONGDATE=2024/07/03
##TIME=10:53:04
##SPECTROMETER/DATA SYSTEM=Nicolet iS50
##DATA PROCESSING=
Ratio against background
%Transmittance->Absorbance
ATR Correction
Truncated
ElementMultiply or ElementDivide
##COMMENTS=
Number of sample scans: 32
Collection length: 47.28 sec
Sample gain: 1.0
Background collected on: Wed Jul 03 10:46:29 2024 (GMT+08:00);
Number of background scans: 32
Background gain: 1.0
Sample spacing:  1.000
Number of scan points: 16672
Resolution points: 8192
Number of FFT points: 65536
Apodization: N-B strong;
Phase correction: Mertz;
Laser frequency: 15798.3 cm-1
Number of rejected sample scans: 0
Number of rejected background scans: 0
Bench serial number: AUP1200105;
##RESOLUTION=4.000
##XUNITS=1/CM
##YUNITS=ABSORBANCE
##FIRSTX=400.163452
##LASTX=4000.187744
##FIRSTY=0.065626
##MAXX=4000.187744
##MINX=400.163452
##MAXY=1.015606
##MINY=-0.038202
##XFACTOR=1.000000
##YFACTOR=1.000000E-008
##NPOINTS=7468
##DELTAX=0.482125
##ZPD=8192
##XYDATA=(X++(Y..Y))
400.163 6562637 6479200 6408239 6349421 6299972 6257164 6217765 6178285 
404.020 6135343 6085725 6026617 5955760 5871867 5775093 5667425 5552744 
407.877 5436271 5323528 5219142 5125710 5043123 4968600 4897523 4824681 
411.734 4745608 4657692 4560762 4457105 4351029 4248143 4154382 4075168 
415.591 4014404 3974001 3953285 3949378 3957520 3972121 3987651 3999501 
419.448 4004425 4000718 3988030 3967228 3940233 3909933 3880034 3854510 
423.305 3836867 3829067 3830656 3838561 3847581 3851835 3846454 3829111 
427.162 3800443 3763475 3722167 3679894 3638482 3598285 3559100 3521407 
431.019 3487132 3459516 3442004 3436625 3443168 3458760 3479084 3500127 
434.876 3519859 3538898 3559888 3585912 3618542 3656753 3696992 3734475 
438.733 3765123 3787089 3801169 3810045 3816737 3823153 3829537 3835015 
442.590 3838940 3842115 3847319 3858446 3878942 3910101 3950170 3994828 
446.447 4038833 4078193 4111643 4140879 4169316 4199895 4233120 4266155 
450.304 4293630 4309598 4309972 4294150 4265156 4228282 4188893 4150408 
454.161 4113327 4075636 4034259 3986969 3933765 3877246 3821991 3773194 
458.017 3735263 3710856 3700588 3703420 3717395 3740353 3770318 3805537 
461.874 3844193 3884003 3921968 3954237 3977182 3987356 3982598 3962593 
465.731 3929183 3885947 3837309 3787164 3737700 3688696 3637722 3581279 
469.588 3516429 3442372 3361285 3278041 3198789 3128971 3071439 3025615 
473.445 2987810 2952792 2915827 2874390 2828861 2782053 2737763 2699122 
477.302 2667380 2641696 2619811 2599274 2578549 2557534 2537247 2518997 
481.159 2503377 2489721 2476251 2460862 2442143 2420256 2397122 2375955 
485.016 2360208 2352397 2353248 2361389 2373721 2386195 2394830 2396586 
488.873 2389880 2374757 2352692 2326148 2298108 2271568 2249143 2232680 
492.730 2223099 2220264 2222997 2229230 2236766 2243282 2247007 2247078 
496.587 2243740 2238255 2232521 2228559 2227946 2231326 2238311 2247557 
500.444 2257183 2265300 2270416 2271798 2269473 2264055 2256489 2247747 
504.301 2238652 2229811 2221669 2214553 2208699 2204280 2201300 2199612 
508.158 2198879 2198641 2198358 2197501 2195620 2192394 2187764 2181968 
512.015 2175626 2169668 2165199 2163179 2164074 2167614 2172668 2177467 
515.871 2180061 2178803 2172856 2162358 2148326 2132290 2115857 2100379 
519.728 2086773 2075626 2067250 2061839 2059414 2059796 2062453 2066634 
523.585 2071617 2077062 2083347 2091454 2103072 2119640 2141743 2168693 
527.442 2198465 2228196 2254977 2276723 2292692 2303595 2311191 2317591 
531.299 2324645 2333486 2344499 2357532 2372206 2388140 2404932 2422007 
535.156 2438397 2452688 2463146 2468026 2466036 2456608 2440035 2417350 
539.013 2390021 2359668 2327754 2295466 2263662 2232908 2203520 2175620 
542.870 2149145 2123984 2100092 2077602 2056893 2038562 2023230 2011298 
546.727 2002693 1996767 1992310 1987786 1981692 1972899 1960943 1946129 
550.584 1929477 1912518 1897039 1884702 1876838 1874144 1876534 1883077 
554.441 1892056 1901175 1907915 1909984 1905974 1895600 1879947 1861378 
558.298 1843100 1828503 1820364 1820242 1828114 1842455 1860708 1880018 
562.155 1898020 1913363 1925881 1936326 1945845 1955362 1965190 1974993 
566.012 1984065 1991824 1998184 2003754 2009589 2016790 2025958 2036917 
569.869 2048719 2059949 2069280 2075856 2079640 2081271 2081821 2082430 
573.725 2084016 2087141 2092053 2098759 2107077 2116639 2126812 2136794 
577.582 2145726 2153037 2158625 2163108 2167628 2173495 2181702 2192487 
581.439 2205182 2218442 2230719 2240891 2248627 2254526 2259759 2265580 
585.296 2272726 2281079 2289656 2296930 2301364 2302004 2298834 2292913 
589.153 2286140 2280847 2279125 2282307 2290488 2302394 2315683 2327464 
593.010 2335213 2337554 2334798 2328936 2323072 2320448 2323353 2332387 
596.867 2346282 2362427 2377844 2390262 2398866 2404505 2409218 2415440 
600.724 2425122 2439206 2457544 2479183 2502903 2527629 2552637 2577532 
604.581 2602000 2625716 2648284 2669396 2688969 2707255 2724774 2742129 
608.438 2759829 2778194 2797418 2817702 2839398 2862892 2888367 2915478 
612.295 2943097 2969412 2992320 3010064 3021929 3028501 3031596 3033663 
616.152 3036956 3042923 3051829 3062939 3075084 3087211 3098889 3110346 
620.009 3122201 3135065 3149143 3164204 3179714 3195237 3210742 3226750 
623.866 3244116 3263707 3285960 3310640 3336869 3363356 3388826 3412357 
627.723 3433624 3452859 3470736 3488085 3505731 3524313 3544325 3566069 
631.579 3589762 3615498 3643215 3672690 3703479 3734930 3766278 3796783 
635.436 3825911 3853491 3879813 3905525 3931446 3958216 3985937 4013871 
639.293 4040534 4063903 4082035 4093694 4098822 4098756 4095934 4093288 
643.150 4093482 4098237 4108015 4122084 4138924 4156820 4174383 4190812 
647.007 4205876 4219774 4232888 4245628 4258375 4271534 4285564 4300925 
650.864 4317971 4336754 4357004 4378171 4399636 4420986 4442243 4463875 
654.721 4486627 4511247 4538130 4567147 4597662 4628670 4659157 4688323 
658.578 4715778 4741586 4766214 4790443 4815278 4841863 4871402 4905036 
662.435 4943621 4987593 5036835 5090704 5148170 5208051 5269234 5330739 
666.292 5391653 5450908 5507079 5558258 5602202 5636656 5659830 5670830 
670.149 5669940 5658641 5639301 5614818 5588111 5561735 5537622 5516961 
674.006 5500208 5487140 5477059 5468950 5461781 5454759 5447603 5440625 
677.863 5434695 5430960 5430461 5433745 5440599 5450072 5460804 5471406 
681.720 5480932 5489191 5496718 5504548 5513723 5524938 5538196 5552901 
685.577 5568093 5582853 5596637 5609445 5621690 5633948 5646599 5659612 
689.433 5672561 5684845 5696041 5706221 5716047 5726611 5739093 5754313 
693.290 5772431 5792859 5814416 5835705 5855484 5872957 5887814 5900182 
697.147 5910364 5918697 5925476 5930959 5935467 5939442 5943342 5947532 
701.004 5952071 5956636 5960528 5962887 5962948 5960281 5954895 5947138 
704.861 5937500 5926408 5914056 5900475 5885637 5869674 5852958 5836053 
708.718 5819465 5803386 5787498 5770890 5752242 5730134 5703437 5671478 
712.575 5634176 5591861 5545087 5494322 5439838 5381648 5319544 5253282 
716.432 5182642 5107592 5028295 4945166 4858820 4770013 4679535 4588042 
720.289 4495927 4403246 4309756 4215144 4119368 4022971 3927273 3834377 
724.146 3746863 3667331 3597918 3539956 3493892 3459525 3436377 3424100 
728.003 3422669 3432415 3453737 3486806 3531334 3586560 3651515 3725366 
731.860 3807744 3898850 3999269 4109544 4229626 4358492 4494067 4633454 
735.717 4773454 4911197 5044581 5172468 5294528 5410929 5521878 5627432 
739.574 5727397 5821562 5909918 5992977 6071776 6147761 6222476 6297230 
743.431 6372814 6449472 6526981 6604932 6682998 6761153 6839727 6919395 
747.287 7001056 7085625 7173927 7266526 7363640 7465035 7569945 7677073 
751.144 7784618 7890435 7992171 8087527 8174341 8250687 8314796 8364989 
755.001 8399621 8417167 8416314 8396239 8356789 8298556 8222805 8131250 
758.858 8025744 7908063 7779792 7642373 7497214 7345812 7189855 7031100 
762.715 6871327 6712146 6554939 6400837 6250762 6105478 5965515 5831176 
766.572 5702395 5578697 5459270 5343177 5229591 5118084 5008732 4902121 
770.429 4799089 4700395 4606450 4517042 4431398 4348323 4266486 4184803 
774.286 4102677 4020159 3937879 3856857 3778177 3702697 3630741 3562034 
778.143 3495730 3430667 3365680 3299963 3233283 3165989 3098924 3033047 
782.000 2969144 2907569 2848223 2790626 2734209 2678540 2623395 2568761 
785.857 2514575 2460588 2406203 2350640 2293243 2233850 2173127 2112640 
789.714 2054598 2001368 1954838 1915952 1884435 1858977 1837618 1818343 
793.571 1799571 1780456 1760885 1741227 1722013 1703604 1686039 1669096 
797.428 1652436 1635875 1619565 1603997 1589945 1578191 1569256 1563223 
801.285 1559602 1557415 1555400 1552285 1547224 1539875 1530574 1520184 
805.141 1509868 1500779 1493715 1488942 1486187 1484758 1483891 1483004 
808.998 1481993 1481282 1481702 1484183 1489480 1497740 1508394 1520170 
812.855 1531314 1539915 1544366 1543663 1537640 1526942 1512891 1497122 
816.712 1481288 1466779 1454503 1445000 1438527 1435251 1435403 1439351 
820.569 1447400 1459614 1475558 1494144 1513753 1532431 1548406 1560470 
824.426 1568324 1572576 1574499 1575587 1577087 1579634 1583162 1587100 
828.283 1590764 1593705 1596010 1598297 1601515 1606615 1614220 1624402 
832.140 1636769 1650669 1665482 1680961 1697411 1715610 1736660 1761695 
835.997 1791603 1826860 1867438 1912904 1962539 2015538 2071214 2129100 
839.854 2189067 2251237 2315968 2383715 2454826 2529488 2607577 2688660 
843.711 2771929 2856260 2940205 3021987 3099595 3170905 3233910 3287120 
847.568 3329859 3362560 3386878 3405472 3421674 3438980 3460595 3489259 
851.425 3527106 3575979 3637644 3713996 3807108 3918946 4051046 4204130 
855.282 4377858 4570745 4780414 5003866 5237851 5479166 5724778 5971998 
859.139 6218355 6461739 6700281 6932347 7156457 7371062 7574472 7764753 
862.995 7939879 8098036 8238000 8359500 8463274 8550856 8624001 8684053 
866.852 8731425 8765507 8784935 8788188 8774226 8742903 8694958 8631563 
870.709 8553818 8462239 8356574 8236062 8099930 7947843 7780253 7598372 
874.566 7403914 7198801 6985042 6764763 6540423 6314935 6091584 5873534 
878.423 5663147 5461423 5267729 5080114 4896203 4714330 4534479 4358844 
882.280 4191488 4037428 3901403 3786674 3694368 3623493 3571549 3535495 
886.137 3512638 3501222 3500373 3509777 3528982 3556884 3591430 3629833 
889.994 3668921 3705800 3738278 3765184 3786331 3802339 3814233 3823237 
893.851 3830423 3836665 3842576 3848465 3854369 3859961 3864590 3867298 
897.708 3867005 3862773 3854087 3841116 3824817 3806890 3789478 3774803 
901.565 3764761 3760592 3762733 3770867 3784094 3801193 3820795 3841552 
905.422 3862175 3881493 3898535 3912663 3923706 3932102 3938822 3945213 
909.279 3952556 3961683 3972632 3984510 3995694 4004164 4008097 4006288 
913.136 3998433 3985139 3967736 3947943 3927496 3907948 3890418 3875598 
916.993 3863650 3854234 3846487 3839164 3830815 3820118 3806180 3788885 
920.849 3768863 3747416 3726108 3706345 3689012 3674293 3661716 3650508 
924.706 3639838 3629107 3618028 3606495 3594484 3581840 3568305 3553689 
928.563 3538096 3522142 3506954 3493973 3484484 3479282 3478309 3480661 
932.420 3484836 3489245 3492707 3494737 3495667 3496414 3498049 3501464 
936.277 3507072 3514837 3524420 3535453 3547770 3561501 3577005 3594700 
940.134 3614851 3637536 3662596 3689800 3718991 3750206 3783645 3819638 
943.991 3858381 3899901 3943953 3990084 4037828 4086917 4137405 4189795 
947.848 4244932 4303853 4367513 4436557 4511068 4590533 4673786 4759255 
951.705 4845089 4929481 5010805 5087773 5159417 5224995 5283788 5335003 
955.562 5377544 5410057 5430975 5438728 5431898 5409592 5371682 5318930 
959.419 5253169 5177133 5094362 5008719 4924020 4843534 4769590 4703425 
963.276 4645187 4594206 4549440 4509866 4474765 4443864 4417241 4395056 
967.133 4377359 4363930 4354223 4347548 4343058 4339996 4337662 4335455 
970.990 4332903 4329703 4325885 4321911 4318706 4317578 4319860 4326640 
974.847 4338346 4354753 4375071 4398360 4423911 4451674 4482163 4516300 
978.703 4554942 4598456 4646526 4698295 4752644 4808724 4866150 4925018 
982.560 4985613 5047983 5111562 5175244 5237632 5297694 5355307 5411559 
986.417 5468651 5529314 5595979 5670187 5751944 5839998 5932222 6026350 
990.274 6120587 6214045 6306812 6399735 6494016 6590878 6691290 6795825 
994.131 6904658 7017626 7134293 7254079 7376414 7500897 7627485 7756612 
997.988 7889119 8026097 8168587 8317306 8472480 8633903 8801168 8974056 
1001.845 9152822 9338414 9532294 9736225 9951843 10180292 10422181 10677521 
1005.702 10946111 11227770 11522680 11831433 12155005 12494534 12850928 
1009.077 13224687 13615599 14022712 14444429 14878654 15323071 15775420 
1012.452 16233627 16695955 17160854 17626746 18091820 18553792 19009882 
1015.826 19456994 19892084 20312608 20716936 21104610 21476282 21833524 
1019.201 22178246 22512362 22837412 23154366 23463658 23765430 24059800 
1022.576 24347162 24628320 24904658 25178004 25450662 25725198 26004496 
1025.951 26291766 26590436 26904190 27236914 27592414 27974238 28385338 
1029.326 28827902 29303258 29811900 30353678 30927902 31533512 32169088 
1032.702 32832592 33521232 34231160 34957416 35693892 36433740 37169592 
1036.077 37894060 38599944 39280420 39929024 40539568 41106124 41623168 
1039.452 42085572 42489080 42830332 43107212 43318776 43465236 43547772 
1042.827 43568392 43529656 43434624 43286716 43089820 42848208 42566684 
1046.203 42250304 41904292 41533628 41142908 40736084 40316716 39888172 
1049.578 39454176 39018904 38587140 38163940 37753920 37360640 36986152 
1052.953 36630808 36293744 35973524 35669080 35380204 35107996 34854732 
1056.328 34623620 34418444 34243456 34103344 34003600 33950552 33951468 
1059.704 34014232 34146724 34356116 34648280 35027276 35495284 36052732 
1063.079 36698644 37430908 38246512 39141592 40111576 41151192 42254688 
1066.454 43416060 44629320 45888552 47187940 48521544 49883072 51265912 
1069.829 52663304 54068708 55476288 56881148 58279300 59667300 61041552 
1073.205 62397836 63731028 65035088 66303628 67530304 68709440 69836040 
1076.580 70905936 71915328 72860488 73737456 74542256 75270464 75917600 
1079.955 76478904 76949512 77323904 77596480 77761472 77813920 77750376 
1083.330 77570120 77275904 76874176 76374672 75789232 75130048 74408440 
1086.706 73633576 72812744 71951680 71055872 70131336 69185104 68224672 
1090.081 67257288 66288608 65322196 64359276 63399536 62441976 61486016 
1093.456 60531972 59581240 58635660 57697212 56767392 55847132 54936896 
1096.831 54036940 53147288 52267784 51397800 50536204 49681352 48831488 
1100.207 47985268 47142296 46303260 45469936 44644668 43829920 43027672 
1103.582 42239428 41466220 40709032 39969172 39248584 38549848 37876084 
1106.957 37230764 36617468 36039556 35500084 35001584 34545976 34134392 
1110.332 33767208 33444064 33164180 32926556 32730260 32574404 32458124 
1113.708 32380352 32339538 32333570 32359948 32415938 32499286 32608474 
1117.083 32743004 32903314 33090490 33305666 33549682 33822648 34123968 
1120.458 34452436 34806348 35183540 35581176 35995360 36420624 36849512 
1123.833 37272432 37678020 38053840 38387492 38667844 38886032 39036272 
1127.208 39115928 39125284 39066644 38943540 38759760 38518912 38224084 
1130.584 37878040 37483500 37043320 36560552 36038184 35478688 34883820 
1133.959 34254296 33590184 32891286 32157714 31390446 30591572 29764104 
1137.334 28911802 28038686 27148878 26246532 25335914 24421722 23509132 
1140.709 22603774 21711548 20838230 19989072 19168642 18380610 17627832 
1144.085 16912480 16236176 15600111 15005106 14451563 13939467 13468416 
1147.460 13037635 12646078 12292422 11975176 11692685 11443148 11224658 
1150.835 11035244 10873006 10736131 10622989 10532133 10462255 10412220 
1154.210 10380942 10367484 10371044 10391008 10427006 10478909 10546806 
1157.586 10630982 10731862 10850028 10986158 11141143 11316063 11512296 
1160.961 11731493 11975751 12247565 12549935 12886260 13260323 13676168 
1164.336 14138019 14650238 15217470 15844697 16537555 17302384 18146286 
1167.711 19076864 20101952 21229116 22465328 23816636 25288064 26883504 
1171.087 28605640 30455544 32432132 34531308 36745036 39060488 41459480 
1174.462 43917976 46406336 48889452 51327496 53676884 55891828 57926392 
1177.837 59737276 61286728 62545532 63494964 64127980 64448984 64472456 
1181.212 64221108 63723548 63012152 62121116 61084728 59936132 58706008 
1184.588 57422020 56108032 54784136 53466572 52168244 50899308 49667712 
1187.963 48479748 47340392 46253384 45221236 44245072 43324652 42458520 
1191.338 41644312 40879188 40160300 39485076 38851488 38258004 37703512 
1194.713 37186988 36707492 36263952 35855116 35479592 35135872 34822372 
1198.089 34537560 34279936 34048168 33841044 33657576 33496844 33357796 
1201.464 33239006 33138484 33053538 32980836 32916564 32856864 32798242 
1204.839 32737776 32673206 32602846 32525278 32439064 32342582 32233962 
1208.214 32111162 31972274 31815606 31639882 31444148 31227762 30990260 
1211.590 30731436 30451352 30150396 29829320 29489260 29131482 28757346 
1214.965 28368094 27965016 27549386 27122772 26687024 26244348 25797164 
1218.340 25347924 24898874 24452018 24008962 23571076 23139398 22714784 
1221.715 22297720 21888422 21486776 21092442 20705008 20324298 19950434 
1225.091 19584014 19225966 18877338 18538984 18211354 17894382 17587562 
1228.466 17290144 17001500 16721320 16449787 16187540 15935531 15694772 
1231.841 15466096 15249954 15046372 14854898 14674707 14504692 14343622 
1235.216 14190300 14043693 13903016 13767850 13638116 13513982 13395733 
1238.592 13283585 13177565 13077429 12982753 12893039 12807822 12726803 
1241.967 12649907 12577116 12508494 12444011 12383580 12327145 12274653 
1245.342 12226288 12182296 12143069 12108859 12079788 12055701 12036319 
1248.717 12021316 12010563 12004200 12002666 12006540 12016380 12032507 
1252.093 12054960 12083422 12117418 12156403 12199918 12247606 12299263 
1255.468 12354669 12413581 12475694 12540680 12608251 12678236 12750509 
1258.843 12825043 12901665 12979980 13059260 13138437 13216114 13290779 
1262.218 13360962 13425443 13483362 13534339 13578345 13615614 13646415 
1265.594 13670892 13688840 13699704 13702551 13696189 13679366 13650888 
1268.969 13609825 13555497 13487540 13405870 13310604 13202059 13080689 
1272.344 12947059 12801792 12645556 12478979 12302659 12117071 11922747 
1275.719 11720195 11510081 11293191 11070439 10842848 10611422 10377112 
1279.094 10140780 9903216 9665181 9427453 9190899 8956443 8725145 8498185 
1282.952 8276936 8062932 7857936 7663776 7482250 7314916 7162942 7027038 
1286.809 6907504 6804431 6717872 6647972 6594964 6559004 6539961 6537261 
1290.667 6549767 6575958 6614068 6662414 6719471 6783860 6854172 6928842 
1294.524 7006044 7083732 7159912 7232876 7301472 7365060 7423461 7476646 
1298.382 7524561 7566993 7603737 7634789 7660556 7681930 7700137 7716391 
1302.239 7731560 7745845 7758853 7769740 7777631 7781969 7782797 7780674 
1306.096 7776537 7771276 7765572 7759625 7753231 7745941 7737250 7726808 
1309.954 7714575 7700749 7685836 7670440 7655205 7640654 7627076 7614480 
1313.811 7602621 7591009 7579231 7567069 7554707 7542715 7531985 7523347 
1317.669 7517406 7514172 7513139 7513420 7514017 7514263 7514006 7513615 
1321.526 7513880 7515639 7519504 7525643 7533829 7543566 7554393 7566160 
1325.384 7579148 7594053 7611925 7633821 7660690 7693212 7731712 7776288 
1329.241 7826834 7883236 7945346 8013024 8086090 8164192 8246789 8333122 
1333.098 8422276 8513291 8605420 8698167 8791482 8885746 8981694 9080289 
1336.956 9182570 9289420 9401540 9519319 9642889 9772122 9906705 10046270 
1340.813 10190471 10339099 10492136 10649829 10812610 10981081 11155789 
1344.188 11337181 11525441 11720522 11922179 12130081 12343902 12563412 
1347.564 12788485 13018930 13254471 13494520 13738114 13983856 14229913 
1350.939 14474176 14714256 14947706 15172158 15385531 15586121 15772739 
1354.314 15944663 16101493 16242947 16368562 16477551 16568808 16641177 
1357.689 16693822 16726753 16741180 16739568 16725366 16702387 16674154 
1361.065 16643327 16611445 16578968 16545615 16510856 16474149 16435051 
1364.440 16393034 16347185 16295783 16236314 16165477 16079538 15974878 
1367.815 15848455 15698221 15523545 15325403 15106539 14871570 14627078 
1371.190 14381410 14144537 13927628 13742465 13600732 13513115 13488396 
1374.566 13532521 13647839 13832621 14081071 14383662 14727938 15099545 
1377.941 15483360 15864515 16229157 16564998 16861474 17109714 17302414 
1381.316 17433884 17500064 17498728 17429626 17294450 17096566 16840644 
1384.691 16532159 16177152 15781972 15353204 14897555 14421560 13931254 
1388.067 13431770 12927116 12420198 11913002 11407048 10903741 10404575 
1391.442 9911294 9425844 8950316 8487052 8038614 7607835 7197666 6810897 
1395.299 6449835 6115896 5809498 5530082 5276334 5046598 4839157 4652386 
1399.157 4484824 4335055 4201621 4082977 3977480 3883574 3799769 3724748 
1403.014 3657272 3596235 3540567 3489312 3441756 3397480 3356468 3318930 
1406.872 3285233 3255607 3229974 3207900 3188710 3171642 3156072 3141661 
1410.729 3128340 3116228 3105453 3096050 3087808 3080521 3074013 3068323 
1414.586 3063792 3060914 3060196 3061915 3065981 3071896 3078984 3086586 
1418.444 3094415 3102690 3112123 3123646 3138164 3156144 3177529 3201749 
1422.301 3228019 3255693 3284500 3314707 3346995 3382171 3420813 3463064 
1426.159 3508506 3556467 3606270 3657623 3710865 3767057 3827707 3894544 
1430.016 3969127 4052658 4145832 4248951 4362185 4485753 4620198 4766540 
1433.874 4926336 5101723 5295214 5509668 5748006 6013087 6307619 6634045 
1437.731 6994670 7391522 7826472 8300884 8815422 9369655 9961790 10588384 
1441.588 11244465 11923640 12618300 13320020 14019868 14708871 15378462 
1444.964 16021018 16630183 17201162 17730620 18216478 18657596 19053554 
1448.339 19404412 19710634 19973014 20192538 20370228 20507072 20603838 
1451.714 20661136 20679382 20658808 20599298 20500322 20360844 20179470 
1455.089 19954876 19686278 19373988 19019556 18625682 18195734 17733084 
1458.465 17240888 16721934 16179076 15615553 15035304 14442863 13843097 
1461.840 13240752 12640157 12045208 11459498 10886455 10329455 9791541 
1465.215 9275151 8781838 8312280 7866589 7444756 7047064 6674192 6326992 
1469.073 6006095 5711247 5441237 5193797 4966056 4754972 4557787 4372335 
1472.930 4197034 4030849 3873236 3724071 3583662 3452743 3332186 3222849 
1476.787 3125069 3038539 2962175 2894426 2833614 2778403 2727956 2682032 
1480.645 2640701 2604016 2571885 2543873 2519328 2497550 2477911 2459884 
1484.502 2443000 2426712 2410469 2393795 2376424 2358547 2340744 2323925 
1488.360 2308910 2296255 2285914 2277338 2269657 2262001 2253739 2244601 
1492.217 2234666 2224116 2213146 2201854 2190325 2178750 2167462 2157018 
1496.074 2147963 2140654 2135096 2130774 2126952 2122794 2117638 2111206 
1499.932 2103636 2095327 2086778 2078440 2070631 2063476 2057087 2051512 
1503.789 2046890 2043288 2040805 2039386 2038912 2039106 2039656 2040139 
1507.647 2040204 2039531 2037956 2035513 2032448 2029180 2026163 2023701 
1511.504 2021739 2019842 2017236 2013061 2006754 1998271 1988299 1978002 
1515.362 1968776 1961780 1957590 1956064 1956494 1957893 1959396 1960479 
1519.219 1961164 1961766 1962700 1964220 1966245 1968410 1970146 1970879 
1523.076 1970261 1968118 1964584 1959940 1954497 1948572 1942408 1936148 
1526.934 1929832 1923428 1916844 1910027 1903008 1895933 1889114 1882866 
1530.791 1877511 1873197 1869892 1867411 1865580 1864213 1863368 1863195 
1534.649 1863901 1865575 1868118 1871154 1874145 1876524 1877888 1878058 
1538.506 1877157 1875496 1873455 1871329 1869296 1867398 1865614 1863922 
1542.364 1862346 1860883 1859551 1858291 1857025 1855637 1854021 1852152 
1546.221 1850160 1848229 1846660 1845866 1846240 1848176 1851933 1857581 
1550.078 1864870 1873262 1882030 1890413 1897902 1904402 1910212 1916021 
1553.936 1922522 1930114 1938649 1947392 1955169 1960712 1963039 1961777 
1557.793 1957189 1950115 1941630 1932688 1923895 1915396 1906951 1898151 
1561.651 1888617 1878179 1866943 1855181 1843434 1832294 1822395 1814281 
1565.508 1808373 1804842 1803575 1804232 1806286 1809242 1812685 1816376 
1569.365 1820294 1824352 1828413 1832144 1835039 1836522 1836213 1834094 
1573.223 1830560 1826339 1822297 1819174 1817357 1816809 1817166 1817904 
1577.080 1818573 1818946 1819084 1819215 1819653 1820617 1822188 1824309 
1580.938 1826797 1829480 1832201 1834865 1837460 1840014 1842574 1845238 
1584.795 1848150 1851465 1855283 1859685 1864626 1869969 1875548 1881157 
1588.653 1886677 1892039 1897323 1902670 1908214 1914023 1920116 1926387 
1592.510 1932630 1938578 1943975 1948588 1952275 1955050 1957082 1958707 
1596.367 1960360 1962547 1965688 1970115 1975951 1983082 1991248 1999982 
1600.225 2008738 2016921 2023984 2029516 2033302 2035407 2036194 2036260 
1604.082 2036341 2037140 2039202 2042817 2048017 2054639 2062445 2071140 
1607.940 2080520 2090319 2100218 2109761 2118420 2125703 2131314 2135309 
1611.797 2138145 2140547 2143319 2147041 2151966 2157871 2164270 2170602 
1615.655 2176473 2181823 2186884 2192057 2197616 2203515 2209356 2214438 
1619.512 2218082 2219845 2219801 2218566 2217202 2216969 2218976 2223881 
1623.369 2231742 2241968 2253424 2264760 2274669 2282287 2287254 2289864 
1627.227 2290910 2291433 2292502 2294887 2298934 2304635 2311695 2319825 
1631.084 2328888 2339018 2350536 2363829 2379135 2396484 2415612 2436083 
1634.942 2457385 2479042 2500576 2521506 2541099 2558396 2572100 2580867 
1638.799 2583467 2579142 2567772 2550039 2527196 2500989 2473184 2445447 
1642.656 2419083 2395028 2373799 2355593 2340308 2327636 2317093 2308134 
1646.514 2300257 2293115 2286544 2280578 2275404 2271259 2268364 2266843 
1650.371 2266794 2268190 2270908 2274724 2279270 2284073 2288726 2292918 
1654.229 2296648 2300210 2304159 2308999 2315145 2322509 2330608 2338667 
1658.086 2345868 2351614 2355859 2358992 2361758 2364945 2369186 2374686 
1661.944 2381340 2388828 2396897 2405454 2414593 2424508 2435278 2446799 
1665.801 2458732 2470566 2481881 2492467 2502396 2511925 2521421 2531135 
1669.658 2541152 2551378 2561661 2571905 2582121 2592471 2603126 2614167 
1673.516 2625549 2637043 2648268 2658942 2668834 2677926 2686407 2694652 
1677.373 2703138 2712367 2722895 2735152 2749531 2766089 2784677 2804877 
1681.231 2826055 2847504 2868734 2889419 2909575 2929398 2949186 2969163 
1685.088 2989320 3009475 3029314 3048680 3067641 3086628 3106471 3128209 
1688.946 3152945 3181577 3214617 3252004 3293074 3336694 3381524 3426189 
1692.803 3469740 3511786 3552672 3593390 3635366 3680176 3729168 3783218 
1696.660 3842594 3907037 3975986 4048763 4124739 4203456 4284692 4368438 
1700.518 4454998 4544912 4638951 4738035 4842965 4954300 5072177 5196288 
1704.375 5326054 5460883 5600478 5745122 5895689 6053542 6220094 6396592 
1708.233 6583881 6782178 6991367 7211081 7440994 7680807 7930443 8189744 
1712.090 8458600 8736699 9023651 9319011 9622259 9932917 10250475 10574404 
1715.948 10904188 11239340 11579446 11924183 12273401 12627067 12985291 
1719.323 13348432 13717192 14092761 14477001 14872220 15281230 15706894 
1722.698 16152011 16619170 17110754 17629142 18177010 18757334 19373552 
1726.073 20029424 20728834 21475724 22273984 23127494 24040124 25015802 
1729.448 26058462 27172134 28360966 29629644 30983580 32428960 33972484 
1732.824 35620564 37378300 39248556 41231656 43325888 45528804 47838476 
1736.199 50254436 52777040 55405844 58137072 60961252 63861872 66816060 
1739.574 69796272 72773216 75717976 78603128 81402448 84090408 86641800 
1742.949 89032920 91243048 93256208 95061448 96652040 98023376 99171784 
1746.325 100094176 100789392 101259944 101513160 101560632 101416120 
1749.218 101092912 100601888 99951296 99147960 98198928 97112904 95899840 
1752.593 94569848 93131408 91590736 89951856 88218240 86394560 84487944 
1755.968 82508136 80466688 78375752 76247296 74092536 71922592 69748888 
1759.344 67583496 65438824 63327020 61258920 59243692 57288552 55399120 
1762.719 53579760 51833684 50162976 48568268 47048480 45600964 44221960 
1766.094 42907452 41653748 40458208 39318948 38234536 37203152 36222008 
1769.469 35287052 34393236 33534858 32706482 31903220 31120950 30356280 
1772.844 29606154 28867578 28137478 27412742 26690642 25969108 25246918 
1776.220 24523766 23799996 23076164 22352772 21629872 20907234 20184476 
1779.595 19461664 18739546 18019906 17305410 16599393 15905285 15226243 
1782.970 14564826 13922809 13301390 12701374 12123331 11567903 11035839 
1786.345 10528065 10045595 9589458 9160507 8759288 8385800 8039505 7719271 
1790.203 7423541 7150731 6899205 6667461 6454126 6257699 6076480 5908438 
1794.060 5751378 5603219 5462265 5327487 5198617 5075872 4959901 4851221 
1797.918 4750103 4656443 4569697 4489109 4413862 4343089 4276061 4212187 
1801.775 4150880 4091755 4034455 3978896 3925082 3873198 3823544 3776433 
1805.633 3732148 3690813 3652281 3616086 3581350 3546906 3511469 3473817 
1809.490 3433245 3389663 3343652 3296305 3248825 3202111 3156570 3111925 
1813.347 3067588 3022960 2978064 2933528 2890908 2852088 2818936 2792621 
1817.205 2773453 2760585 2752434 2746950 2742193 2736522 2728876 2718529 
1821.062 2705256 2689074 2670433 2649932 2628589 2607453 2587466 2569109 
1824.920 2552196 2535758 2518166 2497514 2472056 2440685 2403461 2361517 
1828.777 2317066 2272859 2231647 2195422 2165116 2140377 2119878 2101803 
1832.635 2084434 2066480 2047330 2026765 2004780 1981163 1955483 1927212 
1836.492 1896064 1862395 1827264 1792200 1759013 1729160 1703511 1682345 
1840.349 1665550 1653016 1644730 1640657 1640488 1643061 1646359 1647569 
1844.207 1643946 1633421 1615575 1591629 1564209 1536491 1511400 1490720 
1848.064 1475110 1464011 1456276 1450366 1444715 1437720 1427919 1413911 
1851.922 1394948 1371147 1343932 1315802 1289776 1268525 1253630 1245103 
1855.779 1241511 1240753 1240957 1241017 1241039 1241836 1244422 1249368 
1859.636 1256638 1265571 1275575 1286161 1297412 1309528 1322606 1336201 
1863.494 1349397 1360850 1369338 1373990 1374346 1370060 1360755 1345779 
1867.351 1324615 1297529 1266074 1233333 1203661 1181340 1169649 1169491 
1871.209 1179178 1194905 1211870 1225491 1232523 1231233 1221458 1203862 
1875.066 1179743 1150671 1118702 1086262 1056176 1030986 1012551 1001292 
1878.924 996400 996234 999182 1004351 1011877 1022279 1035775 1051105 
1882.781 1065524 1075008 1075814 1065767 1045424 1018139 989305 964722 
1886.638 949006 944492 951073 966519 987669 1011109 1034131 1054570 1071190 
1890.978 1083277 1090768 1094057 1093865 1090833 1085307 1076720 1064042 
1894.835 1045979 1021820 992119 959056 925952 896798 874870 862196 859160 
1899.175 864790 877279 894716 915233 937110 958405 977069 991032 998915 
1903.515 1000401 996765 990459 984680 982080 984342 991532 1002405 1014761 
1907.854 1026198 1034485 1038038 1036058 1028971 1018319 1006938 997962 
1911.712 994195 996260 1002136 1006700 1003412 986393 953223 906475 853913 
1916.051 805993 772656 759684 766832 787974 813920 835937 849021 853258 
1920.391 852900 853513 858956 869221 880426 886248 880867 861283 828743 
1924.730 787921 745669 708508 681066 665123 659883 662269 667953 671573 
1929.070 667836 652126 622153 578700 526654 474040 430801 405865 405066 
1933.410 429418 475438 536056 602920 667886 724569 767994 795278 804885 
1937.749 797573 776192 746362 714862 688314 670613 661615 656860 649600 
1942.089 633526 605914 568911 529399 495859 476082 473692 488097 514719 
1946.428 547483 580192 607905 626648 633444 626159 604513 570894 531523 
1950.768 495175 471390 466402 480872 508870 540472 565676 579165 582060 
1955.108 581897 587227 603623 629055 654370 666192 654104 615458 559221 
1959.447 501949 462602 453370 475032 515799 556776 578322 568060 523427 
1963.787 451992 367346 285197 219360 180891 177313 213812 291276 406124 
1968.126 548086 700941 844365 959098 1031081 1055192 1034884 980279 902649 
1972.466 810542 708338 597483 479666 361382 254970 179398 156045 203846 
1976.806 333775 543912 816347 1118886 1409225 1643632 1785173 1812091 
1980.663 1720929 1528506 1267843 982890 718768 513302 389237 352018 391183 
1985.003 486706 615217 755312 889172 1002955 1084930 1125401 1118133 1063489 
1989.342 970390 857390 748374 667150 629476 638975 685225 748362 805129 
1993.682 837013 834353 799050 741799 678089 622926 587525 576955 590420 
1998.021 621295 659173 691064 704507 689588 642621 566671 471955 371288 
2002.361 276599 193206 118001 39943 -53885 -172820 -314630 -464752 -597658 
2006.701 -686016 -709331 -663052 -558907 -421464 -278582 -153059 -56870 9426 
2011.040 53474 85362 113039 138460 158977 167410 157201 123620 67325 -6690 
2015.862 -88339 -165616 -225508 -258336 -257951 -224209 -161955 -79858 12608 
2020.202 106188 195054 273997 339847 388717 416183 417689 390631 335499 
2024.541 258293 168473 77747 -3168 -66740 -110204 -133795 -139831 -130148 
2028.881 -106985 -72714 -32800 4285 26851 24204 -10399 -75253 -159366 
2033.220 -244144 -308176 -332572 -307005 -230563 -113404 28682 175344 307825 
2037.560 410088 471696 488207 462363 402914 324460 243774 177642 138872 
2041.900 134318 163245 219122 290825 367256 439126 502217 557601 611912 
2046.239 674562 755639 861646 993250 1141799 1290885 1418186 1501786 1525526 
2050.579 1483852 1381974 1234361 1060260 880078 711550 568524 459480 388692 
2054.918 356376 359940 393597 448870 514101 576274 622740 644679 639368 
2059.258 611595 571626 532075 503055 489322 488811 495487 502200 505142 
2063.598 505095 507497 519035 544526 584108 633534 685515 733449 773374 
2067.937 805170 831202 854465 875799 894010 906039 909715 904908 894628 
2072.277 883589 876423 875101 878850 884238 888366 890093 891953 898704 
2076.616 915544 944620 983836 1026074 1062087 1082778 1082799 1061613 
2080.474 1023318 974436 921704 869703 821050 776131 735020 698551 668659 
2084.813 647655 637569 638454 648515 663945 680178 692929 699043 696652 
2089.153 685283 665025 636575 600833 559603 515411 471986 433758 405525 
2093.493 391183 393440 412392 445969 489651 537594 583844 623674 654307 
2097.832 675994 690796 702201 713235 725522 738203 749004 755023 754789 
2102.172 749358 742478 739178 744161 758923 781100 804341 820636 822817 
2106.511 807611 776545 736008 694470 660004 637644 628549 630446 639588 
2110.851 652863 668950 688487 713031 743096 777274 811493 840156 857638 
2115.191 859963 845421 815404 772921 722208 667529 612815 561534 517149 
2119.530 482436 459777 449799 451292 460500 472045 479411 476834 459886 
2123.870 426829 377858 315405 242495 162878 79937 -3248 -84425 -162372 
2128.209 -237870 -313320 -393385 -483048 -586475 -704239 -831983 -959518 
2132.067 -1072581 -1155683 -1196570 -1190365 -1142095 -1066300 -983920 
2135.442 -916163 -879435 -880145 -914933 -971962 -1036464 -1094971 -1139797 
2139.300 -1169610 -1189138 -1205164 -1224470 -1250046 -1281072 -1313158 
2142.675 -1340286 -1356419 -1357459 -1339980 -1302598 -1244465 -1166108 
2146.050 -1070886 -966310 -865234 -785785 -748008 -770078 -862950 -1026459 
2149.907 -1247613 -1503287 -1764259 -2003200 -2199882 -2347572 -2452920 
2153.283 -2534889 -2618691 -2729566 -2884181 -3086043 -3320346 -3554413 
2156.658 -3739640 -3820192 -3745041 -3484435 -3043635 -2470819 -1847485 
2160.033 -1269532 -819477 -547939 -464616 -544145 -736000 -979278 -1214629 
2163.891 -1394345 -1488021 -1484724 -1390654 -1226218 -1019275 -801626 
2167.266 -603076 -449009 -356046 -331082 -369421 -457321 -574220 -698029 
2171.123 -809237 -895850 -953829 -987334 -1004886 -1016352 -1028484 -1044261 
2174.981 -1061646 -1077054 -1086729 -1089850 -1087952 -1086111 -1088741 
2178.356 -1098991 -1115781 -1134165 -1145227 -1138636 -1104678 -1038032 
2181.731 -939443 -817528 -686011 -562414 -461932 -394511 -361017 -355204 
2185.589 -364098 -373983 -373647 -358390 -329619 -293651 -258202 -228723 
2189.446 -206011 -187136 -166127 -138066 -100592 -55343 -6936 38753 77358 
2193.786 106375 126358 138779 145329 146723 143083 133981 120117 102699 
2198.125 83906 64576 44338 20312 -10503 -50293 -97508 -146498 -187111 
2202.465 -208416 -200894 -160227 -88656 5324 109590 211064 299815 369407 
2206.804 418076 447067 459255 457289 443839 421760 395589 371729 358532 
2211.144 364596 396353 455275 536585 628959 716792 783234 815373 807151 
2215.484 761806 690851 611152 539957 490188 466714 465634 476233 484953 
2219.823 480550 458315 421427 380384 349285 341890 367199 427714 518791 
2224.163 630916 751718 869166 973095 1056023 1112935 1141432 1140775 1112725 
2228.502 1061429 993781 918486 845497 783624 739445 715366 709956 718343 
2232.842 734165 750981 764667 773905 780872 789596 805070 830461 866441 
2237.182 909557 953333 989303 1009449 1007800 982528 935841 873643 803468 
2241.521 733173 668926 614967 572907 543157 525198 518575 522664 537011 
2245.861 560465 591446 627282 665290 702557 737032 767057 792004 811713 
2250.200 826495 836780 843655 848102 851836 856446 863625 874537 890075 
2254.540 910213 934542 962080 991683 1021724 1050509 1076145 1096859 1110881 
2258.880 1116970 1114013 1101802 1080220 1050275 1013430 972647 931615 
2262.737 895545 869912 860299 870638 902669 954932 1022929 1099535 1176553 
2267.077 1245873 1301468 1339733 1360287 1365439 1359592 1347742 1334828 
2270.934 1324572 1319369 1320008 1326332 1337658 1353518 1373527 1397814 
2274.792 1426161 1457940 1491274 1523621 1551533 1572074 1583126 1584543 
2278.649 1578059 1567176 1556428 1550395 1552795 1565853 1589925 1623665 
2282.506 1664106 1707619 1750169 1788470 1820226 1844732 1862657 1875931 
2286.364 1886826 1897317 1908447 1920116 1931119 1939806 1944469 1944036 
2290.221 1937938 1926397 1909808 1888850 1864173 1836684 1807418 1777654 
2294.079 1748707 1721581 1696516 1673218 1650906 1629099 1608039 1589279 
2297.936 1575202 1568524 1570996 1582710 1601624 1624073 1645661 1662782 
2301.793 1673545 1678247 1678862 1678267 1678797 1681562 1686030 1690476 
2305.651 1692663 1690997 1684930 1675488 1664761 1655413 1649850 1649688 
2309.508 1655113 1665192 1677799 1690530 1701086 1708009 1710874 1710428 
2313.366 1708079 1705612 1704478 1705715 1709807 1717016 1727343 1741041 
2317.223 1758207 1778806 1802624 1829453 1859603 1894544 1936813 1989704 
2321.081 2055381 2133305 2218249 2300062 2364782 2397716 2387104 2327622 
2324.938 2221713 2079647 1917097 1751919 1600570 1475031 1381046 1318148 
2328.795 1280875 1261337 1251445 1244920 1238103 1229712 1220262 1211091 
2332.653 1203559 1198778 1197273 1198969 1203200 1208733 1214002 1217535 
2336.510 1218327 1216298 1212136 1207276 1203079 1200473 1199630 1199995 
2340.368 1200729 1201219 1201427 1201714 1202653 1204479 1206604 1207937 
2344.225 1207172 1203308 1196441 1187652 1178711 1171434 1166947 1165354 
2348.083 1165632 1166124 1165206 1161634 1155029 1145673 1134219 1121627 
2351.940 1108787 1096685 1086194 1078118 1072893 1070448 1069982 1070146 
2355.797 1069363 1066434 1060735 1052611 1042914 1032709 1022698 1012881 
2359.655 1002618 990948 977189 961128 943152 924193 905120 886689 869249 
2363.994 853101 838441 825744 815578 808476 804516 803328 804124 806099 
2368.334 808722 812209 817241 824696 834934 847601 861430 874625 885457 
2372.674 892995 897261 899253 900427 902213 905389 910067 915708 921582 
2377.013 926887 931192 934203 935967 936642 936728 936942 938270 941788 
2381.353 948324 958106 970609 984481 998153 1010110 1019528 1026150 1030444 
2385.692 1032992 1034286 1034376 1033266 1030862 1027467 1023742 1020439 
2389.550 1018039 1016525 1015138 1013055 1009643 1005173 1000838 998462 
2393.407 999808 1005751 1015807 1028311 1040742 1050669 1056463 1057686 
2397.265 1054866 1049204 1042047 1034639 1027895 1022770 1020036 1020297 
2401.122 1023603 1029305 1035749 1040974 1043217 1041923 1038037 1033981 
2404.979 1032828 1037180 1048024 1064366 1083344 1101349 1115115 1122985 
2408.837 1124984 1122805 1118793 1115231 1113509 1113957 1116046 1118789 
2412.694 1121041 1121790 1120187 1115633 1107706 1096590 1082997 1068373 
2416.552 1054497 1043270 1035930 1033054 1034231 1038549 1044942 1052754 
2420.409 1061729 1072247 1084529 1098836 1114700 1131271 1147136 1161021 
2424.267 1171428 1177429 1178183 1173565 1163866 1150173 1134167 1118084 
2428.124 1103899 1093175 1086252 1082540 1080518 1078544 1075543 1071370 
2431.981 1066650 1062482 1059541 1057902 1056654 1054542 1050497 1044479 
2435.839 1037343 1030758 1026177 1024423 1025009 1026696 1027927 1028057 
2439.696 1027566 1028267 1032259 1041186 1055035 1072039 1089125 1102867 
2443.554 1110857 1112443 1108586 1101593 1093722 1086569 1080494 1074917 
2447.411 1069100 1063044 1057567 1054694 1056385 1064029 1077384 1094576 
2451.269 1112460 1127660 1137449 1140687 1137863 1130831 1122014 1113515 
2455.126 1106624 1101637 1097948 1094702 1091026 1086552 1081352 1075771 
2458.983 1070205 1064933 1060080 1055644 1051758 1049000 1048167 1050473 
2462.841 1056917 1067922 1082974 1100425 1117572 1131253 1138542 1137459 
2466.698 1127671 1110562 1088914 1066502 1046920 1032842 1025658 1025222 
2470.556 1030058 1038113 1047022 1054786 1059997 1061792 1059872 1054632 
2474.413 1046915 1038433 1031274 1028013 1030847 1041190 1058881 1082079 
2478.271 1107191 1129837 1145755 1152056 1147978 1135243 1117595 1099827 
2482.128 1086267 1079789 1080864 1087598 1096190 1102315 1102205 1094000 
2485.985 1078196 1057780 1037334 1022051 1015984 1021266 1037331 1061126 
2489.843 1087935 1112726 1131303 1141607 1143822 1140163 1133698 1127590 
2493.700 1123667 1122315 1122390 1122147 1119858 1114693 1106995 1098056 
2497.558 1089659 1083390 1080272 1080681 1084478 1091480 1101382 1114050 
2501.415 1128936 1144977 1160339 1172766 1180010 1180807 1175432 1165910 
2505.272 1155522 1147732 1145108 1148300 1155681 1163940 1169162 1168286 
2509.130 1160234 1146482 1130450 1116547 1108651 1108822 1116829 1130038 
2512.987 1144667 1156837 1163726 1164269 1159086 1150161 1139675 1129557 
2516.845 1120801 1113719 1107822 1102851 1098729 1095963 1095347 1097648 
2520.702 1103080 1111240 1120939 1130415 1137962 1142343 1143026 1140608 
2524.560 1136474 1132498 1130364 1131188 1135067 1140934 1146974 1151153 
2528.417 1151847 1148561 1142014 1134169 1127465 1124080 1125065 1129966 
2532.274 1136683 1142334 1143993 1139758 1129345 1114272 1097413 1082307 
2536.132 1072161 1069335 1074775 1088072 1107711 1131457 1156526 1180199 
2539.989 1199784 1213168 1219041 1217340 1209243 1197168 1184083 1173202 
2543.847 1166788 1165970 1170350 1178370 1187681 1195922 1201104 1202023 
2547.704 1198163 1189881 1178132 1164493 1151029 1140183 1134414 1135695 
2551.562 1144921 1161533 1183479 1207626 1230394 1248861 1261269 1267551 
2555.419 1268930 1267456 1264988 1262878 1261351 1259875 1257523 1253516 
2559.276 1247664 1240592 1233277 1226999 1222794 1221299 1222550 1226326 
2563.134 1231897 1238716 1245951 1252931 1258864 1263271 1265838 1266773 
2566.991 1266650 1266552 1267461 1270204 1274970 1281306 1288308 1295166 
2570.849 1301355 1307271 1313965 1323025 1335806 1352831 1373387 1395518 
2574.706 1416407 1433264 1443889 1447540 1444983 1438195 1429875 1422763 
2578.563 1418936 1419798 1425760 1436623 1451658 1469724 1489394 1508798 
2582.421 1525783 1538317 1544818 1544689 1538606 1528544 1517282 1507656 
2586.278 1501850 1500636 1503114 1507087 1509593 1507970 1500548 1487272 
2590.136 1469680 1450650 1433668 1421926 1417677 1421733 1433343 1450512 
2593.993 1470467 1490547 1508563 1523329 1534631 1543009 1549341 1554331 
2597.851 1558389 1561524 1563455 1564130 1563782 1563024 1562676 1563446 
2601.708 1565606 1568842 1572299 1574960 1575846 1574546 1571180 1566412 
2605.565 1561223 1556758 1554122 1554269 1557982 1565628 1577021 1591364 
2609.423 1606950 1621675 1633258 1640036 1641524 1638632 1633613 1629330 
2613.280 1628489 1632752 1642306 1655934 1671530 1686860 1700105 1710530 
2617.138 1718116 1723434 1727168 1729953 1732131 1734177 1736567 1740060 
2620.995 1745354 1752775 1762025 1772065 1781306 1788158 1791534 1791324 
2624.853 1788385 1784242 1780363 1777739 1776527 1775987 1775039 1772853 
2628.710 1769304 1765063 1761529 1760188 1762113 1767456 1775377 1784498 
2632.567 1793180 1800217 1805280 1808882 1812272 1816906 1823866 1833588 
2636.425 1845543 1858524 1870819 1880818 1887284 1889744 1888472 1884505 
2640.282 1879139 1873844 1869659 1867260 1866782 1867799 1869715 1871810 
2644.140 1873443 1874212 1873912 1872561 1870211 1867014 1863022 1858351 
2647.997 1853037 1847337 1841574 1836272 1832011 1829329 1828627 1829861 
2651.854 1832559 1835857 1838521 1839267 1837019 1831089 1821529 1808875 
2655.712 1794260 1779016 1764421 1751530 1740789 1732031 1724548 1717233 
2659.569 1708878 1698419 1685193 1669200 1650824 1631004 1610635 1590530 
2663.427 1571048 1552268 1533950 1515977 1498474 1482131 1467860 1456708 
2667.284 1449230 1445268 1443739 1442917 1440930 1436318 1428660 1418616 
2671.142 1407746 1397984 1390933 1387358 1387034 1388880 1391579 1393982 
2674.999 1395596 1396638 1397589 1398936 1400768 1402600 1403509 1402746 
2678.856 1399899 1395363 1390231 1385827 1383316 1383161 1384947 1387498 
2682.714 1389259 1388834 1385421 1379010 1370330 1360522 1350756 1341933 
2686.571 1334493 1328555 1323957 1320484 1318036 1316579 1316148 1316753 
2690.429 1318315 1320625 1323341 1326032 1328227 1329440 1329290 1327415 
2694.286 1323743 1318409 1311899 1304908 1298250 1292709 1288811 1286782 
2698.144 1286524 1287820 1290302 1293698 1297873 1302601 1307684 1312615 
2702.001 1316805 1319721 1320925 1320481 1318823 1316811 1315297 1314933 
2705.858 1315847 1317750 1319899 1321567 1322256 1322047 1321384 1320993 
2709.716 1321518 1323243 1325912 1328855 1331227 1332318 1331827 1329828 
2713.573 1326873 1323689 1321023 1319411 1319199 1320526 1323299 1327339 
2717.431 1332210 1337291 1341819 1344973 1346068 1344812 1341422 1336572 
2721.288 1331310 1326758 1323737 1322622 1323303 1325299 1327934 1330652 
2725.146 1333134 1335269 1337140 1338830 1340346 1341625 1342520 1342977 
2729.003 1343013 1342756 1342353 1341968 1341683 1341499 1341379 1341378 
2732.860 1341651 1342318 1343379 1344661 1345604 1345566 1343924 1340383 
2736.718 1335282 1329593 1324727 1322200 1323111 1327923 1336051 1346285 
2740.575 1356991 1366536 1373787 1378210 1379877 1379292 1377098 1373827 
2744.433 1369855 1365506 1361035 1356793 1353285 1350918 1350013 1350563 
2748.290 1352311 1354731 1357263 1359417 1360909 1361774 1362161 1362233 
2752.147 1362094 1361705 1360957 1359654 1357649 1354989 1351782 1348427 
2756.005 1345209 1342508 1340517 1339226 1338361 1337431 1335880 1333202 
2759.862 1329163 1324217 1319112 1315032 1313189 1314288 1318368 1324568 
2763.720 1331252 1336596 1339145 1338119 1333858 1327567 1320922 1315581 
2767.577 1312584 1312331 1314368 1317880 1321793 1325159 1327329 1327904 
2771.435 1326733 1323992 1320155 1316056 1312820 1311646 1313500 1318672 
2775.292 1326609 1335961 1344797 1351226 1353945 1352682 1348086 1341664 
2779.149 1335156 1330089 1327405 1327421 1329821 1333994 1339164 1344626 
2783.007 1349689 1353961 1357068 1358964 1359908 1360480 1361378 1363350 
2786.864 1366789 1371714 1377744 1384336 1391071 1397893 1404942 1412695 
2790.722 1421442 1431167 1441354 1451218 1459999 1467257 1473095 1478006 
2794.579 1482694 1487647 1492920 1498242 1503022 1506846 1509668 1511796 
2798.437 1513840 1516307 1519377 1522813 1526195 1529098 1531391 1533432 
2802.294 1535708 1538793 1542783 1547263 1551443 1554487 1555987 1556189 
2806.151 1556183 1557373 1561183 1568433 1579135 1592454 1607060 1621541 
2810.009 1634736 1646115 1655621 1663628 1670695 1677311 1683891 1690654 
2813.866 1697646 1704801 1711921 1718685 1724722 1729825 1733832 1736969 
2817.724 1739842 1743283 1748195 1755477 1765644 1778885 1794864 1812928 
2821.581 1832110 1851350 1869573 1885858 1899538 1910315 1918274 1923830 
2825.438 1927629 1930412 1932863 1935610 1938976 1943351 1948967 1956117 
2829.296 1964994 1975704 1988019 2001379 2015002 2028068 2039938 2050476 
2833.153 2060189 2070097 2081507 2095645 2113211 2134168 2157746 2182752 
2837.011 2207848 2232029 2254959 2277010 2299224 2322889 2349298 2379358 
2840.868 2413447 2451600 2493620 2539417 2589304 2643801 2703818 2770342 
2844.726 2844146 2925847 3015571 3113173 3217961 3328725 3443291 3558575 
2848.583 3670290 3773384 3862463 3932684 3980651 4005041 4006703 3988449 
2852.440 3954197 3908100 3853793 3793895 3730099 3663420 3594643 3524732 
2856.298 3454924 3386573 3321075 3259382 3202169 3149596 3101487 3057575 
2860.155 3017383 2980384 2946014 2913730 2883092 2853995 2826594 2801527 
2864.013 2779592 2761709 2748713 2741353 2740261 2746033 2759138 2779865 
2867.870 2808057 2842865 2882577 2924903 2967346 3007956 3045678 3080742 
2871.728 3114549 3149069 3186256 3227422 3272935 3322246 3374203 3427393 
2875.585 3480535 3532463 3582035 3628238 3669897 3706094 3736120 3759914 
2879.442 3777906 3790922 3799701 3804647 3805579 3802062 3793603 3780258 
2883.300 3762912 3743311 3723517 3705413 3690320 3678382 3668993 3661057 
2887.157 3653671 3646431 3639790 3634792 3632541 3634014 3639391 3648240 
2891.015 3659470 3671848 3684083 3695356 3705270 3713965 3721951 3730148 
2894.872 3739494 3750918 3765224 3782731 3803212 3826080 3850224 3874579 
2898.729 3898184 3920512 3941553 3961592 3981085 4000380 4019454 4038072 
2902.587 4055922 4072986 4089661 4107018 4126551 4149773 4177892 4211432 
2906.444 4249970 4292648 4338275 4386037 4435909 4488590 4545609 4608560 
2910.302 4678806 4756934 4842711 4935375 5033830 5137496 5245990 5359535 
2914.159 5478259 5601886 5729088 5857480 5983884 6104919 6217650 6320306 
2918.017 6412469 6495028 6569404 6637051 6698755 6754254 6802360 6841293 
2921.874 6869379 6885589 6889976 6883802 6869209 6848908 6825586 6801514 
2925.731 6778227 6756633 6737184 6720010 6705400 6693712 6685394 6680889 
2929.589 6680373 6683733 6690677 6700989 6714746 6732514 6755430 6784969 
2933.446 6822459 6869061 6925323 6991395 7067185 7152681 7248240 7354382 
2937.304 7471592 7600023 7738922 7886725 8040917 8198487 8356166 8510610 
2941.161 8658665 8797259 8923354 9034176 9127418 9201521 9255966 9291090 
2945.019 9307868 9307273 9289765 9255107 9202503 9131310 9041445 8934444 
2948.876 8813057 8681133 8542722 8401131 8258337 8114992 7970796 7825292 
2952.733 7678631 7531977 7387456 7247736 7115169 6991208 6876337 6769697 
2956.591 6669749 6574662 6482769 6392922 6304510 6217582 6132577 6050244 
2960.448 5971246 5896411 5826051 5760357 5699168 5642165 5588921 5539137 
2964.306 5492626 5449334 5409005 5371359 5335669 5301155 5266915 5232419 
2968.163 5197633 5163030 5129511 5098128 5069763 5045069 5024188 5007123 
2972.021 4993758 4984025 4978056 4975893 4977438 4982321 4989809 4999111 
2975.878 5009606 5021275 5034844 5051927 5074671 5105472 5146150 5197661 
2979.735 5259697 5330876 5409148 5492584 5579790 5670818 5766888 5870329 
2983.593 5983863 6109812 6249515 6403107 6569694 6747760 6935769 7132482 
2987.450 7336877 7547961 7764152 7982971 8200883 8413797 8617478 8808475 
2991.308 8984410 9144096 9287139 9413557 9523018 9614918 9688171 9741864 
2995.165 9775533 9789369 9784438 9762134 9723820 9670602 9602951 9521005 
2999.022 9424684 9314112 9189978 9053520 8906476 8750916 8588984 8422767 
3002.880 8254061 8084264 7914328 7744879 7576136 7408193 7241140 7075228 
3006.737 6910862 6748689 6589150 6432585 6278898 6127811 5978743 5831434 
3010.595 5685800 5542258 5401337 5263672 5129544 4998832 4871173 4746073 
3014.452 4623187 4502630 4384905 4270822 4161156 4056372 3956554 3861270 
3018.310 3769876 3681767 3596404 3513762 3433919 3357336 3284343 3215196 
3022.167 3149930 3088325 3030011 2974522 2921364 2870301 2821054 2773663 
3026.024 2728106 2684291 2641970 2600846 2560480 2520737 2481863 2444675 
3029.882 2410400 2380345 2355419 2335816 2320494 2307571 2294635 2279334 
3033.739 2260124 2236554 2209362 2180204 2150941 2123341 2098590 2077025 
3037.597 2058330 2041891 2026858 2012519 1998411 1984454 1970964 1958422 
3041.454 1947626 1939128 1933166 1929298 1926422 1922900 1917177 1908146 
3045.312 1895776 1881254 1866555 1854095 1845634 1841892 1842102 1844452 
3049.169 1846587 1846500 1843308 1837245 1829725 1822747 1818114 1816966 
3053.026 1819427 1824894 1831902 1838973 1844652 1847879 1847975 1844960 
3056.884 1839233 1831759 1823872 1816907 1811964 1809639 1809801 1811649 
3060.741 1814103 1816168 1817431 1818005 1818652 1820193 1822929 1826591 
3064.599 1829957 1831408 1829462 1823344 1813444 1801276 1788909 1778394 
3068.456 1771122 1767567 1767082 1768576 1770926 1773338 1775525 1777495 
3072.313 1779167 1780116 1779518 1776402 1770189 1761166 1750746 1741213 
3076.171 1735063 1734282 1739377 1749164 1760949 1771354 1777172 1776520 
3080.028 1769188 1756775 1742002 1727950 1717039 1710615 1708545 1709712 
3083.886 1712225 1714315 1714479 1711900 1706358 1698267 1688207 1677087 
3087.743 1665934 1655845 1647888 1642995 1641853 1644711 1651177 1660362 
3091.601 1670940 1681553 1690811 1697892 1702424 1704547 1704730 1703469 
3095.458 1701075 1697476 1692442 1685650 1676997 1666970 1656629 1647511 
3099.315 1641198 1638865 1640877 1646498 1654160 1661814 1667515 1669949 
3103.173 1668752 1664524 1658452 1651847 1645678 1640268 1635241 1629911 
3107.030 1623485 1615766 1606919 1597883 1590021 1584577 1582383 1583723 
3110.888 1587942 1593778 1599586 1603914 1605738 1604995 1602206 1598622 
3114.745 1595560 1594125 1594456 1596029 1597655 1597955 1595923 1591372 
3118.603 1585157 1578931 1574490 1573363 1576117 1582271 1590249 1597967 
3122.460 1603594 1605894 1604550 1600409 1594843 1589611 1586147 1585418 
3126.317 1587664 1592552 1599214 1606465 1613194 1618404 1621424 1622009 
3130.175 1620360 1617082 1613038 1609160 1606310 1605066 1605544 1607598 
3134.032 1610693 1614303 1617842 1621013 1623660 1625771 1627409 1628585 
3137.890 1629330 1629590 1629378 1628891 1628446 1628612 1629779 1632167 
3141.747 1635567 1639253 1642066 1642771 1640451 1634988 1627257 1619092 
3145.604 1612643 1610032 1612336 1619314 1629144 1639179 1646334 1648403 
3149.462 1644684 1636170 1625350 1615373 1609049 1607837 1611697 1619004 
3153.319 1627254 1634271 1638720 1640631 1641368 1642910 1647003 1654516 
3157.177 1665039 1677122 1688628 1697711 1703131 1704737 1703026 1698854 
3161.034 1692921 1685470 1676288 1665174 1652265 1638430 1625271 1614751 
3164.892 1608504 1607402 1611107 1618188 1626524 1634173 1639966 1643849 
3168.749 1647052 1651447 1658895 1670660 1686844 1706268 1726860 1745972 
3172.606 1761333 1771281 1775331 1774141 1769190 1762448 1755693 1750141 
3176.464 1746133 1743296 1740607 1737065 1732018 1725487 1718048 1710746 
3180.321 1704583 1700254 1697993 1697578 1698636 1700815 1703913 1707887 
3184.179 1712525 1717410 1721613 1724267 1724507 1722170 1717823 1712875 
3188.036 1709050 1707960 1710615 1717271 1727205 1739240 1751815 1763420 
3191.894 1772523 1777943 1778630 1774248 1765116 1752671 1739193 1727407 
3195.751 1719778 1717710 1721058 1728257 1736778 1744186 1748891 1750722 
3199.608 1750675 1750359 1751213 1753818 1757788 1762243 1766377 1770029 
3203.466 1773735 1778345 1784474 1791970 1799631 1805798 1809115 1809021 
3207.323 1806300 1802739 1800178 1799921 1801872 1804835 1806885 1806628 
3211.181 1803698 1799259 1795443 1794677 1798570 1807317 1819693 1833508 
3215.038 1846508 1857095 1864770 1870083 1874241 1878422 1883458 1889598 
3218.896 1896476 1903431 1909761 1914893 1918414 1920249 1920406 1919135 
3222.753 1916770 1913788 1910674 1907917 1905722 1904306 1903551 1903283 
3226.610 1903166 1902887 1902109 1900605 1898297 1895436 1892606 1890665 
3230.468 1890514 1892879 1897828 1904840 1912583 1919503 1924176 1925864 
3234.325 1924544 1921028 1916576 1912384 1909267 1907639 1907553 1908925 
3238.183 1911841 1916574 1923376 1932237 1942614 1953441 1963227 1970380 
3242.040 1973756 1972938 1968198 1960699 1951956 1943690 1937493 1934565 
3245.897 1935616 1940833 1949726 1961590 1975260 1989687 2003902 2017150 
3249.755 2028743 2038090 2044369 2046891 2045227 2039660 2031555 2023229 
3253.612 2017504 2017048 2023090 2035238 2051101 2067156 2079703 2086077 
3257.470 2085433 2078819 2068654 2057850 2048688 2042527 2039530 2039207 
3261.327 2040758 2043416 2046570 2049559 2051650 2052085 2050248 2046217 
3265.185 2041020 2036404 2034334 2036347 2042731 2052478 2063360 2072939 
3269.042 2079213 2081454 2080167 2077032 2073962 2072739 2074486 2079522 
3272.899 2087608 2098119 2109986 2121881 2132094 2138797 2140325 2135923 
3276.757 2125900 2112151 2097494 2085172 2077762 2076723 2081880 2091912 
3280.614 2104784 2118421 2131037 2141406 2148522 2151719 2150511 2145039 
3284.472 2136230 2126181 2117787 2114341 2118419 2131154 2151644 2177308 
3288.329 2204456 2229336 2249147 2262587 2269940 2272666 2272777 2272135 
3292.187 2272102 2273277 2275606 2278578 2281462 2283515 2284060 2282741 
3296.044 2279435 2274343 2267861 2260556 2252995 2245675 2239164 2233873 
3299.901 2230302 2228807 2229510 2232079 2235717 2239110 2240960 2240209 
3303.759 2236556 2230622 2223708 2217371 2212845 2210576 2210052 2210030 
3307.616 2209061 2205833 2199631 2190456 2178607 2164684 2149212 2132700 
3311.474 2115764 2099324 2084497 2072606 2064678 2061214 2061848 2065646 
3315.331 2071095 2076812 2081618 2085109 2087152 2088180 2088550 2088843 
3319.188 2089526 2091135 2094050 2098563 2104550 2111500 2118296 2123720 
3323.046 2126621 2126337 2122912 2117128 2110293 2103846 2098918 2096438 
3326.903 2096820 2100245 2106445 2115086 2125354 2136229 2146425 2154777 
3330.761 2160465 2163422 2164262 2164183 2164384 2165684 2167925 2170291 
3334.618 2171446 2170257 2166274 2160136 2153335 2147676 2144698 2145008 
3338.476 2147922 2151803 2154415 2153738 2148534 2138801 2125707 2111454 
3342.333 2098455 2088859 2084058 2084123 2088066 2093965 2099541 2102846 
3346.190 2102699 2099144 2093168 2086505 2080875 2077405 2076342 2076888 
3350.048 2077728 2077520 2075319 2071157 2065812 2060577 2056761 2055164 
3353.905 2055944 2058493 2061856 2065039 2067354 2068576 2068907 2068809 
3357.763 2068542 2068230 2067556 2065968 2062832 2057731 2050563 2041777 
3361.620 2032176 2022822 2014662 2008422 2004337 2002127 2001115 2000520 
3365.478 1999676 1998267 1996393 1994599 1993482 1993620 1995274 1998344 
3369.335 2002409 2006929 2011326 2015339 2018888 2022235 2025583 2029226 
3373.192 2033075 2037003 2040514 2043266 2044884 2045313 2044765 2043696 
3377.050 2042570 2041863 2041576 2041617 2041647 2041212 2040072 2038217 
3380.907 2035975 2033721 2031841 2030404 2029080 2027243 2024088 2019068 
3384.765 2011818 2002656 1992014 1980766 1969585 1959072 1949444 1940861 
3388.622 1933413 1927169 1922141 1918466 1916133 1914937 1914663 1915072 
3392.479 1915913 1917233 1918998 1921276 1924032 1927052 1930050 1932774 
3396.337 1935113 1937064 1938935 1941035 1943524 1946458 1949473 1952010 
3400.194 1953348 1952837 1949848 1944198 1936102 1926074 1915222 1904812 
3404.052 1896206 1890430 1887956 1888589 1891233 1894519 1896959 1897457 
3407.909 1895484 1891360 1885713 1879493 1873352 1867918 1863387 1860195 
3411.767 1858889 1860285 1865243 1874359 1887590 1904046 1922055 1939304 
3415.624 1953256 1961789 1963076 1956297 1941441 1919641 1893078 1865009 
3419.481 1839198 1819451 1808683 1808215 1817386 1833561 1853061 1871994 
3423.339 1887454 1898210 1904441 1907445 1908725 1908947 1907940 1904666 
3427.196 1897861 1886868 1872031 1854776 1837299 1821901 1810412 1803901 
3431.054 1802544 1805916 1812961 1822379 1832548 1841685 1848003 1850278 
3434.911 1848049 1842051 1834082 1826605 1821732 1820731 1823384 1828184 
3438.769 1832869 1835375 1834617 1831113 1826500 1823132 1823075 1827337 
3442.626 1835445 1845657 1855503 1862602 1865382 1863436 1857813 1850363 
3446.483 1843547 1839516 1839449 1843523 1850547 1858453 1864800 1867629 
3450.341 1865946 1860013 1851359 1842169 1834507 1829760 1828244 1829252 
3454.198 1831558 1834004 1835928 1837390 1838979 1841381 1844965 1849583 
3458.056 1854574 1859032 1862180 1863554 1863141 1861137 1857751 1853237 
3461.913 1847875 1842129 1836717 1832710 1831304 1833372 1839298 1848677 
3465.771 1860559 1873597 1886604 1898895 1910410 1921464 1932638 1944340 
3469.628 1956512 1968757 1980250 1990244 1998038 2003269 2005996 2006683 
3473.485 2006273 2006050 2007542 2012207 2021110 2034510 2051732 2070970 
3477.343 2089759 2105472 2115954 2120116 2118131 2111444 2102161 2092676 
3481.200 2085002 2080402 2079322 2081435 2086146 2092894 2101272 2111279 
3485.058 2123245 2137628 2154617 2174203 2195706 2218110 2239995 2260036 
3488.915 2277186 2291045 2301997 2311051 2319778 2329672 2342036 2357553 
3492.772 2376251 2397471 2420136 2443009 2464880 2484854 2502256 2516874 
3496.630 2528623 2537655 2544180 2548808 2552012 2554663 2557750 2562101 
3500.487 2568198 2576007 2584374 2591610 2595426 2593835 2585785 2571796 
3504.345 2554107 2536287 2522289 2515385 2516947 2525987 2539366 2552632 
3508.202 2561268 2562141 2554075 2538345 2517682 2495610 2475190 2458302 
3512.060 2445419 2435727 2427890 2420535 2412718 2404165 2395007 2385540 
3515.917 2376106 2366776 2357326 2347389 2336633 2324998 2312711 2300303 
3519.774 2288615 2278581 2270806 2265576 2262464 2260429 2257978 2253454 
3523.632 2245553 2233455 2217054 2196930 2173924 2149079 2123260 2097308 
3527.489 2071921 2047906 2026329 2008397 1995249 1987654 1985911 1989466 
3531.347 1996872 2006179 2015097 2021444 2023547 2020703 2013433 2003408 
3535.204 1993144 1985525 1982639 1985188 1991941 1999930 2005084 2003528 
3539.062 1992789 1972759 1945717 1915953 1888278 1866882 1854261 1850854 
3542.919 1855395 1865617 1879242 1894369 1909573 1923820 1935847 1944260 
3546.776 1947500 1944372 1934412 1918355 1897843 1875115 1852276 1831125 
3550.634 1812590 1797254 1785320 1777109 1773029 1773269 1777631 1785305 
3554.491 1794685 1803901 1810868 1814284 1813457 1808719 1801046 1791762 
3558.349 1782273 1773616 1766437 1760915 1756620 1752896 1748909 1743919 
3562.206 1737793 1731009 1724654 1720195 1718971 1721544 1727427 1735139 
3566.063 1742530 1747701 1749312 1747265 1742444 1736283 1730145 1724937 
3569.921 1720840 1717760 1715551 1714491 1715093 1717970 1723145 1729902 
3573.778 1736804 1741961 1743920 1742167 1737358 1731051 1724897 1720132 
3577.636 1716721 1713692 1709380 1702393 1692119 1679121 1664730 1650708 
3581.493 1638315 1628185 1619913 1612730 1605570 1597736 1589049 1579747 
3585.351 1570324 1561571 1554220 1549196 1547495 1549937 1556869 1567911 
3589.208 1581708 1596026 1608222 1616034 1617802 1613294 1603362 1589676 
3593.065 1573980 1557944 1542506 1528281 1515557 1504694 1496138 1490529 
3596.923 1488142 1489147 1492957 1498754 1505348 1511546 1516228 1518346 
3600.780 1517008 1511561 1501702 1488083 1472292 1456824 1444619 1438268 
3604.638 1439135 1446609 1458028 1469486 1476799 1476683 1467856 1451401 
3608.495 1430299 1408385 1389425 1376072 1369619 1370007 1376370 1387516 
3612.353 1401986 1418478 1435412 1451131 1463882 1472648 1477016 1477866 
3616.210 1476890 1476216 1477501 1481631 1487988 1495085 1501264 1505411 
3620.067 1507658 1509518 1513147 1520703 1533301 1550413 1570004 1588972 
3623.925 1604126 1613244 1615376 1611623 1604167 1596066 1590233 1589012 
3627.782 1593376 1603084 1616621 1631645 1645484 1655790 1661079 1660960 
3631.640 1656292 1648875 1640824 1634255 1630604 1630394 1633397 1638846 
3635.497 1645819 1653779 1662460 1672094 1682876 1694928 1707923 1721299 
3639.354 1734278 1746250 1756823 1766021 1774197 1781814 1789104 1796250 
3643.212 1802922 1808667 1812778 1814777 1814540 1812508 1809852 1808319 
3647.069 1809829 1816180 1828170 1845532 1866595 1888523 1908232 1922856 
3650.927 1930701 1931433 1926042 1916400 1904477 1891928 1879902 1869162 
3654.784 1860182 1853725 1850735 1852180 1858810 1870629 1886731 1905599 
3658.642 1925136 1943429 1958857 1970434 1977620 1980423 1979013 1974176 
3662.499 1967027 1959165 1952455 1948669 1948754 1952489 1958118 1962901 
3666.356 1963626 1957858 1944511 1924717 1901292 1877962 1858738 1846374 
3670.214 1842262 1846170 1857069 1874077 1897110 1927420 1967057 2017794 
3674.071 2079710 2149994 2222142 2286658 2332801 2350944 2335131 2284916 
3677.929 2205605 2107195 2001786 1901229 1814237 1745093 1693696 1656511 
3681.786 1628776 1606338 1586695 1569452 1555250 1544989 1538831 1535914 
3685.644 1534524 1533011 1529907 1524557 1516715 1506280 1492772 1475870 
3689.501 1455350 1432200 1408283 1386707 1370617 1362395 1362967 1371302 
3693.358 1384922 1400842 1416373 1429860 1440571 1448432 1453341 1455125 
3697.216 1453461 1448471 1441155 1433553 1428089 1426804 1430342 1437332 
3701.073 1444708 1448633 1445802 1434826 1416594 1394065 1371373 1352452 
3704.931 1340139 1335832 1339287 1349293 1363972 1381047 1397954 1412067 
3708.788 1420779 1422253 1415705 1401963 1383532 1363708 1345842 1332288 
3712.646 1324028 1320566 1320538 1322633 1326118 1330844 1337074 1344796 
3716.503 1353227 1361090 1366769 1369307 1368689 1366083 1363228 1361826 
3720.360 1362500 1364852 1367379 1368489 1367074 1363308 1358422 1354368 
3724.218 1352988 1355303 1361254 1369870 1379609 1388916 1396656 1402168 
3728.075 1405303 1406294 1405591 1404066 1402814 1403070 1405832 1411414 
3731.933 1419117 1427497 1434319 1437886 1437323 1433140 1427008 1421387 
3735.790 1418324 1418906 1422824 1428566 1434297 1438469 1440491 1440914 
3739.647 1441088 1442299 1445323 1449974 1455039 1458729 1459355 1455827 
3743.505 1448143 1437654 1426525 1417434 1412722 1413692 1420360 1431250 
3747.362 1443747 1455096 1462902 1466085 1465271 1462463 1460269 1460946 
3751.220 1465234 1472171 1479147 1483113 1481585 1473706 1460717 1445480 
3755.077 1431420 1421511 1417074 1418035 1422599 1428395 1433314 1436022 
3758.935 1436295 1434657 1432013 1429319 1427265 1426417 1427165 1429976 
3762.792 1434939 1442116 1450680 1459624 1467248 1472320 1473969 1472458 
3766.649 1468919 1465241 1463363 1464898 1470389 1479486 1490854 1502780 
3770.507 1513425 1521499 1526159 1527338 1525414 1520978 1514712 1507157 
3774.364 1498566 1489342 1479851 1470952 1463717 1459535 1459532 1464176 
3778.222 1472800 1483587 1493746 1500305 1501091 1495329 1484218 1470589 
3782.079 1458184 1450506 1449755 1456301 1468390 1482999 1496450 1505956 
3785.937 1509655 1507416 1500175 1489768 1477889 1465894 1454379 1443456 
3789.794 1432810 1422187 1411625 1401594 1392840 1386340 1382892 1382967 
3793.651 1386514 1392965 1401346 1410578 1419611 1427821 1434778 1440671 
3797.509 1445690 1450139 1454144 1457681 1460368 1461671 1460929 1457468 
3801.366 1450754 1440531 1426850 1410574 1393063 1376324 1362493 1353591 
3805.224 1350814 1354227 1362510 1373314 1383753 1391205 1393989 1391862 
3809.081 1385828 1377985 1370548 1365668 1364491 1367274 1373165 1380815 
3812.938 1388505 1394950 1399305 1401675 1402808 1404018 1406541 1411309 
3816.796 1418286 1426744 1435166 1442072 1446198 1447312 1445823 1442864 
3820.653 1439714 1437022 1434802 1432365 1428649 1423042 1415620 1407454 
3824.511 1400284 1396128 1396521 1402245 1412906 1427189 1443191 1458764 
3828.368 1471667 1480158 1482803 1479033 1468990 1453964 1435875 1417272 
3832.226 1400356 1386882 1377336 1371426 1368192 1366660 1366499 1368106 
3836.083 1372391 1380357 1392464 1408448 1427298 1447642 1468289 1488379 
3839.940 1507359 1524587 1538957 1548733 1551818 1546462 1532072 1509712 
3843.798 1482134 1453306 1427187 1406950 1394252 1389171 1390463 1396383 
3847.655 1404991 1414759 1424285 1432477 1438329 1440967 1439938 1435511 
3851.513 1428457 1420205 1412171 1405679 1401581 1400314 1402124 1407194 
3855.370 1415717 1427722 1442385 1458277 1473066 1484353 1490174 1489819 
3859.228 1484045 1474993 1465127 1456665 1450743 1447285 1445426 1444200 
3863.085 1443257 1442947 1444044 1447297 1452658 1459156 1465113 1468889 
3866.942 1469524 1467161 1462974 1458645 1455581 1454379 1454534 1454884 
3870.800 1454224 1452012 1448285 1444092 1440713 1439132 1439648 1441989 
3874.657 1445289 1448550 1451036 1452499 1452887 1452355 1450929 1448414 
3878.515 1444356 1438404 1430196 1420041 1408601 1397055 1386791 1379364 
3882.372 1375697 1376257 1380566 1387380 1395026 1401805 1406574 1408982 
3886.229 1409468 1409357 1409584 1410967 1413467 1416539 1419483 1422154 
3890.087 1424982 1429214 1436178 1446798 1460712 1476373 1491103 1502077 
3893.944 1507092 1505326 1497388 1485178 1471091 1457484 1446009 1437827 
3897.802 1433473 1433286 1437449 1446109 1458876 1474867 1492246 1508835 
3901.659 1522221 1530406 1532147 1527313 1516461 1501080 1482851 1463705 
3905.517 1445393 1429610 1417569 1410174 1407659 1409621 1415188 1423146 
3909.374 1432308 1441708 1450901 1459810 1468538 1477138 1485270 1492280 
3913.231 1497173 1498848 1496469 1489496 1478112 1463246 1446427 1429763 
3917.089 1415438 1405587 1401350 1402936 1409157 1417802 1425965 1430987 
3920.946 1431098 1426046 1416997 1406439 1397190 1391661 1391137 1395503 
3924.804 1403121 1411752 1418876 1422723 1422675 1419202 1413734 1408147 
3928.661 1404080 1402586 1403874 1407341 1412110 1417155 1421900 1426265 
3932.519 1430394 1434709 1439261 1443644 1447133 1448888 1448146 1444812 
3936.376 1439202 1432131 1424439 1416866 1409921 1404028 1399674 1397726 
3940.233 1399016 1404202 1412866 1423428 1433085 1438490 1436927 1427550 
3944.091 1411927 1393929 1378709 1371024 1373405 1385489 1403680 1422749 
3947.948 1437233 1443754 1441635 1433603 1424106 1418156 1419161 1428033 
3951.806 1442849 1459704 1473883 1481712 1481378 1473497 1460528 1446051 
3955.663 1433196 1424119 1419164 1417248 1416562 1415227 1412278 1407835 
3959.521 1402980 1398958 1396681 1396084 1396201 1395789 1393815 1390556 
3963.378 1387310 1386366 1389845 1398834 1412607 1428716 1443718 1454430 
3967.235 1458941 1457382 1451672 1444807 1439625 1437877 1439776 1444488 
3971.093 1450594 1456914 1463037 1469334 1476203 1483951 1492073 1499479 
3974.950 1504802 1507151 1506244 1502705 1497691 1492409 1487778 1484276 
3978.808 1481983 1481112 1481969 1485275 1491627 1501188 1513160 1525868 
3982.665 1536676 1543173 1543360 1536808 1524528 1509142 1494047 1482825 
3986.522 1478102 1481185 1491558 1507292 1525284 1542121 1554711 1561101 
3990.380 1560462 1553406 1541412 1526468 1510746 1495984 1483594 1474632 
3994.237 1469565 1468554 1471161 1476532 1483400 1490244 1495513 1498445 
3998.095 1498719 1497042 1494590 1492819 1493133 1496468 
##END=
