##TITLE=Bambu-Lab_PLA_Beige_Filament_r2_ATR-Corrected
##JCAMP-DX=5.01  $$ Nicolet v. 1
##DATATYPE=INFRARED SPECTRUM
##ORIGIN=Curtin University
##OWNER=Nicolet
##LONGDATE=2024/07/03
##TIME=10:43:24
##SPECTROMETER/DATA SYSTEM=Nicolet iS50
##DATA PROCESSING=
Ratio against background
%Transmittance->Absorbance
ATR Correction
Truncated
ElementMultiply or ElementDivide
##COMMENTS=
Number of sample scans: 32
Collection length: 47.28 sec
Sample gain: 1.0
Background collected on: Wed Jul 03 10:37:08 2024 (GMT+08:00);
Number of background scans: 32
Background gain: 1.0
Sample spacing:  1.000
Number of scan points: 16672
Resolution points: 8192
Number of FFT points: 65536
Apodization: N-B strong;
Phase correction: Mertz;
Laser frequency: 15798.3 cm-1
Number of rejected sample scans: 0
Number of rejected background scans: 0
Bench serial number: AUP1200105;
##RESOLUTION=4.000
##XUNITS=1/CM
##YUNITS=ABSORBANCE
##FIRSTX=400.163452
##LASTX=4000.187744
##FIRSTY=0.068607
##MAXX=4000.187744
##MINX=400.163452
##MAXY=1.104464
##MINY=-0.026649
##XFACTOR=1.000000
##YFACTOR=1.000000E-008
##NPOINTS=7468
##DELTAX=0.482125
##ZPD=8192
##XYDATA=(X++(Y..Y))
400.163 6860661 6795331 6755844 6727984 6695718 6646701 6574211 6478041 
404.020 6364107 6242630 6125567 6023513 5943145 5885389 5845238 5813106 
407.877 5777507 5728258 5659447 5570476 5465744 5352561 5238612 5129905 
411.734 5029950 4940154 4860926 4792586 4735680 4690500 4656199 4630200 
415.591 4608481 4586543 4560781 4529524 4493234 4453661 4412513 4370216 
419.448 4325535 4276270 4220818 4159635 4096107 4036117 3986678 3953873 
423.305 3940970 3947382 3968688 3997697 4026060 4045985 4051524 4039313 
427.162 4008832 3962356 3904641 3842248 3782681 3733040 3698697 3682135 
431.019 3682458 3695676 3715853 3736605 3753082 3762768 3766018 3765528 
434.876 3765414 3769895 3782348 3804598 3836726 3877185 3923146 3970942 
438.733 4016547 4056103 4086355 4105070 4111353 4105815 4090629 4069379 
442.590 4046807 4028362 4019686 4025790 4050238 4094388 4156853 4233487 
446.447 4317988 4402980 4481428 4547909 4599417 4635321 4656821 4665737 
450.304 4663650 4651223 4628433 4595131 4551968 4500914 4445327 4389236 
454.161 4336329 4288833 4246958 4208920 4171892 4133283 4092157 4050045 
458.017 4010951 3980477 3964308 3966581 3988658 4028664 4081959 4142236 
461.874 4203045 4258907 4305992 4341692 4364845 4374125 4368068 4345225 
465.731 4304987 4248428 4178882 4101675 4023143 3949081 3883298 3826720 
469.588 3777409 3731407 3684186 3632028 3572905 3506757 3435042 3359995 
473.445 3284032 3209340 3137937 3071772 3012848 2962901 2922948 2892763 
477.302 2870603 2853432 2837635 2819980 2798505 2772906 2744451 2715237 
481.159 2687343 2662003 2639347 2618485 2598055 2576905 2554589 2531549 
485.016 2508902 2488036 2470153 2455923 2445392 2438061 2433098 2429548 
488.873 2426469 2423014 2418425 2412101 2403643 2392983 2380476 2366911 
492.730 2353451 2341428 2332087 2326171 2324293 2326348 2331850 2340065 
496.587 2350303 2362002 2374879 2388794 2403649 2419209 2434968 2450068 
500.444 2463363 2473521 2479234 2479430 2473543 2461651 2444542 2423652 
504.301 2400769 2377723 2355915 2336061 2318068 2301210 2284541 2267345 
508.158 2249592 2232031 2216016 2203107 2194521 2190779 2191594 2196022 
512.015 2202881 2211068 2219782 2228493 2236729 2243936 2249419 2252547 
515.871 2253038 2251231 2248110 2244988 2243033 2242782 2243943 2245559 
519.728 2246528 2246202 2244715 2242922 2241905 2242244 2243546 2244356 
523.585 2242799 2237456 2228267 2216823 2206509 2201136 2203820 2215916 
527.442 2236591 2263088 2291748 2319083 2342726 2361761 2376595 2388316 
531.299 2398147 2406975 2415296 2423344 2431282 2439290 2447465 2455672 
535.156 2463386 2469712 2473624 2474261 2471108 2464113 2453429 2439182 
539.013 2421198 2399029 2372102 2340138 2303431 2263003 2220468 2177660 
542.870 2136191 2097109 2060825 2027196 1995918 1966836 1940213 1916773 
546.727 1897578 1883743 1876084 1874823 1879401 1888524 1900313 1912740 
550.584 1924045 1933182 1939999 1945172 1949774 1954750 1960304 1965685 
554.441 1969249 1969082 1963699 1952701 1937329 1920003 1903793 1891451 
558.298 1884665 1883620 1887125 1893124 1899424 1904344 1907019 1907428 
562.155 1906080 1903710 1901059 1898822 1897728 1898638 1902497 1910073 
566.012 1921672 1936806 1954142 1971745 1987554 2000045 2008626 2013922 
569.869 2017448 2021155 2026646 2034712 2045029 2056333 2066971 2075438 
573.725 2080963 2083757 2084904 2085965 2088445 2093347 2100959 2110892 
577.582 2122332 2134404 2146491 2158346 2170062 2181963 2194358 2207439 
581.439 2221207 2235452 2249742 2263448 2275734 2285703 2292517 2295672 
585.296 2295292 2292263 2288154 2284899 2284317 2287553 2294785 2305168 
589.153 2317133 2328896 2339027 2346813 2352362 2356442 2360188 2364708 
593.010 2370891 2379245 2389905 2402619 2416756 2431291 2444958 2456510 
596.867 2465096 2470664 2474178 2477545 2483145 2493100 2508629 2529600 
600.724 2554566 2581242 2607253 2630835 2651236 2668749 2684323 2699072 
604.581 2713825 2729002 2744710 2761039 2778321 2797207 2818536 2843070 
608.438 2871229 2902934 2937659 2974526 3012456 3050232 3086449 3119528 
612.295 3147756 3169535 3183766 3190262 3189959 3184925 3177981 3172101 
616.152 3169873 3172987 3182080 3196854 3216336 3239240 3264169 3289795 
620.009 3314945 3338647 3360241 3379447 3396437 3411822 3426489 3441376 
623.866 3457228 3474436 3492942 3512356 3532057 3551400 3569814 3586930 
627.723 3602621 3617162 3631227 3645900 3662578 3682695 3707375 3737085 
631.579 3771450 3809192 3848467 3887253 3923860 3957207 3987012 4013644 
635.436 4037856 4060515 4082382 4104025 4125825 4147981 4170559 4193397 
639.293 4216053 4237866 4258013 4275798 4290868 4303405 4314084 4323897 
643.150 4333812 4344437 4355820 4367506 4378754 4388904 4397715 4405556 
647.007 4413308 4422138 4433114 4446872 4463392 4481999 4501543 4520738 
650.864 4538496 4554241 4568069 4580814 4593785 4608586 4626699 4649136 
654.721 4676220 4707445 4741613 4777070 4812122 4845424 4876237 4904569 
658.578 4931037 4956627 4982411 5009326 5038091 5069351 5103784 5142295 
662.435 5185975 5235936 5292951 5357082 5427428 5502124 5578565 5653880 
666.292 5725393 5790982 5849232 5899244 5940456 5972326 5994310 6005989 
670.149 6007311 5998950 5982386 5959832 5933824 5906783 5880584 5856331 
674.006 5834452 5814926 5797619 5782571 5769958 5760082 5753119 5748963 
677.863 5747220 5747297 5748641 5750929 5754064 5758236 5763792 5771051 
681.720 5780265 5791536 5804903 5820332 5837727 5856876 5877454 5898970 
685.577 5920859 5942530 5963441 5983128 6001160 6017102 6030569 6041343 
689.433 6049580 6056010 6061948 6069049 6078820 6092116 6108645 6126952 
693.290 6144770 6159750 6170206 6175751 6177391 6177157 6177421 6180112 
697.147 6186268 6195966 6208649 6223612 6240401 6258856 6278883 6300013 
701.004 6321069 6340149 6354980 6363503 6364583 6358313 6346007 6329722 
704.861 6311568 6293083 6274828 6256391 6236712 6214601 6189209 6160313 
708.718 6128362 6094287 6059203 6024072 5989441 5955345 5921316 5886472 
712.575 5849739 5810026 5766437 5718359 5665505 5607822 5545399 5478306 
716.432 5406562 5330089 5248813 5162672 5071754 4976272 4876586 4773235 
720.289 4666963 4558815 4450156 4342674 4238185 4138477 4044982 3958652 
724.146 3879878 3808711 3745108 3689231 3641647 3603276 3575262 3558655 
728.003 3554213 3562296 3582947 3616070 3661586 3719557 3790107 3873281 
731.860 3968846 4076147 4194094 4321193 4455710 4595744 4739300 4884330 
735.717 5028730 5170481 5307771 5439263 5564263 5682927 5796109 5905217 
739.574 6011807 6117165 6221949 6325965 6428277 6527423 6621886 6710647 
743.431 6793611 6871821 6947332 7022764 7100623 7182628 7269314 7359905 
747.287 7452727 7545849 7637755 7727874 7816606 7905031 7994266 8084888 
751.144 8176493 8267729 8356513 8440500 8517415 8585294 8642395 8687122 
755.001 8717898 8733333 8732336 8714446 8679900 8629524 8564375 8485322 
758.858 8392794 8286760 8167094 8034052 7888716 7733226 7570573 7404162 
762.715 7237128 7071934 6910098 6752260 6598519 6448812 6303214 6162059 
766.572 6025910 5895377 5770885 5652529 5539926 5432246 5328305 5226753 
770.429 5126426 5026602 4927221 4828920 4732874 4640285 4551989 4468001 
774.286 4387499 4309028 4231058 4152537 4073303 3994067 3916202 3841137 
778.143 3769849 3702543 3638698 3577280 3517085 3457071 3396378 3334319 
782.000 3270252 3203590 3133951 3061367 2986497 2910597 2835246 2761885 
785.857 2691378 2623726 2558167 2493527 2428754 2363390 2297785 2232974 
789.714 2170442 2111702 2058033 2010347 1969142 1934509 1906097 1883010 
793.571 1863760 1846400 1828781 1809074 1786175 1760017 1731527 1702295 
797.428 1674048 1648186 1625509 1606318 1590569 1578280 1569548 1564508 
801.285 1563029 1564439 1567409 1570176 1571028 1568751 1563076 1554752 
805.141 1545276 1536435 1529800 1526377 1526481 1529856 1535862 1543690 
808.998 1552426 1561148 1568919 1574904 1578558 1579801 1579096 1577379 
812.855 1575761 1575169 1575984 1577927 1580146 1581556 1581242 1578847 
816.712 1574685 1569645 1564911 1561615 1560484 1561695 1564884 1569249 
820.569 1573806 1577625 1580045 1580802 1580137 1578725 1577543 1577639 
824.426 1579856 1584528 1591443 1599720 1608141 1615475 1620801 1623858 
828.283 1625142 1625827 1627468 1631720 1639893 1652853 1670807 1693426 
832.140 1719926 1749265 1780282 1811807 1842889 1872800 1901218 1928335 
835.997 1954864 1982092 2011677 2045436 2085074 2131900 2186649 2249381 
839.854 2319666 2396666 2479421 2567001 2658594 2753513 2851016 2950227 
843.711 3049954 3148633 3244273 3334620 3417232 3489812 3550483 3598198 
847.568 3633032 3656375 3670890 3680249 3688607 3700082 3718193 3745735 
851.425 3784803 3837178 3904682 3989479 4093974 4220426 4370414 4544262 
855.282 4740856 4957820 5192015 5440186 5699445 5967404 6241866 6520332 
859.139 6799512 7075225 7342683 7597251 7835206 8054457 8254593 8436561 
862.995 8601878 8751899 8887217 9007558 9112012 9199528 9269363 9321366 
866.852 9355919 9373783 9375790 9362622 9334710 9292252 9235210 9163442 
870.709 9076704 8974762 8857504 8725037 8577789 8416553 8242295 8056077 
874.566 7858874 7651539 7434981 7210378 6979442 6744511 6508372 6273955 
878.423 6043853 5819987 5603496 5394895 5194476 5002722 4820595 4649599 
882.280 4491556 4348301 4221289 4111372 4018722 3942976 3883374 3838988 
886.137 3808736 3791480 3785897 3790459 3803429 3822955 3847111 3874199 
889.994 3902738 3931648 3960225 3987993 4014610 4039683 4062576 4082458 
893.851 4098322 4109251 4114720 4114763 4110147 4102194 4092464 4082405 
897.708 4072977 4064571 4057087 4050238 4043868 4038141 4033568 4030835 
901.565 4030479 4032727 4037431 4044248 4052883 4063386 4076140 4091807 
905.422 4110897 4133482 4158914 4185817 4212328 4236454 4256501 4271349 
909.279 4280537 4284286 4283238 4278338 4270667 4261328 4251342 4241582 
913.136 4232587 4224568 4217348 4210434 4203121 4194715 4184665 4172694 
916.993 4158838 4143427 4127013 4110317 4094087 4079048 4065661 4054131 
920.849 4044319 4035768 4027846 4019944 4011646 4002873 3993784 3984713 
924.706 3975918 3967442 3959100 3950490 3941387 3931744 3921890 3912404 
928.563 3903982 3897119 3891930 3888116 3885064 3882104 3878890 3875535 
932.420 3872750 3871637 3873410 3879009 3888711 3901979 3917491 3933397 
936.277 3947831 3959411 3967730 3973515 3978512 3985091 3995597 4011716 
940.134 4034081 4062184 4094697 4130043 4166974 4205084 4244876 4287516 
943.991 4334398 4386593 4444482 4507638 4575022 4645303 4717294 4790177 
947.848 4863675 4937946 5013455 5090759 5170337 5252529 5337389 5424754 
951.705 5514076 5604564 5695102 5784279 5870464 5951772 6026046 6090893 
955.562 6143741 6181957 6203189 6205756 6188934 6153284 6100614 6033802 
959.419 5956370 5872011 5784219 5696022 5609882 5527705 5450951 5380628 
963.276 5317366 5261437 5212844 5171440 5136971 5109304 5088168 5073246 
967.133 5063906 5059125 5057503 5057417 5057360 5056201 5053454 5049331 
970.990 5044584 5040315 5037641 5037419 5040114 5045810 5054255 5065126 
974.847 5078159 5093413 5111380 5132983 5159430 5191926 5231309 5277694 
978.703 5330304 5387550 5447424 5508050 5568203 5627731 5687487 5749039 
982.560 5813998 5883487 5957697 6035840 6116489 6198075 6279385 6359945 
986.417 6439998 6520343 6602028 6686067 6773194 6863874 6958452 7057146 
990.274 7160094 7267289 7378533 7493347 7611017 7730746 7851789 7973651 
994.131 8096258 8219906 8345276 8473298 8604985 8741337 8883112 9030818 
997.988 9184577 9344205 9509299 9679430 9854265 10033777 10218221 10408176 
1001.845 10604421 10807913 11019713 11240987 11472937 11716739 11973326 
1005.220 12243205 12526259 12821874 13129157 13447407 13776524 14117305 
1008.595 14471252 14840175 15225391 15627106 16044044 16473669 16912756 
1011.970 17358308 17808246 18261810 18719294 19181416 19648484 20119784 
1015.344 20593286 21065984 21534470 21995660 22447314 22888280 23318418 
1018.719 23738348 24149044 24551678 24947448 25337448 25722558 26103368 
1022.094 26480132 26852902 27221776 27587214 27950346 28313118 28678250 
1025.469 29048938 29428602 29820618 30228260 30654830 31103620 31578016 
1028.844 32081300 32616330 33185246 33789276 34428672 35102896 35810728 
1032.219 36550368 37319336 38114080 38929872 39760652 40599220 41437716 
1035.595 42268156 43082820 43874436 44635928 45360368 46040700 46670056 
1038.970 47242180 47751844 48195352 48570320 48875496 49110208 49274044 
1042.345 49366924 49389560 49343796 49233092 49062412 48837836 48565896 
1045.720 48253076 47905396 47528596 47128176 46709764 46279040 45841764 
1049.096 45403448 44969296 44543968 44131700 43736240 43360824 43007904 
1052.471 42679036 42374636 42094268 41836852 41601448 41387608 41195832 
1055.846 41027732 40885936 40773876 40695732 40656456 40661876 40718648 
1059.221 40834260 41016524 41273020 41610436 42034164 42547984 43154156 
1062.597 43853392 44645164 45527440 46496772 47548048 48674700 49868952 
1065.972 51122464 52427040 53775108 55159892 56575316 58015508 59474520 
1069.347 60946148 62424284 63903272 65378564 66846776 68305696 69753840 
1072.722 71189952 72612688 74020496 75411288 76782352 78129576 79446984 
1076.098 80726120 81956384 83125840 84222600 85236248 86158584 86983112 
1079.473 87703944 88314040 88804744 89165560 89386400 89459592 89382064 
1082.848 89156096 88789048 88291672 87676224 86955088 86139952 85241456 
1086.223 84269504 83233176 82140912 81000456 79819336 78605184 77366488 
1089.599 76112528 74853144 73597736 72354216 71127984 69921752 68735808 
1092.974 67569072 66420036 65287632 64171284 63070752 61985636 60914988 
1096.349 59857352 58811080 57774668 56747364 55728984 54720008 53721172 
1099.724 52733348 51757448 50794528 49845828 48912756 47996700 47098900 
1103.100 46220152 45361136 44522640 43706008 42913404 42147856 41412752 
1106.475 40711404 40046452 39419828 38832824 38286684 37783032 37324136 
1109.850 36912604 36550796 36240004 35979892 35768420 35602172 35477032 
1113.225 35389160 35335368 35313432 35321764 35358980 35423540 35513708 
1116.601 35627736 35764260 35922704 36103400 36307468 36536396 36791512 
1119.976 37073532 37382224 37716204 38072744 38447800 38835768 39229676 
1123.351 39621264 40001364 40360344 40688676 40977240 41217652 41402356 
1126.726 41524876 41580092 41564764 41477908 41321128 41098340 40815088 
1130.102 40477552 40091336 39660700 39188256 38675112 38121520 37527528 
1133.477 36893468 36220248 35509272 34762148 33980576 33166180 32320628 
1136.852 31445846 30544282 29619050 28674168 27714464 26745554 25773612 
1140.227 24805122 23846546 22903996 21982962 21088058 20223234 19391688 
1143.603 18596120 17838904 17122160 16447681 15816836 15230389 14688444 
1146.978 14190444 13735341 13321768 12948190 12613034 12314638 12051223 
1150.353 11820871 11621509 11451002 11307345 11188762 11093847 11021458 
1153.728 10970736 10940982 10931586 10942005 10971824 11020808 11088967 
1157.104 11176501 11283820 11411498 11560241 11730877 11924446 12142198 
1160.479 12385706 12656868 12958020 13291897 13661774 14071412 14525208 
1163.854 15028124 15585706 16204059 16889854 17650220 18492792 19425566 
1167.229 20456784 21594656 22847118 24221546 25724516 27361644 29137444 
1170.604 31054998 33115708 35318528 37659164 40129100 42714728 45396752 
1173.980 48149900 50942892 53738796 56495584 59166892 61703296 64054168 
1177.355 66170312 68007184 69528240 70707704 71532256 72001216 72125664 
1180.730 71926472 71432224 70676944 69698152 68534848 67225816 65807988 
1184.105 64315192 62777268 61219704 59663604 58125932 56619960 55155824 
1187.481 53740996 52380796 51078928 49837800 48658960 47543184 46490604 
1190.856 45500652 44572020 43702696 42890064 42131172 41423008 40762792 
1194.231 40148060 39576548 39046168 38554776 38100140 37680060 37292580 
1197.606 36936188 36609880 36313056 36045120 35805072 35591164 35400808 
1200.982 35230748 35077428 34937536 34808324 34687720 34574272 34466736 
1204.357 34363996 34264688 34167184 34069564 33969800 33865600 33754636 
1207.732 33634296 33501860 33354578 33189938 33005870 32800952 32574422 
1211.107 32326124 32056308 31765450 31454212 31123426 30774196 30407974 
1214.483 30026490 29631714 29225578 28809764 28385686 27954370 27516704 
1217.858 27073606 26626282 26176298 25725550 25276104 24829934 24388648 
1221.233 23953320 23524426 23101980 22685748 22275498 21871216 21473268 
1224.608 21082406 20699594 20325912 19962320 19609574 19268132 18938240 
1227.984 18619972 18313286 18018054 17734068 17460928 17198028 16944600 
1231.359 16699904 16463351 16234666 16014065 15802135 15599713 15407565 
1234.734 15226138 15055396 14894696 14742939 14598736 14460659 14327481 
1238.109 14198300 14072631 13950361 13831711 13717207 13607432 13502952 
1241.485 13404143 13311090 13223557 13141081 13063174 12989487 12920022 
1244.860 12855104 12795265 12740985 12692426 12649296 12610853 12576106 
1248.235 12544204 12514643 12487587 12463751 12444306 12430483 12423366 
1251.610 12423641 12431526 12446810 12468991 12497398 12531297 12570003 
1254.986 12612890 12659517 12709571 12762877 12819363 12878917 12941396 
1258.361 13006537 13073990 13143402 13214485 13287063 13360953 13435860 
1261.736 13511227 13586070 13659032 13728511 13792840 13850512 13900287 
1265.111 13941173 13972321 13992998 14002484 14000136 13985610 13958912 
1268.487 13920449 13870975 13811271 13741803 13662574 13572942 13471831 
1271.862 13358055 13230693 13089395 12934615 12767452 12589443 12402142 
1275.237 12206870 12004459 11795214 11579106 11356008 11125980 10889512 
1278.612 10647552 10401551 10153225 9904413 9656857 9412104 9171504 8936247 
1282.470 8707540 8486607 8274743 8073285 7883420 7706162 7542217 7392051 
1286.327 7256057 7134669 7028514 6938474 6865484 6810378 6773540 6754704 
1290.185 6752893 6766556 6793745 6832482 6880948 6937573 7001032 7070093 
1294.042 7143505 7219839 7297512 7374884 7450352 7522452 7589975 7652075 
1297.899 7708154 7758039 7801829 7839935 7873005 7901782 7926959 7949086 
1301.757 7968466 7985115 7998854 8009380 8016380 8019653 8019192 8015206 
1305.614 8008087 7998410 7986899 7974349 7961488 7948959 7937050 7925757 
1309.472 7914697 7903196 7890512 7876023 7859514 7841225 7821897 7802554 
1313.329 7784282 7767939 7753911 7742116 7732076 7723175 7714919 7707096 
1317.187 7699941 7694013 7689950 7688256 7689113 7692302 7697248 7703263 
1321.044 7709720 7716259 7722823 7729701 7737328 7746204 7756771 7769454 
1324.901 7784570 7802544 7823807 7848808 7877960 7911502 7949502 7991853 
1328.759 8038386 8088966 8143627 8202594 8266184 8334815 8408800 8488241 
1332.616 8573048 8662874 8757178 8855292 8956517 9060200 9165918 9273566 
1336.474 9383449 9496343 9613326 9735528 9863854 9998642 10139562 10285635 
1340.331 10435548 10588000 10742223 10898169 11056672 11219247 11387702 
1343.706 11563855 11749005 11943775 12147964 12360635 12580262 12805012 
1347.082 13033020 13262737 13493033 13723277 13953361 14183375 14413424 
1350.457 14643276 14872174 15098806 15321283 15537426 15744926 15941620 
1353.832 16125634 16295531 16450359 16589744 16713752 16822914 16917952 
1357.207 16999700 17068874 17126080 17171836 17206738 17231630 17247706 
1360.583 17256464 17259564 17258588 17254808 17249032 17241496 17231900 
1363.958 17219442 17202746 17179852 17148154 17104434 17044978 16965932 
1367.333 16863700 16735344 16579019 16394305 16182403 15946415 15691511 
1370.708 15425143 15156926 14898546 14662972 14463733 14313646 14223674 
1374.083 14201911 14252762 14376631 14569968 14825563 15133202 15480319 
1377.459 15852661 16235107 16612531 16970590 17296544 17579704 17811676 
1380.834 17986276 18099222 18147876 18131134 18049272 17903974 17698226 
1384.209 17436046 17122256 16762175 16361506 15926257 15462691 14977199 
1387.584 14475943 13964424 13447008 12926689 12405106 11882943 11360520 
1390.960 10838484 10318277 9802313 9293946 8797086 8315775 7853855 7414650 
1394.817 7000904 6614650 6257314 5929546 5631270 5361588 5118884 4900963 
1398.675 4705292 4529425 4371163 4228758 4100861 3986322 3883985 3792545 
1402.532 3710498 3636347 3568799 3506938 3450295 3398711 3352100 3310174 
1406.389 3272340 3237709 3205242 3174105 3143922 3114829 3087478 3062768 
1410.247 3041522 3024301 3011125 3001557 2994809 2989959 2986171 2982913 
1414.104 2980044 2977759 2976495 2976746 2978923 2983169 2989389 2997215 
1417.962 3006245 3016062 3026434 3037308 3048843 3061257 3074933 3090204 
1421.819 3107514 3127324 3150162 3176529 3206782 3241018 3279097 3320565 
1425.677 3364976 3411947 3461432 3513740 3569462 3629337 3694080 3764289 
1429.534 3840440 3922995 4012527 4109775 4215723 4331377 4457872 4596296 
1433.391 4747844 4913976 5096544 5297869 5520672 5767932 6042661 6347744 
1437.249 6685947 7059929 7472285 7925511 8421635 8961859 9546004 10172124 
1441.106 10836299 11532842 12254522 12993057 13739480 14484566 15219297 
1444.481 15935160 16624703 17281724 17901418 18480146 19015184 19504398 
1447.857 19946172 20339442 20683956 20980332 21229904 21434338 21595148 
1451.232 21713292 21789044 21822088 21811858 21757702 21659036 21515202 
1454.607 21325410 21088752 20804618 20472996 20095080 19673270 19211026 
1457.982 18712382 18181438 17622100 17038248 16433884 15813485 15181927 
1461.358 14544252 13905182 13268831 12638530 12017153 11407439 10812425 
1464.733 10235551 9680329 9149987 8647018 8172928 7728237 7312769 6925986 
1468.590 6567106 6235186 5929019 5646876 5386454 5144998 4919459 4706958 
1472.448 4505161 4312499 4128411 3953209 3787897 3633909 3492680 3365382 
1476.305 3252565 3153994 3068537 2994318 2929016 2870261 2816044 2764915 
1480.163 2716136 2669583 2625493 2584246 2546095 2511176 2479439 2450777 
1484.020 2424952 2401843 2381223 2362828 2346320 2331347 2317625 2304978 
1487.877 2293378 2282845 2273350 2264611 2256142 2247215 2237112 2225387 
1491.735 2211908 2197072 2181642 2166487 2152410 2139841 2128833 2119062 
1495.592 2110019 2101186 2092204 2082993 2073704 2064688 2056349 2049076 
1499.450 2043060 2038322 2034638 2031552 2028463 2024813 2020123 2014280 
1503.307 2007504 2000317 1993410 1987408 1982647 1979152 1976499 1974148 
1507.165 1971491 1968204 1964215 1959749 1955187 1950906 1947189 1944176 
1511.022 1941883 1940311 1939356 1938932 1938868 1938866 1938554 1937492 
1514.879 1935328 1931895 1927198 1921521 1915235 1908769 1902527 1896799 
1518.737 1891757 1887525 1884056 1881239 1878813 1876417 1873609 1870026 
1522.594 1865403 1859744 1853231 1846148 1838827 1831481 1824152 1816871 
1526.452 1809622 1802541 1795856 1789964 1785149 1781518 1778947 1777029 
1530.309 1775163 1772779 1769409 1764858 1759054 1752119 1744243 1735664 
1534.167 1726709 1717834 1709600 1702641 1697564 1694733 1694168 1695525 
1538.024 1698074 1700923 1703130 1703983 1703093 1700469 1696492 1691769 
1541.881 1687049 1683038 1680251 1678936 1678946 1679854 1680966 1681590 
1545.739 1681159 1679509 1676807 1673587 1670507 1668204 1667067 1667286 
1549.596 1668831 1671683 1675863 1681548 1688965 1698269 1709353 1721828 
1553.454 1734963 1747874 1759665 1769566 1776992 1781624 1783245 1781727 
1557.311 1776992 1769138 1758435 1745454 1731046 1716192 1701858 1688715 
1561.168 1677067 1666755 1657293 1648048 1638359 1627879 1616604 1604930 
1565.026 1593538 1583251 1574694 1568142 1563386 1559791 1556513 1552739 
1568.883 1548031 1542475 1536655 1531455 1527789 1526309 1527177 1530150 
1572.741 1534653 1540060 1545759 1551290 1556216 1560121 1562489 1562844 
1576.598 1560901 1556728 1550921 1544454 1538533 1534247 1532275 1532748 
1580.456 1535315 1539276 1543791 1548256 1552181 1555347 1557661 1559070 
1584.313 1559635 1559503 1559000 1558619 1558894 1560180 1562515 1565562 
1588.170 1568654 1571117 1572510 1572857 1572682 1572884 1574348 1577749 
1592.028 1583240 1590463 1598701 1607144 1615112 1622252 1628531 1634175 
1595.885 1639537 1644977 1650724 1656908 1663470 1670237 1676911 1683127 
1599.743 1688598 1693160 1696844 1699932 1702858 1706102 1710000 1714717 
1603.600 1720161 1726132 1732390 1738864 1745615 1752834 1760708 1769323 
1607.458 1778562 1788223 1798055 1807904 1817803 1827896 1838412 1849424 
1611.315 1860838 1872385 1883668 1894343 1904224 1913397 1922049 1930503 
1615.172 1938990 1947604 1956251 1964722 1972731 1980011 1986391 1991810 
1619.030 1996317 2000102 2003497 2006911 2010752 2015418 2021045 2027560 
1622.887 2034571 2041448 2047510 2052251 2055476 2057422 2058715 2060291 
1626.745 2063105 2067941 2075190 2084749 2096089 2108314 2120487 2131912 
1630.602 2142293 2151962 2161765 2172936 2186787 2204398 2226369 2252638 
1634.459 2282489 2314636 2347409 2378988 2407470 2431140 2448435 2458132 
1638.317 2459412 2452032 2436434 2413778 2385793 2354584 2322223 2290488 
1642.174 2260585 2233114 2208188 2185636 2165234 2146859 2130555 2116481 
1646.032 2104867 2095893 2089601 2085891 2084500 2085048 2087143 2090420 
1649.889 2094538 2099249 2104374 2109694 2114903 2119626 2123448 2126121 
1653.747 2127599 2128287 2128862 2130228 2133160 2138077 2144863 2152943 
1657.604 2161453 2169588 2176931 2183541 2189883 2196643 2204349 2213268 
1661.461 2223283 2234242 2246048 2258932 2273321 2289695 2308120 2328080 
1665.319 2348405 2367600 2384260 2397570 2407594 2415248 2421896 2428850 
1669.176 2436901 2446187 2456264 2466467 2476345 2485931 2495695 2506321 
1673.034 2518371 2532065 2547096 2562926 2578928 2594747 2610364 2626091 
1676.891 2642326 2659351 2677195 2695729 2714734 2734146 2754083 2774845 
1680.749 2796747 2819882 2844034 2868734 2893311 2917305 2940577 2963438 
1684.606 2986505 3010562 3036114 3063266 3091602 3120367 3148704 3176009 
1688.463 3202117 3227470 3252958 3279743 3308960 3341459 3377726 3417784 
1692.321 3461422 3508381 3558356 3611249 3666889 3725152 3785620 3847780 
1696.178 3911033 3974967 4039591 4105429 4173565 4245357 4322152 4404949 
1700.036 4494131 4589464 4690248 4795633 4904929 5017885 5134690 5256011 
1703.893 5382768 5516063 5656898 5806251 5964759 6132865 6310502 6497333 
1707.750 6692688 6895845 7106336 7324219 7550174 7785550 8031885 8290634 
1711.608 8562531 8847420 9144202 9451147 9766332 10088246 10416118 10750030 
1715.465 11090682 11439121 11796246 12162395 12537301 12920104 13309677 
1718.841 13705087 14105923 14512597 14926323 15348981 15782914 16230564 
1722.216 16694351 17176678 17680012 18207120 18761172 19345724 19964496 
1725.591 20621244 21319432 22062296 22852984 23694876 24591916 25548584 
1728.966 26569894 27661104 28827304 30073556 31405050 32827580 34347868 
1732.342 35973448 37711992 39570144 41552208 43659592 45890800 48242804 
1735.717 50712492 53298140 55999452 58816552 61747676 64786760 67921592 
1739.092 71133336 74397272 77684776 80964760 84205048 87372472 90433320 
1742.467 93353992 96102976 98652832 100982072 103075184 104921320 106511832 
1745.843 107839128 108896616 109680784 110193560 110443808 110446392 
1748.736 110219608 109781720 109148624 108333168 107346496 106199464 
1751.629 104904088 103472864 101917824 100249064 98474536 96600696 94634392 
1755.004 92584080 90460544 88276104 86043296 83773688 81477592 79164792 
1758.379 76845800 74532736 72239224 69979176 67765280 65607172 63511012 
1761.754 61479956 59515508 57618912 55792076 54037516 52357680 50753872 
1765.130 49225656 47770976 46386652 45069360 43816216 42624888 41493236 
1768.505 40418364 39396192 38421140 37486432 36584844 35709392 34854048 
1771.880 34013936 33185312 32365530 31552696 30745702 29943922 29147116 
1775.255 28354940 27566714 26780918 25995320 25207108 24413680 23613362 
1778.631 22806150 21993914 21180252 20369770 19567218 18776644 18000958 
1782.006 17241762 16499865 15775707 15070046 14384209 13720223 13080414 
1785.381 12467115 11882216 11327083 10802386 10308425 9845129 9412177 
1788.756 9008815 8633867 8285426 7961157 7658490 7375142 7109359 6860365 
1792.614 6628166 6413223 6215850 6035790 5871714 5721431 5582134 5451031 
1796.471 5325823 5205138 5088608 4976643 4870021 4769513 4675482 4587986 
1800.329 4506748 4431399 4361594 4297042 4237307 4181853 4129722 4079840 
1804.186 4031146 3982937 3934933 3887524 3841351 3797092 3755052 3715096 
1808.043 3676571 3638673 3600667 3562189 3523270 3484194 3445192 3406289 
1811.901 3367154 3327172 3285742 3242485 3197539 3151644 3106028 3062328 
1815.758 3022210 2987267 2958546 2936406 2920260 2908695 2899583 2890680 
1819.616 2880059 2866639 2850274 2831578 2811363 2790273 2768096 2744011 
1823.473 2716853 2685825 2651024 2613789 2576265 2540988 2509743 2483271 
1827.331 2460860 2440954 2421723 2401725 2380434 2358039 2335052 2311840 
1831.188 2288161 2263303 2236311 2206573 2174077 2139663 2104677 2070768 
1835.045 2039351 2011540 1988016 1969089 1954629 1943950 1935613 1927440 
1838.903 1916755 1901054 1878782 1849946 1816319 1781086 1747827 1719460 
1842.760 1697300 1680840 1667975 1655959 1642329 1625625 1605615 1582985 
1846.618 1558915 1534615 1510997 1488957 1469294 1453001 1440851 1433190 
1850.475 1429488 1428337 1427622 1425177 1419320 1409455 1395931 1379941 
1854.333 1362757 1345588 1329212 1314326 1301747 1292726 1288741 1291002 
1858.190 1299770 1313883 1330661 1346517 1357946 1362712 1360500 1353043 
1862.047 1343532 1335536 1331633 1332794 1337929 1344531 1349427 1349927 
1865.905 1344618 1333656 1318514 1301582 1285179 1271117 1259917 1251159 
1869.762 1243373 1234916 1224474 1211536 1196824 1182038 1169570 1161813 
1873.620 1160456 1166083 1177826 1193693 1210876 1226551 1238323 1244911 
1877.477 1245932 1242089 1234515 1224600 1213392 1201724 1189894 1178097 
1881.334 1166423 1155148 1144597 1135313 1127462 1121125 1115836 1110988 
1885.192 1105669 1099157 1090939 1080931 1069234 1056246 1042323 1028008 
1889.049 1013834 1000752 989864 982579 980154 983391 992054 1004956 1019771 
1893.389 1033777 1044119 1048764 1046577 1037838 1023664 1006082 987300 
1897.246 969752 955437 946149 942781 945777 954472 967581 983189 999427 
1901.586 1014547 1027642 1038287 1046615 1052718 1056684 1058249 1057213 
1905.443 1053618 1048020 1041249 1034449 1028050 1021923 1014865 1005422 
1909.301 992237 975289 955755 936447 920757 911799 911254 918942 932333 
1913.640 947458 959019 962123 952571 928232 889078 837838 779582 721249 
1917.980 670243 633428 615074 616645 636110 669097 710001 753586 795935 
1922.320 835066 869863 899861 923877 939904 945396 938485 918733 888423 
1926.659 851975 815513 784837 764240 754643 753825 756433 756112 746923 
1930.999 725804 693445 654870 618092 592179 584276 597405 628782 670628 
1935.338 711952 742388 755298 750281 732951 712943 699773 699656 712743 
1939.678 733980 755071 768774 771269 764702 754789 748938 752319 765930 
1944.018 785894 806075 820023 824874 821699 815176 811028 813749 824149 
1948.357 840025 856336 868351 872456 867906 855891 838615 817841 793967 
1952.697 765512 730041 684512 627262 558648 482236 404743 336196 287604 
1957.036 269694 288514 344219 428660 527233 621084 693327 732679 737551 
1961.376 715140 679272 644861 624617 625472 649146 692467 750323 815886 
1965.716 882405 941678 985344 1005018 995667 956712 894710 821268 751447 
1970.055 698586 671241 670148 690585 723231 759592 792991 820886 842734 
1974.395 859900 874083 888553 908351 942402 1000375 1090901 1215341 1365571 
1978.734 1523142 1664870 1768272 1819140 1813142 1757182 1665928 1558120 
1982.592 1451571 1360748 1293624 1252222 1232048 1224722 1218274 1201073 
1986.449 1162972 1098981 1010653 907436 803827 716815 660522 642753 662497 
1990.789 711305 776206 845072 909016 965414 1015065 1060536 1101931 1136173 
1995.128 1156650 1156883 1132688 1085296 1021127 950819 885556 834611 802720 
1999.468 789923 791317 799608 805020 798167 769767 713707 627727 516587 
2003.808 391017 268478 168891 110491 103658 148509 232755 336948 439839 
2008.147 525675 587527 628196 655022 677157 698597 718433 730191 726379 
2012.487 701203 654321 591443 524068 466040 430930 427503 458686 519427 
2016.826 598280 678671 744217 781461 785252 758199 711744 659848 615618 
2021.166 584533 563529 541226 504850 444977 363274 272202 193040 147219 
2025.506 148854 196481 273173 350171 397712 394702 337683 242007 137837 
2029.845 59734 35505 76267 173202 299214 418133 494231 504131 442068 322247 
2034.667 172294 26591 -84616 -140774 -135936 -76382 21443 138284 254292 
2039.007 354146 426832 466570 470799 441201 381813 300801 208821 119354 
2043.346 45818 467 -9366 18693 81884 174272 288740 419780 562611 712974 
2048.168 863812 1004728 1121219 1198676 1224882 1194627 1110425 982468 
2052.025 826028 659095 499298 362505 260564 201062 186487 215067 280746 
2056.365 374284 483900 597091 701586 787998 850917 890042 909193 915109 
2060.705 914254 911433 907878 902562 892771 877309 856575 834062 814112 
2065.044 801178 796912 800364 807708 814241 815965 811910 804175 798145 
2069.384 799949 815152 846178 891689 946205 1001841 1049513 1081877 1094428 
2073.723 1087359 1064911 1034913 1006365 987504 983498 995219 1018999 
2077.581 1048250 1074973 1092690 1097886 1091181 1076696 1060624 1048963 
2081.438 1045878 1052052 1064693 1078180 1086142 1083032 1066469 1037679 
2085.296 1002221 967927 943722 936276 948554 977925 1016680 1053138 1074889 
2089.635 1071438 1037216 972832 885261 785935 688614 606008 548363 521425 
2093.975 526946 562259 622038 698260 781934 863614 934797 988877 1022774 
2098.314 1036874 1035439 1024717 1011754 1001700 997180 997459 1000067 
2102.172 1002156 1002688 1002622 1005410 1014275 1030945 1053424 1076328 
2106.029 1091798 1092549 1074588 1039311 993440 947868 913765 899913 909099 
2110.369 937869 977059 1014975 1040120 1044655 1025771 986066 931990 872228 
2114.708 814889 766400 730003 706235 693033 686873 683714 679572 670895 
2119.048 655200 630626 596489 552743 500427 441196 377444 311886 247608 
2123.388 187194 133557 88678 54478 31833 21047 21017 29416 41931 52929 55404 
2128.692 42199 6814 -54985 -144258 -257620 -387554 -522224 -647325 -747205 
2133.031 -808135 -819935 -779548 -691672 -569638 -432502 -302358 -199128 
2136.889 -136720 -120146 -145664 -202390 -277004 -356584 -433007 -502778 
2140.746 -566931 -627405 -685381 -738818 -784450 -819735 -846998 -874738 
2144.604 -917427 -990640 -1105524 -1261552 -1444838 -1628303 -1779817 
2147.979 -1870571 -1884777 -1823972 -1706800 -1561873 -1419896 -1304072 
2151.354 -1226963 -1190128 -1189120 -1219186 -1280070 -1375727 -1512367 
2154.729 -1691438 -1906141 -2137773 -2358844 -2537221 -2645358 -2664885 
2158.104 -2593112 -2440463 -2228954 -1983025 -1726149 -1474631 -1240942 
2161.480 -1031805 -852754 -705435 -589777 -500786 -431541 -372243 -314946 
2165.337 -253311 -185907 -114253 -43667 19633 67968 94493 93291 60735 -3673 
2170.159 -95495 -206452 -324483 -437161 -533392 -606854 -654863 -679200 
2174.016 -682318 -666467 -631554 -577292 -503609 -414465 -317268 -223519 
2177.874 -144544 -89554 -61788 -58612 -72194 -92664 -110743 -120216 -117326 
2182.213 -101067 -70469 -25269 34900 108313 190772 274254 349356 406182 
2186.553 438436 443876 426179 392185 351929 314889 289713 282587 297354 
2190.893 334082 389363 454931 519038 567488 587440 570662 516944 434732 
2195.232 340576 253247 190382 161856 168506 201839 247450 289435 315848 
2199.572 321358 309032 287839 270707 269662 292550 340365 407060 480259 
2203.911 545488 588992 602735 586007 546568 497722 455131 431419 433137 
2208.251 458510 499642 545012 584840 613684 632520 646826 664401 691095 
2212.591 729405 776831 827704 875102 913365 938594 949525 945809 928359 
2216.930 898181 857702 810791 763986 725027 701991 700254 721023 759736 
2221.270 807446 852377 884033 894764 883198 852879 811901 769362 733501 
2225.609 708698 695620 691171 691283 692147 693271 697094 708813 733725 
2229.949 775001 831256 896661 961407 1015432 1050681 1064408 1059139 1041801 
2234.289 1020823 1003281 992550 988477 988315 989412 990614 993426 1000780 
2238.628 1015257 1036964 1063290 1088846 1108128 1117288 1116199 1107844 
2242.486 1097832 1091492 1092501 1101495 1116526 1133982 1149739 1160007 
2246.343 1161861 1152656 1130936 1096068 1050106 997710 946410 904881 880886 
2250.683 878027 894691 923805 955109 978492 987991 983436 971095 961005 
2255.022 963580 985651 1028288 1086110 1149611 1207046 1248218 1266295 
2258.880 1259030 1228807 1181589 1125820 1070779 1025080 995393 985005 
2262.737 993818 1018294 1052999 1091605 1129211 1162807 1192113 1218315 
2266.594 1243661 1269457 1296010 1322146 1346014 1365553 1379454 1386916 
2270.452 1388179 1383949 1375612 1365020 1354829 1347749 1346508 1352659 
2274.309 1366254 1385460 1407299 1428364 1446183 1459801 1469843 1477653 
2278.167 1484647 1491169 1496881 1500748 1502554 1503293 1505453 1511988 
2282.024 1525452 1546527 1573794 1604062 1633884 1660632 1683633 1703768 
2285.882 1722667 1741284 1759149 1774100 1783387 1784759 1777909 1764323 
2289.739 1747012 1728833 1711397 1694097 1674900 1651391 1622410 1589126 
2293.596 1555198 1525536 1504807 1495575 1497580 1507880 1522048 1535667 
2297.454 1545668 1550895 1551885 1549952 1546517 1542383 1537900 1533214 
2301.311 1528820 1525470 1524225 1525814 1530256 1536684 1543658 1549688 
2305.169 1553821 1556031 1557226 1558801 1562085 1567941 1576674 1587881 
2309.026 1601070 1615602 1631084 1647142 1663568 1680057 1696595 1713150 
2312.884 1730127 1748027 1767419 1788415 1810799 1833797 1856436 1877775 
2316.741 1897273 1914811 1930746 1945774 1961030 1978080 1999131 2026837 
2320.598 2063720 2110989 2167211 2227254 2282209 2320716 2331415 2305733 
2324.456 2240613 2139357 2011206 1869443 1728582 1601463 1496949 1418645 
2328.313 1365395 1332258 1312986 1301826 1294854 1290218 1287598 1287153 
2332.171 1288733 1291473 1293987 1294881 1293324 1289282 1283499 1277190 
2336.028 1271583 1267542 1265538 1265438 1266742 1268557 1269752 1269025 
2339.885 1265260 1257677 1246378 1232312 1217316 1203681 1193617 1188560 
2343.743 1188844 1193536 1200809 1208376 1214114 1216354 1214322 1207780 
2347.600 1197214 1183402 1167588 1151257 1136316 1124637 1118089 1117845 
2351.458 1124298 1136575 1152911 1170628 1186848 1199030 1205432 1205236 
2355.315 1198803 1187330 1172592 1156459 1140505 1125841 1112848 1101305 
2359.173 1090406 1079244 1066955 1053083 1037484 1020459 1002552 984294 
2363.030 966205 948601 931824 916228 902399 890914 882604 878015 877466 
2367.370 880809 887509 896586 906967 917574 927552 936371 943949 950492 
2371.709 956499 962517 968949 975980 983435 990870 997799 1003898 1009204 
2376.049 1013988 1018766 1023888 1029220 1034052 1037318 1037823 1034888 
2379.906 1028686 1020452 1012198 1006205 1004297 1007433 1015330 1026644 
2383.764 1039472 1051883 1062297 1069985 1074794 1077248 1078097 1078275 
2387.621 1078588 1079765 1082270 1086344 1091892 1098554 1105860 1113298 
2391.479 1120490 1127381 1133931 1140187 1145853 1150406 1152996 1152892 
2395.336 1149641 1143580 1135687 1127534 1120816 1116826 1116223 1118737 
2399.193 1123430 1129048 1134251 1138122 1140168 1140534 1139853 1139116 
2403.051 1139458 1142174 1148233 1158202 1171883 1188424 1206208 1223477 
2406.908 1238392 1249787 1257134 1260689 1261111 1259295 1256008 1251830 
2410.766 1247255 1242856 1239320 1237546 1238238 1241851 1248201 1256424 
2414.623 1265160 1272743 1277680 1278907 1275758 1268239 1256551 1241268 
2418.480 1223128 1203070 1182230 1162189 1144502 1130719 1122024 1118963 
2422.338 1121254 1127904 1137267 1147551 1156858 1163936 1167970 1169039 
2426.195 1167702 1165162 1162491 1160665 1160187 1160890 1162186 1163108 
2430.053 1162655 1160102 1155014 1147579 1138163 1127538 1116511 1106066 
2433.910 1097086 1090482 1087079 1087392 1091554 1099119 1109077 1120003 
2437.768 1130160 1138010 1142425 1143043 1140474 1136131 1131999 1130147 
2441.625 1132087 1138640 1149034 1161535 1173584 1182724 1187249 1186894 
2445.482 1182867 1177536 1173523 1172689 1175601 1181245 1187638 1192795 
2449.340 1195606 1196482 1197161 1200098 1207218 1219286 1235134 1252264 
2453.197 1267504 1278062 1282345 1280128 1272221 1260121 1245030 1227908 
2457.055 1209482 1190410 1171803 1155020 1141477 1132155 1126908 1124740 
2460.912 1123823 1122395 1119293 1114484 1108740 1103457 1099533 1097084 
2464.770 1095228 1092455 1087304 1079064 1068222 1056402 1045792 1038441 
2468.627 1035663 1037756 1044015 1053202 1063857 1074864 1085454 1095239 
2472.484 1104085 1112007 1119097 1125610 1131985 1138703 1146252 1154750 
2476.342 1163774 1172280 1178707 1181468 1179058 1170901 1157196 1139210 
2480.199 1118830 1098262 1079410 1063650 1051516 1042974 1037570 1035204 
2484.057 1036036 1041000 1051153 1067416 1089844 1117121 1146431 1174159 
2487.914 1196581 1211010 1216457 1214040 1206650 1197990 1191463 1189524 
2491.771 1192851 1200855 1211902 1224183 1236144 1246732 1255142 1260904 
2495.629 1263239 1261517 1255326 1244897 1231319 1216314 1202067 1190403 
2499.486 1182336 1178000 1176645 1177257 1178866 1181071 1183797 1187118 
2503.344 1190793 1194134 1195807 1194577 1189713 1181499 1171360 1161503 
2507.201 1154355 1151739 1154194 1160968 1170174 1179485 1186731 1190701 
2511.059 1191107 1188770 1185119 1181963 1180835 1182813 1188201 1196607 
2514.916 1206887 1217408 1226568 1233093 1236298 1236526 1234528 1231507 
2518.773 1228266 1225099 1221433 1216398 1209284 1200250 1190496 1182259 
2522.631 1177932 1179297 1186597 1198271 1211202 1221889 1227402 1226562 
2526.488 1220058 1210395 1200686 1193701 1191032 1192759 1197671 1204085 
2530.346 1210163 1214684 1216798 1216071 1211790 1203562 1190979 1174396 
2534.203 1155161 1135788 1119303 1108832 1106335 1112275 1125301 1142878 
2538.061 1161840 1179597 1194583 1206650 1216605 1225712 1235088 1245158 
2541.918 1255454 1264979 1272429 1276728 1277285 1274227 1268293 1260771 
2545.775 1253102 1246718 1242636 1241344 1242595 1245681 1249376 1252610 
2549.633 1254522 1254964 1254236 1253199 1252589 1253091 1254688 1257047 
2553.490 1259483 1261407 1262364 1262388 1261693 1260595 1259154 1257369 
2557.348 1254796 1251313 1246834 1241882 1237297 1234186 1233595 1236246 
2561.205 1242366 1251835 1264185 1278876 1295405 1313223 1331541 1349266 
2565.063 1364781 1376431 1382604 1382527 1376562 1366443 1354978 1345559 
2568.920 1341100 1343350 1352229 1365862 1380846 1393302 1399750 1398045 
2572.777 1387923 1371136 1350988 1331482 1316565 1309318 1311221 1321882 
2576.635 1339295 1360175 1380728 1397583 1408295 1412201 1410128 1404237 
2580.492 1397219 1391540 1388709 1389063 1391887 1396081 1400700 1405712 
2584.350 1411845 1420425 1432384 1447751 1465044 1481547 1493905 1499380 
2588.207 1496643 1486518 1471767 1456394 1444469 1438974 1441059 1450068 
2592.064 1463849 1479856 1495714 1509934 1521966 1531877 1539752 1545618 
2595.922 1548948 1549219 1545982 1539508 1530807 1521492 1513336 1507873 
2599.779 1505892 1507411 1511830 1518312 1526125 1534858 1544278 1554173 
2603.637 1563942 1572464 1578434 1580634 1578519 1572639 1564602 1556704 
2607.494 1551229 1549579 1551995 1557452 1564069 1569986 1574003 1576022 
2611.352 1576945 1578114 1580774 1585447 1591754 1598643 1604806 1609275 
2615.209 1611620 1612111 1611344 1610164 1609220 1609174 1610535 1613973 
2619.066 1619956 1628812 1640269 1653414 1666715 1678498 1687508 1693410 
2622.924 1696870 1699378 1702629 1707752 1714846 1723109 1730968 1737099 
2626.781 1740820 1742413 1742989 1743954 1746220 1750051 1754734 1759180 
2630.639 1762255 1763516 1763317 1762533 1762333 1763515 1766320 1770294 
2634.496 1774679 1778674 1781758 1783823 1785116 1786054 1787020 1788403 
2638.354 1790355 1792947 1796126 1799723 1803206 1806051 1807554 1807244 
2642.211 1804960 1801135 1796660 1792673 1790116 1789616 1791072 1793945 
2646.068 1797317 1800299 1802222 1802719 1801675 1799151 1795146 1789704 
2649.926 1783003 1775417 1767463 1759890 1753368 1748226 1744386 1741374 
2653.783 1738396 1734838 1730296 1724930 1719135 1713515 1708448 1703755 
2657.641 1698819 1692487 1683409 1670457 1653016 1631190 1605875 1578634 
2661.498 1551364 1525993 1504077 1486439 1473095 1463225 1455534 1448475 
2665.355 1440788 1431784 1421355 1410083 1398781 1388236 1378932 1371003 
2669.213 1364244 1358288 1352886 1348009 1343794 1340562 1338556 1337947 
2673.070 1338618 1340392 1342848 1345546 1348012 1349762 1350310 1349387 
2676.928 1346857 1343071 1338726 1334811 1332295 1331897 1333691 1337174 
2680.785 1341197 1344367 1345409 1343440 1338197 1330038 1319854 1308750 
2684.643 1298029 1288934 1282517 1279715 1280989 1286223 1294656 1304794 
2688.500 1314658 1322336 1326205 1325731 1321335 1314457 1307010 1300759 
2692.357 1296852 1295506 1296035 1297332 1298223 1298113 1296973 1295417 
2696.215 1294303 1294182 1295136 1296614 1297524 1296689 1293214 1286752 
2700.072 1277649 1266923 1255842 1245790 1237960 1233186 1231813 1233852 
2703.930 1238879 1246245 1254973 1264130 1272746 1280044 1285576 1289133 
2707.787 1290732 1290436 1288352 1284388 1278500 1270839 1261824 1252316 
2711.645 1243549 1236769 1232902 1232267 1234249 1237612 1240786 1242379 
2715.502 1241581 1238491 1233955 1229234 1225641 1223929 1224319 1226439 
2719.359 1229451 1232583 1235169 1236855 1237566 1237320 1236236 1234450 
2723.217 1232079 1229452 1226916 1224807 1223455 1222850 1222710 1222589 
2727.074 1222020 1220748 1218945 1217051 1215841 1215937 1217742 1221192 
2730.932 1225723 1230649 1235119 1238557 1240706 1241666 1241720 1241353 
2734.789 1241050 1241361 1242670 1245399 1249732 1255662 1262832 1270454 
2738.646 1277354 1282377 1284365 1282682 1277400 1269336 1259948 1251071 
2742.504 1244514 1241574 1242812 1247881 1255635 1264330 1272201 1277702 
2746.361 1280088 1279301 1276112 1271606 1267090 1263520 1261376 1260612 
2750.219 1260667 1260907 1260621 1259423 1257101 1253791 1249697 1245223 
2754.076 1240720 1236530 1233048 1230571 1229227 1229017 1229657 1230666 
2757.934 1231361 1231262 1229991 1227638 1224536 1221377 1218846 1217423 
2761.791 1217285 1218320 1220105 1222139 1223934 1225240 1225999 1226232 
2765.648 1225992 1225410 1224466 1223132 1221465 1219686 1218156 1217358 
2769.506 1217737 1219470 1222473 1226238 1229948 1232881 1234469 1234693 
2773.363 1234053 1233609 1234510 1237771 1243765 1252242 1262126 1271958 
2777.221 1280102 1285273 1286808 1284723 1279651 1272688 1264987 1257713 
2781.078 1251786 1247747 1245850 1246075 1248135 1251659 1256005 1260641 
2784.936 1265046 1268893 1272162 1275126 1278108 1281540 1285720 1290667 
2788.793 1296166 1301771 1307013 1311566 1315316 1318460 1321418 1324770 
2792.650 1328928 1334032 1339812 1345641 1350657 1354121 1355534 1355019 
2796.508 1353257 1351447 1350865 1352635 1357162 1364167 1372637 1381149 
2800.365 1388293 1393010 1394921 1394363 1392170 1389489 1387370 1386594 
2804.223 1387612 1390558 1395384 1401999 1410216 1419960 1431006 1443074 
2808.080 1455703 1468450 1480684 1492038 1502096 1510754 1518028 1524089 
2811.938 1529322 1534170 1539010 1544239 1549942 1556016 1562120 1567839 
2815.795 1572766 1576684 1579847 1582557 1585570 1589587 1595195 1602707 
2819.652 1612097 1623194 1635631 1649126 1663290 1677858 1692328 1706302 
2823.510 1719192 1730568 1740203 1748295 1755392 1762312 1769918 1778924 
2827.367 1789474 1801406 1814019 1826665 1838689 1849929 1860697 1871707 
2831.225 1883761 1897572 1913515 1931553 1951192 1971910 1993172 2014569 
2835.082 2036005 2057538 2079254 2101220 2123388 2145769 2168496 2192057 
2838.939 2217154 2244745 2275697 2310569 2349415 2391875 2437264 2485183 
2842.797 2535761 2590071 2650005 2718119 2796906 2888217 2992473 3108541 
2846.654 3233557 3363403 3493223 3618035 3733354 3835420 3921338 3988998 
2850.512 4036900 4064159 4070313 4055672 4021461 3969788 3903794 3827243 
2854.369 3744154 3658384 3572879 3489682 3409646 3332863 3258871 3187328 
2858.227 3118065 3051554 2988765 2930933 2879317 2834840 2797850 2767945 
2862.084 2744086 2724624 2707613 2691266 2674199 2655926 2636796 2618283 
2865.941 2602288 2591080 2586433 2589604 2600799 2619587 2644997 2675985 
2869.799 2711751 2751828 2795967 2843990 2895328 2949365 3005052 3061385 
2873.656 3117441 3172612 3226555 3279091 3330033 3379141 3426238 3471201 
2877.514 3514185 3555422 3595017 3632634 3667219 3697000 3719678 3733123 
2881.371 3736011 3728441 3712007 3689567 3664459 3639682 3617321 3598153 
2885.229 3581786 3567274 3553566 3540257 3527497 3515944 3506532 3499983 
2889.086 3496630 3496425 3498900 3503639 3510242 3518443 3528135 3539122 
2892.943 3551158 3563881 3576943 3590198 3603676 3617870 3633443 3651296 
2896.801 3672090 3696306 3723876 3754330 3786661 3819694 3852173 3883123 
2900.658 3911830 3938244 3962616 3985731 4008370 4031388 4055422 4080968 
2904.516 4108208 4137310 4168370 4201527 4237104 4275570 4317570 4363894 
2908.373 4415450 4473193 4537945 4610340 4690693 4779057 4875267 4979048 
2912.230 5090149 5208482 5333799 5465760 5603532 5745722 5890099 6033978 
2916.088 6174393 6308527 6434030 6549394 6653762 6746959 6829014 6900006 
2919.945 6959774 7008004 7044348 7068862 7082087 7085487 7081187 7071880 
2923.803 7060214 7048381 7037692 7028495 7020158 7011684 7002091 6990938 
2927.660 6978521 6965846 6954211 6945014 6939126 6937213 6939658 6946941 
2931.518 6959963 6980050 7008799 7047515 7096847 7156557 7225482 7302186 
2935.375 7385258 7474164 7569188 7671545 7782746 7904081 8036091 8178305 
2939.232 8329152 8486218 8646538 8806702 8963059 9111889 9249378 9371926 
2943.090 9476428 9560479 9622534 9661876 9678338 9672344 9644539 9595791 
2946.947 9527298 9440739 9338232 9222210 9095055 8959059 8816076 8667676 
2950.805 8515337 8360742 8205964 8053375 7905198 7763247 7628419 7500561 
2954.662 7378535 7260857 7146033 7033107 6921973 6813089 6707424 6606043 
2958.520 6509855 6419367 6334580 6254897 6179201 6106108 6033970 5961540 
2962.377 5888235 5814610 5742328 5673943 5612189 5558917 5514756 5478346 
2966.234 5446857 5416759 5384721 5348684 5308392 5265324 5222174 5181964 
2970.092 5147204 5119485 5099403 5086600 5080347 5079860 5084311 5092995 
2973.949 5105035 5119478 5135435 5152280 5169933 5189063 5210921 5237156 
2977.807 5269158 5307931 5353703 5406112 5464634 5528899 5599268 5676942 
2981.664 5763764 5861855 5973071 6098503 6238223 6391461 6556722 6732391 
2985.521 6916980 7109435 7308963 7514890 7726250 7941586 8158905 8375714 
2989.379 8589332 8797155 8996813 9186225 9363572 9527194 9675427 9806719 
2993.236 9919674 10013082 10086287 10138916 10171021 10182918 10175025 
2996.612 10148033 10102665 10039993 9961193 9867617 9760563 9641355 9511130 
3000.469 9371062 9222373 9066547 8905366 8740707 8574252 8407322 8240555 
3004.326 8073897 7906651 7738003 7567244 7393946 7218266 7040804 6862624 
3008.184 6684886 6508884 6335786 6166702 6002325 5842956 5688523 5538367 
3012.041 5391719 5247890 5106614 4968112 4833121 4702620 4577440 4457840 
3015.899 4343457 4233245 4125826 4019843 3914323 3808909 3703864 3599982 
3019.756 3498543 3400775 3308152 3221925 3142947 3071565 3007352 2949153 
3023.614 2895283 2843804 2793066 2742034 2690710 2639716 2590302 2543631 
3027.471 2500560 2461303 2425611 2392769 2362031 2332535 2303488 2274171 
3031.328 2243912 2212180 2178810 2144162 2109124 2074952 2042923 2013851 
3035.186 1987912 1964459 1942535 1921271 1900279 1879917 1861308 1845656 
3039.043 1833901 1826247 1822074 1820076 1818873 1817210 1814514 1810581 
3042.901 1805656 1800044 1793746 1786678 1778649 1769707 1760097 1750465 
3046.758 1741506 1733854 1727714 1722871 1718856 1715044 1710904 1706118 
3050.615 1700746 1694738 1688166 1680854 1672679 1663448 1653252 1642499 
3054.473 1631898 1622309 1614470 1608801 1605283 1603393 1602303 1601243 
3058.330 1599629 1597368 1594881 1592680 1591485 1591602 1592900 1594752 
3062.188 1596307 1596600 1595146 1591853 1587275 1582099 1577169 1572792 
3066.045 1568866 1564877 1560301 1554963 1549274 1544231 1541161 1541301 
3069.903 1545031 1551871 1560473 1568800 1574824 1577100 1574988 1568693 
3073.760 1559171 1547545 1534978 1522305 1510135 1498786 1488671 1480276 
3077.617 1474075 1470429 1469535 1471137 1474668 1479305 1484108 1488180 
3081.475 1490829 1491465 1489788 1485641 1479129 1470558 1460570 1449971 
3085.332 1439792 1431119 1424956 1421891 1422155 1425241 1430252 1435822 
3089.190 1440474 1442955 1442694 1439721 1434904 1429651 1425525 1423635 
3093.047 1424489 1427673 1432123 1436533 1439700 1441002 1440646 1439409 
3096.905 1438482 1438923 1441430 1446189 1452786 1460361 1467960 1474543 
3100.762 1479249 1481256 1480063 1475461 1467677 1457273 1445328 1433078 
3104.619 1421751 1412272 1405130 1400326 1397496 1396028 1395339 1394869 
3108.477 1394274 1393148 1391230 1388260 1384280 1379527 1374576 1370310 
3112.334 1367585 1367046 1368853 1372681 1377688 1382885 1387416 1390572 
3116.192 1391966 1391399 1388703 1383700 1376306 1366655 1355426 1343651 
3120.049 1332865 1324604 1319984 1319374 1322356 1327731 1334049 1339940 
3123.906 1344579 1347599 1349187 1349605 1349018 1347343 1344370 1340004 
3127.764 1334612 1328978 1324378 1322195 1323519 1328561 1336685 1346278 
3131.621 1355361 1361911 1364490 1362624 1357045 1349262 1341436 1335569 
3135.479 1333089 1334521 1339501 1346782 1354810 1362232 1368081 1372210 
3139.336 1375057 1377370 1379894 1383007 1386805 1390908 1394961 1398531 
3143.194 1401459 1403506 1404363 1403420 1399856 1392816 1382005 1367948 
3147.051 1352287 1337456 1326233 1320832 1322194 1329550 1340640 1352262 
3150.908 1361314 1365604 1364537 1359028 1351313 1343807 1338800 1337474 
3154.766 1339959 1345315 1352025 1358410 1363191 1365502 1365245 1362790 
3158.623 1358834 1354190 1349459 1344918 1340523 1335842 1330355 1323661 
3162.481 1315802 1307274 1299093 1292445 1288504 1288002 1291141 1297341 
3166.338 1305672 1314853 1323741 1331318 1336958 1340300 1341331 1340093 
3170.196 1336945 1332174 1326287 1319773 1313225 1307238 1302438 1299452 
3174.053 1298969 1301343 1306766 1314781 1324405 1334009 1341790 1346097 
3177.910 1345929 1341231 1332991 1322866 1312856 1304524 1298902 1296194 
3181.768 1296157 1298333 1302553 1308915 1317973 1330081 1345272 1362995 
3185.625 1382070 1400747 1417298 1430102 1438161 1440972 1438885 1432814 
3189.483 1424222 1414956 1406968 1401798 1400568 1403226 1408930 1415982 
3193.340 1422439 1426566 1427380 1424773 1419447 1412538 1405337 1398937 
3197.198 1394323 1392328 1393844 1399653 1410303 1425498 1444074 1463741 
3201.055 1481679 1495079 1502071 1502275 1496859 1487901 1477825 1468370 
3204.912 1459995 1452080 1443208 1432037 1417976 1401411 1383845 1367253 
3208.770 1353695 1344784 1341560 1344339 1352887 1366380 1383542 1402367 
3212.627 1420599 1435783 1446111 1450707 1450247 1446600 1442511 1440542 
3216.485 1442373 1448146 1456668 1465840 1473570 1478447 1480167 1479342 
3220.342 1477116 1474426 1471691 1468718 1465108 1460483 1455166 1449804 
3224.199 1445390 1442498 1441018 1439916 1437626 1432506 1423647 1411102 
3228.057 1396189 1380981 1367770 1358498 1354163 1354765 1359377 1366499 
3231.914 1374531 1381972 1387781 1391504 1393357 1393954 1394400 1395809 
3235.772 1399103 1404532 1411608 1419207 1425855 1430143 1431407 1429843 
3239.629 1426683 1423447 1421652 1422048 1424278 1427018 1428391 1426574 
3243.487 1420490 1410225 1397113 1383325 1371521 1364048 1362687 1367961 
3247.344 1379420 1395360 1413426 1430881 1445308 1454866 1458858 1457605 
3251.201 1452391 1444736 1436144 1427387 1418714 1409768 1400470 1391040 
3255.059 1382457 1376073 1373161 1374301 1378918 1385498 1392112 1397083 
3258.916 1399896 1401095 1402284 1404870 1409497 1415391 1420698 1423157 
3262.774 1421446 1415879 1408902 1404194 1405724 1415809 1434510 1459133 
3266.631 1485157 1507430 1521811 1526195 1520871 1508057 1491015 1473040 
3270.489 1456649 1443375 1433788 1427747 1424782 1424159 1425169 1426869 
3274.346 1428503 1429426 1429450 1428619 1427415 1426232 1425400 1424853 
3278.203 1424372 1423583 1422464 1421455 1421390 1423191 1427594 1434821 
3282.061 1444325 1455118 1465969 1475758 1483912 1490211 1494983 1498590 
3285.918 1501583 1504356 1507273 1510675 1514816 1519817 1525679 1532071 
3289.776 1538685 1545082 1550951 1556326 1561450 1566498 1571723 1576995 
3293.633 1582081 1586627 1590391 1593262 1595395 1596788 1597209 1596073 
3297.490 1592705 1586518 1577678 1567046 1556545 1548184 1543824 1544237 
3301.348 1548885 1555758 1562245 1565604 1563985 1556489 1543680 1526818 
3305.205 1507629 1487940 1469331 1453132 1440561 1432525 1429667 1431813 
3309.063 1438034 1446318 1454194 1459149 1459450 1454486 1445299 1433737 
3312.920 1422184 1412457 1405378 1400360 1395873 1389965 1381226 1369259 
3316.778 1355047 1340667 1328624 1321150 1319445 1323399 1331705 1342280 
3320.635 1353102 1362729 1370893 1378115 1385706 1394633 1405176 1416456 
3324.492 1426428 1432654 1432940 1426248 1413377 1396497 1379180 1364965 
3328.350 1356658 1355396 1360625 1370177 1381203 1390773 1396881 1398454 
3332.207 1395758 1389728 1381778 1373203 1365116 1358187 1352918 1349388 
3336.065 1347865 1348260 1350687 1355079 1361482 1369874 1380290 1392531 
3339.922 1406207 1420447 1434066 1445454 1453244 1456161 1453854 1446601 
3343.780 1435453 1421774 1406995 1392158 1378011 1364691 1352408 1341141 
3347.637 1331327 1323526 1318298 1316036 1316807 1320234 1325700 1332277 
3351.494 1339148 1345483 1350721 1354335 1356145 1356026 1354347 1351726 
3355.352 1349093 1347267 1346877 1347912 1349846 1351589 1352188 1350877 
3359.209 1347914 1343996 1340447 1338370 1338247 1339777 1342037 1343838 
3363.067 1344458 1343976 1343460 1344462 1348458 1356090 1366967 1379378 
3366.924 1391051 1399766 1404044 1403445 1398812 1391642 1383816 1376901 
3370.781 1371912 1369121 1368324 1368824 1369832 1370547 1370269 1368445 
3374.639 1364804 1359276 1352122 1343679 1334625 1325489 1316950 1309572 
3378.496 1303965 1300729 1300316 1302987 1308778 1317125 1327238 1337795 
3382.354 1347599 1355426 1360462 1362160 1360453 1355486 1347801 1338121 
3386.211 1327636 1317624 1309478 1304410 1303180 1305812 1311866 1320404 
3390.069 1330497 1341365 1352723 1364268 1375828 1386586 1395487 1400895 
3393.926 1401503 1396548 1386538 1372905 1357985 1344108 1333226 1325964 
3397.783 1321870 1319581 1317348 1313683 1307801 1299690 1290315 1281006 
3401.641 1273424 1268886 1268350 1272214 1280117 1291164 1304068 1317501 
3405.498 1330552 1342697 1353958 1364550 1374657 1383854 1391254 1395555 
3409.356 1395741 1391571 1384115 1375436 1368342 1365238 1367405 1374365 
3413.213 1384159 1393853 1400787 1403189 1401023 1395566 1389045 1383517 
3417.071 1380524 1380330 1382456 1385647 1388838 1391001 1391711 1390684 
3420.928 1387905 1383398 1377459 1370467 1363484 1357609 1353988 1353137 
3424.785 1354656 1357068 1358164 1355515 1347525 1333645 1315041 1294040 
3428.643 1273724 1256899 1245560 1240429 1241200 1246853 1256407 1269198 
3432.500 1285228 1304695 1327740 1353699 1381220 1408064 1431749 1450191 
3436.358 1462213 1467754 1467638 1463185 1455626 1445568 1433230 1418278 
3440.215 1400769 1381117 1360531 1340746 1323789 1311317 1304596 1304111 
3444.073 1309946 1321562 1338203 1358502 1380792 1402803 1422240 1437107 
3447.930 1446270 1449829 1449178 1446300 1443317 1441603 1441539 1442525 
3451.787 1443592 1443875 1443303 1442384 1441915 1442371 1443612 1444715 
3455.645 1444663 1442714 1439284 1435738 1433961 1435456 1440700 1448550 
3459.502 1456876 1463237 1466092 1465428 1462818 1460717 1461627 1466917 
3463.360 1476588 1489264 1503081 1516381 1528364 1539075 1549360 1559939 
3467.217 1571358 1583546 1596029 1608145 1619510 1629542 1637974 1644176 
3471.074 1647695 1648075 1645641 1641333 1637222 1635530 1638421 1647040 
3474.932 1661446 1680479 1702478 1725629 1748801 1771283 1792912 1813313 
3478.789 1831751 1846918 1857444 1862360 1861765 1856932 1850451 1845324 
3482.647 1844575 1850239 1862997 1882071 1905467 1930159 1953095 1971431 
3486.504 1983348 1988258 1987163 1982263 1976752 1973793 1976069 1984870 
3490.362 2000247 2020847 2044678 2069505 2093580 2115565 2134906 2151343 
3494.219 2164886 2175802 2184573 2191924 2198901 2206386 2215249 2225479 
3498.076 2236594 2247513 2257142 2264678 2270075 2273778 2276894 2280316 
3501.934 2284800 2290451 2297058 2303996 2310808 2316878 2321737 2324768 
3505.791 2325477 2323331 2318295 2310756 2301694 2292134 2283056 2274507 
3509.649 2265896 2255844 2243099 2227188 2208983 2190587 2175081 2165297 
3513.506 2162996 2168147 2178944 2192285 2204804 2213557 2217087 2215074 
3517.364 2208425 2198500 2186775 2174386 2162147 2150427 2139485 2129262 
3521.221 2119487 2109402 2098002 2083949 2066142 2043838 2017425 1988240 
3525.078 1958557 1931131 1908528 1892511 1883566 1880617 1881501 1883463 
3528.936 1884016 1881633 1876160 1868815 1861705 1856878 1855864 1858783 
3532.793 1864653 1871472 1877179 1880008 1879114 1874367 1866298 1855406 
3536.651 1842091 1826427 1808601 1788875 1768268 1748192 1730545 1716879 
3540.508 1708501 1705721 1708326 1715406 1725692 1737655 1749694 1759908 
3544.365 1766586 1768062 1763502 1752952 1737813 1720213 1703191 1689185 
3548.223 1679895 1675665 1675513 1677619 1680165 1681571 1681324 1679541 
3552.080 1677105 1674798 1673264 1672491 1672123 1671362 1669481 1666052 
3555.938 1661157 1655272 1649422 1644761 1642458 1643134 1646908 1653091 
3559.795 1660467 1667381 1672294 1674106 1672413 1667556 1660576 1652818 
3563.653 1645642 1640220 1637231 1636772 1638629 1641777 1645151 1647416 
3567.510 1647591 1644863 1639421 1631756 1623180 1614902 1608175 1603766 
3571.367 1602190 1603362 1607238 1613436 1621585 1630634 1639255 1645485 
3575.225 1647395 1643594 1633937 1619668 1603420 1588152 1576414 1569152 
3579.082 1565794 1564220 1562130 1557835 1551334 1544149 1538783 1537456 
3582.940 1541247 1549237 1559136 1567743 1572488 1572028 1566731 1558181 
3586.797 1548572 1539645 1532445 1526912 1522603 1518785 1514990 1510990 
3590.655 1507036 1503238 1499776 1496769 1494482 1493240 1493597 1495637 
3594.512 1499264 1503446 1506799 1507602 1504688 1497623 1487138 1474858 
3598.369 1463105 1454130 1449751 1450812 1457219 1467566 1479807 1491173 
3602.227 1498975 1501068 1496484 1485739 1471015 1455468 1442643 1435059 
3606.084 1434058 1438808 1447346 1456901 1465409 1471760 1476410 1480386 
3609.942 1484907 1490370 1496185 1500891 1503206 1502428 1499365 1495589 
3613.799 1493177 1493473 1496538 1500849 1504158 1504104 1499732 1491656 
3617.656 1482308 1474882 1472562 1477079 1488425 1504692 1522829 1539241 
3621.514 1551175 1556957 1556534 1551177 1543309 1535851 1531909 1534016 
3625.371 1543766 1561345 1585325 1612824 1640201 1663363 1679305 1686564 
3629.229 1686084 1680619 1674582 1672276 1677203 1690633 1711561 1736963 
3633.086 1762510 1783928 1798035 1803425 1800765 1792111 1780360 1767985 
3636.944 1756888 1747896 1741218 1736817 1735000 1736461 1741909 1751725 
3640.801 1765374 1781175 1796555 1808620 1815257 1815607 1810829 1803460 
3644.658 1796896 1794385 1798092 1808581 1825135 1845803 1868680 1892129 
3648.516 1915453 1938725 1962484 1987183 2012725 2038083 2061403 2080419 
3652.373 2092869 2097131 2092845 2080745 2063393 2044210 2027294 2016398 
3656.231 2014272 2021850 2038108 2059909 2082909 2102209 2113592 2113993 
3660.088 2102696 2080853 2051537 2018877 1987333 1960393 1940257 1927354 
3663.946 1920678 1917957 1917054 1916335 1915346 1914750 1916145 1921107 
3667.803 1930461 1943608 1958605 1972450 1982384 1986918 1987129 1986651 
3671.660 1991556 2008806 2044673 2102616 2182358 2278559 2381725 2479098 
3675.518 2557151 2603965 2611673 2577965 2506590 2406153 2288766 2167495 
3679.375 2054272 1957712 1882158 1827293 1789108 1761269 1737337 1712490 
3683.233 1684643 1654513 1625058 1600078 1582949 1575202 1576308 1583644 
3687.090 1593462 1601828 1605789 1603728 1595876 1583665 1569241 1554618 
3690.948 1541301 1529870 1520302 1512029 1504742 1498293 1493350 1490753 
3694.805 1491491 1495764 1503041 1511544 1518714 1521658 1518406 1508078 
3698.662 1491626 1471274 1450167 1431096 1416167 1406047 1400502 1398717 
3702.520 1400124 1404601 1412360 1423290 1436712 1450561 1462209 1468867 
3706.377 1469058 1463201 1454033 1445458 1441568 1444669 1454492 1467977 
3710.235 1480325 1486647 1483688 1470887 1450526 1426649 1403950 1385987 
3714.092 1374737 1370509 1372437 1379171 1389942 1404095 1421297 1440817 
3717.949 1461388 1480985 1497256 1507761 1510867 1505564 1492371 1472792 
3721.807 1449715 1426809 1408355 1398172 1399050 1411640 1434095 1462226 
3725.664 1490542 1513650 1527954 1532553 1529609 1523236 1518208 1518117 
3729.522 1524226 1535476 1548989 1561357 1570210 1574720 1575960 1575976 
3733.379 1576879 1579894 1584795 1590023 1593453 1592808 1586739 1575067 
3737.237 1558792 1539702 1520122 1502039 1487017 1475830 1468480 1464493 
3741.094 1463331 1464520 1468162 1474745 1484696 1498168 1514336 1531287 
3744.951 1546539 1557312 1561635 1558791 1549654 1536054 1520446 1505061 
3748.809 1491491 1480664 1472956 1468682 1468369 1472408 1480838 1492859 
3752.666 1506578 1519209 1528003 1531062 1528031 1520417 1511130 1503537 
3756.524 1500363 1502955 1510900 1522493 1535459 1547436 1557090 1563616 
3760.381 1567037 1567414 1564960 1559636 1551770 1541762 1530745 1519915 
3764.239 1510682 1503813 1499599 1497298 1495992 1494609 1492860 1491175 
3768.096 1490773 1493131 1499397 1509495 1522132 1534683 1544048 1547437 
3771.953 1543560 1532882 1518000 1502738 1491107 1485997 1488408 1496879 
3775.811 1508357 1519005 1525589 1526378 1521823 1513830 1505305 1498850 
3779.668 1496021 1496933 1500473 1504723 1507747 1507977 1504540 1497205 
3783.526 1486480 1473462 1459835 1447521 1438735 1435021 1437203 1444449 
3787.383 1455026 1466075 1474949 1479912 1480784 1478984 1476891 1476939 
3791.240 1480638 1487950 1497332 1506208 1512221 1513695 1510525 1503866 
3795.098 1495759 1488385 1483283 1481009 1481222 1482794 1484519 1485393 
3798.955 1485137 1484144 1483405 1484063 1487200 1493183 1501686 1511627 
3802.813 1521737 1530769 1538188 1544146 1549521 1555355 1562387 1570427 
3806.670 1578596 1585151 1588587 1587757 1582683 1574118 1563576 1552420 
3810.528 1541708 1531950 1523222 1515652 1509814 1506589 1507073 1511905 
3814.385 1520922 1532875 1545470 1556130 1562466 1562995 1557409 1546460 
3818.242 1531805 1515348 1499004 1484508 1473279 1466096 1463471 1465023 
3822.100 1469883 1476726 1483852 1489637 1492855 1492442 1488078 1479570 
3825.957 1467389 1452534 1436896 1422739 1412941 1409921 1415216 1428703 
3829.815 1448567 1471704 1494529 1514097 1528778 1538427 1544145 1547185 
3833.672 1548495 1548036 1545165 1538960 1529176 1516503 1502443 1488727 
3837.530 1476753 1466933 1458752 1451186 1443476 1435534 1428169 1422649 
3841.387 1420004 1420580 1423878 1428654 1433804 1438634 1443310 1448515 
3845.244 1454956 1462721 1471338 1479546 1486148 1490450 1492579 1493358 
3849.102 1494022 1495457 1497961 1501122 1504207 1506326 1507094 1506356 
3852.959 1504149 1500395 1494759 1486829 1476578 1464598 1452410 1441921 
3856.817 1434948 1432459 1434237 1438877 1444473 1449232 1452354 1454135 
3860.674 1455775 1458537 1463275 1469770 1477028 1483669 1488555 1491453 
3864.531 1492841 1493712 1495087 1497315 1500164 1502911 1504895 1505717 
3868.389 1505633 1505006 1504171 1502806 1500199 1494951 1486299 1474190 
3872.246 1459944 1445928 1435197 1430393 1432952 1442583 1457434 1474532 
3876.104 1490703 1503458 1511577 1514915 1514494 1511415 1506623 1500482 
3879.961 1492926 1483474 1472023 1458975 1445509 1433247 1423954 1418824 
3883.819 1418196 1421396 1426712 1432095 1435623 1435957 1432966 1427455 
3887.676 1421293 1416351 1414474 1416468 1422232 1430363 1438821 1445305 
3891.533 1448046 1446418 1441303 1434705 1429574 1428489 1433156 1443471 
3895.391 1457656 1472510 1484387 1490197 1488284 1478802 1463833 1446412 
3899.248 1429966 1417361 1410409 1409410 1413703 1421660 1431535 1441453 
3903.106 1449926 1455923 1459051 1459271 1457220 1453576 1449448 1445541 
3906.963 1442508 1440557 1439652 1439529 1440033 1441112 1443106 1446472 
3910.821 1451877 1459794 1470393 1483309 1497498 1511417 1523051 1530527 
3914.678 1532561 1528823 1520424 1509563 1499354 1492757 1491814 1497000 
3918.535 1507165 1519730 1531841 1541072 1546334 1547966 1547435 1546590 
3922.393 1546898 1548846 1552119 1555524 1557906 1558334 1556425 1552298 
3926.250 1546214 1538462 1529250 1518698 1507066 1494855 1482630 1471018 
3930.108 1460390 1450811 1442254 1434667 1428524 1424495 1423632 1426737 
3933.965 1433917 1444333 1456278 1467516 1475956 1479991 1478962 1473143 
3937.823 1463507 1451500 1438965 1427822 1420139 1417825 1422251 1433709 
3941.680 1451018 1471311 1490781 1505170 1511285 1507568 1494924 1476359 
3945.537 1456024 1438284 1426580 1422509 1426072 1435492 1448490 1462469 
3949.395 1475343 1485912 1493975 1499928 1504693 1509024 1513277 1517082 
3953.252 1519500 1519170 1515430 1508173 1498733 1489675 1483933 1484088 
3957.110 1491317 1504924 1522584 1540885 1556677 1567775 1573713 1575387 
3960.967 1574665 1573281 1572267 1571623 1570860 1569170 1566193 1562063 
3964.824 1557481 1553030 1549096 1545320 1541025 1535059 1526784 1515921 
3968.682 1502947 1488737 1474684 1462207 1452740 1447397 1447002 1451597 
3972.539 1460666 1472725 1485982 1498514 1508977 1516985 1523228 1529048 
3976.397 1535853 1544374 1554201 1563965 1571949 1576529 1577399 1575368 
3980.254 1572405 1570865 1572626 1578301 1587293 1597700 1607430 1614432 
3984.112 1617665 1617221 1614139 1610016 1606532 1604833 1605320 1607435 
3987.969 1610163 1612131 1612259 1610200 1606512 1602436 1599720 1599767 
3991.826 1603257 1609739 1617798 1625552 1631558 1635162 1637096 1638817 
3995.684 1642342 1648862 1658446 1669650 1679975 1686357 1686493 1679044 
3999.541 1664356 1644166 1621178 
##END=
