##TITLE=Bambu-Lab_PETG_Lime-Green_Filament_r7_ATR-Corrected
##JCAMP-DX=5.01  $$ Nicolet v. 1
##DATATYPE=INFRARED SPECTRUM
##ORIGIN=Curtin University
##OWNER=Nicolet
##LONGDATE=2024/07/03
##TIME=15:31:28
##SPECTROMETER/DATA SYSTEM=Nicolet iS50
##DATA PROCESSING=
Ratio against background
%Transmittance->Absorbance
ATR Correction
Truncated
ElementMultiply or ElementDivide
##COMMENTS=
Number of sample scans: 32
Collection length: 47.29 sec
Sample gain: 1.0
Background collected on: Wed Jul 03 15:30:00 2024 (GMT+08:00);
Number of background scans: 32
Background gain: 1.0
Sample spacing:  1.000
Number of scan points: 16672
Resolution points: 8192
Number of FFT points: 65536
Apodization: N-B strong;
Phase correction: Mertz;
Laser frequency: 15798.3 cm-1
Number of rejected sample scans: 0
Number of rejected background scans: 0
Bench serial number: AUP1200105;
##RESOLUTION=4.000
##XUNITS=1/CM
##YUNITS=ABSORBANCE
##FIRSTX=400.163452
##LASTX=4000.187744
##FIRSTY=0.039491
##MAXX=4000.187744
##MINX=400.163452
##MAXY=1.482182
##MINY=-0.030107
##XFACTOR=1.000000
##YFACTOR=1.000000E-008
##NPOINTS=7468
##DELTAX=0.482125
##ZPD=8192
##XYDATA=(X++(Y..Y))
400.163 3949110 3945856 3941488 3934304 3921945 3902097 3874922 3844104 
404.020 3816649 3800786 3803245 3826541 3867920 3919795 3972198 4015723 
407.877 4044435 4057189 4057303 4050477 4042499 4036996 4034745 4033880 
411.734 4031395 4024620 4012652 3996713 3980026 3966865 3961514 3967190 
415.591 3985408 4015652 4055582 4101503 4149307 4195365 4237598 4275926 
419.448 4312331 4349914 4391539 4438331 4488803 4538864 4582970 4615884 
423.305 4634606 4639553 4634824 4626960 4623068 4628577 4645718 4672904 
427.162 4705293 4736298 4759297 4769120 4762994 4740581 4703713 4655639 
431.019 4600595 4543273 4488497 4440440 4402976 4378370 4367003 4366982 
434.876 4374205 4382837 4386386 4379051 4357329 4321102 4274063 4223117 
438.733 4176694 4142578 4125556 4125861 4138917 4156552 4169511 4170322 
442.590 4155519 4126363 4087960 4047063 4009642 3978984 3955151 3935767 
446.447 3917787 3899320 3880716 3864410 3853729 3851212 3857394 3870352 
450.304 3886517 3901865 3913331 3919497 3920618 3917964 3913002 3906752 
454.161 3899696 3892082 3884341 3877325 3872191 3870000 3871283 3875950 
458.017 3883384 3892889 3904035 3916611 3930462 3945006 3959091 3971145 
461.874 3979868 3984931 3987420 3989634 3994234 4002947 4015668 4030233 
465.731 4043182 4051169 4052494 4047965 4040766 4035271 4035430 4043314 
469.588 4058525 4078640 4100406 4121107 4139534 4156159 4172562 4190556 
473.445 4211435 4235638 4262960 4292876 4324823 4358195 4392083 4425088 
477.302 4455446 4481543 4502686 4519667 4534841 4551439 4572413 4599273 
481.159 4631380 4666247 4700588 4731784 4759116 4784157 4810153 4840752 
485.016 4878589 4924335 4976697 5033137 5091119 5149109 5207241 5267030 
488.873 5330814 5400858 5478773 5565218 5660030 5762435 5871240 5984894 
492.730 6101503 6218974 6335336 6449186 6560169 6669116 6777597 6887132 
496.587 6998078 7108830 7215504 7312422 7393204 7452091 7485086 7490437 
500.444 7468513 7421139 7350819 7260204 7151959 7028921 6894342 6751948 
504.301 6605667 6459070 6314885 6174665 6038926 5907635 5780897 5659422 
508.158 5544721 5438736 5343190 5258838 5184996 5119532 5059392 5001471 
512.015 4943607 4885202 4827382 4772600 4723786 4683401 4652696 4631308 
515.871 4617416 4608206 4600571 4591731 4579742 4563626 4543395 4519843 
519.728 4494356 4468643 4444508 4423531 4406814 4394698 4386572 4380991 
523.585 4375946 4369366 4359663 4346123 4329119 4309961 4290451 4272353 
527.442 4256880 4244378 4234336 4225590 4216742 4206584 4194399 4180115 
531.299 4164284 4147803 4131653 4116577 4102850 4090248 4078143 4065730 
535.156 4052348 4037699 4021953 4005579 3989160 3973025 3957140 3941045 
539.013 3924189 3906258 3887525 3868900 3851807 3837598 3827018 3819736 
542.870 3814239 3808199 3799156 3785337 3766349 3743457 3719375 3697580 
546.727 3681403 3673141 3673436 3681007 3692950 3705276 3713808 3715013 
550.584 3706716 3688455 3661516 3628487 3592730 3557601 3525791 3498907 
554.441 3477285 3460149 3445911 3432643 3418314 3401148 3379799 3353398 
558.298 3321674 3285052 3244672 3202391 3160644 3122046 3089000 3063218 
562.155 3045323 3034670 3029403 3026770 3023654 3017158 3005237 2987065 
566.012 2963326 2936015 2908073 2882721 2862743 2849845 2844356 2845156 
569.869 2850096 2856546 2862022 2864681 2863597 2858759 2850888 2841146 
573.725 2830809 2821033 2812628 2805869 2800480 2795714 2790553 2784173 
577.582 2776405 2768019 2760782 2757019 2758893 2767569 2782603 2801921 
581.439 2822337 2840596 2854427 2863261 2868309 2871887 2876436 2883522 
585.296 2893318 2904820 2916620 2927864 2938917 2951521 2968150 2991045 
589.153 3021348 3058660 3101379 3147433 3195439 3245287 3298345 3356803 
593.010 3422756 3497164 3579322 3666819 3756128 3843353 3924944 3998048 
596.867 4060480 4110415 4146124 4165858 4168065 4151770 4117006 4065009 
600.724 3998128 3919541 3832788 3741372 3648521 3557048 3469328 3387255 
604.581 3312192 3244951 3185808 3134675 3091340 3055699 3027866 3008105 
608.438 2996568 2992939 2996253 3004838 3016607 3029541 3042161 3053835 
612.295 3064805 3075937 3088271 3102618 3119300 3138106 3158481 3179613 
616.152 3200651 3220671 3238707 3253772 3265069 3272256 3275749 3276866 
620.009 3277651 3280458 3287365 3299579 3317242 3339507 3364962 3392275 
623.866 3420598 3449788 3480402 3513523 3550760 3594426 3647846 3715449 
627.723 3802432 3913599 4051549 4214618 4395295 4579866 4749727 4884558 
631.579 4966568 4984733 4937578 4833619 4689240 4524814 4360291 4211575 
635.436 4088511 3994666 3928575 3885730 3860679 3848509 3845613 3849708 
639.293 3859445 3873893 3892228 3913617 3937249 3962444 3988666 4015485 
643.150 4042412 4068879 4094235 4117845 4139273 4158369 4175362 4190766 
647.007 4205206 4219300 4233432 4247679 4261754 4275072 4286885 4296468 
650.864 4303357 4307584 4309799 4311225 4313493 4318274 4326887 4339951 
654.721 4357222 4377655 4399733 4421868 4442920 4462441 4480813 4499022 
658.578 4518287 4539597 4563357 4589203 4616137 4642814 4668063 4691246 
662.435 4712585 4733103 4754363 4778013 4805312 4836766 4872020 4910022 
666.292 4949362 4988704 5027107 5064198 5100139 5135504 5170986 5207340 
670.149 5245236 5285302 5328140 5374381 5424647 5479489 5539385 5604788 
674.006 5676102 5753784 5838253 5929738 6027971 6131857 6239282 6347040 
677.863 6451095 6547099 6630933 6699315 6750294 6783390 6799628 6801244 
681.720 6791426 6773850 6752392 6730681 6711820 6698103 6690883 6690585 
685.577 6696874 6708972 6726053 6747579 6773543 6804455 6841255 6884984 
689.433 6936539 6996322 7064182 7139323 7220575 7306647 7396517 7489762 
693.290 7586802 7688918 7798103 7916732 8047198 8191611 8351668 8528639 
697.147 8723497 8936960 9169473 9420922 9690291 9975409 10272866 10578337 
701.004 10887168 11195172 11499275 11797837 12090608 12378170 12661386 
704.379 12940784 13216352 13487503 13753487 14013658 14267817 14516295 
707.754 14759943 15000102 15238729 15478638 15723848 15979894 16254137 
711.129 16555543 16894442 17282184 17730814 18252868 18861368 19569840 
714.504 20392262 21342886 22435828 23684630 25101758 26698154 28482982 
717.878 30463070 32642606 35022052 37597020 40356220 43278932 46331476 
721.253 49463056 52601020 55646704 58474056 60934196 62869256 64136912 
724.628 64640248 64352608 63324760 61671136 59541212 57089728 54454404 
728.003 51745124 49041904 46398404 43847440 41406692 39083264 36877032 
731.378 34782892 32792362 30894694 29078126 27331018 25643020 24005936 
734.752 22414420 20866132 19361644 17904066 16498509 15151423 13869914 
738.127 12661102 11531378 10485855 9527859 8658718 7877725 7182216 6567999 
741.984 6029621 5560680 5154190 4802821 4499187 4236092 4006866 3805679 
745.841 3627745 3469464 3328367 3202830 3091744 2994135 2908842 2834457 
749.698 2769363 2711998 2661137 2616077 2576648 2543046 2515407 2493514 
753.555 2476488 2462831 2450649 2438159 2424131 2408237 2391016 2373690 
757.412 2357616 2343905 2333094 2325184 2319852 2316841 2316177 2318281 
761.269 2323712 2332910 2345803 2361785 2379793 2398779 2418092 2437769 
765.126 2458644 2482029 2509314 2541505 2578899 2621090 2667083 2715630 
768.983 2765474 2815574 2865084 2913345 2959802 3003993 3045526 3084217 
772.840 3120025 3152982 3183128 3210446 3234874 3256524 3275868 3293943 
776.697 3312387 3333268 3358664 3390221 3428776 3474268 3525897 3582630 
780.554 3643719 3709199 3780070 3858284 3946306 4046734 4161695 4292636 
784.410 4440088 4603788 4782827 4976028 5182222 5400581 5630766 5873027 
788.267 6127877 6395676 6675863 6966085 7261420 7553832 7832172 8082746 
792.124 8290492 8440639 8520497 8521166 8438884 8275782 8040008 7745198 
795.981 7409365 7053293 6698484 6365083 6069864 5824624 5635315 5502007 
799.838 5419670 5379719 5371803 5385673 5412537 5445867 5481419 5516918 
803.695 5551299 5584140 5615176 5644161 5670806 5694855 5716052 5734176 
807.552 5749008 5760354 5768221 5772909 5775149 5776058 5776976 5779140 
811.409 5783371 5789909 5798372 5807969 5817787 5827044 5835272 5842310 
815.266 5848156 5852912 5856658 5859519 5861743 5863882 5866694 5871079 
819.123 5877885 5887640 5900495 5916214 5934336 5954443 5976284 5999819 
822.980 6025117 6052214 6080933 6110969 6142016 6174059 6207644 6243884 
826.837 6284319 6330500 6383456 6443345 6509251 6579470 6651963 6725040 
830.694 6797885 6870852 6945281 7023043 7105829 7194626 7289271 7388669 
834.551 7491067 7594654 7698028 7800463 7901719 8001782 8100389 8196807 
838.408 8289904 8378523 8461913 8540256 8614612 8686637 8757982 8829515 
842.264 8900921 8970568 9035897 9094077 9142718 9180335 9206526 9221873 
846.121 9227588 9225347 9217120 9205210 9192164 9180644 9173012 9170811 
849.978 9174373 9182717 9193817 9205320 9215366 9223180 9229307 9235290 
853.835 9243081 9254225 9269526 9288919 9311946 9338343 9368584 9404165 
857.692 9447446 9501226 9568281 9651016 9751369 9870948 10011278 10173935 
861.549 10360495 10572465 10811035 11077128 11371478 11695013 12049151 
864.924 12436065 12858522 13319474 13821353 14365165 14949688 15570793 
868.299 16220979 16889258 17561250 18219692 18845168 19417238 19915844 
871.674 20322750 20622996 20805952 20865954 20802412 20619420 20325276 
875.048 19931648 19452856 18905062 18305248 17670240 17015716 16355313 
878.423 15700214 15059115 14438583 13843544 13277845 12744616 12246392 
881.798 11785088 11361891 10977238 10630887 10322026 10049518 9811935 
885.173 9607569 9434328 9289601 9170144 9072150 8991404 8923673 8865064 
889.030 8812551 8764278 8719739 8679669 8645765 8620012 8604161 8599039 
892.887 8604267 8618279 8638618 8662574 8687738 8712479 8736059 8758391 
896.744 8779534 8799164 8816119 8828264 8832648 8825894 8804680 8766258 
900.601 8708761 8631409 8534489 8419262 8287799 8142661 7986796 7823179 
904.458 7654745 7484267 7314363 7147602 6986490 6833429 6690527 6559323 
908.314 6440488 6333747 6237880 6151106 6071492 5997449 5928079 5863321 
912.171 5803784 5750590 5705011 5668281 5641396 5624979 5619225 5623772 
916.028 5637675 5659448 5687246 5719208 5753780 5790059 5827854 5867539 
919.885 5909706 5954757 6002636 6052696 6103972 6155437 6206332 6256386 
923.742 6305738 6354756 6403760 6452819 6501730 6550112 6597622 6644150 
927.599 6689840 6735126 6780530 6826612 6873870 6922710 6973499 7026537 
931.456 7081996 7139864 7199831 7261399 7324006 7387363 7451730 7518129 
935.313 7588343 7664705 7749734 7845664 7954108 8075934 8211275 8359792 
939.170 8520983 8694486 8880249 9078617 9290196 9515662 9755509 10009866 
943.027 10278267 10559647 10852265 11153848 11461619 11772466 12083047 
946.402 12389991 12690131 12980759 13259999 13527052 13782439 14027961 
949.776 14266483 14501382 14735910 14972550 15212381 15454867 15697801 
953.151 15937462 16169013 16386701 16584228 16754885 16891906 16988890 
956.526 17040384 17042800 16995002 16899038 16760232 16586947 16389830 
959.901 16180840 15972187 15775260 15599775 15453173 15340276 15263085 
963.276 15221064 15211475 15229973 15271249 15329655 15399660 15476112 
966.651 15554345 15630177 15699829 15759981 15807717 15840615 15856677 
970.025 15854236 15831867 15788247 15722230 15632874 15519802 15383285 
973.400 15224490 15045400 14848675 14637454 14415188 14185560 13952433 
976.775 13719782 13491626 13271710 13063231 12868509 12688904 12524891 
980.150 12376342 12242837 12123957 12019382 11928760 11851535 11786743 
983.525 11732929 11688294 11650845 11618695 11590156 11563760 11538156 
986.899 11512104 11484386 11454104 11420763 11384592 11346579 11308291 
990.274 11271536 11238106 11209454 11186746 11170970 11163186 11164699 
993.649 11176952 11201338 11238888 11290020 11354546 11431871 11521459 
997.024 11623150 11737387 11865186 12007776 12166220 12341112 12532556 
1000.399 12740378 12964559 13205686 13465166 13745318 14049144 14380127 
1003.774 14742009 15138862 15575260 16056538 16589025 17180038 17837734 
1007.148 18570896 19388846 20301646 21320676 22459384 23733944 25163344 
1010.523 26768466 28569856 30583956 32818120 35264440 37893196 40646592 
1013.898 43434052 46131000 48583724 50622404 52083056 52834964 52805936 
1017.273 51996404 50476868 48370440 45828472 43007096 40050524 37081488 
1020.648 34197756 31472230 28955296 26677850 24654838 22888572 21372064 
1024.022 20091702 19029594 18165218 17476704 16941640 16537678 16243260 
1027.398 16038227 15904455 15826431 15791474 15789787 15814120 15859330 
1030.773 15921856 15999292 16090037 16193072 16307728 16433485 16569781 
1034.148 16715896 16870856 17033468 17202390 17376294 17553880 17733892 
1037.523 17915062 18096020 18275254 18451064 18621594 18784868 18938682 
1040.899 19080714 19208538 19319726 19412070 19483850 19534002 19562220 
1044.274 19568860 19554778 19521114 19469276 19400922 19318074 19223348 
1047.649 19119838 19010940 18900008 18789942 18682924 18580408 18483334 
1051.024 18392638 18309564 18235918 18174084 18126682 18096252 18084904 
1054.400 18094196 18125122 18178290 18254088 18352836 18474772 18620030 
1057.775 18788670 18980738 19196316 19435644 19699090 19987040 20299650 
1061.150 20636750 20997790 21382024 21788948 22218574 22671618 23149460 
1064.525 23653668 24185600 24746060 25335184 25952888 26599372 27275654 
1067.901 27984026 28727880 29511350 30338758 31214168 32141188 33123120 
1071.276 34163308 35265512 36433944 37673148 38987456 40380536 41854768 
1074.651 43411008 45048372 46764136 48553676 50410288 52325052 54286648 
1078.026 56281628 58294712 60309468 62309080 64277136 66198532 68060080 
1081.402 69851344 71564928 73196880 74746576 76216432 77611344 78938056 
1084.777 80204632 81420048 82593632 83734536 84851000 85949520 87034248 
1088.152 88106552 89165112 90206296 91224448 92212128 93159720 94054976 
1091.527 94882504 95623888 96258672 96766104 97127328 97327208 97355280 
1094.903 97205784 96876896 96369512 95686544 94832400 93812928 92635552 
1098.278 91309328 89844920 88254336 86551016 84749600 82865928 80916560 
1101.653 78918504 76888696 74843880 72800344 70774720 68784376 66848004 
1105.028 64985884 63219684 61571664 60063756 58716304 57547052 56569856 
1108.404 55793764 55222200 54852168 54673624 54669280 54814644 55078672 
1111.779 55425184 55814868 56207788 56566232 56857044 57053388 57135444 
1115.154 57090308 56911148 56596448 56148916 55574936 54884052 54088360 
1118.529 53201972 52240260 51218636 50151844 49053060 47933384 46801824 
1121.905 45665540 44530348 43401336 42283284 41180804 40098440 39040328 
1125.280 38009976 37010060 36042280 35107388 34205232 33334932 32494890 
1128.655 31683054 30897090 30134668 29393738 28672654 27970264 27285764 
1132.030 26618474 25967618 25332182 24711008 24103018 23507560 22924558 
1135.406 22354670 21799036 21259028 20735784 20229972 19741632 19270238 
1138.781 18814876 18374472 17948032 17534710 17133908 16745301 16368814 
1142.156 16004644 15653218 15315075 14990760 14680651 14384888 14103252 
1145.531 13835251 13580191 13337269 13105696 12884660 12673365 12470980 
1148.906 12276654 12089575 11908976 11734139 11564267 11398469 11235526 
1152.282 11073937 10912057 10748375 10581940 10412651 10241497 10070405 
1155.657 9901906 9738630 9582839 9436080 9299179 9172424 9055866 8949586 
1159.514 8853912 8769295 8696233 8635040 8585861 8548701 8523737 8511649 
1163.372 8513796 8532356 8570062 8629853 8714374 8825488 8963877 9128887 
1167.229 9318480 9529275 9756748 9995329 10238696 10479911 10711718 10926906 
1171.087 11118636 11280835 11408514 11498033 11547223 11555407 11523356 
1174.462 11453003 11347315 11209984 11045156 10857252 10650881 10430632 
1177.837 10201088 9966701 9731669 9499859 9274639 9058905 8855078 8665170 
1181.695 8490995 8334254 8196606 8079625 7984704 7912823 7864505 7839694 
1185.552 7837857 7858143 7899579 7961180 8042016 8141137 8257463 8389638 
1189.409 8536087 8695027 8864660 9043347 9229700 9422582 9620959 9823934 
1193.267 10030592 10240128 10452063 10666373 10883638 11104953 11331759 
1196.642 11565416 11806967 12056854 12314937 12580675 12853447 13132846 
1200.017 13418916 13712211 14013673 14324418 14645450 14977477 15320823 
1203.393 15675418 16041049 16417442 16804560 17202714 17612610 18035230 
1206.768 18471744 18923238 19390648 19874584 20375444 20893634 21429672 
1210.143 21984444 22559242 23155696 23775656 24420970 25093436 25794694 
1213.518 26526318 27289942 28087172 28919554 29788158 30693238 31633652 
1216.894 32606554 33607344 34629740 35666412 36709872 37753488 38792692 
1220.269 39825828 40854988 41886056 42928532 43994688 45098496 46254436 
1223.644 47476016 48774776 50159396 51635160 53203840 54864168 56612540 
1227.019 58444132 60354036 62338124 64393508 66518320 68711088 70969752 
1230.395 73291136 75670624 78102688 80581496 83101472 85657368 88243368 
1233.770 90851664 93471024 96085872 98676368 101219392 103689680 106060768 
1237.145 108305112 110393536 112295080 113978112 115412960 116576072 
1240.038 117453776 118044224 118356624 118408248 118220440 117815384 
1242.931 117214808 116440096 115513064 114456520 113293816 112047648 
1245.824 110738936 109386552 108007744 106618944 105236576 103876976 
1248.717 102555384 101284824 100075160 98933064 97862840 96867776 95951424 
1252.093 95117744 94370656 93712576 93142888 92656856 92245304 91895312 
1255.468 91591240 91315880 91051256 90779128 90481248 90139880 89738688 
1258.843 89263424 88703192 88050592 87301872 86456264 85515560 84483704 
1262.218 83367184 82175072 80919120 79613248 78272376 76911112 75542504 
1265.594 74177392 72824480 71490576 70181280 68901208 67654000 66442116 
1268.969 65266584 64126964 63021624 61948200 60904096 59886904 58894508 
1272.344 57924980 56976556 56047552 55136448 54241984 53363096 52498908 
1275.719 51648360 50809908 49981420 49160360 48344184 47530968 46719788 
1279.094 45911016 45106024 44306768 43515188 42732788 41960500 41198776 
1282.470 40448032 39708908 38982520 38270432 37574436 36896280 36237352 
1285.845 35598464 34979768 34380836 33800660 33237818 32690498 32156504 
1289.220 31633378 31118270 30608078 30099484 29589030 29073334 28549228 
1292.595 28013980 27465558 26902762 26325342 25734076 25130776 24518264 
1295.971 23900310 23281446 22666848 22062018 21472424 20903126 20358438 
1299.346 19841662 19354946 18899182 18474076 18078158 17708976 17363160 
1302.721 17036680 16725117 16424063 16129506 15838164 15547730 15257005 
1306.096 14965764 14674693 14385045 14098556 13817228 13543275 13278957 
1309.472 13026541 12788148 12565483 12359667 12171005 11998820 11841454 
1312.847 11696284 11559965 11428724 11298734 11166498 11029190 10884887 
1316.222 10732712 10572791 10405998 10233822 10057949 9879964 9701179 
1319.597 9522487 9344391 9167115 8990791 8815658 8642248 8471454 8304549 
1323.455 8143098 7988908 7843891 7710090 7589745 7485392 7399989 7336940 
1327.312 7300075 7293485 7321264 7387356 7495358 7648407 7849216 8099859 
1331.170 8401497 8754005 9155386 9601228 10084315 10594417 11118543 11641352 
1335.027 12146008 12615247 13032579 13383448 13656388 13843742 13942008 
1338.402 13951823 13877441 13726036 13506784 13230041 12906514 12546712 
1341.778 12160589 11757375 11345505 10932599 10525355 10129395 9749100 
1345.153 9387501 9046275 8726051 8426695 8147748 7888793 7649569 7430052 
1349.010 7230258 7050049 6889021 6746323 6620725 6510683 6414528 6330640 
1352.868 6257635 6194498 6140678 6096039 6060754 6035062 6019090 6012526 
1356.725 6014713 6024620 6041241 6063951 6093016 6129786 6176757 6237277 
1360.583 6315040 6413567 6535589 6682649 6854962 7051433 7269858 7507100 
1364.440 7759315 8021971 8289964 8557726 8819357 9069140 9301902 9513532 
1368.297 9701259 9863788 10001090 10114121 10204364 10273525 10323330 
1371.673 10355344 10371010 10371573 10358062 10331212 10291463 10238998 
1375.048 10173795 10095972 10005832 9904194 9792475 9672794 9547896 9421042 
1378.905 9295767 9175823 9064747 8965784 8881614 8814227 8764836 8733787 
1382.763 8720653 8724345 8743378 8776005 8820428 8874935 8937776 9007172 
1386.620 9081169 9157670 9234493 9309591 9381349 9448697 9511447 9570038 
1390.478 9625504 9679151 9732307 9786115 9841533 9899464 9960991 10027750 
1394.335 10102084 10187124 10286706 10405034 10546418 10715000 10914667 
1397.710 11149083 11421885 11737014 12098894 12512758 12984580 13521011 
1401.085 14128958 14814994 15584475 16440246 17381208 18400756 19485046 
1404.461 20611726 21749184 22856826 23886530 24785648 25501200 25984958 
1407.836 26198760 26119148 25740514 25075936 24155786 23024108 21733638 
1411.211 20340172 18897544 17453638 16048011 14710829 13463196 12317920 
1414.586 11280984 10352890 9529997 8805695 8171566 7618291 7136398 6716972 
1418.444 6351913 6034177 5757757 5517431 5308754 5127922 4971689 4837504 
1422.301 4723469 4628204 4550750 4490246 4445845 4416529 4401290 4399264 
1426.159 4409935 4433255 4469566 4519351 4582986 4660525 4751621 4855693 
1430.016 4972025 5099991 5239054 5388645 5548030 5716105 5891460 6072519 
1433.874 6257768 6445953 6636101 6827340 7018681 7208711 7395593 7577234 
1437.731 7751728 7917836 8075445 8225762 8371293 8515664 8663203 8818550 
1441.588 8986165 9169854 9372404 9595285 9838410 10100281 10378078 10668141 
1445.446 10966425 11268845 11571442 11870372 12161651 12440827 12702820 
1448.821 12941791 13151386 13325101 13456796 13541354 13575430 13558014 
1452.196 13490814 13378270 13226934 13044606 12839364 12618671 12388974 
1455.572 12155591 11922902 11694515 11473382 11261690 11060681 10870615 
1458.947 10690796 10519885 10356365 10198943 10046685 9899197 9756244 
1462.322 9617534 9482441 9349916 9218612 9087176 8954480 8819800 8682880 
1466.179 8543730 8402500 8259371 8114540 7968312 7821242 7674002 7527371 
1470.037 7381882 7237484 7093429 6948234 6799972 6646818 6487473 6321708 
1473.894 6150468 5975816 5800434 5627224 5458722 5296648 5141824 4994099 
1477.752 4852622 4716183 4583539 4453740 4326273 4201075 4078436 3958810 
1481.609 3842778 3730832 3623439 3521000 3423833 3332173 3246142 3165659 
1485.467 3090452 3020196 2954520 2893291 2836622 2784929 2738821 2698904 
1489.324 2665558 2638907 2618739 2604713 2596642 2594641 2599340 2611841 
1493.181 2633528 2665940 2710402 2768109 2840004 2927054 3030481 3152230 
1497.039 3295408 3464564 3666035 3907747 4198579 4547163 4959856 5438371 
1500.896 5977250 6562061 7168525 7763672 8308489 8762363 9088296 9258433 
1504.754 9258366 9089673 8769808 8329131 7805858 7240001 6667950 6118604 
1508.611 5611765 5158483 4762640 4423040 4135477 3894170 3692900 3525529 
1512.469 3386379 3270372 3173185 3091317 3022123 2963858 2915475 2876410 
1516.326 2846303 2824669 2810749 2803377 2801134 2802538 2806307 2811584 
1520.183 2818011 2825604 2834596 2845141 2857095 2869922 2882796 2894803 
1524.041 2905184 2913514 2919742 2924146 2927147 2929066 2929911 2929324 
1527.898 2926566 2920747 2910966 2896559 2877323 2853567 2826061 2795968 
1531.756 2764579 2733143 2702675 2673836 2646891 2621805 2598305 2576130 
1535.613 2555049 2534997 2516023 2498321 2482125 2467647 2455124 2444817 
1539.470 2437061 2432156 2430409 2431953 2436538 2443494 2451732 2459758 
1543.328 2466012 2469064 2468030 2462610 2453314 2441215 2427734 2414284 
1547.185 2402014 2391587 2383227 2376809 2372147 2369093 2367734 2368353 
1551.043 2371187 2376355 2383619 2392412 2401798 2410854 2418784 2425279 
1554.900 2430485 2435107 2440068 2446320 2454588 2465172 2477917 2492208 
1558.758 2507244 2522288 2536838 2550992 2565350 2580961 2599170 2621213 
1562.615 2647938 2679727 2716310 2756980 2800908 2847388 2896232 2947784 
1566.472 3002974 3063069 3129482 3203616 3286807 3380351 3485662 3604302 
1570.330 3737885 3887976 4055782 4242012 4446647 4668902 4907051 5158228 
1574.187 5418125 5680599 5937480 6178697 6392891 6568537 6695253 6764959 
1578.045 6772753 6717216 6600404 6427497 6206438 5947266 5661536 5361265 
1581.902 5058059 4762134 4481639 4222370 3987818 3779440 3597243 3440139 
1585.760 3306427 3193994 3100434 3023170 2959455 2906577 2861966 2823396 
1589.617 2789075 2757760 2728683 2701460 2676033 2652525 2631182 2612326 
1593.474 2596314 2583393 2573717 2567289 2563929 2563486 2565869 2571217 
1597.332 2579892 2592403 2609233 2630621 2656498 2686410 2719610 2755350 
1601.189 2792968 2832075 2872560 2914525 2958135 3003672 3051364 3101589 
1605.047 3154788 3211662 3272891 3339078 3410419 3486605 3566644 3649027 
1608.904 3731829 3813126 3891100 3964303 4031631 4092195 4145160 4189552 
1612.761 4224108 4247277 4257415 4253044 4233222 4197932 4148173 4086104 
1616.619 4014662 3937232 3857108 3777201 3699797 3626743 3559475 3499227 
1620.476 3447030 3403585 3369084 3343072 3324526 3311947 3303748 3298567 
1624.334 3295424 3293807 3293447 3294261 3296124 3298892 3302440 3306831 
1628.191 3312283 3319162 3327793 3338332 3350583 3364065 3378118 3392153 
1632.049 3405755 3418839 3431484 3443887 3456208 3468505 3480712 3492865 
1635.906 3505134 3517908 3531676 3546965 3564029 3582824 3602919 3623613 
1639.763 3644026 3663347 3680948 3696541 3710210 3722402 3733840 3745481 
1643.621 3758243 3773059 3790574 3811230 3835101 3862055 3891684 3923456 
1647.478 3956684 3990627 4024506 4057731 4089883 4121030 4151629 4182529 
1651.336 4214689 4249006 4285966 4325547 4367384 4411014 4456241 4503410 
1655.193 4553394 4607392 4666583 4731880 4803692 4882038 4966649 5057372 
1659.051 5154114 5257010 5366242 5481740 5603229 5730106 5861677 5997411 
1662.908 6137090 6280942 6429513 6583529 6743682 6910509 7084175 7264575 
1666.765 7451071 7642680 7837914 8035071 8232447 8428790 8623486 8816867 
1670.623 9009878 9203915 9400288 9599955 9803526 10011294 10223569 10440893 
1674.480 10663932 10893433 11129651 11372331 11620536 11872961 12128289 
1677.855 12385464 12643851 12903155 13163029 13423093 13682903 13942234 
1681.231 14201386 14461420 14723960 14990871 15263601 15542799 15828295 
1684.606 16119494 16416100 16718780 17029480 17351222 17687472 18041492 
1687.981 18415942 18812980 19234496 19682824 20160772 20671804 21219438 
1691.356 21806956 22437202 23113094 23838252 24617622 25457702 26365822 
1694.732 27348796 28411784 29557478 30786962 32101652 33505824 35008348 
1698.107 36623152 38367264 40257992 42309512 44531008 46926676 49498440 
1701.482 52249724 55188684 58329212 61689256 65286700 69134936 73239152 
1704.857 77594840 82188168 86997344 91993592 97140400 102391600 107689680 
1708.233 112965832 118142888 123140272 127878512 132280896 136273312 
1711.126 139782784 142739744 145084976 146780368 147817280 148218160 
1714.019 148028880 147306736 146108384 144485216 142484560 140155136 
1716.912 137550944 134730816 131752896 128668120 125515272 122320736 
1719.805 119101608 115870976 112641728 109428016 106244088 103102064 
1722.698 100010216 96972832 93991640 91067960 88204184 85404120 82671720 
1726.073 80009592 77417832 74893944 72433832 70033544 67690296 65403228 
1729.448 63172348 60997456 58876760 56806416 54780932 52794420 50842004 
1732.824 48921192 47032028 45176704 43358372 41579740 39841860 38143968 
1736.199 36483548 34857460 33262860 31698236 30163858 28661970 27196300 
1739.574 25771468 24392204 23062752 21786500 20566044 19403116 18298988 
1742.949 17254400 16269812 15345144 14479961 13673230 12923385 12228347 
1746.325 11585616 10992314 10445388 9941712 9478239 9051964 8659942 8299181 
1750.182 7966638 7659176 7373846 7108033 6859790 6627779 6411420 6210395 
1754.040 6024477 5853120 5695413 5550048 5415571 5290455 5173372 5063154 
1757.897 4958890 4859856 4765545 4675681 4590384 4509808 4434246 4363673 
1761.754 4297648 4235218 4175285 4116687 4058885 4001977 3946750 3894271 
1765.612 3845516 3800928 3760190 3722384 3686285 3650735 3615018 3578850 
1769.469 3542367 3505782 3469362 3433112 3397135 3361560 3326700 3293015 
1773.327 3261042 3231223 3203753 3178557 3155458 3134198 3114543 3096206 
1777.184 3078973 3062415 3046138 3029697 3012853 2995629 2978240 2961108 
1781.042 2944517 2928393 2912404 2895778 2877853 2858107 2836645 2814038 
1784.899 2791449 2770221 2751643 2736560 2725156 2716845 2710358 2703807 
1788.756 2695178 2682648 2665241 2642981 2617235 2590313 2565048 2543857 
1792.614 2528281 2518333 2512676 2509029 2504975 2498562 2488913 2476159 
1796.471 2461293 2445482 2429806 2414728 2400264 2386004 2371531 2356609 
1800.329 2341431 2326529 2312828 2301218 2292592 2287344 2285445 2286217 
1804.186 2288502 2290819 2291874 2290823 2287701 2283246 2278795 2275574 
1808.043 2274319 2274777 2275939 2276144 2273899 2268256 2259097 2247056 
1811.901 2233077 2217994 2202294 2186039 2169284 2152375 2136345 2122768 
1815.758 2113562 2110359 2114109 2124690 2141056 2161526 2184230 2207367 
1819.616 2229412 2248937 2264683 2275472 2280522 2279560 2273129 2262460 
1823.473 2249110 2234536 2219782 2205080 2190304 2175093 2159381 2143464 
1827.331 2127946 2113318 2099593 2086093 2071624 2054861 2035187 2012900 
1831.188 1989489 1967092 1947956 1933492 1923976 1918203 1914201 1909623 
1835.045 1902771 1892826 1880175 1865855 1851156 1836901 1823090 1808812 
1838.903 1792760 1773662 1751025 1725492 1698794 1673475 1652038 1636283 
1842.760 1626747 1622436 1621321 1620641 1618009 1611726 1601223 1586766 
1846.618 1569222 1549513 1528427 1506437 1484004 1461460 1439373 1418141 
1850.475 1398094 1378991 1360413 1341598 1321980 1301457 1280655 1260764 
1854.333 1243351 1229821 1221228 1217974 1219939 1226196 1235324 1245183 
1858.190 1253084 1255924 1251020 1236502 1212401 1180669 1145055 1110058 
1862.047 1079840 1056733 1041024 1030793 1023373 1016224 1008347 1000210 
1865.905 993540 989809 989495 991266 992725 991277 985829 977501 969822 
1870.244 967401 974418 992617 1020662 1053959 1086256 1111226 1124452 
1874.102 1124212 1111876 1090676 1064963 1038621 1014780 995523 982480 
1877.959 976826 979822 992052 1013249 1041343 1072624 1101918 1123918 
1881.817 1134093 1130280 1113190 1086243 1054587 1023781 998103 979746 
1885.674 968364 961997 957759 953386 947751 941311 935178 930751 928500 
1890.014 928237 928853 929648 930411 932214 936593 944876 957098 971620 
1894.353 985212 994391 996423 990974 980041 967572 957655 952956 953421 
1898.693 956381 957133 951218 935565 910203 877769 843065 811178 786306 
1903.032 770555 764079 765189 771548 780504 790217 799349 807792 816003 
1907.372 825375 837447 853589 874172 898332 923388 945787 961671 968480 
1911.712 965744 955765 942724 931872 927477 931790 944195 962186 982141 
1916.051 1001000 1016961 1030193 1041490 1051913 1060984 1066963 1066690 
1919.909 1057068 1036110 1004479 965257 924032 886927 859403 844380 841868 
1924.248 848790 860458 871914 880069 884198 886322 889887 898476 913663 
1928.588 934631 957961 979446 995433 1004951 1009942 1014728 1023586 1039048 
1932.927 1059501 1080008 1093162 1092668 1075894 1045856 1010412 980516 
1936.785 965758 971738 997495 1036197 1077225 1110260 1128113 1129742 
1940.642 1119382 1105955 1098982 1106563 1131916 1173117 1222394 1268749 
1944.500 1300109 1306727 1283933 1234600 1168662 1101886 1051069 1030167 
1948.357 1044708 1090438 1153492 1215640 1259348 1274624 1261650 1231138 
1952.215 1199081 1181465 1186974 1214401 1251942 1281727 1285200 1250094 
1956.072 1172947 1062118 933875 810758 715382 667390 678231 749994 873011 
1960.412 1028250 1189257 1328598 1421956 1454693 1422622 1333677 1202156 
1964.269 1045794 879078 712056 549525 394764 251127 125668 25631 -42388 
1968.609 -78357 -88355 -84218 -77671 -75551 -74251 -62045 -22250 56725 
1972.948 176317 323715 476095 607465 699643 747501 761334 760642 767026 
1977.288 793868 842614 902802 959601 999353 1015630 1008170 981953 942545 
1981.627 895279 844144 794420 751772 723466 714971 728466 760213 801595 
1985.967 840597 867443 876086 867877 847746 823126 798508 774916 749091 
1990.307 717596 679349 638289 602398 581270 580932 601858 636919 675320 
1994.646 704987 719147 716681 703452 687931 677693 675055 677053 675168 
1998.986 660340 624867 566878 489529 401021 310758 227727 156996 100505 
2003.325 56111 21639 -4276 -18656 -14841 17705 88318 201308 350067 516462 
2008.147 671687 783677 824592 780143 652623 462375 240567 23402 -158859 
2012.487 -286361 -353797 -366784 -338886 -284374 -216443 -144407 -75907 
2016.344 -17521 24213 44625 40957 16036 -25245 -75640 -131502 -193113 
2020.684 -267099 -362541 -487612 -643384 -823376 -1011979 -1189276 -1334173 
2024.541 -1429828 -1464296 -1433837 -1340628 -1194679 -1011738 -813553 
2027.917 -625360 -472570 -374414 -341469 -369844 -445602 -546418 -651269 
2031.774 -744392 -819804 -877805 -922377 -952797 -963837 -944131 -883499 
2035.631 -777867 -635356 -473285 -316422 -185940 -95516 -44714 -22210 -8986 
2039.971 13748 59871 134051 232841 346246 462571 570458 661275 728548 769321 
2044.793 782645 771783 743451 709456 683816 681291 712208 779918 877156 
2049.132 988294 1091023 1164122 1191322 1166584 1093468 985758 863212 748761 
2053.472 662811 619229 620931 659492 717074 772735 807731 812363 787471 
2057.812 744339 700575 674894 681576 727717 811409 924277 1053356 1185428 
2062.151 1308307 1412893 1492472 1543508 1564598 1557307 1525422 1475444 
2066.009 1414857 1351344 1290653 1236593 1190407 1152525 1123026 1103434 
2069.866 1095777 1102108 1122774 1155618 1195257 1234966 1267670 1288915 
2073.723 1297168 1294716 1285868 1275915 1268832 1267090 1270915 1279795 
2077.581 1292507 1308216 1325947 1344725 1362536 1377118 1385403 1385479 
2081.438 1376424 1359403 1336635 1311349 1286031 1262346 1240533 1220240 
2085.296 1200896 1182870 1167010 1154919 1147482 1144861 1145685 1147990 
2089.153 1149748 1150076 1149268 1149119 1151083 1155861 1161652 1164890 
2093.010 1160755 1145322 1117009 1078362 1034982 994579 963817 946751 942960 
2097.350 948886 958754 968144 974643 979549 985913 997536 1016189 1040783 
2101.690 1066860 1088304 1098777 1094212 1073636 1039910 998560 956858 
2105.547 921914 899925 894753 908240 939653 986380 1044301 1108750 1174922 
2109.887 1239004 1297832 1349451 1391923 1423525 1442318 1446758 1436234 
2113.744 1412335 1378633 1340818 1304636 1274721 1252599 1236520 1221859 
2117.602 1203412 1176586 1140182 1095705 1047557 1000328 957709 920819 
2121.459 888667 858719 828781 797357 764376 729774 693035 651976 603807 
2125.799 545765 477677 402325 326096 256554 200458 160047 132407 109398 
2130.138 80802 37322 -24921 -103293 -188255 -266696 -325107 -355078 -354996 
2134.478 -331790 -297730 -267918 -254754 -265865 -300879 -353540 -412761 
2138.335 -466521 -503848 -518158 -507410 -475013 -427420 -373844 -323114 
2142.193 -283845 -262122 -262344 -286175 -333784 -402504 -487969 -582804 
2146.050 -678871 -766918 -839682 -892092 -923888 -937874 -941045 -941023 
2149.907 -946791 -965416 -1004141 -1068423 -1164494 -1296334 -1467063 
2153.283 -1675139 -1914699 -2172615 -2430864 -2666703 -2856485 -2977033 
2156.658 -3010703 -2945479 -2780655 -2526200 -2205190 -1849373 -1495235 
2160.033 -1173192 -904512 -695781 -543782 -436147 -358665 -296965 -241104 
2163.891 -184611 -128188 -76121 -37700 -21367 -33950 -75981 -141854 -217750 
2168.230 -287847 -336280 -354873 -344560 -318226 -295480 -298112 -340808 
2172.088 -427423 -546336 -676118 -790099 -866552 -894702 -878446 -832962 
2175.945 -779614 -736409 -713389 -709509 -715832 -719178 -708855 -677989 
2179.802 -626992 -559903 -484822 -409950 -343931 -293746 -265453 -260880 
2183.660 -277538 -306500 -334341 -344067 -321593 -258098 -154660 -20873 
2187.517 126397 269397 392621 488550 555610 598364 622183 631877 628121 
2191.857 609451 572573 516530 442972 357458 267566 181565 105346 42254 -8171 
2196.679 -47775 -79213 -103352 -119320 -123668 -112467 -82482 -33218 33011 
2201.018 110566 192772 273701 350457 422770 493151 563152 632168 694649 
2205.358 741968 763897 753962 711799 645646 570016 502394 456808 440935 
2209.698 453087 485498 526270 565987 599241 626619 651840 679640 712144 
2214.037 748984 786726 822293 853594 881725 909038 938455 970654 1004392 
2218.377 1035527 1059407 1071147 1067810 1047871 1011807 961333 900832 
2222.234 836259 776445 730624 707245 710301 737843 780735 826075 859586 
2226.574 871473 858239 824759 780761 737998 705301 687345 683200 689495 
2230.913 701787 717630 735845 756464 778498 799934 817563 829640 836510 
2235.253 842824 855619 882716 929029 995361 1076721 1164946 1250192 1324592 
2239.593 1382837 1423238 1445754 1451807 1442102 1417860 1380237 1332065 
2243.450 1277192 1220318 1165597 1116277 1073739 1038773 1011739 994207 
2247.307 987899 994822 1014934 1045948 1082485 1117717 1145034 1160687 
2251.165 1164573 1160799 1155875 1157211 1170051 1196783 1235467 1281144 
2255.022 1326507 1364187 1387948 1394773 1384658 1361683 1332000 1303315 
2258.880 1281813 1271386 1271764 1279485 1288850 1294500 1293211 1285657 
2262.737 1275708 1269500 1272833 1289558 1319844 1360835 1407137 1453198 
2266.594 1494191 1527399 1552060 1569354 1581372 1590975 1600614 1612474 
2270.452 1627239 1644376 1661462 1675457 1682889 1682082 1673567 1660843 
2274.309 1649540 1645951 1654609 1677458 1712200 1753817 1795431 1830828 
2278.167 1855747 1869249 1873323 1872511 1872191 1877577 1892070 1916836 
2282.024 1950147 1987857 2023945 2052398 2068175 2069323 2056975 2035588 
2285.882 2011275 1990018 1975682 1969149 1967832 1967156 1961917 1948174 
2289.739 1924303 1891184 1851591 1809354 1768098 1730845 1699486 1675324 
2293.596 1658807 1649797 1647570 1650885 1657866 1666715 1675561 1683289 
2297.454 1689077 1692568 1693209 1690388 1683165 1670980 1653785 1632682 
2301.311 1609752 1587694 1569048 1555807 1548615 1547234 1550496 1557087 
2305.169 1565682 1575221 1584663 1593256 1600268 1605419 1608801 1611235 
2309.026 1613749 1617398 1622566 1629137 1636356 1643587 1650704 1658495 
2312.884 1668205 1681023 1697059 1715195 1732919 1747712 1757765 1763184 
2316.741 1766020 1769622 1777438 1791990 1814113 1843450 1879195 1921111 
2320.598 1969521 2024674 2085133 2146526 2200996 2238495 2249019 2225782 
2324.456 2167315 2078225 1968200 1849725 1735145 1634193 1552208 1490058 
2328.313 1444884 1411948 1386450 1364992 1346088 1329848 1317266 1309305 
2332.171 1306288 1307811 1312584 1318981 1325083 1329181 1329902 1326758 
2336.028 1320124 1311362 1302730 1296677 1295194 1299252 1308476 1321332 
2339.885 1335633 1349438 1361490 1371630 1380493 1389085 1398121 1407721 
2343.743 1417168 1425461 1431324 1433999 1433292 1429574 1423647 1416669 
2347.600 1409791 1404189 1400888 1400528 1403388 1409202 1417009 1425545 
2351.458 1433375 1439359 1442871 1443989 1443249 1441473 1439402 1437561 
2355.315 1436130 1435102 1434327 1433686 1432886 1431619 1429202 1424953 
2359.173 1418230 1408874 1397215 1384244 1371358 1359863 1350648 1343897 
2363.030 1339015 1335099 1331166 1326867 1322335 1318429 1316101 1316282 
2366.887 1319362 1325129 1332798 1341408 1349983 1357846 1364567 1370192 
2370.745 1374921 1379157 1383284 1387979 1393735 1401008 1409919 1420229 
2374.602 1431175 1441600 1450178 1455805 1457825 1456444 1452457 1447302 
2378.460 1442410 1438953 1437358 1437458 1438325 1438960 1438468 1436646 
2382.317 1433872 1431136 1429464 1429689 1431877 1435499 1439427 1442556 
2386.175 1444114 1443989 1442676 1441259 1440595 1441368 1443505 1446494 
2390.032 1449532 1451920 1453145 1453173 1452100 1450126 1447138 1442983 
2393.889 1437177 1429464 1419632 1407980 1394948 1381277 1367803 1355516 
2397.747 1345254 1337910 1333905 1333360 1335552 1339083 1342019 1342361 
2401.604 1338592 1330300 1318224 1304291 1290838 1280210 1273870 1272440 
2405.462 1275591 1282456 1292060 1303607 1316298 1329440 1341886 1352478 
2409.319 1359865 1363324 1362829 1359379 1354560 1350120 1347217 1346109 
2413.177 1346022 1345708 1343838 1339819 1333620 1325935 1317347 1308392 
2417.034 1298899 1288738 1277787 1266687 1256760 1249644 1246469 1247399 
2420.891 1251097 1255057 1256419 1253185 1244661 1232057 1217775 1204473 
2424.749 1193816 1186179 1180303 1174294 1166463 1156442 1145328 1135431 
2428.606 1129328 1129024 1134976 1146368 1161282 1177500 1193009 1206676 
2432.464 1217619 1225232 1228656 1226901 1218976 1204782 1185150 1162470 
2436.321 1139892 1120916 1108146 1103027 1105082 1112601 1122891 1133243 
2440.178 1141312 1145412 1144519 1138309 1126905 1111015 1092031 1072036 
2444.036 1053542 1039068 1030422 1028326 1031933 1039265 1047723 1054890 
2447.893 1059202 1060205 1058488 1055361 1051921 1049225 1047603 1047522 
2451.751 1049320 1053809 1061674 1073360 1088296 1104760 1120024 1131144 
2455.608 1135848 1133702 1126333 1117282 1110524 1109384 1114853 1125421 
2459.466 1137113 1145154 1145230 1135417 1116420 1091453 1064942 1041055 
2463.323 1022190 1008842 999479 991984 984322 975940 967110 959275 953615 
2467.663 951014 951348 954084 958678 965057 973470 984366 997399 1011207 
2472.002 1023187 1030399 1030286 1022006 1006724 987582 968486 952952 942827 
2476.342 937928 936224 935015 931835 925539 916368 905661 895033 885936 
2480.681 879031 874685 873048 874669 880270 890694 906059 925749 948174 
2485.021 971327 993372 1013442 1031569 1048624 1065356 1081947 1097205 
2488.878 1109239 1115796 1115520 1108541 1096792 1083306 1071542 1064052 
2492.736 1061989 1064797 1070811 1078053 1084999 1090937 1096184 1101375 
2496.593 1107153 1113586 1120238 1126041 1130047 1131487 1130258 1126818 
2500.451 1122105 1117114 1112883 1110033 1109024 1109891 1112593 1116739 
2504.308 1121875 1127155 1131591 1133948 1133058 1127998 1118563 1105407 
2508.166 1090249 1075709 1064944 1060791 1065227 1078502 1099272 1124316 
2512.023 1149863 1172026 1188192 1197386 1200765 1200701 1200316 1202206 
2515.880 1207839 1217049 1228371 1239352 1247799 1252072 1251975 1248373 
2519.738 1243190 1238513 1236123 1236901 1240813 1246992 1254298 1261742 
2523.595 1269079 1276556 1285110 1295395 1307564 1320748 1333412 1343345 
2527.453 1348824 1348886 1344123 1336169 1327644 1320983 1318112 1319535 
2531.310 1324777 1332399 1340840 1348800 1355794 1361874 1367753 1373846 
2535.167 1380495 1387334 1393571 1398083 1399890 1398444 1394111 1387912 
2539.025 1381760 1377771 1378101 1383877 1395146 1410147 1425890 1438474 
2542.882 1444278 1440642 1426878 1404350 1376338 1347024 1320789 1301020 
2546.740 1289732 1287279 1292638 1303799 1318282 1333438 1346935 1356606 
2550.597 1361038 1359412 1352121 1340360 1326431 1312942 1302541 1297205 
2554.455 1298006 1304675 1316273 1331278 1348366 1366732 1386429 1408059 
2558.312 1432501 1460161 1490742 1522616 1553126 1579017 1597210 1605501 
2562.169 1603332 1591781 1573570 1552064 1530736 1512133 1497817 1488010 
2566.027 1482259 1479573 1479213 1480431 1482674 1485333 1487794 1489419 
2569.884 1490095 1490237 1491069 1494146 1500851 1511663 1525797 1541140 
2573.742 1554952 1564627 1568986 1568310 1564580 1560459 1558431 1559762 
2577.599 1564089 1569717 1574360 1576015 1574082 1569227 1563555 1559417 
2581.457 1558962 1563113 1571561 1582695 1594267 1603847 1609671 1610640 
2585.314 1606692 1598501 1587309 1574428 1561283 1548986 1538720 1531564 
2589.171 1528823 1531517 1540563 1555983 1576851 1600849 1624826 1645270 
2593.029 1659237 1665153 1663474 1656176 1646459 1637281 1630857 1627826 
2596.886 1627596 1628771 1630348 1632135 1634989 1640352 1649562 1662868 
2600.744 1679163 1696008 1710464 1719911 1722952 1719699 1711837 1701914 
2604.601 1692812 1687020 1686263 1691412 1702447 1718388 1737566 1757631 
2608.458 1775881 1789758 1797362 1797975 1792376 1782759 1772129 1763456 
2612.316 1759008 1759746 1765338 1774381 1785134 1796016 1806207 1815565 
2616.173 1824523 1833661 1843392 1853719 1864351 1874669 1884207 1892540 
2620.031 1899579 1905331 1909885 1913231 1915270 1915879 1915038 1912941 
2623.888 1910243 1907702 1906267 1906758 1909497 1914290 1920429 1926829 
2627.746 1932442 1936418 1938386 1938511 1937360 1935553 1933745 1932237 
2631.603 1931102 1930151 1929183 1927878 1926181 1924022 1921454 1918574 
2635.460 1915613 1912864 1910816 1909824 1910244 1911953 1914525 1917159 
2639.318 1918986 1919345 1918121 1915696 1912976 1910957 1910496 1911869 
2643.175 1914809 1918623 1922411 1925497 1927417 1928062 1927504 1925813 
2647.033 1923061 1919281 1914733 1909943 1905704 1902829 1901944 1903147 
2650.890 1905958 1909242 1911761 1912555 1911142 1907744 1903237 1898505 
2654.748 1894397 1891181 1888591 1885955 1882566 1877718 1871257 1863210 
2658.605 1853970 1844011 1833727 1823387 1813088 1802760 1792258 1781360 
2662.462 1769902 1757744 1744964 1731903 1719269 1707922 1698866 1692783 
2666.320 1689907 1689872 1691693 1694106 1695901 1696181 1694872 1692477 
2670.177 1690071 1688743 1689236 1691742 1695667 1699926 1703388 1705088 
2674.035 1704677 1702484 1699436 1696594 1694849 1694578 1695568 1697124 
2677.892 1698321 1698438 1697122 1694582 1691373 1688209 1685736 1684192 
2681.750 1683467 1683139 1682612 1681300 1678814 1674885 1669546 1662979 
2685.607 1655579 1647905 1640690 1634665 1630380 1628071 1627505 1628095 
2689.464 1629074 1629700 1629649 1629037 1628470 1628689 1630320 1633597 
2693.322 1638215 1643523 1648688 1653039 1656198 1658088 1658792 1658464 
2697.179 1657201 1654878 1651610 1647589 1643313 1639434 1636769 1635846 
2701.037 1636973 1640124 1645074 1651461 1658994 1667348 1676178 1685012 
2704.894 1693159 1699917 1704695 1707355 1708260 1708200 1708177 1709018 
2708.751 1711207 1714627 1718831 1723082 1726897 1730030 1732572 1734822 
2712.609 1737064 1739353 1741468 1743092 1743821 1743291 1741382 1738175 
2716.466 1733817 1728707 1723341 1718383 1714686 1712961 1713923 1717619 
2720.324 1723749 1731308 1739182 1746198 1751734 1755679 1758618 1761339 
2724.181 1764710 1769100 1774380 1779975 1785085 1789152 1791972 1793849 
2728.039 1795533 1797907 1801667 1807247 1814536 1822959 1831707 1839806 
2731.896 1846437 1851021 1853481 1854112 1853601 1852833 1852626 1853523 
2735.753 1855590 1858394 1861291 1863489 1864527 1864229 1863027 1861493 
2739.611 1860456 1860488 1861895 1864621 1868280 1872263 1875915 1878673 
2743.468 1880093 1879832 1878001 1874959 1871315 1867984 1865899 1865932 
2747.326 1868580 1874022 1881945 1891916 1903390 1915796 1928697 1941549 
2751.183 1953822 1964739 1973510 1979447 1982251 1982134 1979800 1976371 
2755.041 1973079 1970890 1970325 1971450 1973894 1977174 1980855 1984648 
2758.898 1988498 1992453 1996547 2000700 2004816 2008767 2012402 2015732 
2762.755 2018728 2021389 2023520 2024795 2024915 2023601 2020795 2016822 
2766.613 2012299 2008035 2004832 2003410 2004095 2006804 2011212 2016611 
2770.470 2022236 2027209 2030840 2032566 2032182 2029798 2025964 2021485 
2774.328 2017349 2014456 2013469 2014670 2017910 2022685 2028333 2034254 
2778.185 2039980 2045241 2050026 2054343 2058307 2061878 2065104 2067946 
2782.042 2070518 2072940 2075438 2078227 2081449 2085264 2089727 2094981 
2785.900 2101185 2108594 2117359 2127584 2139027 2151245 2163506 2175104 
2789.757 2185521 2194503 2202198 2208964 2215270 2221513 2227984 2234826 
2793.615 2242255 2250563 2260167 2271407 2284474 2299009 2314146 2328676 
2797.472 2341323 2351243 2358294 2363135 2366956 2371242 2377043 2384805 
2801.330 2394274 2404694 2415260 2425356 2434860 2443989 2453215 2462769 
2805.187 2472638 2482512 2491896 2500411 2508074 2515209 2522508 2530637 
2809.044 2540240 2551616 2564671 2578976 2593831 2608368 2621626 2632701 
2812.902 2640961 2646091 2648402 2648665 2648147 2648162 2649846 2653856 
2816.759 2660433 2669398 2680580 2694000 2710052 2729158 2751703 2777432 
2820.617 2805518 2834529 2862866 2889200 2913029 2934687 2955177 2975840 
2824.474 2997817 3021733 3047677 3075450 3104851 3136115 3169876 3207225 
2828.332 3249091 3296145 3348522 3405747 3467040 3531482 3598471 3667732 
2832.189 3739493 3814290 3892830 3975925 4064314 4158645 4259448 4367335 
2836.046 4482884 4606784 4739963 4883619 5039134 5207973 5391592 5591243 
2839.904 5807950 6042453 6295305 6567026 6858156 7169275 7500907 7853374 
2843.761 8226869 8621299 9036342 9471476 9925797 10397627 10884111 11380446 
2847.619 11879929 12373406 12849930 13297443 13703656 14057165 14348552 
2850.994 14571010 14721100 14798853 14807902 14755134 14649889 14502792 
2854.369 14324734 14125332 13912189 13690439 13462961 13231115 12995572 
2857.744 12757048 12516843 12276652 12038387 11803609 11573521 11348739 
2861.120 11129684 10916933 10711401 10514268 10326799 10149927 9983946 
2864.495 9828598 9682927 9545983 9416939 9295232 9180775 9073456 8973100 
2868.352 8879273 8791229 8708215 8629631 8555289 8485498 8420986 8362569 
2872.210 8310946 8266366 8228680 8197276 8171464 8150638 8134528 8123517 
2876.067 8118573 8121125 8132791 8154902 8188274 8233101 8288786 8354351 
2879.925 8428668 8510824 8600318 8697028 8801053 8912314 9030347 9154181 
2883.782 9282345 9413232 9545224 9677191 9808199 9937802 10065669 10191609 
2887.639 10315327 10436728 10555807 10672720 10787638 10900714 11011654 
2891.015 11119683 11223603 11322092 11414026 11498942 11577310 11650370 
2894.390 11720075 11788449 11857111 11927066 11998294 12070122 12141494 
2897.765 12211446 12279509 12346073 12412339 12480277 12552108 12630080 
2901.140 12715918 12810691 12914728 13027729 13149072 13278235 13414875 
2904.516 13559012 13711014 13871443 14040701 14218910 14405949 14601336 
2907.891 14804555 15015316 15233824 15461186 15699284 15950915 16219538 
2911.266 16508785 16821994 17161480 17528084 17920802 18336824 18771668 
2914.641 19219758 19674956 20131124 20582414 21023328 21448604 21853018 
2918.017 22231170 22577644 22887192 23155254 23378528 23555248 23685424 
2921.392 23770704 23814022 23819092 23789890 23730424 23644472 23535626 
2924.767 23407414 23263388 23106960 22941390 22769522 22593432 22414426 
2928.142 22233172 22049770 21864346 21677324 21489566 21302452 21117436 
2931.518 20935738 20757876 20583584 20411586 20240218 20067880 19893400 
2934.893 19716428 19537444 19357466 19177706 18999246 18822830 18648704 
2938.268 18476994 18307498 18140190 17974856 17811280 17648988 17487342 
2941.643 17325558 17162968 16999302 16834732 16670004 16506240 16344555 
2945.019 16185927 16030736 15878761 15729229 15581082 15433231 15284824 
2948.394 15135545 14985496 14835162 14685234 14536193 14388405 14241762 
2951.769 14096141 13951337 13807505 13665055 13524717 13387147 13252841 
2955.144 13121627 12992719 12864995 12737177 12608378 12478449 12347835 
2958.520 12217531 12088570 11961614 11836583 11712648 11588580 11463007 
2961.895 11334839 11203675 11069686 10933753 10796963 10660671 10526153 
2965.270 10394498 10266436 10142301 10021966 9904880 9790105 9676552 9563289 
2969.127 9449632 9335365 9220637 9105710 8990935 8876418 8762177 8648066 
2972.985 8534074 8420219 8306715 8193622 8080762 7967712 7853795 7738498 
2976.842 7621721 7503905 7386181 7270092 7157087 7048294 6944048 6843997 
2980.700 6747342 6653070 6560436 6468951 6378574 6289495 6201965 6116290 
2984.557 6032530 5950643 5870405 5791455 5713220 5635029 5556376 5476816 
2988.415 5396588 5316478 5237804 5162227 5091387 5026456 4967973 4915755 
2992.272 4868886 4825958 4785223 4744900 4703207 4658657 4610386 4558293 
2996.129 4503410 4447567 4393384 4343283 4299139 4261320 4228797 4199299 
2999.987 4170054 4138651 4103666 4064893 4023155 3979735 3935597 3891297 
3003.844 3846670 3801357 3755278 3708882 3663226 3619589 3579208 3542462 
3007.702 3508927 3477398 3446306 3414259 3380410 3344594 3307283 3269244 
3011.559 3231450 3194852 3160378 3128766 3100658 3076299 3055464 3037191 
3015.417 3019896 3001658 2980646 2955571 2926006 2892584 2856524 2819449 
3019.274 2782803 2747453 2713674 2681151 2649339 2617567 2585506 2553259 
3023.131 2521346 2490646 2462271 2437374 2416885 2401159 2390025 2382543 
3026.989 2377224 2372363 2366368 2358194 2347586 2335015 2321501 2308270 
3030.846 2296323 2286060 2277511 2270227 2263801 2257873 2252578 2248426 
3034.704 2246052 2246154 2249017 2254593 2262115 2270408 2278007 2283357 
3038.561 2285368 2283569 2278368 2271228 2264374 2260417 2261955 2270885 
3042.418 2288136 2313622 2346326 2384768 2427537 2473602 2522473 2574043 
3046.276 2628336 2684996 2743346 2802143 2859921 2915253 2967082 3014802 
3050.133 3058087 3096897 3131063 3160330 3184278 3202538 3215003 3221989 
3053.991 3224177 3222405 3217635 3210458 3201183 3189915 3176641 3161467 
3057.848 3144858 3127757 3111350 3097075 3086305 3080202 3079463 3084277 
3061.706 3094294 3108541 3125578 3143849 3161691 3177815 3191293 3201781 
3065.563 3209183 3213549 3214876 3213029 3207652 3198649 3186303 3171559 
3069.420 3155894 3141040 3128525 3119090 3112539 3107798 3103285 3097645 
3073.278 3090325 3081732 3073294 3066844 3064103 3065908 3072030 3081013 
3077.135 3090865 3099447 3105089 3106891 3104861 3099500 3091547 3081627 
3080.993 3070087 3056821 3041431 3023490 3002641 2978791 2952264 2923644 
3084.850 2894061 2864560 2836277 2810038 2786187 2764431 2743957 2723532 
3088.708 2701997 2678547 2653121 2626408 2599807 2575019 2553620 2536750 
3092.565 2524950 2518191 2516108 2518161 2523903 2532801 2544441 2557989 
3096.422 2572472 2586606 2599134 2609176 2616386 2621054 2623849 2625796 
3100.280 2627482 2629117 2630322 2630175 2627838 2622649 2614450 2603660 
3104.137 2591158 2577971 2565180 2553530 2543439 2534971 2527760 2521229 
3107.995 2514434 2506315 2495864 2482326 2465553 2445975 2424547 2402559 
3111.852 2381124 2360830 2341676 2323034 2304000 2283798 2262354 2240046 
3115.709 2217935 2197269 2179191 2164573 2153920 2147441 2145369 2147643 
3119.567 2154076 2163998 2176289 2189350 2201471 2211368 2218608 2223705 
3123.424 2228056 2233124 2240067 2248980 2258972 2268239 2274972 2277630 
3127.282 2275589 2269007 2258544 2245043 2229148 2211425 2192457 2173295 
3131.139 2155426 2140569 2130241 2125076 2124370 2126321 2128104 2126923 
3134.997 2120867 2109112 2092406 2072459 2051431 2031297 2013597 1999060 
3138.854 1988012 1980276 1975429 1972798 1971517 1970310 1968036 1963447 
3142.711 1955795 1944770 1930648 1914146 1896194 1877879 1860343 1844748 
3146.569 1832319 1824114 1820695 1821777 1826158 1831725 1836013 1836855 
3150.426 1833275 1825610 1815795 1806422 1800106 1798391 1801407 1807792 
3154.284 1815291 1821436 1824511 1823720 1819336 1812259 1803622 1794294 
3158.141 1784804 1775313 1765978 1757054 1748944 1742127 1737005 1733620 
3161.999 1731805 1731114 1731017 1731154 1731269 1731342 1731425 1731593 
3165.856 1732059 1732928 1734552 1737207 1741139 1746230 1752132 1758024 
3169.713 1763046 1766495 1768190 1768587 1768845 1770093 1773258 1778362 
3173.571 1784566 1790238 1793685 1793649 1789849 1783171 1775371 1768338 
3177.428 1763520 1761462 1761730 1763181 1764750 1765840 1766726 1768318 
3181.286 1771746 1777663 1785815 1794844 1802777 1807389 1807225 1801876 
3185.143 1792195 1779861 1767011 1755430 1746147 1739256 1734182 1729855 
3189.000 1725313 1720000 1714053 1708116 1703301 1700679 1701054 1704298 
3192.858 1709481 1714678 1717540 1715753 1707974 1694118 1675704 1655411 
3196.715 1636627 1622297 1614385 1613374 1618474 1628069 1640360 1653793 
3200.573 1667371 1680385 1692276 1702401 1710262 1715461 1718320 1719847 
3204.430 1721600 1724891 1730354 1737347 1743955 1747671 1746201 1738392 
3208.288 1724877 1707776 1690047 1674597 1663407 1656982 1654776 1655348 
3212.145 1657373 1659862 1662579 1665694 1669695 1675076 1682194 1691235 
3216.002 1702414 1715420 1729630 1743661 1755528 1763004 1764187 1758326 
3219.860 1746145 1730083 1713619 1700447 1693624 1694482 1702799 1716642 
3223.717 1733205 1749331 1762294 1770111 1771912 1767890 1759310 1748238 
3227.575 1737141 1728316 1723322 1722388 1724465 1727387 1728805 1726906 
3231.432 1721159 1712387 1702452 1693513 1687119 1683824 1683078 1683751 
3235.290 1684751 1685577 1686555 1688326 1691574 1696418 1702296 1707795 
3239.147 1711537 1712182 1709003 1702053 1691992 1679874 1667102 1655218 
3243.004 1645832 1640217 1639243 1642825 1650042 1659024 1667681 1674220 
3246.862 1677854 1678877 1678505 1678221 1679124 1681377 1684296 1686780 
3250.719 1687761 1686856 1684304 1680868 1677093 1673055 1668449 1662696 
3254.577 1655775 1648469 1642526 1639877 1642205 1649915 1661942 1676103 
3258.434 1689942 1701294 1709393 1714402 1717312 1718977 1719734 1719233 
3262.292 1716774 1711798 1704643 1696468 1689068 1684107 1682626 1684637 
3266.149 1689278 1695124 1700884 1705704 1709287 1711622 1712708 1712303 
3270.006 1709869 1704791 1696674 1685440 1671702 1656349 1640730 1626327 
3273.864 1614750 1607505 1605909 1610766 1621937 1638173 1657337 1676741 
3277.721 1693768 1706823 1715671 1721311 1725634 1730486 1736956 1745025 
3281.579 1753657 1761445 1767286 1770872 1772883 1774422 1776511 1779307 
3285.436 1782081 1783169 1780674 1773151 1760289 1742969 1723220 1703678 
3289.293 1687043 1675490 1670342 1671955 1679846 1692518 1708108 1724401 
3293.151 1739220 1750720 1757804 1760217 1758617 1754398 1749337 1745193 
3297.008 1743270 1744221 1748182 1754544 1762712 1771945 1781757 1791927 
3300.866 1802233 1812321 1821660 1829483 1835048 1837832 1838045 1836506 
3304.723 1834744 1834225 1836001 1840107 1845358 1849612 1850514 1846343 
3308.581 1836708 1822718 1806749 1791577 1779489 1771618 1767822 1766902 
3312.438 1767403 1768205 1769096 1770387 1772857 1776873 1782192 1787857 
3316.295 1792633 1795242 1795058 1792091 1787030 1780689 1773844 1767065 
3320.153 1760763 1755283 1751116 1748786 1748705 1750943 1755164 1760669 
3324.010 1766766 1772876 1779067 1785738 1793450 1802593 1813100 1824516 
3327.868 1836102 1847269 1857825 1867938 1877932 1887829 1897326 1905440 
3331.725 1911252 1914046 1914054 1912283 1910647 1911169 1915520 1924386 
3335.583 1937532 1953518 1970462 1986046 1998149 2004897 2005018 1998006 
3339.440 1984329 1965367 1943541 1921600 1902280 1887434 1877733 1872484 
3343.297 1870016 1868277 1865550 1860914 1854412 1846731 1839149 1832912 
3347.155 1829179 1828790 1832244 1839541 1850224 1862989 1876007 1887095 
3351.012 1894362 1896525 1893602 1886504 1876862 1866080 1855093 1843924 
3354.870 1832111 1819193 1805472 1792267 1781581 1775452 1775031 1779882 
3358.727 1787865 1795840 1800673 1800413 1794855 1785699 1775808 1768125 
3362.584 1764748 1766083 1771085 1777601 1783306 1786337 1785961 1782582 
3366.442 1777441 1771993 1767572 1764685 1763085 1761937 1760076 1756588 
3370.299 1751098 1743991 1736317 1729387 1724547 1722646 1724091 1728827 
3374.157 1736551 1747096 1760348 1775995 1793323 1810759 1826039 1836713 
3378.014 1840897 1837940 1829179 1817526 1806878 1800628 1800953 1807901 
3381.872 1819741 1833639 1847031 1858079 1866416 1872474 1877045 1880380 
3385.729 1882068 1881154 1876933 1869460 1860200 1851382 1845575 1844689 
3389.586 1849375 1858692 1870743 1883082 1893570 1900738 1903934 1902987 
3393.444 1898326 1890463 1880662 1870483 1862044 1857546 1858642 1865778 
3397.301 1877921 1892794 1907592 1920023 1929219 1935917 1942275 1950805 
3401.159 1963402 1980402 2000505 2021039 2039043 2052240 2059793 2062590 
3405.016 2063042 2064181 2069084 2079862 2097432 2121112 2149099 2178726 
3408.874 2207187 2231991 2251909 2266889 2278203 2288155 2299063 2312708 
3412.731 2329803 2349674 2370818 2391429 2410290 2427135 2442950 2459588 
3416.588 2478915 2502221 2529615 2559879 2590895 2620080 2645405 2665758 
3420.446 2681318 2693490 2704537 2716971 2732830 2753245 2778233 2806482 
3424.303 2835968 2864162 2889013 2909128 2924229 2934945 2942574 2948490 
3428.161 2953805 2959076 2964510 2969888 2975187 2980359 2985672 2991404 
3432.018 2997590 3003906 3009701 3014071 3016119 3015068 3010417 3001932 
3435.875 2989542 2973364 2953757 2931150 2906589 2881073 2855833 2831763 
3439.733 2809386 2788550 2768907 2750017 2731866 2714968 2700237 2688571 
3443.590 2680317 2674605 2669716 2662967 2651766 2634544 2611206 2583463 
3447.448 2554298 2527107 2504629 2487993 2476489 2467667 2458215 2444857 
3451.305 2425499 2399758 2369193 2336881 2306858 2282872 2267900 2263173 
3455.163 2268150 2280416 2296302 2311438 2321694 2323798 2315954 2298101 
3459.020 2271775 2239665 2205446 2172634 2144495 2123215 2110006 2104855 
3462.877 2106800 2114204 2124974 2136923 2148037 2156617 2161367 2161539 
3466.735 2156876 2147679 2134856 2119781 2104307 2090346 2079738 2073697 
3470.592 2072750 2076198 2082550 2089441 2094409 2095237 2090720 2080752 
3474.450 2066721 2051007 2036690 2026748 2023574 2028326 2040833 2059571 
3478.307 2082019 2105260 2126466 2143388 2154784 2160218 2160143 2155399 
3482.165 2147061 2136170 2123732 2110741 2098451 2088148 2081670 2080471 
3486.022 2085934 2098345 2117098 2140358 2165551 2189722 2210386 2225824 
3489.879 2235730 2240699 2242276 2241928 2240758 2238954 2235951 2230575 
3493.737 2221803 2209129 2193116 2175315 2158134 2144181 2135817 2134490 
3497.594 2140590 2153251 2170808 2190935 2211376 2230261 2246493 2259940 
3501.452 2271402 2282315 2294397 2309052 2326895 2347445 2369193 2389724 
3505.309 2406499 2417286 2420982 2417573 2408484 2395923 2382663 2371360 
3509.167 2364116 2362114 2365616 2373785 2385017 2397081 2407729 2414893 
3513.024 2417519 2415462 2410069 2403644 2398923 2398518 2404113 2416161 
3516.881 2433859 2455152 2477792 2499316 2517922 2532279 2541720 2546254 
3520.739 2546318 2542919 2537786 2533044 2531219 2534366 2543829 2559421 
3524.596 2579591 2601503 2622188 2639091 2651101 2658824 2664134 2669636 
3528.454 2677424 2688487 2702183 2716456 2728602 2735918 2736756 2730578 
3532.311 2718311 2701646 2682751 2663674 2646131 2631456 2620723 2614729 
3536.168 2614204 2619530 2630772 2647179 2667506 2689892 2712514 2733690 
3540.026 2752533 2768779 2782870 2795245 2806190 2814915 2820331 2820739 
3543.883 2815036 2803149 2786763 2769094 2754329 2746486 2748271 2759951 
3547.741 2779294 2801950 2822626 2836352 2839780 2831707 2813318 2787341 
3551.598 2757433 2727152 2699551 2676679 2659757 2649156 2644568 2645166 
3555.456 2649624 2656215 2663276 2669093 2672716 2673619 2672062 2668560 
3559.313 2663763 2658232 2652413 2646519 2640864 2635616 2631027 2626881 
3563.170 2622746 2617853 2611338 2602851 2592728 2582280 2573319 2567552 
3567.028 2565712 2566912 2568641 2567137 2558600 2540395 2512042 2475453 
3570.885 2434463 2393882 2358263 2330596 2312034 2301880 2298093 2298295 
3574.743 2300456 2303243 2306331 2309600 2313063 2316298 2318211 2317223 
3578.600 2311783 2300589 2283639 2262018 2238106 2215010 2195932 2183216 
3582.458 2177949 2179434 2185820 2194387 2202800 2209373 2213646 2216041 
3586.315 2217448 2218408 2218791 2217558 2213539 2205708 2194101 2179886 
3590.172 2165307 2152908 2144958 2142543 2145655 2152966 2162730 2172980 
3594.030 2182376 2189975 2195717 2199708 2202577 2204661 2206685 2208915 
3597.887 2211847 2215420 2219623 2223960 2227973 2231259 2233821 2235972 
3601.745 2238475 2241922 2246775 2252925 2259865 2266734 2272756 2277508 
3605.602 2280964 2283366 2285236 2286850 2288454 2290143 2292171 2294832 
3609.459 2298718 2303953 2310281 2316600 2321305 2322635 2319459 2311921 
3613.317 2301746 2291823 2285835 2286808 2296399 2314247 2338109 2364231 
3617.174 2388443 2407102 2417988 2420526 2416064 2407216 2397270 2389246 
3621.032 2385350 2386106 2390664 2396868 2402220 2404625 2403335 2399046 
3624.889 2393768 2389818 2389014 2391503 2396128 2400265 2401463 2398292 
3628.747 2391116 2382107 2374488 2370969 2372896 2379574 2388795 2397726 
3632.604 2404215 2407333 2407909 2407324 2407081 2407523 2407867 2406400 
3636.461 2401459 2392247 2379498 2365069 2351532 2341051 2334765 2332786 
3640.319 2334331 2338362 2344328 2351791 2360725 2370311 2379324 2385399 
3644.176 2386242 2379902 2365971 2345761 2322509 2300320 2283375 2274776 
3648.034 2275862 2285875 2302246 2321211 2338784 2351442 2356995 2354813 
3651.891 2345963 2332629 2317561 2302896 2289751 2277648 2265001 2249626 
3655.749 2230022 2206030 2179555 2153618 2131989 2117592 2111679 2113395 
3659.606 2120346 2129289 2137326 2142476 2144012 2142007 2137001 2129558 
3663.463 2120133 2109414 2098767 2090197 2086116 2088421 2097780 2112766 
3667.321 2130197 2145503 2154518 2154420 2144981 2128270 2108365 2089603 
3671.178 2075460 2067253 2064493 2064851 2065541 2064061 2058956 2049989 
3675.036 2037962 2024157 2010016 1996527 1984207 1972958 1962583 1952538 
3678.893 1942714 1933085 1924293 1917288 1913479 1914260 1920832 1933407 
3682.750 1951358 1972763 1994758 2014053 2027792 2033796 2031625 2022207 
3686.608 2007938 1991761 1976646 1964621 1956564 1951896 1949391 1947444 
3690.465 1945037 1941987 1939158 1937578 1938030 1940326 1943230 1944623 
3694.323 1942535 1935900 1925360 1913145 1902625 1896776 1897246 1903407 
3698.180 1912396 1919963 1922073 1915961 1901485 1880643 1857230 1835241 
3702.038 1817964 1806762 1801638 1801103 1803534 1807530 1812482 1818181 
3705.895 1824788 1832068 1839474 1845714 1849570 1849674 1845203 1835760 
3709.752 1821740 1804187 1785115 1767059 1753253 1746493 1749032 1761336 
3713.610 1781791 1806872 1831925 1852231 1864439 1867446 1862793 1853841 
3717.467 1844899 1839258 1838911 1843212 1849883 1855707 1857881 1854767 
3721.325 1846627 1835092 1822695 1811792 1803956 1799636 1798247 1798804 
3725.182 1800497 1802990 1806968 1813532 1824144 1839519 1859622 1883194 
3729.040 1907951 1930992 1949764 1962364 1968273 1968177 1964101 1958371 
3732.897 1953342 1950414 1950140 1951882 1954489 1956507 1956722 1954519 
3736.754 1949922 1943457 1936188 1929043 1923137 1919023 1917139 1917223 
3740.612 1918737 1920778 1922292 1922490 1920931 1917702 1913544 1909511 
3744.469 1906707 1905885 1907411 1911072 1916430 1922643 1929159 1935377 
3748.327 1940866 1945138 1947827 1948467 1946970 1943410 1938301 1932211 
3752.184 1925843 1919460 1913139 1906288 1898454 1889234 1878804 1868082 
3756.042 1858416 1851416 1848658 1851010 1858867 1871612 1888142 1906794 
3759.899 1925617 1942531 1955705 1963473 1964935 1960153 1950223 1937098 
3763.756 1923505 1911902 1904499 1902283 1905290 1912427 1922142 1932630 
3767.614 1942503 1950635 1956558 1959829 1960610 1959167 1956168 1952651 
3771.471 1949916 1949166 1951237 1956192 1963160 1970346 1975622 1977052 
3775.329 1973304 1964123 1950484 1933893 1916349 1899499 1884445 1871629 
3779.186 1860977 1852133 1844985 1839635 1836816 1837367 1842416 1852588 
3783.043 1867934 1887635 1910134 1933111 1954384 1971805 1984218 1991315 
3786.901 1993562 1991683 1986474 1978089 1966449 1951212 1932568 1911672 
3790.758 1890926 1873659 1863453 1862978 1873141 1892548 1917660 1943493 
3794.616 1965253 1979030 1983214 1978336 1967003 1952689 1938997 1928548 
3798.473 1922643 1921066 1922775 1925885 1928740 1930018 1929166 1926391 
3802.331 1922786 1919741 1918939 1921643 1928607 1939501 1953396 1968572 
3806.188 1983205 1995621 2005002 2011015 2014361 2015842 2016454 2016825 
3810.045 2017284 2017680 2017884 2017564 2016669 2015198 2012998 2009915 
3813.903 2005577 1999614 1991820 1982195 1971366 1960241 1950060 1941950 
3817.760 1936744 1934582 1935031 1936966 1939143 1940195 1939326 1936445 
3821.618 1932206 1927837 1924916 1924710 1927888 1934322 1943104 1952645 
3825.475 1961419 1967990 1971433 1971335 1967695 1960820 1951211 1939405 
3829.333 1926557 1913976 1903627 1897358 1896890 1902972 1915258 1932147 
3833.190 1951355 1970198 1986681 1999403 2008129 2013025 2014577 2012836 
3837.047 2007647 1998376 1984871 1967528 1947738 1927610 1909861 1896716 
3840.905 1889810 1889469 1894830 1904068 1914828 1924768 1932069 1935713 
3844.762 1935866 1933634 1930912 1929865 1932260 1938846 1949020 1960874 
3848.620 1971712 1978914 1980969 1978003 1972080 1966414 1964246 1967811 
3852.477 1977240 1990456 2003988 2014034 2017931 2014900 2006232 1994653 
3856.334 1983240 1974269 1969059 1967546 1969176 1973161 1979009 1986490 
3860.192 1995371 2004888 2013787 2020137 2022203 2018868 2010259 1997841 
3864.049 1984189 1971961 1963539 1959948 1961217 1966140 1972996 1979958 
3867.907 1985573 1988791 1989220 1986783 1981984 1975536 1968438 1961818 
3871.764 1956741 1953883 1953594 1955603 1959404 1964232 1969308 1973853 
3875.622 1977321 1979087 1978917 1976681 1973053 1969204 1967043 1968523 
3879.479 1975257 1987495 2003926 2021534 2036336 2044543 2043547 2032876 
3883.336 2014443 1991749 1969301 1950912 1939135 1934609 1936178 1941628 
3887.194 1948696 1955374 1960895 1965179 1968994 1973163 1978454 1984868 
3891.051 1992106 1999020 2004539 2007567 2007685 2005088 2000963 1996811 
3894.909 1994355 1994628 1997892 2003351 2009530 2014888 2018405 2020027 
3898.766 2020839 2022396 2026164 2032718 2041602 2051247 2059626 2065024 
3902.624 2066679 2064814 2060605 2055374 2050246 2045641 2041310 2036689 
3906.481 2031347 2025166 2018721 2012812 2008370 2006101 2006454 2009428 
3910.338 2014880 2022170 2030563 2038709 2045284 2049000 2049213 2046210 
3914.196 2041659 2038051 2038131 2043726 2055324 2071483 2089408 2105868 
3918.053 2118219 2125210 2127325 2125956 2122864 2119048 2114627 2108822 
3921.911 2100807 2090369 2078390 2066646 2057346 2051796 2050311 2051563 
3925.768 2053553 2054081 2051858 2046843 2040364 2034332 2030867 2031407 
3929.625 2036610 2046321 2059726 2075337 2091520 2106139 2117095 2122394 
3933.483 2120952 2113017 2100330 2085740 2072494 2063033 2058244 2057070 
3937.340 2057111 2055620 2051038 2043378 2034766 2028278 2026809 2031681 
3941.198 2042078 2054871 2066094 2071953 2070328 2061271 2046884 2030469 
3945.055 2015495 2004406 1998315 1996866 1998856 2002713 2007179 2011607 
3948.913 2016142 2021313 2028009 2036719 2047485 2059434 2070949 2079724 
3952.770 2083570 2080802 2071112 2055639 2036954 2018321 2002774 1992304 
3956.627 1987388 1986888 1989013 1991789 1994235 1996309 1999073 2003737 
3960.485 2011097 2020783 2031453 2040905 2047132 2048776 2045930 2039760 
3964.342 2032525 2026472 2023727 2025343 2031519 2041567 2054319 2068125 
3968.200 2081630 2093461 2102634 2108522 2111081 2110472 2107425 2102819 
3972.057 2097733 2092991 2089315 2087037 2086091 2086157 2086610 2086797 
3975.915 2086303 2084836 2082595 2079980 2077524 2075615 2074332 2073463 
3979.772 2072646 2071603 2070760 2071010 2073864 2080739 2092396 2108172 
3983.629 2126076 2142664 2154526 2158650 2153964 2141201 2123141 2103273 
3987.487 2085262 2071807 2064261 2062705 2066486 2074535 2085878 2099460 
3991.344 2114049 2127840 2138904 2144867 2144189 2136370 2122414 2104744 
3995.202 2086429 2070510 2059116 2053108 2052162 2055251 2061129 2068939 
3999.059 2078360 2089259 2101542 2114541 
##END=
