##TITLE=Bambu-Lab_ABS_White_Filament_r3_ATR-Corrected
##JCAMP-DX=5.01  $$ Nicolet v. 1
##DATATYPE=INFRARED SPECTRUM
##ORIGIN=Curtin University
##OWNER=Nicolet
##LONGDATE=2024/07/03
##TIME=13:44:58
##SPECTROMETER/DATA SYSTEM=Nicolet iS50
##DATA PROCESSING=
Ratio against background
%Transmittance->Absorbance
ATR Correction
Truncated
ElementMultiply or ElementDivide
##COMMENTS=
Number of sample scans: 32
Collection length: 47.28 sec
Sample gain: 1.0
Background collected on: Wed Jul 03 13:38:42 2024 (GMT+08:00);
Number of background scans: 32
Background gain: 1.0
Sample spacing:  1.000
Number of scan points: 16672
Resolution points: 8192
Number of FFT points: 65536
Apodization: N-B strong;
Phase correction: Mertz;
Laser frequency: 15798.3 cm-1
Number of rejected sample scans: 0
Number of rejected background scans: 0
Bench serial number: AUP1200105;
##RESOLUTION=4.000
##XUNITS=1/CM
##YUNITS=ABSORBANCE
##FIRSTX=400.163452
##LASTX=4000.187744
##FIRSTY=0.015652
##MAXX=4000.187744
##MINX=400.163452
##MAXY=0.408872
##MINY=-0.015115
##XFACTOR=1.000000
##YFACTOR=1.000000E-009
##NPOINTS=7468
##DELTAX=0.482125
##ZPD=8192
##XYDATA=(X++(Y..Y))
400.163 15652260 15559102 15653623 15930293 16327336 16748626 17107010 
403.538 17358260 17509316 17607146 17710404 17861128 18066940 18302316 
406.913 18521816 18682144 18755872 18739600 18648388 18510242 18355530 
410.288 18214088 18112550 18074198 18114214 18234770 18419950 18635724 
413.663 18835092 18972108 19015572 18961252 18832952 18674994 18535612 
417.038 18451252 18434952 18474502 18540722 18602904 18642160 18663034 
420.412 18692980 18775502 18954228 19256974 19681226 20189792 20714552 
423.787 21173238 21490314 21622072 21570558 21387630 21158914 20978882 
427.162 20917824 20999446 21191950 21420926 21596258 21646342 21543030 
430.537 21309830 21009258 20717160 20494458 20369404 20340844 20387038 
433.912 20486864 20635602 20846802 21142620 21533872 22004114 22503842 
437.286 22961168 23301740 23474304 23467000 23311040 23069378 22816036 
440.661 22612172 22491136 22452052 22468512 22500880 22512800 22481584 
444.036 22402926 22288670 22162298 22051456 21982672 21975984 22041270 
447.411 22175270 22361890 22572654 22771974 22924136 23001830 22992582 
450.786 22902376 22754032 22581046 22418504 22294146 22221084 22196516 
454.161 22203078 22217352 22218098 22196404 22159632 22130804 22141290 
457.535 22218908 22375856 22601294 22861388 23108788 23296686 23394854 
460.910 23399082 23332752 23237622 23158716 23128382 23157026 23232562 
464.285 23327452 23411484 23462954 23474026 23448960 23397718 23328344 
467.660 23242810 23138792 23014298 22874806 22736362 22623622 22563418 
471.035 22576588 22671412 22841364 23068416 23328654 23598644 23860178 
474.409 24101450 24316672 24504290 24666180 24806392 24930654 25043824 
477.784 25147168 25235488 25296880 25315704 25278426 25180596 25031528 
481.159 24853308 24674698 24521560 24407702 24330312 24273466 24216110 
484.534 24143314 24054574 23965326 23901376 23888420 23940840 24055468 
487.909 24211432 24377450 24521100 24618604 24660072 24649594 24601636 
491.284 24535754 24471340 24425018 24408578 24429276 24488600 24583640 
494.658 24706102 24843982 24984156 25115692 25231880 25332188 25420986 
498.033 25505344 25592046 25685778 25788328 25899696 26019806 26149238 
501.408 26288836 26438504 26595262 26752846 26902156 27034338 27143796 
504.783 27231250 27305230 27381170 27478592 27617208 27812356 28071226 
508.158 28390612 28756996 29149100 29543078 29918078 30262072 30575044 
511.532 30868662 31161676 31474270 31821168 32208152 32631994 33085112 
514.907 33560620 34057716 34582256 35143444 35747736 36393120 37066064 
518.282 37744524 38405048 39031168 39619988 40183552 40744820 41329172 
521.657 41955988 42632852 43354968 44109164 44879372 45652052 46417324 
525.032 47168624 47897620 48592820 49238336 49817656 50318340 50737588 
528.406 51085436 51384580 51666608 51965932 52312396 52725800 53211352 
531.781 53759532 54348164 54948436 55532272 56079772 56584660 57055880 
535.156 57513704 57981796 58478288 59007760 59558876 60107792 60627028 
538.531 61095576 61506880 61869872 62204920 62534184 62872192 63219316 
541.906 63561572 63875712 64137308 64328352 64441532 64480088 64454512 
545.281 64378472 64265244 64127444 63977324 63828312 63693888 63586256 
548.655 63512692 63473112 63458600 63453080 63436800 63390524 63299628 
552.030 63156480 62961756 62723652 62456852 62180148 61912784 61671320 
555.405 61464860 61293868 61148100 61011000 60864208 60693860 60494328 
558.780 60269624 60030400 59788920 59553592 59325856 59100436 58869296 
562.155 58626160 58370500 58108440 57850344 57606064 57381196 57174052 
565.529 56976528 56776544 56561716 56322180 56052044 55749028 55414680 
568.904 55053212 54672608 54284068 53902220 53542504 53219084 52940696 
572.279 52708764 52516888 52353064 52201876 52048544 51880176 51686608 
575.654 51459908 51193912 50884640 50532212 50142020 49725580 49298952 
579.029 48879516 48481324 48111168 47767400 47440792 47119084 46790912 
582.404 46450724 46100044 45746836 45403308 45081792 44792288 44540004 
585.778 44324164 44139112 43974936 43819720 43662164 43494196 43313156 
589.153 43122224 42929664 42745416 42578020 42430880 42301296 42181768 
592.528 42063212 41939152 41808388 41675312 41548420 41435892 41342792 
595.903 41269368 41211348 41162548 41117744 41074780 41034180 40997664 
599.278 40966412 40939112 40912264 40881572 40843700 40797344 40743500 
602.652 40683592 40618132 40546052 40464836 40372656 40270588 40163796 
606.027 40061648 39975796 39917060 39893036 39906652 39956224 40036824 
609.402 40141528 40263268 40394660 40528676 40658388 40778128 40884712 
612.777 40978304 41062948 41145580 41234152 41335324 41452832 41587784 
616.152 41739348 41906908 42090120 42288864 42500092 42715648 42919756 
619.527 43090412 43202496 43234960 43175904 43027756 42806928 42540496 
622.901 42258788 41988680 41747504 41541192 41366596 41215376 41079224 
626.276 40954000 40840336 40742136 40663572 40605484 40563660 40529212 
629.651 40490496 40436532 40359896 40258416 40134968 39996636 39851964 
633.026 39709908 39578364 39463928 39371904 39306652 39270712 39264248 
636.401 39284320 39324324 39375056 39426384 39469672 39500304 39519440 
639.775 39534140 39556008 39598824 39675188 39793816 39957500 40162056 
643.150 40396808 40646544 40894380 41125092 41328000 41499324 41642876 
646.525 41768108 41886928 42009428 42140484 42278020 42414092 42539144 
649.900 42646536 42736856 42819796 42912260 43033896 43200804 43420644 
653.275 43690236 43996748 44322420 44649200 44963920 45259844 45536472 
656.650 45796404 46042696 46276992 46499620 46711484 46916252 47121756 
660.024 47339224 47581284 47858368 48176120 48534168 48927208 49347640 
663.399 49788464 50245296 50716792 51202936 51702056 52208768 52713160 
666.774 53202508 53664588 54091952 54485100 54852720 55209788 55572448 
670.149 55952968 56355956 56777020 57205668 57630100 58042160 58441708 
673.524 58836868 59240932 59667380 60124732 60613288 61125700 61650116 
676.898 62175432 62695996 63213916 63738428 64283348 64863624 65493384 
680.273 66184388 66947004 67790904 68725776 69760272 70900392 72148992 
683.648 73506536 74974344 76559520 78279344 80164496 82258048 84612664 
687.023 87286736 90340872 93839328 97854344 102474528 107813576 114018280 
690.398 121272024 129792568 139824608 151624320 165439456 181479472 
693.290 199878672 220650208 243631456 268427168 294359520 320444032 
696.183 345417376 367841600 386296736 399627456 407171136 408872352 
699.076 405234656 397142688 385637120 371729984 356291584 340009920 
701.969 323394464 306802240 290468864 274537120 259083360 244139120 
704.861 229709696 215789392 202371664 189454960 177043840 165147904 
707.754 153779152 142949568 132670152 122950768 113800568 105227976 97241808 
711.129 89848936 83053640 76855984 71250472 66225172 61761296 57833512 
714.504 54411352 51460540 48945308 46829616 45077964 43653948 42518808 
717.878 41630024 40940888 40402888 39970304 39605472 39282796 38990436 
721.253 38727420 38499940 38314504 38175160 38082092 38033432 38028388 
724.628 38069280 38160696 38307596 38511160 38766560 39063944 39391688 
728.003 39741588 40113132 40514336 40960012 41466396 42046076 42704968 
731.378 43442532 44254056 45134904 46082192 47095104 48172396 49309864 
734.752 50498564 51725504 52976296 54238340 55502544 56762776 58013648 
738.127 59247672 60454556 61622788 62743260 63814304 64843944 65850004 
741.502 66857332 67892176 68978776 70137296 71383840 72732288 74195088 
744.877 75782432 77500576 79350088 81326056 83420752 85629600 87955768 
748.252 90412704 93022160 95807536 98785640 101959520 105316784 108831752 
751.627 112472760 116209520 120016712 123874072 127760544 131647064 
754.519 135491232 139235328 142810336 146142272 149160672 151803968 
757.412 154022512 155778416 157044000 157801232 158041456 157765888 
760.305 156984800 155717008 153986800 151821696 149252144 146312576 
763.197 143044208 139496432 135726576 131796240 127764344 123682192 
766.090 119589472 115514856 111480616 107507712 103619464 99841984 96200576 
769.465 92714024 89389640 86221920 83195024 80288616 77484520 74772752 
772.840 72151560 69626168 67203584 64888768 62681004 60573976 58557488 
776.214 56620356 54752712 52947992 51203428 49519444 47899464 46348416 
779.589 44872148 43475556 42161360 40929008 39774836 38692264 37673696 
782.964 36712024 35801208 34936184 34112184 33323422 32563604 31826946 
786.339 31110178 30414530 29746416 29115870 28533464 28006776 27537494 
789.714 27120918 26747412 26405616 26085504 25780348 25486578 25202094 
793.089 24924878 24651680 24378224 24101082 23819228 23535354 23255324 
796.463 22987062 22738260 22514424 22318500 22150448 22008076 21887760 
799.838 21784660 21693396 21608414 21524420 21437794 21346978 21252424 
803.213 21155708 21057508 20956096 20847228 20725066 20584958 20426244 
806.588 20253564 20076872 19908958 19762276 19645590 19563260 19515062 
809.963 19498430 19509464 19544162 19597476 19661798 19726614 19779138 
813.337 19807232 19802912 19765222 19701022 19623156 19545806 19480256 
816.712 19431392 19397498 19371888 19346582 19315280 19274676 19223668 
820.087 19161704 19086876 18996072 18886718 18759126 18618876 18476812 
823.462 18346962 18242140 18170786 18133506 18124314 18132686 18147902 
826.837 18162354 18173636 18183448 18195770 18213874 18238398 18267454 
830.212 18297574 18326532 18354958 18387210 18431234 18496608 18592804 
833.586 18727424 18905464 19128724 19395954 19703508 20045152 20412166 
836.961 20794034 21178588 21553968 21909558 22238222 22537276 22808922 
840.336 23058982 23295038 23523932 23749146 23969220 24177832 24365240 
843.711 24520590 24634896 24703298 24726170 24708506 24658758 24586064 
847.086 24498292 24399986 24291804 24170518 24029886 23862958 23663124 
850.460 23427046 23155942 22856188 22539010 22218692 21909724 21623686 
853.835 21366892 21139324 20935460 20747034 20565832 20386374 20207456 
857.210 20031716 19864288 19710166 19572998 19453988 19351912 19263910 
860.585 19186086 19114046 19043602 18971410 18896590 18821812 18754294 
863.960 18705060 18686964 18710576 18779842 18889576 19025202 19165394 
867.335 19288284 19377040 19425092 19436756 19425770 19409394 19402700 
870.709 19413686 19441820 19479246 19514694 19538330 19545286 19537124 
874.084 19521314 19508500 19509398 19531722 19578506 19647562 19732602 
877.459 19824724 19914716 19994812 20061002 20112976 20154858 20194252 
880.834 20240358 20302304 20387206 20498570 20635104 20791278 20957866 
884.209 21124226 21280380 21419750 21540896 21647900 21749476 21856294 
887.583 21978376 22122142 22289302 22477392 22681690 22897846 23123218 
890.958 23357410 23600442 23850966 24105164 24357092 24602050 24839978 
894.333 25078466 25333152 25624554 25972778 26390752 26880866 27434432 
897.708 28036812 28673288 29336908 30032006 30774026 31585206 32488308 
901.083 33501432 34634852 35891476 37269024 38763060 40367476 42073884 
904.458 43868896 45731032 47630760 49530712 51389836 53166720 54823340 
907.832 56326788 57648624 58765496 59658236 60311976 60718228 60875068 
911.207 60788544 60470188 59936416 59205080 58294960 57224524 56013892 
914.582 54684984 53262252 51772064 50240868 48693284 47150732 45630676 
917.957 44146868 42709528 41326272 40001196 38736288 37531340 36386056 
921.332 35301988 34284640 33343412 32489970 31734452 31081360 30526420 
924.706 30056086 29650508 29288480 28952536 28633442 28330558 28050100 
928.081 27800978 27590896 27423242 27296602 27205600 27143396 27103222 
931.456 27080066 27071070 27075828 27095812 27134350 27195610 27283716 
934.831 27400840 27546254 27715080 27899840 28091968 28285112 28476992 
938.206 28670068 28870448 29085074 29318802 29573202 29846488 30135584 
941.581 30438482 30756152 31091598 31448278 31827278 32225266 32634482 
944.955 33044946 33448108 33840520 34225208 34611892 35013908 35445092 
948.330 35916744 36436168 37006876 37630424 38307364 39039580 39829940 
951.705 40683068 41604524 42601168 43681252 44854604 46132776 47528996 
955.080 49058028 50735616 52578464 54603584 56826748 59260568 61911004 
958.455 64774632 67835608 71065472 74424432 77864336 81332784 84776464 
961.829 88142368 91378328 94432448 97252864 99788696 101992592 103824720 
965.204 105255056 106265752 106850192 107011080 106758416 106108304 
968.097 105083376 103714656 102042872 100117112 97993200 95727424 93372208 
971.472 90971632 88560336 86164960 83807000 81505000 79275632 77133232 
974.847 75088520 73148112 71315744 69595128 67992920 66520236 65191672 
978.221 64021044 63016264 62173692 61477144 60899660 60409304 59976408 
981.596 59579536 59208488 58863080 58548856 58271852 58034876 57835744 
984.971 57668908 57528516 57411844 57321048 57263060 57246840 57280628 
988.346 57368648 57509748 57696160 57915880 58153340 58392240 58616200 
991.721 58810860 58964620 59068636 59117476 59108684 59042512 58921404 
995.095 58749484 58532524 58278840 58000072 57712420 57436540 57196996 
998.470 57018524 56923044 56923900 57022872 57207944 57454148 57726820 
1001.845 57988268 58203216 58345360 58400244 58367056 58255404 58083016 
1005.220 57870904 57640016 57408736 57192152 57001540 56845220 56728100 
1008.595 56651728 56614928 56613928 56643324 56697516 56771880 56863872 
1011.970 56972776 57099532 57245704 57412656 57601472 57813080 58048620 
1015.344 58310216 58600452 58921876 59276516 59665088 60087176 60541548 
1018.719 61027624 61546312 62100272 62694460 63335316 64030820 64789892 
1022.094 65622232 66538104 67548016 68660144 69877752 71195848 72598072 
1025.469 74054200 75520216 76939992 78249408 79381488 80272664 80868296 
1028.844 81127920 81028136 80564808 79752744 78623512 77222768 75606008 
1032.219 73834096 71969216 70071000 68193632 66383472 64677468 63101500 
1035.595 61671304 60392648 59263112 58274756 57416400 56675660 56040652 
1038.970 55500336 55045008 54666688 54359740 54121236 53950632 53849344 
1042.345 53817800 53852816 53945044 54077736 54228620 54373876 54493372 
1045.720 54575356 54619792 54636516 54642628 54656756 54693576 54760860 
1049.096 54858444 54980744 55119264 55266080 55415724 55565708 55716032 
1052.471 55868428 56026000 56192488 56373000 56572972 56798024 57051688 
1055.846 57335836 57648228 57984544 58338104 58701856 59069300 59435008 
1059.221 59795048 60147512 60492132 60831540 61170668 61516392 61876000 
1062.597 62254652 62653804 63069328 63492536 63911720 64314896 64691632 
1065.972 65034240 65337040 65594488 65800132 65946252 66025084 66030592 
1069.347 65960832 65817580 65604956 65327236 64986080 64580180 64106620 
1072.722 63564664 62959388 62303732 61617952 60925572 60248496 59601892 
1076.098 58991920 58416124 57867968 57339272 56825768 56327048 55846044 
1079.473 55386424 54950040 54535628 54139140 53755448 53380932 53014472 
1082.848 52658656 52318412 52000208 51709996 51452296 51229688 51042816 
1086.223 50890096 50768908 50675040 50604360 50552592 50516220 50492100 
1089.599 50476728 50466116 50454664 50435716 50403056 50352328 50282912 
1092.974 50198736 50107880 50019580 49942404 49881604 49838032 49808116 
1096.349 49787432 49771320 49757800 49747648 49743316 49746976 49759228 
1099.724 49777452 49796028 49807852 49805100 49781132 49731392 49653452 
1103.100 49547424 49414648 49257788 49079636 48882364 48666452 48430832 
1106.475 48172956 47889776 47579072 47240772 46877120 46492272 46090268 
1109.850 45673752 45242660 44793636 44322248 43823740 43295764 42738964 
1113.225 42157276 41557080 40945476 40329216 39714804 39107628 38513220 
1116.601 37936332 37380728 36848680 36340368 35854064 35386916 34936456 
1119.976 34501568 34082356 33679928 33295072 32927148 32574020 32233018 
1123.351 31901862 31580072 31269026 30971534 30689702 30423784 30172004 
1126.726 29931208 29699334 29477416 29270730 29088040 28939464 28832760 
1130.102 28770378 28748374 28757764 28786484 28823650 28862304 28900948 
1133.477 28943398 28997148 29071078 29173558 29310298 29484534 29696468 
1136.852 29944152 30224436 30534600 30873946 31244572 31652138 32105036 
1140.227 32612484 33181940 33816452 34514232 35269116 36073232 36920420 
1143.603 37809560 38745444 39738560 40801752 41947408 43184328 44516976 
1146.978 45946424 47472028 49094408 50815532 52638096 54562996 56585756 
1150.353 58693332 60863132 63063344 65255100 67395336 69441000 71351512 
1153.728 73091496 74632928 75956264 77052112 77920920 78573240 79027664 
1157.104 79308648 79443472 79459704 79383192 79236576 79039752 78809752 
1160.479 78561576 78308064 78059856 77823576 77601320 77389344 77179136 
1163.854 76957704 76710600 76424664 76090488 75704184 75266712 74784296 
1167.229 74264680 73716160 73145624 72558232 71957800 71347744 70732040 
1170.604 70115248 69502344 68898864 68309520 67739504 67194256 66680900 
1173.980 66208036 65784968 65420696 65121792 64891600 64728992 64629568 
1177.355 64586900 64593604 64641340 64720228 64817788 64917044 64997680 
1180.730 65037420 65016136 64919308 64740860 64483248 64155644 63769704 
1184.105 63336312 62863080 62354552 61813824 61245992 60659768 60068876 
1187.481 59489344 58937696 58427456 57967028 57559856 57205444 56901632 
1190.856 56646632 56439096 56278532 56162984 56089500 56052432 56044968 
1194.231 56060604 56093648 56140372 56197936 56264008 56334240 56402336 
1197.606 56460440 56499928 56513156 56495848 56446856 56369452 56269864 
1200.982 56155792 56034620 55912128 55790944 55669856 55544220 55406796 
1204.357 55249724 55066768 54855080 54616828 54358908 54091276 53824072 
1207.732 53565488 53318620 53081804 52849756 52616112 52376012 52128836 
1211.107 51878120 51630612 51393568 51172024 50966880 50774836 50589136 
1214.483 50402368 50208888 50006288 49795996 49582648 49371920 49168632 
1217.858 48976556 48796872 48629560 48474336 48332352 48206268 48100496 
1221.233 48020744 47972348 47959100 47982352 48041348 48132368 48250928 
1224.608 48392488 48553964 48734544 48935612 49160096 49411088 49690724 
1227.984 49998172 50330200 50680512 51041564 51404528 51762072 52107260 
1231.359 52434500 52739004 53017236 53266544 53486160 53677944 53846076 
1234.734 53996592 54135324 54265884 54387400 54494180 54576224 54622380 
1238.109 54622900 54573400 54475752 54337532 54169308 53981152 53779728 
1241.485 53566692 53339404 53094260 52829840 52549732 52263512 51985544 
1244.860 51731324 51513720 51338828 51204468 51100776 51012004 50921632 
1248.235 50815192 50684300 50527520 50350172 50162024 49974612 49797708 
1251.610 49637988 49497096 49373352 49261616 49156948 49055040 48954156 
1254.986 48855244 48761368 48676576 48604960 48549368 48510484 48487128 
1258.361 48475188 48468556 48459040 48438228 48398012 48333744 48244560 
1261.736 48135268 48014460 47893620 47783264 47690828 47618756 47564296 
1265.111 47521500 47483564 47445400 47405420 47364532 47324748 47287624 
1268.487 47251520 47212172 47163944 47101792 47024320 46934280 46839076 
1271.862 46748588 46672592 46618008 46587280 46578380 46584904 46598488 
1275.237 46610640 46614008 46603932 46578292 46537384 46483180 46418344 
1278.612 46344712 46263004 46171900 46068320 45948512 45809000 45648172 
1281.988 45467348 45271052 45066288 44861580 44665828 44486828 44330604 
1285.363 44201228 44100732 44029692 43987416 43972296 43982528 44015856 
1288.738 44070064 44143040 44232052 44333388 44442996 44555192 44664968 
1292.113 44767884 44862196 44949336 45032720 45117804 45209444 45310740 
1295.489 45422236 45543144 45672180 45810296 45960928 46130512 46325752 
1298.864 46551552 46808688 47092468 47394232 47703292 48009760 48306960 
1302.239 48591848 48864788 49127152 49380048 49623116 49855064 50074592 
1305.614 50281720 50478352 50667744 50853572 51038532 51223332 51407256 
1308.990 51588772 51767008 51941972 52114480 52285036 52452944 52614896 
1312.365 52765544 52898836 53009612 53095000 53155732 53195128 53218080 
1315.740 53229392 53232244 53227948 53215200 53191788 53155428 53103628 
1319.115 53035496 52951280 52852288 52740908 52620396 52494336 52367068 
1322.490 52242612 52125132 52018732 51927144 51854076 51802676 51775076 
1325.866 51771648 51789948 51825272 51870284 51916664 51957124 51986536 
1329.241 52003812 52011632 52015108 52020792 52033456 52055008 52083660 
1332.616 52114248 52139680 52153364 52150648 52131088 52098420 52060404 
1335.991 52027824 52012696 52026324 52078244 52174888 52318864 52509524 
1339.367 52742384 53010812 53305740 53616960 53934924 54251100 54559540 
1342.742 54857728 55146420 55428612 55707972 55986964 56264924 56537580 
1346.117 56797756 57037724 57251756 57438516 57601516 57748248 57888384 
1349.492 58029960 58176984 58328416 58479088 58622268 58752388 58867144 
1352.868 58969008 59063244 59156060 59251564 59350272 59448232 59538416 
1356.243 59612640 59664424 59690944 59693432 59677184 59649264 59617768 
1359.618 59588376 59564352 59545532 59528524 59508008 59477812 59432092 
1362.993 59366048 59276732 59162784 59024660 58863632 58682060 58482736 
1366.369 58268684 58043288 57809284 57568416 57321540 57067992 56806100 
1369.744 56534328 56250944 55955480 55648344 55330184 55001508 54661568 
1373.119 54308200 53937604 53545276 53126216 52676260 52191920 51671020 
1376.494 51112976 50519228 49893080 49241012 48571824 47896320 47226360 
1379.870 46572832 45944460 45347324 44784168 44255564 43760472 43297216 
1383.245 42864084 42458972 42080032 41725264 41392836 41081896 40792424 
1386.620 40525608 40282360 40063120 39866264 39686916 39517920 39350032 
1389.995 39173476 38979744 38762540 38518348 38246568 37948440 37626832 
1393.371 37284948 36925992 36553172 36169036 35775772 35375640 34970304 
1396.746 34562812 34156788 33757664 33371658 33006090 32667198 32359478 
1400.121 32084714 31841326 31625160 31430770 31253088 31088100 30935316 
1403.496 30796650 30677138 30583008 30520536 30493952 30504706 30551274 
1406.872 30629724 30735290 30865614 31021816 31209494 31438336 31719602 
1410.247 32063008 32473400 32949358 33482500 34059964 34667212 35291208 
1413.622 35922164 36553804 37181260 37799144 38398156 38964840 39482356 
1416.997 39932088 40298376 40571164 40748076 40835720 40848488 40805960 
1420.373 40730776 40645496 40570656 40524304 40521240 40574188 40693900 
1423.748 40891408 41177612 41565036 42066492 42694208 43458328 44365352 
1427.123 45416116 46605504 47922840 49354584 50885900 52503028 54194376 
1430.498 55951024 57765032 59628876 61535492 63477552 65449388 67447280 
1433.874 69469760 71517136 73589168 75684952 77802512 79939824 82096792 
1437.249 84278152 86494024 88759464 91093176 93514568 96042496 98695488 
1440.624 101491592 104450336 107592728 110940768 114513320 118323992 
1443.517 122376520 126664592 131171328 135874224 140748560 145773456 
1446.410 150936576 156239264 161698336 167344640 173215328 179335616 
1449.303 185693264 192204448 198682064 204814512 210168544 214223312 
1452.196 216437584 216338080 213606144 208140560 200078560 189776464 
1455.089 177756736 164639408 151069888 137651040 124887648 113150104 
1457.982 102660640 93503120 85649696 78996992 73400384 68701728 64747928 
1461.358 61400948 58541676 56070540 53906632 51986592 50262036 48697412 
1464.733 47266204 45948096 44726188 43586812 42519724 41519436 40586060 
1468.108 39724716 38941920 38242392 37624372 37077484 36582520 36114072 
1471.483 35646092 35156156 34630744 34066832 33471674 32860040 32250502 
1474.859 31662058 31112008 30613940 30178076 29810608 29514714 29289936 
1478.234 29133618 29042128 29012936 29046862 29150076 29335104 29620084 
1481.609 30026688 30578014 31295926 32200084 33307858 34636200 36204004 
1484.984 38034044 40155180 42606244 45438980 48725140 52562312 57078296 
1488.360 62427384 68773520 76259176 84957704 94818512 105615048 116911808 
1491.735 128065944 138273488 146663680 152426608 154950416 153934608 
1494.628 149446480 141905424 131999416 120559280 108424768 96336320 84866608 
1498.003 74398960 65140716 57156956 50411728 44806120 40207264 36469244 
1501.378 33446662 31004536 29023834 27404868 26067846 24952028 24010926 
1504.754 23209284 22518898 21916502 21382908 20903640 20469500 20076220 
1508.129 19724488 19416640 19155950 18943022 18774870 18644246 18540132 
1511.504 18449720 18360960 18265716 18161502 18051778 17944834 17850158 
1514.879 17776114 17725186 17694196 17674738 17656616 17631140 17593978 
1518.255 17546716 17494202 17443884 17401028 17368176 17344462 17327248 
1521.630 17313536 17301938 17293540 17290522 17295426 17309658 17333386 
1525.005 17365788 17405420 17450942 17500906 17552822 17603160 17647138 
1528.380 17680370 17700514 17708854 17711472 17717782 17738472 17782620 
1531.756 17854576 17952770 18070128 18196922 18322668 18440250 18546368 
1535.131 18642622 18733298 18824560 18921704 19028292 19145288 19271186 
1538.506 19401950 19533032 19659382 19777682 19886394 19986350 20080380 
1541.881 20171262 20261840 20353590 20446722 20540812 20636130 20733950 
1545.257 20836794 20946906 21065450 21190534 21317032 21437594 21544262 
1548.632 21630662 21694646 21737348 21763158 21777832 21785716 21788826 
1552.007 21786728 21777024 21757112 21726126 21684428 21635104 21582610 
1555.382 21531732 21487904 21455758 21439030 21440714 21462164 21502384 
1558.758 21558674 21626892 21703266 21785778 21875334 21976122 22093500 
1562.133 22232732 22395130 22577368 22769778 22957738 23123712 23250536 
1565.508 23324368 23336920 23286418 23177498 23019526 22824802 22607774 
1568.883 22381334 22157566 21945824 21753414 21585322 21445482 21336800 
1572.259 21262028 21223820 21224144 21265396 21349288 21478730 21656854 
1575.634 21888868 22182796 22549416 23002952 23560320 24240660 25061964 
1579.009 26037910 27170424 28445150 29824980 31248904 32633372 33882108 
1582.384 34897660 35596692 35922416 35854792 35412880 34650464 33647384 
1585.760 32496226 31289104 30108278 29019388 28069028 27286042 26683850 
1589.135 26263940 26018964 25936100 25999670 26194182 26506266 26926430 
1592.510 27449694 28076324 28811642 29667116 30659468 31812086 33152088 
1595.885 34709120 36509784 38572028 40898440 43469500 46239300 49132964 
1599.260 52048484 54861636 57434520 59627484 61311832 62383692 62774540 
1602.636 62459128 61457672 59833768 57686064 55136360 52316740 49355652 
1606.011 46368636 43451488 40678248 38101208 35753636 33652624 31801752 
1609.386 30195430 28820446 27659758 26693764 25901920 25263022 24754548 
1612.761 24353746 24036352 23779640 23562478 23368814 23187642 23013602 
1616.137 22846748 22690122 22548040 22424660 22322148 22241616 22182358 
1619.512 22142504 22119628 22109974 22109626 22114538 22121614 22130022 
1622.887 22141702 22160770 22193390 22244800 22318690 22414974 22530060 
1626.262 22658526 22794654 22935004 23080422 23237318 23416592 23632562 
1629.638 23900102 24232222 24637954 25120800 25678456 26302750 26981544 
1633.013 27698562 28434504 29167508 29873382 30525784 31098698 31567662 
1636.388 31913120 32122272 32190312 32119628 31919048 31600728 31179134 
1639.763 30669230 30086494 29446846 28766526 28062026 27349508 26643956 
1643.139 25958634 25304668 24691412 24126238 23614536 23159616 22762260 
1646.514 22420118 22128030 21878444 21663972 21478084 21317182 21181154 
1649.889 21071420 20990074 20937296 20910230 20902362 20905924 20912702 
1653.264 20917730 20918698 20916164 20911646 20905884 20897402 20883378 
1656.640 20861938 20833364 20802172 20776328 20765008 20776584 20814882 
1660.015 20878906 20962902 21059984 21162910 21268066 21374140 21481820 
1663.390 21591960 21703818 21813936 21918328 22012440 22093582 22161568 
1666.765 22217466 22263482 22300466 22328056 22344320 22347636 22336292 
1670.141 22311812 22277214 22236712 22195158 22156150 22121920 22093380 
1673.516 22070538 22053630 22043452 22040702 22046304 22060378 22081724 
1676.891 22107604 22134358 22158136 22175110 22182858 22180624 22168980 
1680.266 22149974 22126194 22100158 22072900 22044472 22013732 21979004 
1683.642 21939480 21896840 21854106 21816700 21789630 21776640 21777630 
1687.017 21789036 21804368 21815722 21816192 21802072 21773986 21737176 
1690.392 21700104 21672366 21662270 21675144 21712506 21771842 21848088 
1693.767 21935192 22028018 22123506 22221956 22326026 22440012 22568336 
1697.143 22714090 22877700 23057344 23249900 23452024 23661696 23879680 
1700.518 24108150 24351318 24613870 24899692 25211164 25550210 25917882 
1703.893 26315594 26746342 27214200 27725128 28287000 28908564 29600012 
1707.268 30370498 31227828 32176036 33214354 34337352 35535928 36799348 
1710.644 38120192 39496880 40934916 42447192 44051292 45766176 47608180 
1714.019 49590104 51719548 54001120 56436912 59028044 61772324 64664760 
1717.394 67693488 70840192 74081728 77392864 80750640 84136672 87538008 
1720.769 90945392 94348696 97733808 101081600 104366928 107562704 110643288 
1724.145 113586656 116375624 118994336 121425616 123648456 125636624 
1727.038 127360624 128793864 129915568 130714712 131189648 131346344 
1729.931 131194280 130743680 130003112 128979728 127680976 126114368 
1732.824 124290184 122220176 119915424 117386968 114644680 111697808 
1735.717 108557248 105237592 101758536 98146848 94435200 90662248 86868208 
1739.092 83092704 79370024 75726336 72178768 68737960 65410292 62202724 
1742.467 59124608 56188996 53410112 50800780 48367044 46107312 44011092 
1745.843 42061904 40241204 38532476 36925148 35415740 34006600 32703120 
1749.218 31511306 30433554 29467544 28606734 27840434 27155870 26538760 
1752.593 25973666 25445926 24941018 24446616 23955144 23464988 22981054 
1755.968 22515264 22081972 21694808 21362184 21084362 20855406 20664234 
1759.344 20499112 20351656 20217262 20094680 19982708 19878178 19773544 
1762.719 19658980 19525432 19368454 19191230 19003880 18821084 18656276 
1766.094 18517130 18403106 18305830 18212230 18110550 17993530 17861228 
1769.469 17718974 17574926 17435272 17303002 17176868 17053624 16931294 
1772.844 16811496 16700534 16607784 16542504 16510051 16509788 16533628 
1776.220 16568182 16596735 16603766 16578784 16517792 16426008 16314799 
1779.595 16199874 16097184 16018542 15968239 15942493 15928967 15911814 
1782.970 15875177 15808603 15709545 15584930 15447778 15313408 15195224 
1786.345 15099986 15027822 14973376 14928199 14885538 14842851 14802077 
1789.721 14768597 14748696 14746138 14761057 14788141 14819595 14847312 
1793.096 14865901 14874320 14877107 14883285 14902866 14943736 15009683 
1796.471 15098544 15203247 15313905 15421053 15518058 15603142 15678549 
1799.846 15748523 15816834 15885428 15953088 16017191 16074991 16125936 
1803.222 16172025 16217288 16265441 16318565 16374717 16431198 16483679 
1806.597 16531177 16575214 16620556 16671799 16731150 16794024 16850380 
1809.972 16885568 16884182 16833874 16728487 16567688 16355768 16098605 
1813.347 15803508 15477781 15132835 14786449 14464293 14198693 14023147 
1816.723 13964007 14032859 14220091 14494829 14810203 15113700 15357042 
1820.098 15506296 15546700 15482762 15334857 15133858 14913112 14704001 
1823.473 14528742 14397492 14306686 14241210 14178534 14095814 13977519 
1826.848 13821794 13639407 13452899 13286171 13157769 13071586 13017470 
1830.224 12972759 12913107 12821056 12693199 12540751 12385353 12249083 
1833.599 12145212 12072640 12017312 11957268 11873799 11758563 11618461 
1836.974 11471888 11342062 11246525 11190604 11163635 11145612 11112371 
1840.349 11047334 10945665 10816124 10675838 10543605 10432354 10345311 
1843.725 10275186 10210413 10137997 10051310 9950284 9840857 9731139 9629740 
1847.582 9541373 9469385 9414964 9379921 9365380 9372533 9399541 9441949 
1851.439 9492079 9543539 9592234 9640643 9695109 9764774 9854445 9963210 
1855.297 10080321 10189849 10275652 10327796 10346683 10344880 10341142 
1858.672 10355364 10399793 10479013 10585817 10710679 10844121 10984280 
1862.047 11134290 11302303 11493222 11704580 11922867 12127654 12294888 
1865.423 12408014 12462889 12471385 12458337 12455839 12491671 12581588 
1868.798 12723006 12896862 13070655 13211440 13293913 13310763 13273470 
1872.173 13211319 13162130 13162492 13237300 13394589 13622785 13897158 
1875.548 14182957 14444829 14650005 14772816 14793902 14704631 14506787 
1878.924 14218044 13872695 13519337 13213566 13005253 12923345 12967072 
1882.299 13102199 13270829 13407923 13462748 13414788 13281312 13110340 
1885.674 12964134 12897233 12939203 13085379 13299600 13526448 13708486 
1889.049 13799692 13776920 13639204 13405610 13103593 12763596 12409505 
1892.425 12058566 11717653 11389683 11074397 10775734 10503161 10275368 
1895.800 10115559 10047532 10084123 10221539 10432718 10673364 10888955 
1899.175 11031686 11072122 11008321 10861665 10669657 10469173 10287459 
1902.550 10132560 9997583 9869520 9738217 9603612 9477837 9378386 9323918 
1906.408 9323466 9377645 9475768 9602599 9735204 9848633 9911298 9889082 
1910.265 9747604 9463847 9033049 8479579 7851880 7217947 6645391 6186829 
1914.123 5866618 5684191 5617394 5641557 5738344 5903232 6135352 6429114 
1917.980 6760538 7085270 7342169 7474008 7442318 7243593 6908630 6495231 
1921.837 6065152 5671504 5340739 5076485 4863535 4683805 4524158 4383248 
1925.695 4266724 4182932 4132849 4111617 4109758 4122085 4151819 4214459 
1929.552 4326807 4501777 4733862 4996567 5243578 5423070 5488739 5417848 
1933.410 5214844 4912914 4560356 4212473 3913200 3693181 3562274 3522434 
1937.267 3564048 3680998 3866919 4119135 4428194 4780368 5147220 5494158 
1941.125 5778591 5965879 6033204 5980575 5833727 5638859 5455544 5342585 
1944.982 5341575 5472254 5722836 6061688 6441076 6819844 7160697 7447015 
1948.839 7672124 7837821 7939460 7971037 7917159 7766756 7515434 7177040 
1952.697 6775482 6345554 5915567 5507939 5128974 4782628 4468754 4199911 
1956.554 3988138 3845940 3765062 3713536 3627709 3438876 3088908 2569352 
1960.412 1921080 1234270 600480 82230 -331133 -709671 -1168067 -1792999 
1964.269 -2598760 -3491098 -4287259 -4762988 -4739863 -4148091 -3079332 
1967.644 -1752997 -466311 505968 981916 929631 449782 -257851 -977901 
1971.502 -1528967 -1828975 -1884590 -1795623 -1692312 -1704670 -1899683 
1974.877 -2250671 -2616432 -2768668 -2429745 -1378836 469459 2972392 5786296 
1978.734 8425021 10430181 11489287 11537502 10738166 9425452 7980697 6731377 
1982.592 5861551 5396328 5217843 5156285 5048800 4814152 4444353 3990244 
1986.449 3501725 2996004 2438033 1777451 973131 50016 -899754 -1722819 
1990.307 -2254837 -2366689 -2014264 -1241599 -177872 1005066 2127302 3045423 
1994.164 3666593 3968775 3984677 3798211 3507435 3203337 2929008 2669040 
1998.021 2334345 1802462 945170 -303160 -1908534 -3714353 -5477639 -6916639 
2001.879 -7797100 -7995287 -7532552 -6554671 -5291046 -3974005 -2784774 
2005.254 -1810040 -1045638 -416274 166565 770642 1403611 2016603 2512378 
2009.112 2784197 2736640 2329597 1580263 573678 -562782 -1681211 -2662881 
2012.969 -3439995 -4019660 -4453776 -4816865 -5148985 -5438668 -5611868 
2016.344 -5582344 -5290815 -4766882 -4124879 -3554892 -3235729 -3283893 
2019.719 -3692923 -4349224 -5066991 -5679263 -6088408 -6311394 -6450215 
2023.095 -6646359 -7009717 -7580094 -8304411 -9070517 -9727281 -10145483 
2026.470 -10229995 -9941031 -9288124 -8350203 -7249607 -6174607 -5313075 
2029.845 -4832556 -4800051 -5149442 -5673878 -6097910 -6149240 -5682938 
2033.220 -4726152 -3480660 -2229588 -1239334 -636236 -393860 -350189 -313578 
2037.078 -138890 198094 628680 1025193 1284111 1356014 1270910 1083019 
2040.935 846275 570634 242433 -154271 -580952 -946969 -1117911 -984628 
2044.793 -512507 217687 1052649 1821667 2436254 2926670 3445238 4181685 
2048.650 5262057 6656586 8177038 9531686 10451240 10783043 10549350 9920072 
2052.508 9146512 8457860 7994627 7755385 7622706 7414805 6973811 6223628 
2056.365 5200797 4029890 2882263 1916621 1247905 925366 941907 1242426 
2060.222 1747114 2352467 2953784 3449700 3769634 3884926 3828648 3687006 
2064.080 3579788 3622999 3892834 4401414 5096648 5880955 6646577 7306230 
2067.937 7814677 8167819 8391037 8513837 8561169 8541971 8460983 8324826 
2071.795 8157734 7997242 7890952 7877125 7978217 8181582 8448987 8716876 
2075.652 8921061 9005807 8948484 8762499 8505587 8261067 8127745 8184751 
2079.510 8475647 8986137 9647762 10349998 10972681 11409895 11605543 
2082.885 11556225 11311645 10950239 10555969 10193265 9896407 9665231 
2086.260 9482137 9318131 9151985 8971331 8773304 8558183 8324291 8064508 
2090.117 7768288 7422373 7022321 6567674 6074457 5568028 5089542 4687568 
2093.975 4420828 4342634 4496940 4900149 5540468 6366167 7301468 8250008 
2097.832 9117754 9822685 10311000 10553698 10552815 10330844 9928957 9397915 
2101.690 8802040 8206775 7682651 7290772 7080575 7072010 7257690 7595457 
2105.547 8020553 8456956 8838934 9118860 9284792 9350061 9348745 9315305 
2109.405 9274438 9227974 9163341 9058774 8906349 8715735 8526061 8386071 
2113.262 8341917 8409760 8565802 8740406 8839474 8767957 8464497 7918413 
2117.119 7182074 6351815 5548262 4880455 4422823 4198267 4182287 4311062 
2120.977 4506149 4685257 4784409 4758706 4592453 4296445 3910504 3489789 
2124.834 3103193 2809953 2648399 2618761 2684440 2774399 2803736 2689731 
2128.692 2375273 1832725 1070738 122175 -958782 -2107446 -3245423 -4287108 
2132.549 -5135797 -5698688 -5898915 -5700421 -5113506 -4205754 -3076358 
2135.924 -1839489 -591212 598807 1697878 2685082 3547038 4259390 4793122 
2139.782 5118076 5224550 5122022 4850357 4457358 3993706 3493236 2975144 
2143.639 2442224 1894208 1325846 744417 153561 -431498 -992158 -1492082 
2147.497 -1889504 -2135779 -2210756 -2134536 -2004339 -1979271 -2252686 
2150.872 -2987491 -4260257 -6008866 -8045193 -10094807 -11896390 -13275827 
2154.247 -14196668 -14734865 -15021323 -15115068 -14943609 -14254639 
2157.140 -12699895 -9963588 -5963208 -952648 4467607 9552800 13660907 
2160.515 16477611 18040336 18668104 18757032 18645882 18512476 18380782 
2163.891 18144668 17680930 16896574 15787227 14422829 12927872 11425475 
2167.266 10015817 8747187 7634384 6645416 5744323 4885385 4043892 3214539 
2171.123 2430406 1756932 1287273 1117032 1322668 1925892 2878022 4055378 
2174.981 5282117 6358593 7109697 7405352 7196131 6501509 5415627 4087942 
2178.838 2722220 1546467 804025 700242 1365712 2805324 4885132 7338545 
2182.696 9836524 12051241 13749100 14814342 15271713 15234032 14864241 
2186.071 14312136 13704175 13128960 12660556 12368059 12321568 12568020 
2189.446 13107982 13866822 14700887 15419696 15841801 15856287 15459406 
2192.821 14756321 13929632 13172724 12637441 12379253 12366426 12501219 
2196.197 12679668 12828423 12936607 13036358 13171903 13354502 13540834 
2199.572 13626448 13493616 13050340 12287323 11285863 10218723 9292226 
2202.947 8694447 8535613 8818001 9435260 10210218 10936988 11442195 11612124 
2206.804 11424108 10929392 10244611 9513542 8887075 8492375 8424208 8724394 
2210.662 9389156 10359056 11531385 12768855 13921650 14843594 15427140 
2214.037 15609417 15405903 14894019 14216791 13543249 13041152 12830928 
2217.412 12963424 13402496 14045905 14750260 15383631 15851088 16129401 
2220.788 16249631 16286463 16314480 16384069 16501335 16643172 16772864 
2224.163 16878634 16984082 17156372 17479676 18031406 18843244 19898916 
2227.538 21133814 22469410 23847368 25262518 26770996 28480878 30510880 
2230.913 32958008 35851472 39138620 42684852 46300512 49777352 52928296 
2234.289 55619376 57788668 59439740 60630700 61440796 61944672 62185096 
2237.664 62165308 61848872 61188020 60141604 58708708 56935608 54914412 
2241.039 52758216 50572056 48423836 46335116 44284456 42234072 40157100 
2244.414 38060792 35986716 34004088 32172832 30524780 29046370 27686312 
2247.790 26373188 25051102 23700870 22350712 21067574 19937148 19028788 
2251.165 18382908 17995660 17830340 17828690 17932480 18093824 18282348 
2254.540 18479510 18672148 18844258 18974322 19035934 19004242 18861058 
2257.915 18602242 18240012 17804672 17340692 16902712 16545849 16315384 
2261.291 16235836 16305963 16496243 16760683 17044224 17307358 17530650 
2264.666 17723754 17913538 18135930 18412852 18742702 19094784 19418548 
2268.041 19656464 19764466 19721574 19537910 19249132 18905638 18559440 
2271.416 18253538 18013834 17849520 17751636 17698960 17662294 17614414 
2274.792 17533524 17417772 17283338 17172498 17140062 17241114 17512958 
2278.167 17957452 18532328 19158428 19737488 20177180 20422310 20469836 
2281.542 20370522 20217166 20113700 20147044 20361566 20750992 21262128 
2284.917 21815602 22326242 22726152 22973802 23058054 22989386 22792790 
2288.292 22496102 22127576 21713294 21280176 20855592 20468508 20145320 
2291.668 19905370 19756940 19696088 19706042 19763750 19842024 19917778 
2295.043 19974174 20002966 20002744 19979774 19942744 19901422 19863114 
2298.418 19830694 19801056 19766122 19714152 19634024 19517724 19366634 
2301.793 19190234 19007574 18842908 18720420 18659170 18669142 18748050 
2305.169 18883026 19054360 19238952 19415782 19570580 19694740 19788000 
2308.544 19854470 19901068 19932930 19955282 19970146 19980252 19988634 
2311.919 19999450 20018312 20049534 20094848 20152842 20218146 20285820 
2315.294 20353374 20423930 20505640 20609876 20747078 20924024 21142486 
2318.670 21403064 21709354 22072808 22512236 23045248 23675980 24379070 
2322.045 25090744 25711236 26119558 26203270 25885314 25147588 24036496 
2325.420 22656042 21145874 19654250 18312340 17213838 16403101 15878115 
2328.795 15599356 15507053 15536755 15632333 15751092 15864577 15956774 
2332.171 16021458 16060105 16082039 16101465 16135594 16198264 16296577 
2335.546 16426237 16572330 16713701 16828538 16899968 16921332 16896382 
2338.921 16835890 16754173 16664866 16576555 16494516 16419392 16348891 
2342.296 16279388 16206710 16124301 16027745 15912775 15778754 15629709 
2345.672 15475094 15326125 15196210 15092381 15017574 14964996 14923141 
2349.047 14877556 14816630 14734120 14632144 14520892 14417114 14337325 
2352.422 14296871 14302964 14354921 14441544 14544982 14642851 14713854 
2355.797 14741252 14717265 14642091 14523246 14372121 14199801 14013501 
2359.173 13817091 13609312 13387784 13151794 12904595 12652677 12406425 
2362.548 12175576 11967813 11786784 11632169 11500170 11387152 11290102 
2365.923 11209508 11147511 11106655 11087751 11088659 11102895 11122135 
2369.298 11137092 11140790 11131148 11111974 11091283 11079637 11086578 
2372.674 11117835 11173108 11246535 11327230 11403671 11464627 11504045 
2376.049 11520231 11516835 11501730 11485903 11480742 11497654 11544776 
2379.424 11626204 11739569 11875965 12019938 12151930 12252849 12307566 
2382.799 12309098 12260370 12173181 12065827 11956922 11864209 11798649 
2386.175 11766888 11770227 11808123 11878359 11977365 12098997 12232784 
2389.550 12364800 12477406 12553834 12581784 12555529 12480497 12369822 
2392.925 12243470 12122697 12025801 11964585 11942914 11956236 11993974 
2396.300 12042810 12089098 12123752 12143230 12150094 12151972 12158114 
2399.676 12176406 12209907 12255578 12305209 12347617 12372807 12374726 
2403.051 12352638 12310232 12255239 12195954 12140355 12096833 12073693 
2406.426 12081034 12128066 12221280 12359257 12530901 12712336 12872294 
2409.801 12977608 13002360 12934688 12782878 12572804 12344817 12142260 
2413.177 12003874 11954503 12001956 12137479 12339299 12575821 12815407 
2416.552 13027824 13189436 13283888 13303332 13248612 13128461 12958770 
2419.927 12762500 12564564 12391260 12263772 12195265 12187298 12230573 
2423.302 12305709 12389571 12461364 12508229 12528525 12533455 12541316 
2426.677 12573343 12645180 12765409 12930895 13131099 13353178 13585419 
2430.053 13818700 14050898 14279727 14504119 14718269 14914317 15079815 
2433.428 15203030 15272884 15282129 15228109 15114891 14952363 14758283 
2436.803 14558348 14382847 14262316 14219940 14264273 14384807 14550882 
2440.178 14719098 14844102 14890998 14845291 14717110 14537040 14346181 
2443.554 14183260 14074867 14029302 14039623 14089272 14162103 14247780 
2446.929 14345905 14461750 14601494 14764013 14941103 15114582 15265351 
2450.304 15376740 15442211 15467007 15465926 15456274 15452799 15459050 
2453.679 15468359 15466284 15436070 15366561 15257328 15119093 14972816 
2457.055 14840945 14743383 14689880 14680212 14703739 14745452 14789994 
2460.430 14827772 14854325 14873690 14892731 14921875 14968486 15037797 
2463.805 15128911 15234973 15344901 15442363 15512023 15542912 15530277 
2467.180 15481398 15410849 15340027 15288434 15268516 15281210 15315820 
2470.556 15353517 15374455 15365075 15322713 15254572 15175688 15103183 
2473.931 15049433 15019945 15012144 15017978 15028143 15034396 15032998 
2477.306 15023771 15010793 15000811 15002561 15023137 15068218 15137731 
2480.681 15227367 15326212 15422352 15505355 15572703 15628651 15685031 
2484.057 15754383 15841728 15941640 16036671 16102901 16121743 16086984 
2487.432 16013145 15929248 15871760 15868556 15928883 16036956 16158979 
2490.807 16253924 16289245 16250830 16147859 16005045 15852552 15715444 
2494.182 15605805 15522371 15458616 15407509 15368710 15347100 15350650 
2497.558 15381224 15432215 15487337 15526948 15534731 15504956 15446269 
2500.933 15378059 15324705 15307651 15337929 15415320 15528078 15658733 
2504.308 15788356 15902126 15989335 16045406 16069813 16064392 16034098 
2507.683 15985247 15925493 15864372 15811248 15774887 15761383 15773185 
2511.059 15808966 15862575 15924817 15984554 16030965 16055338 16053095 
2514.434 16023962 15971398 15902158 15823757 15746521 15681522 15641969 
2517.809 15642511 15697304 15815539 15997177 16228989 16484419 16726518 
2521.184 16918032 17027584 17041280 16963132 16815684 16632631 16449882 
2524.560 16300710 16206942 16181670 16227739 16339585 16504770 16703203 
2527.935 16910250 17097160 17239402 17319988 17337510 17304874 17246586 
2531.310 17187512 17146480 17127846 17123264 17116038 17092268 17047424 
2534.685 16990966 16940118 16912288 16913200 16932630 16943870 16914904 
2538.061 16819494 16650625 16424332 16178958 15962323 15821638 15787235 
2541.436 15868558 16052030 16307237 16594583 16875608 17117686 17299622 
2544.811 17410564 17450272 17425384 17349156 17234764 17097114 16949484 
2548.186 16802930 16669372 16562441 16496463 16486719 16544389 16671840 
2551.562 16859862 17085596 17317042 17518372 17659294 17724016 17712230 
2554.937 17641086 17538010 17432840 17351468 17309566 17311542 17350356 
2558.312 17413120 17482542 17542686 17580200 17587906 17565188 17519616 
2561.687 17465058 17419800 17403414 17430066 17505906 17624586 17769312 
2565.063 17914798 18033576 18103498 18113208 18065958 17977970 17877504 
2568.438 17794914 17757002 17777982 17856846 17978320 18116564 18243266 
2571.813 18336422 18385694 18394596 18378458 18356154 18343902 18350024 
2575.188 18371154 18395328 18409010 18401782 18373456 18334006 18302448 
2578.563 18300312 18344990 18444510 18593002 18772608 18956826 19115734 
2581.939 19223996 19266402 19241446 19162930 19056090 18952182 18880900 
2585.314 18862038 18901884 18992382 19113168 19239326 19346794 19418974 
2588.689 19448418 19436506 19390890 19321510 19238144 19149508 19063116 
2592.064 18985608 18923534 18882152 18865212 18874228 18909816 18972084 
2595.440 19062806 19184968 19342196 19535738 19761436 20009342 20263612 
2598.815 20504880 20716374 20884986 21005852 21078924 21110314 21108256 
2602.190 21082830 21045708 21010068 20990844 21001766 21052598 21145316 
2605.565 21271844 21415764 21555362 21670984 21751170 21794386 21809076 
2608.941 21809496 21808148 21813236 21824408 21835580 21838380 21826886 
2612.316 21801354 21769024 21741708 21733272 21755558 21816000 21914362 
2615.691 22043514 22189168 22332502 22455652 22543742 22591070 22603642 
2619.066 22598950 22602138 22638086 22724886 22867720 23055026 23263174 
2622.442 23462832 23627192 23739978 23797606 23809876 23794098 23768624 
2625.817 23750958 23751234 23773454 23818174 23881840 23960738 24049724 
2629.192 24143544 24237056 24325440 24405134 24474356 24532198 24578388 
2632.567 24613016 24635528 24645838 24645444 24638270 24631186 24632568 
2635.943 24649304 24686296 24742852 24814800 24895608 24978778 25058492 
2639.318 25131894 25195942 25248650 25286358 25304660 25300690 25274256 
2642.693 25227758 25167280 25098818 25028002 24957794 24889082 24822232 
2646.068 24760020 24706920 24670744 24657492 24670854 24708788 24764132 
2649.444 24826942 24886990 24937910 24977006 25003450 25017160 25015420 
2652.819 24993108 24944920 24867872 24765370 24648288 24531080 24429754 
2656.194 24354188 24305750 24277076 24255132 24225628 24178206 24109902 
2659.569 24022954 23924280 23819372 23711640 23600280 23482144 23353078 
2662.945 23211292 23057046 22894120 22727022 22560332 22399008 22246478 
2666.320 22107860 21987046 21888350 21815476 21768610 21746056 21742958 
2669.695 21752652 21769202 21787648 21804748 21819328 21831562 21842542 
2673.070 21854062 21867300 21884158 21905800 21930792 21956788 21978816 
2676.446 21990724 21988632 21970536 21939320 21900316 21861298 21828692 
2679.821 21804486 21786694 21770156 21749272 21721320 21689008 21660128 
2683.196 21645364 21653780 21689746 21750188 21823710 21893994 21944262 
2686.571 21961354 21939442 21882402 21802396 21716008 21641848 21594172 
2689.947 21580250 21600278 21645656 21704130 21762168 21808506 21837414 
2693.322 21847596 21843416 21830134 21814300 21798920 21786346 21775958 
2696.697 21767108 21758708 21749670 21739348 21726746 21711316 21693782 
2700.072 21676334 21664162 21664474 21683934 21727108 21794836 21881746 
2703.448 21978098 22072570 22153932 22215330 22252266 22265548 22257730 
2706.823 22232812 22196280 22154796 22116678 22090622 22085042 22104246 
2710.198 22146156 22202718 22259484 22301072 22315018 22295996 22246646 
2713.573 22177492 22101440 22031044 21975392 21939236 21924708 21932174 
2716.948 21963486 22020130 22103122 22209188 22330258 22454320 22567326 
2720.324 22656950 22714906 22739430 22733530 22703722 22656524 22597810 
2723.699 22532280 22464052 22397834 22338676 22291646 22260526 22246050 
2727.074 22246948 22259628 22280506 22307386 22338784 22373510 22409080 
2730.449 22441062 22464020 22472688 22465676 22445934 22421566 22403376 
2733.825 22399664 22414506 22445056 22481612 22513014 22530100 22529076 
2737.200 22512438 22488580 22467302 22455630 22457086 22469366 22487564 
2740.575 22506790 22523524 22537294 22550058 22565318 22585028 22609290 
2743.950 22636794 22665148 22691468 22714178 22731430 22743580 22749526 
2747.326 22749342 22742756 22730414 22713884 22695962 22680350 22671694 
2750.701 22673536 22689584 22720232 22765568 22821518 22883256 22943246 
2754.076 22995072 23032778 23052440 23054618 23041708 23018646 22990828 
2757.451 22964114 22942798 22929574 22926592 22934794 22954736 22985784 
2760.827 23026630 23074388 23126928 23182280 23239246 23299678 23366204 
2764.202 23441164 23525582 23616854 23710038 23798486 23875380 23935652 
2767.577 23977612 24001626 24010016 24005028 23988800 23963578 23932918 
2770.952 23902150 23878402 23870562 23885862 23928348 23996620 24086206 
2774.328 24189890 24301588 24416442 24533960 24655382 24780238 24905896 
2777.703 25026164 25132004 25214764 25269068 25294890 25298248 25287110 
2781.078 25270984 25256358 25247558 25244968 25248682 25259456 25280978 
2784.453 25317382 25373780 25451404 25547906 25656526 25768484 25874170 
2787.829 25965932 26040930 26100290 26147762 26189304 26232188 26282546 
2791.204 26345212 26423116 26516462 26621764 26732498 26839596 26932910 
2794.579 27004108 27049680 27071866 27078900 27083760 27099896 27139352 
2797.954 27208776 27309802 27437334 27583324 27736976 27888126 28027100 
2801.330 28146378 28241192 28311056 28358790 28392854 28425600 28471288 
2804.705 28543248 28650058 28792794 28963014 29146934 29327126 29487872 
2808.080 29620854 29726150 29811836 29891644 29980834 30092488 30233876 
2811.455 30407218 30609306 30834904 31077058 31329670 31586050 31841226 
2814.831 32089938 32327094 32550674 32760944 32961640 33159274 33362080 
2818.206 33578420 33814368 34074632 34361648 34675448 35017132 35388080 
2821.581 35790920 36228988 36707052 37230772 37805164 38435120 39123876 
2824.956 39872020 40676212 41530020 42423568 43345808 44288464 45245948 
2828.332 46218908 47212140 48233880 49293416 50399140 51557768 52773572 
2831.707 54049108 55386168 56783092 58236288 59737392 61274860 62835024 
2835.082 64406952 65984876 67570880 69174848 70810592 72491992 74227072 
2838.457 76016856 77854592 79728472 81627408 83542952 85471680 87413520 
2841.833 89369784 91340080 93321352 95308392 97296264 99281960 101263368 
2845.208 103236168 105191408 107107936 108953904 110685872 112254856 
2848.101 113613336 114723192 115559832 116116216 116402328 116444752 
2850.994 116280160 115954696 115517528 115016344 114490880 113968248 
2853.887 113461200 112968216 112476792 111970720 111436632 110868552 
2856.780 110268720 109645480 109007488 108361344 107707368 107042600 
2859.673 106362696 105664912 104952312 104229696 103503280 102776512 
2862.566 102049528 101320296 100588352 99858800 99143480 98460728 97829192 
2865.941 97261912 96761552 96318192 95912888 95523736 95131768 94726696 
2869.317 94308488 93885656 93470848 93077352 92716360 92395904 92122032 
2872.692 91898976 91729144 91613672 91550256 91534864 91562632 91631704 
2876.067 91744896 91911480 92144608 92458656 92862320 93357376 93937328 
2879.442 94589936 95301584 96062664 96869624 97725360 98634208 99598904 
2882.818 100614928 101672904 102758664 103858640 104965960 106082416 
2885.711 107217784 108386648 109602440 110871736 112191240 113547504 
2888.604 114919192 116284384 117624232 118929400 120201096 121450112 
2891.497 122694264 123953664 125245440 126580136 127960280 129380912 
2894.390 130830184 132295312 133764696 135230784 136691744 138152144 
2897.283 139620704 141108640 142628192 144190288 145803920 147474240 
2900.176 149202608 150987184 152822240 154700688 156616576 158565696 
2903.069 160549200 162572528 164645152 166779280 168982944 171262656 
2905.962 173618400 176045424 178535840 181079792 183668464 186296176 
2908.855 188959360 191656880 194389616 197158960 199965952 202809584 
2911.748 205686480 208589584 211506048 214417280 217299408 220124576 
2914.641 222862752 225483376 227957632 230260032 232367344 234261136 
2917.534 235927216 237355360 238540032 239480160 240178672 240640704 
2920.427 240875456 240896144 240720928 240375600 239891104 239304704 
2923.321 238650528 237956400 237237008 236490256 235700192 234842336 
2926.214 233893504 232837920 231675424 230419856 229092256 227717680 
2929.107 226313072 224887136 223438544 221962784 220456080 218921808 
2932.000 217369600 215813296 214263424 212724048 211187616 209637136 
2934.893 208050176 206406240 204691520 202903456 201049856 199145120 
2937.786 197207888 195253360 193293040 191331424 189368752 187401440 
2940.679 185424544 183434608 181430832 179415008 177391360 175366448 
2943.572 173344928 171330144 169321168 167315216 165305280 163286288 
2946.465 161255696 159216240 157175472 155145296 153137328 151161280 
2949.358 149220992 147313744 145431024 143560768 141689744 139807296 
2952.251 137906976 135985536 134044680 132089688 130126048 128161248 
2955.144 126200424 124247256 122301752 120362072 118421080 116473328 
2958.037 114512168 112534168 110540352 108537392 106536504 104552720 
2960.930 102603152 100704672 98871344 97113944 95436872 93837912 92308608 
2964.306 90835136 89401648 87993096 86598784 85216376 83851176 82516856 
2967.681 81230344 80010408 78870520 77818112 76851240 75961200 75133040 
2971.056 74351032 73599392 72867632 72152104 71454552 70783168 70147104 
2974.431 69555336 69010240 68508136 68037544 67581432 67122840 66647240 
2977.807 66149748 65632148 65104224 64577900 64063556 63563780 63076468 
2981.182 62593556 62109620 61620228 61129628 60646508 60181452 59742076 
2984.557 59331896 58946988 58580584 58226800 57882620 57551348 57239924 
2987.932 56956088 56704292 56483800 56290580 56119472 55971072 55852652 
2991.308 55779716 55770800 55842200 56003052 56250540 56572020 56950568 
2994.683 57370724 57825784 58319440 58864960 59480176 60180320 60972012 
2998.058 61851288 62802120 63800676 64819852 65832480 66813976 67743944 
3001.433 68603976 69376528 70043224 70585776 70985000 71224336 71291064 
3004.809 71181704 70901880 70468984 69910936 69263656 68567272 67858632 
3008.184 67168440 66517280 65915116 65364004 64861560 64406848 64003164 
3011.559 63659384 63390612 63214912 63153276 63225300 63451320 63849948 
3014.934 64439976 65237088 66254900 67501168 68978136 70681400 72602976 
3018.310 74732680 77061128 79579664 82279984 85149192 88168232 91307584 
3021.685 94526736 97776320 101000856 104142784 107144656 109951992 112509992 
3025.060 114765464 116666464 118162832 119212664 119786544 119871320 
3027.953 119473320 118615888 117336280 115679864 113693120 111421288 
3030.846 108906368 106187432 103305120 100303680 97232136 94143712 91092528 
3034.221 88126800 85286448 82597512 80070000 77701592 75479064 73384272 
3037.597 71399456 69510304 67709856 65998756 64384604 62878088 61489888 
3040.972 60230304 59102008 58100896 57216336 56431108 55726664 55085256 
3044.347 54495668 53954708 53468124 53049416 52716112 52484016 52365744 
3047.722 52365420 52479404 52699168 53013356 53409964 53881864 54424296 
3051.098 55038144 55725324 56490516 57335576 58262396 59268732 60350168 
3054.473 61497448 62698720 63936056 65189160 66433832 67646024 68801040 
3057.848 69877704 70857768 71726544 72473128 73089360 73568888 73906128 
3061.223 74096952 74138128 74026752 73762840 73347672 72787024 72090200 
3064.599 71269488 70340800 69321400 68230000 67083156 65897992 64690372 
3067.974 63479544 62285852 61132456 60044392 59042480 58143016 57352320 
3071.349 56668036 56080056 55575032 55140700 54770244 54463104 54224356 
3074.724 54060048 53976536 53974284 54050668 54198836 54412256 54685036 
3078.100 55015136 55402928 55848264 56350084 56902704 57494812 58108900 
3081.475 58720676 59300244 59812320 60216824 60473112 60542960 60396440 
3084.850 60016428 59403764 58576388 57568644 56424600 55191772 53914220 
3088.225 52627180 51354480 50109496 48897660 47719128 46572544 45458480 
3091.601 44379192 43341292 42354948 41432652 40589204 39838936 39193580 
3094.976 38658820 38232468 37903400 37652480 37455344 37287708 37129432 
3098.351 36970924 36812584 36667196 36553968 36493160 36500840 36583692 
3101.726 36735424 36938772 37168412 37396368 37597252 37753476 37855192 
3105.102 37900324 37892028 37833668 37727548 37571028 37359324 37085564 
3108.477 36745736 36340276 35876316 35369212 34837516 34301944 33780156 
3111.852 33284314 32817550 32376256 31953040 31539224 31131002 30732280 
3115.227 30353182 30010388 29719916 29494324 29337506 29244092 29200902 
3118.603 29191372 29198530 29209906 29218328 29222316 29223450 29226062 
3121.978 29232056 29245130 29266250 29295614 29331438 29369820 29402176 
3125.353 29417084 29402256 29346774 29245658 29103228 28931772 28752336 
3128.728 28586948 28454142 28366620 28325670 28323146 28345514 28376792 
3132.104 28403514 28419228 28423920 28424690 28433732 28463662 28524252 
3135.479 28618286 28739722 28873422 28998142 29090412 29132484 29116030 
3138.854 29047098 28941592 28823308 28715316 28634490 28587984 28573022 
3142.229 28581340 28603806 28634884 28674698 28727394 28797446 28886158 
3145.604 28990328 29099648 29202834 29286560 29341446 29362028 29347126 
3148.980 29299926 29230110 29150790 29082102 29045816 29062638 29145378 
3152.355 29295162 29496976 29722258 29935266 30102852 30202442 30228540 
3155.730 30193396 30119014 30031246 29950726 29888476 29845982 29818672 
3159.105 29803754 29801560 29819808 29868766 29958852 30093286 30268682 
3162.481 30472012 30686568 30893404 31077056 31227748 31341716 31420626 
3165.856 31470600 31498898 31512708 31516328 31511460 31494990 31462188 
3169.231 31408962 31334132 31242838 31147440 31066634 31018798 31019326 
3172.606 31073600 31175958 31307294 31441468 31550522 31609990 31606502 
3175.982 31539920 31424976 31287830 31163248 31085698 31084390 31174094 
3179.357 31353268 31600430 31880916 32152698 32377020 32528054 32597538 
3182.732 32596320 32548566 32484058 32430544 32405864 32418870 32469376 
3186.107 32554046 32668580 32809756 32973588 33153936 33336844 33503916 
3189.483 33633812 33709284 33721200 33673760 33583844 33476782 33379122 
3192.858 33312860 33287768 33302330 33343892 33394896 33439626 33468862 
3196.233 33482910 33491872 33511356 33556996 33639024 33758320 33905904 
3199.608 34066464 34223616 34365940 34491900 34609532 34731348 34869304 
3202.984 35026684 35194904 35353168 35477200 35545608 35548560 35492124 
3206.359 35395136 35283092 35180172 35101864 35052852 35028792 35023916 
3209.734 35033544 35059316 35107116 35182112 35283868 35402460 35518596 
3213.109 35608996 35655188 35648416 35595528 35517824 35445784 35412188 
3216.485 35442640 35551592 35737028 35984020 36265816 36550704 36808572 
3219.860 37015520 37159552 37240288 37268116 37260868 37237060 37210724 
3223.235 37189860 37174476 37160948 37146648 37133988 37131416 37153540 
3226.610 37214200 37321436 37474400 37659620 37855560 38035216 38173160 
3229.986 38249684 38255388 38190588 38066912 37903168 37724876 37559196 
3233.361 37431776 37360992 37354900 37407792 37502324 37615156 37724620 
3236.736 37817048 37893196 37965512 38054720 38177144 38340412 38536508 
3240.111 38745044 38939992 39099684 39217476 39302392 39377064 39468992 
3243.487 39597764 39768364 39966240 40163428 40326724 40429660 40462012 
3246.862 40431376 40362536 40288916 40241740 40243404 40300656 40407460 
3250.237 40546108 40696548 40841068 40969340 41080908 41183524 41289832 
3253.612 41412948 41560644 41732384 41918300 42099624 42254020 42360996 
3256.988 42410184 42404676 42362012 42312000 42287556 42315948 42410244 
3260.363 42565224 42757352 42954344 43122560 43239032 43296244 43303864 
3263.738 43282840 43258900 43252696 43275924 43328716 43403732 43490152 
3267.113 43579508 43667212 43753940 43843268 43939216 44045144 44163508 
3270.489 44296216 44444308 44607096 44780692 44956148 45119128 45252292 
3273.864 45340252 45374604 45359432 45310092 45253352 45217992 45228000 
3277.239 45295752 45419792 45584712 45767180 45941872 46089028 46199524 
3280.614 46275936 46330124 46381068 46448440 46547508 46684156 46852556 
3283.990 47036416 47213504 47361288 47465136 47524544 47554592 47582968 
3287.365 47640956 47755504 47940064 48190056 48485272 48797868 49098552 
3290.740 49367904 49598080 49794040 49967816 50135780 50312304 50507420 
3294.115 50726832 50973128 51243296 51530132 51820368 52095240 52333408 
3297.490 52514896 52630384 52680136 52679896 52651880 52620092 52600344 
3300.866 52596336 52596528 52580836 52526088 52415264 52241408 52009864 
3304.241 51732228 51425384 51103888 50779296 50458996 50149352 49855668 
3307.616 49583296 49336412 49116268 48919240 48738168 48562624 48383652 
3310.991 48198180 48007920 47823520 47659624 47534388 47460968 47447004 
3314.367 47491244 47581360 47698752 47819704 47922872 47992664 48023276 
3317.742 48019008 47991540 47955212 47922040 47898868 47885136 47877068 
3321.117 47870260 47862536 47856852 47859024 47872792 47899200 47933252 
3324.492 47965704 47986792 47991012 47979628 47960608 47944656 47940328 
3327.868 47949776 47967552 47981800 47980536 47955560 47907296 47844652 
3331.243 47781876 47734256 47713092 47722968 47760916 47815772 47874180 
3334.618 47919244 47935540 47912312 47845668 47740724 47613024 47486564 
3337.993 47388864 47344284 47366320 47454208 47592216 47754052 47911392 
3341.369 48040052 48128244 48174796 48186668 48174832 48146972 48105920 
3344.744 48051692 47983236 47903080 47819016 47742140 47684844 47655952 
3348.119 47659376 47691812 47747064 47817816 47897652 47980724 48062444 
3351.494 48135468 48190380 48217168 48206424 48153524 48060756 47936376 
3354.870 47792564 47641144 47490040 47342816 47196588 47047124 46890852 
3358.245 46729156 46569600 46423700 46307072 46232584 46207964 46230344 
3361.620 46287896 46358240 46414912 46432956 46396012 46301880 46163084 
3364.995 46005284 45858488 45748500 45690028 45681384 45707380 45745352 
3368.371 45774588 45783784 45774792 45761300 45761392 45790756 45857348 
3371.746 45956584 46074416 46192048 46290240 46353500 46372476 46343904 
3375.121 46269964 46156536 46014572 45858960 45707716 45577440 45480396 
3378.496 45420960 45393372 45384268 45376764 45357016 45319004 45264808 
3381.872 45204592 45150136 45109652 45084868 45070948 45059104 45042512 
3385.247 45017820 44987684 44958112 44935592 44922896 44918412 44915204 
3388.622 44906084 44884460 44846152 44793240 44727588 44654036 44576416 
3391.997 44499008 44427024 44366028 44322048 44299260 44297324 44310684 
3395.373 44328576 44338924 44331192 44299676 44245996 44175720 44095792 
3398.748 44010160 43918016 43815752 43698964 43568684 43433504 43308748 
3402.123 43214028 43163860 43163700 43205920 43271508 43335476 43375304 
3405.498 43376448 43338896 43271704 43193212 43121688 43070828 43045876 
3408.874 43045108 43061312 43084728 43104204 43110648 43095568 43052892 
3412.249 42979832 42878712 42760804 42644972 42554712 42513336 42536464 
3415.624 42625152 42763384 42919604 43054672 43132900 43130476 43043172 
3418.999 42888208 42696840 42507552 42352036 42250252 42205596 42203840 
3422.375 42222512 42234992 42218528 42157848 42047888 41892276 41702084 
3425.750 41494116 41288236 41106240 40967528 40886788 40869892 40912072 
3429.125 40997232 41100528 41195100 41257212 41273528 41244376 41182608 
3432.500 41108200 41043816 41007256 41005996 41039472 41097996 41169632 
3435.875 41242352 41308304 41363732 41406768 41436112 41449424 41442700 
3439.251 41411252 41351336 41263736 41151280 41019120 40871456 40711704 
3442.626 40539956 40354824 40155844 39945920 39733752 39533032 39360532 
3446.001 39232420 39158432 39140476 39168924 39228108 39295176 39349344 
3449.376 39373508 39360232 39309988 39232272 39142792 39057992 38993364 
3452.752 38957596 38952240 38970004 38996236 39011544 38995608 38932668 
3456.127 38814704 38643968 38434420 38210148 38000548 37833800 37731660 
3459.502 37703656 37744412 37832560 37938016 38024928 38063168 38033168 
3462.877 37932684 37775820 37589148 37405396 37251616 37144060 37082376 
3466.253 37052340 37030304 36993068 36925916 36826840 36709604 36595764 
3469.628 36508864 36466348 36472596 36518664 36585840 36649024 36687360 
3473.003 36686792 36641300 36554052 36432228 36285380 36123060 35954100 
3476.378 35788536 35637220 35511932 35421780 35373720 35366116 35392144 
3479.754 35439532 35494140 35544276 35582384 35605972 35613616 35606148 
3483.129 35579648 35529272 35450048 35341268 35209884 35070796 34946220 
3486.504 34858616 34824540 34848508 34921440 35023256 35127944 35211600 
3489.879 35259068 35266904 35241352 35194600 35136112 35070624 34994228 
3493.255 34896852 34767948 34601592 34402756 34187784 33981424 33811164 
3496.630 33699864 33658664 33682264 33750656 33833644 33898768 33919208 
3500.005 33882024 33790520 33662700 33525608 33407350 33330108 33301714 
3503.380 33317570 33361554 33413020 33451926 33464480 33446048 33400062 
3506.756 33333994 33256150 33174134 33091858 33011824 32935214 32864764 
3510.131 32802500 32751270 32713578 32689304 32679286 32683420 32704432 
3513.506 32745316 32808096 32890878 32985714 33077952 33148322 33180252 
3516.881 33162530 33098124 33001546 32897916 32815710 32778032 32797300 
3520.257 32871264 32984342 33112128 33227794 33306286 33329926 33289034 
3523.632 33181448 33014770 32803096 32565736 32327038 32111340 31938314 
3527.007 31821582 31762212 31752470 31775550 31813554 31850252 31876698 
3530.382 31890600 31895802 31899314 31907252 31922128 31943214 31967654 
3533.758 31989946 32003042 32001552 31978882 31928472 31846818 31733446 
3537.133 31593144 31435460 31274404 31125164 31001138 30909880 30853058 
3540.508 30826738 30822682 30832022 30845326 30856826 30862462 30860914 
3543.883 30850616 30832414 30805332 30766022 30709686 30627084 30507426 
3547.259 30341838 30126954 29869014 29584320 29299126 29042784 28843578 
3550.634 28717698 28670294 28692286 28765604 28868922 28982112 29090178 
3554.009 29182800 29252770 29296468 29310530 29297572 29264558 29223372 
3557.384 29187454 29167028 29162088 29160628 29137906 29067458 28927530 
3560.760 28713054 28438822 28135122 27840654 27588700 27399440 27274560 
3564.135 27201818 27161024 27135848 27117280 27103870 27098278 27099416 
3567.510 27098864 27081600 27031598 26939838 26810752 26663112 26523632 
3570.885 26420826 26370958 26375000 26417322 26471582 26510678 26516906 
3574.260 26486274 26429126 26366188 26319012 26303160 26322978 26369438 
3577.636 26423992 26461436 26457402 26393788 26261882 26065548 25819846 
3581.011 25551080 25289048 25063288 24896116 24799230 24771564 24801682 
3584.386 24871626 24965004 25067346 25170688 25272252 25368530 25455538 
3587.761 25523242 25559904 25556452 25511652 25435894 25349242 25276712 
3591.137 25239118 25245406 25285446 25334568 25360228 25333622 25242506 
3594.512 25096178 24925624 24771742 24673390 24654062 24714268 24832018 
3597.887 24974024 25105060 25201240 25254424 25271386 25266282 25251722 
3601.262 25233156 25206946 25164596 25098824 25009382 24904640 24799024 
3604.638 24707824 24641844 24603516 24589816 24593832 24607678 24627726 
3608.013 24651540 24677546 24701248 24718522 24726076 24723666 24717976 
3611.388 24717992 24731626 24760828 24794898 24814992 24800906 24740226 
3614.763 24638656 24521126 24427538 24400496 24468498 24636462 24882420 
3618.139 25165018 25436292 25656490 25805584 25884858 25910010 25901876 
3621.514 25875928 25839482 25791192 25728126 25651622 25570466 25501008 
3624.889 25460090 25460790 25504958 25582592 25674538 25757230 25807206 
3628.264 25807826 25750150 25639172 25490290 25328178 25184132 25088828 
3631.640 25065630 25122512 25251194 25426284 25614772 25781054 25901006 
3635.015 25964310 25977184 25954910 25916218 25878256 25850446 25840272 
3638.390 25853748 25900310 25991016 26134588 26329594 26562700 26803510 
3641.765 27017048 27166584 27230342 27203616 27100492 26946998 26773212 
3645.141 26603202 26450734 26321576 26218310 26142296 26098202 26091946 
3648.516 26125258 26192744 26279432 26363560 26424474 26447888 26431082 
3651.891 26382166 26317118 26249718 26188456 26133082 26076100 26010238 
3655.266 25929964 25837108 25739188 25644452 25558432 25476832 25390286 
3658.642 25285986 25156170 25004650 24849656 24719520 24645902 24650750 
3662.017 24739024 24890058 25064574 25212390 25286258 25258006 25125878 
3665.392 24913050 24662200 24419716 24223580 24091314 24019968 23991290 
3668.767 23979268 23963784 23933976 23893798 23853852 23826734 23821718 
3672.143 23840528 23879602 23931656 23990146 24048660 24099150 24132230 
3675.518 24135640 24095284 24002736 23857856 23674500 23476644 23294338 
3678.893 23153070 23066682 23031858 23029308 23029478 23004780 22934904 
3682.268 22814642 22654640 22476908 22311032 22183246 22115470 22118492 
3685.644 22192330 22324892 22495398 22675756 22837966 22956720 23017992 
3689.019 23019758 22972668 22896548 22813338 22741156 22690662 22664718 
3692.394 22658498 22665550 22677816 22688600 22691560 22680618 22651040 
3695.769 22599726 22529402 22449618 22376156 22327270 22319494 22359810 
3699.145 22443506 22554948 22672518 22774580 22845954 22882766 22889728 
3702.520 22880016 22868808 22869424 22891196 22939366 23013700 23109102 
3705.895 23215372 23318432 23402214 23451620 23458782 23426682 23367138 
3709.270 23300848 23247390 23219858 23220134 23237370 23253238 23250894 
3712.646 23221842 23170570 23111294 23065238 23049008 23070226 23124796 
3716.021 23199238 23276198 23341818 23386954 23410734 23416022 23407054 
3719.396 23385960 23353228 23306360 23245098 23171186 23089882 23009560 
3722.771 22940228 22891276 22870464 22883440 22930582 23009414 23111936 
3726.146 23226258 23337484 23432712 23501778 23541416 23556740 23558532 
3729.522 23562084 23581932 23629000 23709694 23822656 23962132 24116216 
3732.897 24270980 24409972 24517616 24582332 24599324 24572850 24515704 
3736.272 24444346 24374858 24316036 24265370 24213188 24145148 24054214 
3739.647 23943262 23829904 23740292 23699962 23722764 23803440 23919252 
3743.023 24033842 24113978 24137604 24104196 24031870 23950336 23886416 
3746.398 23857118 23863214 23894000 23935256 23978414 24024984 24086444 
3749.773 24176166 24301858 24458874 24627806 24781780 24894654 24951510 
3753.148 24955220 24923446 24884720 24865810 24883280 24937640 25013754 
3756.524 25086100 25128126 25120098 25055172 24939276 24789218 24624466 
3759.899 24464114 24320302 24199608 24104060 24035182 23997276 23996430 
3763.274 24041386 24136088 24279046 24455604 24643116 24811692 24934340 
3766.649 24992908 24983938 24920470 24826564 24730610 24655558 24612814 
3770.025 24599734 24602498 24603362 24589002 24555612 24511682 24472690 
3773.400 24457668 24479830 24540968 24631830 24733894 24824936 24886668 
3776.775 24906994 24882856 24819830 24727428 24616584 24498474 24382884 
3780.150 24278968 24195874 24143026 24130336 24165328 24250700 24384432 
3783.526 24556126 24750408 24945776 25119064 25248470 25317160 25315796 
3786.901 25245886 25117992 24952734 24774076 24605712 24467518 24368302 
3790.276 24308696 24280176 24270904 24270290 24270700 24271618 24276488 
3793.651 24290420 24318636 24362302 24420654 24490378 24568552 24652236 
3797.027 24739650 24827982 24912634 24985688 25038440 25064496 25060008 
3800.402 25028030 24978660 24924674 24880136 24856692 24860482 24892292 
3803.777 24947902 25018754 25093980 25159242 25200584 25203264 25156894 
3807.152 25060578 24921586 24760038 24599994 24466950 24377568 24337480 
3810.528 24339536 24367858 24404644 24435804 24457480 24474162 24495468 
3813.903 24529856 24582342 24651642 24729942 24811478 24892648 24972692 
3817.278 25053780 25138232 25224126 25306056 25376196 25427072 25452898 
3820.653 25452258 25422944 25362642 25268764 25138992 24975900 24791944 
3824.029 24608736 24454568 24355280 24325298 24362836 24445796 24543842 
3827.404 24625308 24673338 24687772 24684054 24684078 24703024 24741428 
3830.779 24782930 24803698 24782856 24714320 24610594 24500008 24414924 
3834.154 24378166 24395540 24453408 24528184 24595370 24642326 24672130 
3837.530 24700006 24745958 24824704 24937048 25072666 25210522 25327110 
3840.905 25405486 25433488 25407212 25328710 25202760 25040592 24856814 
3844.280 24673392 24515798 24409376 24372872 24412264 24518786 24671778 
3847.655 24842550 25003672 25134430 25222896 25266842 25269748 25237552 
3851.031 25178800 25103582 25025238 24958798 24919940 24918782 24957542 
3854.406 25026770 25108986 25184740 25237300 25261728 25262420 25252086 
3857.781 25244214 25247240 25261168 25279120 25289418 25284010 25261586 
3861.156 25228382 25195944 25176096 25175472 25193426 25221002 25245982 
3864.531 25256930 25247084 25216168 25168088 25109330 25046788 24983974 
3867.907 24921142 24859208 24798306 24742328 24698182 24674712 24679348 
3871.282 24716266 24782870 24870458 24965494 25054302 25126336 25179234 
3874.657 25218074 25253532 25297734 25356940 25429592 25504482 25565172 
3878.032 25596006 25588620 25546524 25483930 25420020 25372798 25351020 
3881.408 25353122 25367370 25379402 25378114 25359584 25328640 25294288 
3884.783 25264508 25241900 25222688 25200460 25169994 25131158 25090348 
3888.158 25057504 25040474 25038870 25045900 25047826 25032090 24993588 
3891.533 24936886 24875200 24824490 24796544 24793596 24807402 24824090 
3894.909 24832664 24829582 24822178 24825904 24854264 24914732 25000904 
3898.284 25094444 25171228 25211450 25207880 25168238 25115996 25081190 
3901.659 25090980 25161392 25293378 25470960 25667506 25851908 25995388 
3905.034 26078612 26094314 26048386 25958156 25848982 25747810 25676978 
3908.410 25650042 25669246 25724222 25797628 25870920 25930420 25972564 
3911.785 25999588 26020954 26043378 26067128 26084822 26084480 26055822 
3915.160 25997650 25920634 25847284 25804224 25812408 25876994 25984834 
3918.535 26105884 26203242 26246028 26220898 26135484 26016548 25899966 
3921.911 25816608 25782044 25791286 25820454 25837220 25813338 25735184 
3925.286 25609096 25459748 25321464 25226866 25196554 25234250 25326642 
3928.661 25449970 25578894 25692256 25778690 25837644 25873736 25892650 
3932.036 25898734 25891724 25870162 25834168 25789172 25745484 25716872 
3935.412 25717514 25755476 25830530 25932876 26045850 26152238 26239044 
3938.787 26300034 26340232 26370364 26403290 26448018 26507620 26574922 
3942.162 26637468 26679072 26687508 26657858 26593700 26507088 26415556 
3945.537 26336346 26282874 26261392 26270176 26301146 26342740 26383154 
3948.913 26414012 26429728 26430034 26416644 26392748 26362340 26328992 
3952.288 26296706 26269326 26248986 26239688 26241024 26251804 26268314 
3955.663 26286154 26299608 26307472 26310142 26310022 26308964 26307246 
3959.038 26301126 26284078 26249580 26195884 26127656 26059278 26010342 
3962.414 26001382 26047198 26150894 26300484 26474400 26643174 26780910 
3965.789 26869178 26902344 26886926 26836126 26765016 26686416 26605532 
3969.164 26522624 26433028 26332858 26220384 26097736 25971994 25853314 
3972.539 25754514 25687092 25661618 25682770 25748306 25848880 25966732 
3975.915 26081548 26173922 26232610 26256398 26258240 26259016 26281604 
3979.290 26342484 26446090 26582534 26730678 26866002 26966394 27020186 
3982.665 27025062 26987990 26919134 26829484 26727886 26622914 26523828 
3986.040 26445500 26403640 26411664 26476962 26593804 26744098 26900208 
3989.416 27034490 27124628 27162958 27153346 27109878 27047198 26974288 
3992.791 26890616 26790940 26667054 26518158 26354186 26196238 26071594 
3996.166 26006596 26017130 26106170 26261124 26459706 26673422 26876850 
3999.541 27050072 27182292 27270390 
##END=
