##TITLE=Bambu-Lab_PLA_White_Filament_r7_ATR-Corrected
##JCAMP-DX=5.01  $$ Nicolet v. 1
##DATATYPE=INFRARED SPECTRUM
##ORIGIN=Curtin University
##OWNER=Nicolet
##LONGDATE=2024/07/03
##TIME=10:10:05
##SPECTROMETER/DATA SYSTEM=Nicolet iS50
##DATA PROCESSING=
Ratio against background
%Transmittance->Absorbance
ATR Correction
Truncated
ElementMultiply or ElementDivide
##COMMENTS=
Number of sample scans: 32
Collection length: 47.26 sec
Sample gain: 1.0
Background collected on: Wed Jul 03 10:07:43 2024 (GMT+08:00);
Number of background scans: 32
Background gain: 1.0
Sample spacing:  1.000
Number of scan points: 16672
Resolution points: 8192
Number of FFT points: 65536
Apodization: N-B strong;
Phase correction: Mertz;
Laser frequency: 15798.3 cm-1
Number of rejected sample scans: 0
Number of rejected background scans: 0
Bench serial number: AUP1200105;
##RESOLUTION=4.000
##XUNITS=1/CM
##YUNITS=ABSORBANCE
##FIRSTX=400.163452
##LASTX=4000.187744
##FIRSTY=0.056829
##MAXX=4000.187744
##MINX=400.163452
##MAXY=1.115364
##MINY=-0.041940
##XFACTOR=1.000000
##YFACTOR=1.000000E-008
##NPOINTS=7468
##DELTAX=0.482125
##ZPD=8192
##XYDATA=(X++(Y..Y))
400.163 5682931 5574507 5477748 5392972 5315399 5240570 5166800 5096255 
404.020 5033944 4984523 4949437 4925314 4904681 4878600 4839956 4785521 
407.877 4716176 4635129 4545521 4448567 4343291 4228124 4102929 3971047 
411.734 3839506 3717772 3615008 3537447 3486464 3458329 3445464 3438668 
415.591 3429231 3410497 3378349 3331311 3270173 3197845 3119236 3040827 
419.448 2969734 2912343 2872638 2851178 2844721 2847207 2851546 2851581 
423.305 2843819 2827960 2806394 2782917 2761263 2744105 2732577 2726533 
427.162 2724845 2725876 2727635 2728173 2725810 2719695 2710311 2699647 
431.019 2690765 2686809 2689594 2698471 2710394 2720249 2722601 2713650 
434.876 2692575 2661837 2626272 2591545 2562397 2541559 2529493 2524924 
438.733 2525853 2530334 2536880 2544261 2551095 2555535 2555379 2548693 
442.590 2534543 2513668 2488468 2462660 2440223 2424406 2416931 2417568 
446.447 2424314 2433871 2442379 2446196 2442599 2430402 2410366 2385224 
450.304 2359365 2337824 2325101 2323964 2334595 2354506 2379198 2403328 
454.161 2422019 2431846 2431227 2420313 2400542 2374193 2344163 2313900 
458.017 2287324 2268444 2260632 2265684 2282891 2308846 2337932 2363730 
461.874 2380677 2385669 2378824 2362779 2342569 2322951 2307153 2296095 
465.731 2288462 2281401 2271719 2256963 2236114 2209779 2179891 2149155 
469.588 2120339 2095710 2076462 2062543 2052554 2044209 2034906 2022692 
473.445 2006968 1988909 1971199 1957176 1949517 1949098 1954216 1960885 
477.302 1963882 1958378 1941507 1913409 1877113 1837681 1800692 1770727 
481.159 1750350 1739838 1737578 1740980 1747282 1754184 1759975 1763448 
485.016 1763679 1760072 1752497 1741625 1729045 1717112 1708334 1704636 
488.873 1706540 1712928 1721238 1728307 1731366 1729009 1721577 1710957 
492.730 1699817 1690626 1684857 1682473 1682804 1684547 1686627 1688665 
496.587 1690890 1693744 1697281 1700811 1702919 1701975 1696888 1687814 
500.444 1676433 1665657 1658913 1659151 1667995 1685364 1709576 1737900 
504.301 1767247 1794758 1818108 1835568 1845894 1848282 1842512 1829103 
508.158 1809549 1786216 1762104 1740167 1722766 1711118 1705148 1703711 
512.015 1705040 1707196 1708468 1707513 1703381 1695474 1683636 1668268 
515.871 1650502 1632112 1615222 1601727 1592662 1587798 1585668 1584048 
519.728 1580799 1574732 1566077 1556428 1548060 1543002 1542146 1544871 
523.585 1549223 1552690 1553162 1549482 1542295 1533244 1524428 1517589 
527.442 1513581 1512195 1512499 1513394 1514152 1514689 1515476 1517165 
531.299 1520098 1524015 1527935 1530522 1530495 1527189 1520799 1512432 
535.156 1503747 1496473 1491859 1490357 1491577 1494537 1498090 1501375 
539.013 1504083 1506392 1508693 1511218 1513638 1515070 1514276 1510215 
542.870 1502563 1492021 1480214 1469214 1460746 1455494 1452766 1450676 
546.727 1446917 1439658 1428459 1414594 1400727 1390138 1385566 1388325 
550.584 1397862 1412053 1427940 1442787 1454850 1463810 1470548 1476507 
554.441 1482905 1490095 1497363 1503094 1505665 1503930 1497817 1488554 
558.298 1478464 1470366 1466933 1469998 1480152 1496641 1517603 1540435 
562.155 1562395 1581003 1594422 1601640 1602478 1597627 1588445 1576853 
566.012 1565052 1555249 1549233 1548026 1551654 1559098 1568529 1577816 
569.869 1585124 1589440 1590852 1590470 1589986 1591114 1594985 1601841 
573.725 1611105 1621691 1632490 1642807 1652525 1662009 1671799 1682224 
577.582 1693277 1704487 1715226 1724902 1733212 1740160 1745923 1750692 
581.439 1754516 1757310 1759074 1760067 1761015 1763018 1767270 1774649 
585.296 1785316 1798546 1812861 1826536 1838087 1846817 1853005 1857729 
589.153 1862458 1868399 1876091 1885152 1894478 1902661 1908589 1911873 
593.010 1913022 1913316 1914291 1917258 1922756 1930414 1939014 1946973 
596.867 1952812 1955685 1955667 1953658 1951083 1949375 1949530 1951864 
600.724 1956049 1961409 1967369 1973831 1981274 1990616 2002733 2018023 
604.581 2036005 2055317 2074043 2090349 2103102 2112360 2119425 2126447 
608.438 2135741 2149067 2167046 2189061 2213550 2238630 2262770 2285318 
612.295 2306625 2327833 2350328 2375224 2402888 2432829 2463792 2494124 
616.152 2522222 2546821 2567277 2583581 2596329 2606574 2615629 2624867 
620.009 2635502 2648374 2663763 2681432 2700743 2720944 2741501 2762349 
623.866 2783912 2806870 2831762 2858537 2886275 2913293 2937549 2957282 
627.723 2971676 2981227 2987680 2993531 3001333 3012905 3028881 3048686 
631.579 3070777 3093247 3114366 3132954 3148536 3161215 3171508 3180118 
635.436 3187896 3195762 3204717 3215763 3229705 3246977 3267494 3290578 
639.293 3315134 3339846 3363477 3385048 3403966 3420037 3433397 3444483 
643.150 3454025 3462997 3472476 3483523 3496847 3512574 3530249 3548896 
647.007 3567411 3585036 3601671 3618031 3635354 3654986 3677786 3703737 
650.864 3731906 3760651 3788188 3813081 3834574 3852722 3868178 3881891 
654.721 3894830 3907838 3921571 3936561 3953241 3971857 3992386 4014411 
658.578 4037170 4059733 4081281 4101437 4120353 4138656 4157162 4176514 
662.435 4196900 4217969 4239012 4259315 4278462 4296598 4314365 4332726 
666.292 4352563 4374430 4398354 4423848 4450097 4476191 4501373 4525183 
670.149 4547526 4568624 4588920 4608918 4628999 4649323 4669741 4689815 
674.006 4708995 4726808 4743112 4758169 4772641 4787336 4802977 4819922 
677.863 4838062 4856947 4875981 4894787 4913211 4931449 4949788 4968408 
681.720 4987196 5005803 5023827 5041131 5058019 5075200 5093554 5113667 
685.577 5135555 5158464 5181117 5202106 5220412 5235759 5248685 5260320 
689.433 5271991 5284856 5299663 5316840 5336650 5359430 5385645 5415814 
693.290 5450176 5488477 5529796 5572669 5615398 5656452 5694828 5730132 
697.147 5762563 5792536 5820462 5846439 5870209 5891235 5908838 5922432 
701.004 5931653 5936368 5936735 5933026 5925632 5914865 5900936 5883927 
704.861 5863803 5840571 5814389 5785781 5755647 5725162 5695538 5667685 
708.718 5641935 5617913 5594726 5571253 5546576 5520350 5492796 5464550 
712.575 5436244 5408096 5379691 5350082 5318107 5282814 5243845 5201440 
716.432 5156219 5108667 5058724 5005484 4947303 4882242 4808688 4725918 
720.289 4634450 4536006 4433189 4329001 4226285 4127406 4034092 3947525 
724.146 3868552 3797851 3736125 3684099 3642468 3611773 3592309 3584018 
728.003 3586571 3599427 3621982 3653808 3694772 3745150 3805568 3876805 
731.860 3959497 4053856 4159320 4274545 4397437 4525557 4656507 4788372 
735.717 4919975 5050875 5181119 5310825 5439780 5567147 5691467 5810909 
739.574 5923738 6028794 6125790 6215447 6299259 6379077 6456584 6532943 
743.431 6608607 6683428 6756949 6828812 6899059 6968286 7037569 7108198 
747.287 7181421 7258101 7338569 7422597 7509434 7597887 7686480 7773512 
751.144 7857185 7935720 8007500 8071258 8126128 8171689 8207833 8234498 
755.001 8251476 8258203 8253707 8236710 8205882 8160045 8098463 8020939 
758.858 7927896 7820332 7699788 7568247 7428007 7281523 7131203 6979132 
762.715 6826912 6675526 6525481 6376908 6229892 6084737 5942030 5802650 
766.572 5667650 5537990 5414409 5297326 5186808 5082623 4984347 4891300 
770.429 4802619 4717215 4633844 4551176 4468054 4383621 4297469 4209670 
774.286 4120789 4031745 3943643 3857655 3774871 3696189 3622188 3553059 
778.143 3488474 3427614 3369245 3311905 3254138 3194777 3133108 3068970 
782.000 3002670 2934840 2866254 2797659 2729652 2662647 2596859 2532383 
785.857 2469194 2407236 2346447 2286844 2228603 2172027 2117585 2065793 
789.714 2017127 1971891 1930131 1891666 1856115 1823023 1791989 1762702 
793.571 1735009 1708809 1684013 1660446 1637861 1615974 1594547 1573556 
797.428 1553278 1534366 1517706 1504275 1494835 1489661 1488336 1489756 
801.285 1492316 1494281 1494200 1491240 1485455 1477567 1468695 1459966 
805.141 1452189 1445652 1440249 1435639 1431529 1427775 1424397 1421389 
808.998 1418594 1415633 1411989 1407318 1401709 1395871 1391033 1388656 
812.855 1389957 1395488 1404933 1417163 1430557 1443380 1454204 1462120 
816.712 1466786 1468368 1467433 1464919 1462049 1460269 1461057 1465592 
820.569 1474441 1487292 1502880 1519300 1534450 1546586 1554769 1559025 
824.426 1560208 1559619 1558582 1558115 1558835 1560998 1564634 1569614 
828.283 1575701 1582475 1589287 1595441 1600362 1603947 1606822 1610364 
832.140 1616433 1626894 1643128 1665538 1693591 1725935 1760907 1797074 
835.997 1833635 1870599 1908710 1949147 1993261 2042269 2097115 2158367 
839.854 2226176 2300293 2379990 2464133 2551241 2639663 2727780 2814194 
843.711 2897815 2977861 3053717 3124800 3190378 3249607 3301601 3345648 
847.568 3381435 3409258 3430125 3445794 3458637 3471472 3487371 3509427 
851.425 3540612 3583690 3641137 3715140 3807577 3919939 4053171 4207524 
855.282 4382402 4576270 4786715 5010709 5244868 5485866 5730605 5976379 
859.139 6220807 6461665 6696721 6923780 7140606 7345162 7535780 7711240 
862.995 7870800 8014159 8141324 8252679 8348881 8430929 8500024 8557421 
866.852 8604074 8640382 8665960 8679621 8679632 8664139 8631500 8580597 
870.709 8510954 8422736 8316545 8193379 8054593 7901869 7737124 7562382 
874.566 7379419 7189467 6993026 6789939 6579802 6362482 6138833 5910979 
878.423 5682363 5457230 5239924 5034043 4841825 4663975 4499816 4347946 
882.280 4206941 4075938 3954986 3845055 3747686 3664532 3596894 3545408 
886.137 3509914 3489522 3482843 3488171 3503662 3527414 3557455 3591728 
889.994 3628128 3664572 3699226 3730708 3758215 3781626 3801384 3818272 
893.851 3833041 3846231 3857989 3868128 3876283 3882201 3885891 3887758 
897.708 3888628 3889618 3892028 3897227 3906602 3921461 3942937 3971916 
901.565 4008796 4053505 4105413 4163553 4226810 4294154 4364796 4438091 
905.422 4513421 4589877 4666133 4740441 4810826 4875415 4932738 4981933 
909.279 5022628 5054790 5078362 5093146 5098707 5094596 5080541 5056654 
913.136 5023449 4981750 4932416 4876211 4813728 4745484 4672163 4594799 
916.993 4514837 4434095 4354449 4277633 4204984 4137347 4075070 4018209 
920.849 3966517 3919588 3876843 3837569 3800980 3766355 3733172 3701282 
924.706 3670897 3642510 3616653 3593704 3573759 3556560 3541636 3528504 
928.563 3516863 3506643 3498046 3491373 3486864 3484564 3484347 3485817 
932.420 3488597 3492238 3496413 3500869 3505471 3510184 3515111 3520516 
936.277 3526874 3534828 3545085 3558341 3575033 3595247 3618634 3644499 
940.134 3671977 3700265 3728897 3757945 3788055 3820318 3856044 3896391 
943.991 3942098 3993285 4049505 4109917 4173614 4239894 4308510 4379635 
947.848 4453853 4531945 4614727 4702991 4797453 4898727 5007272 5123270 
951.705 5246379 5375568 5509095 5644650 5779681 5911852 6039421 6161390 
955.562 6277489 6387906 6493001 6593102 6688452 6779381 6866476 6950818 
959.419 7033854 7117262 7202558 7290730 7382000 7475622 7569983 7662661 
963.276 7750621 7830502 7898810 7952340 7988470 8005459 8002523 7979731 
967.133 7937634 7876811 7797573 7699912 7583789 7449566 7298589 7133478 
970.990 6957968 6776529 6593644 6413197 6238072 6070086 5910267 5759142 
974.847 5617038 5484178 5360677 5246383 5140837 5043462 4953712 4871348 
978.703 4796545 4729843 4671835 4622902 4582983 4551552 4527812 4510940 
982.560 4500385 4495898 4497455 4505087 4518667 4537825 4562102 4591039 
986.417 4624433 4662342 4705018 4752780 4805670 4863425 4925464 4990962 
990.274 5058929 5128325 5198034 5266836 5333450 5396542 5454912 5507701 
994.131 5554479 5595332 5630708 5661400 5688331 5712590 5735451 5758374 
997.988 5782929 5810659 5842782 5880001 5922380 5969533 6020928 6076370 
1001.845 6136211 6201474 6273602 6353993 6443596 6542612 6650535 6766478 
1005.702 6889641 7019763 7157366 7303727 7460642 7630006 7813485 8012260 
1009.559 8226929 8457565 8703880 8965378 9241522 9531949 9836531 10155408 
1013.416 10488914 10837424 11201111 11579758 11972716 12379003 12797460 
1016.791 13227001 13666768 14116047 14574090 15039867 15511775 15987726 
1020.166 16465354 16942276 17416466 17886352 18350772 18808792 19259528 
1023.540 19702128 20135978 20561070 20978318 21389752 21798410 22207898 
1026.916 22622030 23044428 23478440 23927234 24394054 24882360 25395712 
1030.291 25937468 26510208 27115298 27752674 28420890 29117596 29839926 
1033.666 30584878 31349462 32130468 32924110 33725640 34529068 35327248 
1037.041 36112140 36875200 37607992 38302580 38951980 39550372 40093332 
1040.417 40577828 41002260 41366188 41670032 41914636 42100964 42229868 
1043.792 42302056 42318524 42280928 42191984 42055804 41877644 41663460 
1047.167 41419320 41150724 40862288 40557872 40240856 39914732 39583356 
1050.542 39251092 38922416 38601364 38290848 37992384 37705952 37430504 
1053.917 37164648 36907476 36659132 36421244 36196916 35990472 35807116 
1057.293 35652608 35533008 35454668 35424184 35448624 35535580 35693116 
1060.668 35929688 36253852 36673772 37196740 37828660 38573660 39433788 
1064.043 40408976 41497172 42694736 43996776 45397668 46891364 48471676 
1067.418 50132340 51867028 53669232 55532260 57449228 59412952 61415804 
1070.794 63449480 65504676 67571096 69637560 71692920 73726920 75731144 
1074.169 77699344 79626848 81509080 83340080 85111048 86810504 88425008 
1077.544 89940760 91345384 92628176 93779512 94789576 95647136 96339808 
1080.919 96855280 97183840 97320280 97264848 97022384 96600944 96009960 
1084.295 95259632 94361664 93330200 92182328 90937936 89617808 88241848 
1087.670 86827088 85387072 83932184 82470736 81009904 79556512 78116608 
1091.045 76695064 75294816 73916984 72561112 71226200 69911608 68617568 
1094.420 67345032 66095300 64869104 63666064 62484528 61321772 60174592 
1097.796 59040124 57916284 56802320 55698592 54606480 53527988 52465284 
1101.171 51420348 50394792 49389792 48406344 47445272 46507648 45594712 
1104.546 44707908 43848676 43018340 42218028 41448828 40712084 40009764 
1107.921 39344512 38719656 38138828 37605424 37122096 36690392 36310728 
1111.297 35982508 35704512 35475108 35292292 35153768 35056880 34998584 
1114.672 34975748 34985428 35025288 35093972 35190976 35316572 35471268 
1118.047 35655452 35869092 36111848 36383180 36682640 37009996 37364948 
1121.422 37746568 38152708 38579316 39020212 39467076 39909892 40337584 
1124.798 40738612 41101632 41415888 41671820 41861568 41979548 42022900 
1128.173 41991540 41887932 41716212 41481276 41187884 40840136 40441440 
1131.548 39994772 39502900 38968464 38393792 37780392 37128720 36438184 
1134.923 35707676 34936332 34124584 33274608 32390482 31477770 30542708 
1138.299 29591474 28629688 27662202 26693344 25727222 24768064 23820422 
1141.674 22889174 21979340 21096094 20244426 19428960 18653830 17922310 
1145.049 17236700 16598092 16006358 15460305 14958027 14497364 14076295 
1148.424 13693200 13346915 13036582 12761343 12520114 12311394 12133292 
1151.800 11983611 11860044 11760361 11682466 11624541 11585024 11562707 
1155.175 11556868 11567324 11594496 11639311 11702978 11786693 11891470 
1158.550 12017876 12166150 12336334 12528573 12743385 12981819 13245514 
1161.925 13536698 13858020 14212564 14603756 15035482 15512040 16038254 
1165.301 16619433 17261372 17970286 18752816 19616066 20567604 21615502 
1168.676 22768284 24034832 25424096 26944796 28604954 30411476 32369512 
1172.051 34481864 36748212 39164336 41721304 44404484 47192552 50056648 
1175.426 52959780 55856560 58693968 61412956 63951516 66248596 68248616 
1178.802 69905904 71187952 72077480 72573024 72688128 72449408 71893904 
1182.177 71065776 70012480 68781280 67416248 65956260 64434288 62877608 
1185.552 61308552 59745604 58204196 56697296 55235404 53826664 52476788 
1188.927 51189180 49965328 48805152 47707568 46670960 45693540 44773600 
1192.302 43909580 43100036 42343468 41638136 40981884 40371968 39805140 
1195.678 39277908 38786900 38329292 37903120 37507356 37141748 36806364 
1199.053 36501132 36225332 35977460 35755244 35555952 35376720 35214888 
1202.428 35068192 34934616 34812360 34699508 34594048 34493744 34396184 
1205.803 34298900 34199436 34095420 33984520 33864528 33733356 33589164 
1209.179 33430346 33255568 33063632 32853470 32624030 32374406 32103944 
1212.554 31812394 31500154 31168216 30818074 30451426 30069966 29675194 
1215.929 29268428 28850880 28423870 27989018 27548272 27103796 26657870 
1219.304 26212638 25769978 25331310 24897666 24469688 24047670 23631730 
1222.680 23221858 22818158 22420798 22030224 21647022 21271880 20905366 
1226.055 20547866 20199480 19860070 19529456 19207584 18894620 18591162 
1229.430 18298022 18016050 17745952 17488030 17242182 17007946 16784654 
1232.805 16571605 16368245 16174176 15989120 15812822 15645102 15485652 
1236.181 15334094 15189920 15052617 14921565 14796057 14675350 14558733 
1239.556 14445607 14335699 14229040 14126045 14027379 13933736 13845620 
1242.931 13763273 13686536 13615066 13548452 13486458 13429172 13376933 
1246.306 13330244 13289581 13255145 13226795 13204055 13186257 13172749 
1249.682 13163106 13157207 13155285 13157830 13165452 13178687 13197917 
1253.057 13223341 13254982 13292816 13336822 13387050 13443704 13506931 
1256.432 13576798 13653098 13735229 13822156 13912520 14004686 14097029 
1259.807 14188142 14276923 14362699 14445175 14524290 14600050 14672370 
1263.183 14740868 14804842 14863238 14914790 14958134 14992031 15015617 
1266.558 15028393 15030237 15021254 15001497 14970797 14928561 14873874 
1269.933 14805678 14723027 14625454 14513017 14386366 14246438 14094156 
1273.308 13930149 13754609 13567363 13368087 13156654 12933394 12699172 
1276.684 12455394 12203805 11946198 11684217 11419235 11152334 10884413 
1280.059 10616359 10349146 10083932 9821965 9564599 9313125 9068709 8832374 
1283.916 8605072 8387647 8181099 7986560 7805366 7639078 7489321 7357623 
1287.774 7245245 7152995 7081047 7028969 6995801 6980242 6980776 6995911 
1291.631 7024239 7064417 7115021 7174439 7240812 7311988 7385750 7459899 
1295.489 7532567 7602326 7668260 7729963 7787365 7840642 7889994 7935588 
1299.346 7977457 8015541 8049632 8079534 8105058 8126155 8142935 8155706 
1303.203 8164964 8171274 8175194 8177192 8177522 8176215 8173146 8168079 
1307.061 8160781 8151167 8139311 8125447 8110004 8093464 8076346 8059101 
1310.918 8042110 8025676 8010013 7995258 7981515 7968842 7957173 7946396 
1314.776 7936320 7926678 7917247 7907852 7898456 7889229 7880465 7872560 
1318.633 7865879 7860689 7857011 7854780 7853725 7853626 7854337 7855862 
1322.490 7858401 7862286 7867902 7875637 7885808 7898653 7914305 7932887 
1326.348 7954457 7979066 8006797 8037803 8072289 8110566 8152954 8199733 
1330.205 8251117 8307103 8367511 8432069 8500504 8572658 8648578 8728423 
1334.063 8812392 8900575 8992812 9088749 9187952 9290090 9395129 9503391 
1337.920 9615403 9731763 9852849 9978689 10109033 10243509 10381908 10524407 
1341.778 10671601 10824350 10983443 11149356 11322022 11500907 11685237 
1345.153 11874269 12067612 12265284 12467623 12675066 12887868 13105904 
1348.528 13328622 13555090 13784131 14014502 14244851 14473860 14700167 
1351.903 14922288 15138727 15347919 15548293 15738310 15916489 16081490 
1355.279 16232094 16367418 16486913 16590476 16678391 16751234 16809830 
1358.654 16855116 16888122 16910012 16922076 16925812 16922844 16914846 
1362.029 16903258 16889224 16873294 16855362 16834684 16809864 16778970 
1365.404 16739570 16688882 16623913 16541542 16438849 16313304 16163160 
1368.780 15987821 15788214 15567099 15329418 15082318 14835070 14598653 
1372.155 14385094 14206612 14074634 13998859 13986488 14041638 14165066 
1375.530 14354137 14602999 14902890 15242450 15608300 15985672 16359201 
1378.905 16713904 17036252 17314852 17541008 17708690 17814302 17856172 
1382.281 17834174 17749320 17603608 17399976 17142122 16834552 16482362 
1385.656 16091089 15666491 15214351 14740223 14249268 13746129 13234872 
1389.031 12718919 12201244 11684239 11169927 10659991 10155871 9658986 
1392.406 9170951 8693770 8230028 7782764 7355334 6950915 6572202 6221032 
1396.264 5898261 5603951 5337446 5097650 4883218 4692484 4523456 4373839 
1400.121 4240949 4122042 4014467 3916004 3825007 3740568 3662288 3590163 
1403.979 3524236 3464453 3410519 3361925 3318063 3278373 3242419 3209989 
1407.836 3180999 3155472 3133373 3114578 3098906 3086023 3075635 3067454 
1411.693 3061229 3056845 3054263 3053558 3054827 3058207 3063822 3071628 
1415.551 3081402 3092684 3104793 3116922 3128358 3138677 3147870 3156446 
1419.408 3165326 3175673 3188678 3205350 3226415 3252344 3283393 3319709 
1423.266 3361422 3408567 3461222 3519411 3583196 3652732 3728297 3810335 
1427.123 3899336 3995644 4099404 4210399 4328125 4451973 4581359 4715978 
1430.980 4855797 5001044 5152081 5309408 5473674 5645858 5827483 6020688 
1434.838 6228344 6453677 6700127 6970910 7268927 7596744 7956709 8351155 
1438.695 8782365 9252378 9762524 10312932 10902136 11526924 12182373 
1442.071 12862177 13559003 14264782 14971057 15669276 16351196 17009250 
1445.446 17636896 18228764 18780566 19288802 19750660 20163846 20526852 
1448.821 20839188 21101570 21315796 21484364 21609824 21694264 21738898 
1452.196 21744186 21709888 21635522 21520440 21363970 21165408 20924080 
1455.572 20639532 20311972 19942456 19533200 19087302 18608450 18100468 
1458.947 17567094 17011878 16438392 15850346 15251713 14646606 14038970 
1462.322 13432457 12830301 12235454 11650722 11078960 10523083 9985828 
1465.697 9469561 8975995 8506150 8060439 7638960 7241710 6868713 6520091 
1469.555 6195845 5895618 5618485 5362750 5126063 4905575 4698297 4501636 
1473.412 4313770 4133997 3962707 3801170 3651075 3514010 3390942 3281998 
1477.270 3186394 3102680 3029035 2963641 2904918 2851629 2802863 2757907 
1481.127 2716303 2677703 2641971 2609040 2578841 2551229 2525789 2501832 
1484.984 2478568 2455231 2431335 2406921 2382481 2358841 2336922 2317471 
1488.842 2300932 2287330 2276376 2267611 2260411 2254076 2247769 2240505 
1492.699 2231319 2219397 2204286 2186076 2165503 2143721 2122127 2101902 
1496.557 2083852 2068218 2054718 2042708 2031506 2020406 2008896 1996545 
1500.414 1983173 1968750 1953506 1937938 1922768 1908792 1896809 1887277 
1504.271 1880326 1875669 1872786 1871065 1869943 1869001 1867965 1866569 
1508.129 1864533 1861591 1857572 1852567 1847024 1841694 1837448 1834954 
1511.986 1834411 1835393 1836947 1837790 1836766 1833126 1826768 1818218 
1515.844 1808440 1798590 1789711 1782573 1777549 1774667 1773586 1773752 
1519.701 1774366 1774546 1773422 1770272 1764738 1756865 1747134 1736304 
1523.559 1725272 1714805 1705463 1697511 1690964 1685617 1681206 1677352 
1527.416 1673678 1669731 1665236 1659929 1653901 1647438 1641071 1635392 
1531.273 1630894 1627715 1625652 1624134 1622490 1620126 1616797 1612606 
1535.131 1607970 1603367 1599116 1595212 1591383 1587160 1582143 1576255 
1538.988 1569759 1563316 1557695 1553591 1551334 1550774 1551358 1552267 
1542.846 1552627 1551762 1549310 1545327 1540258 1534751 1529508 1525216 
1546.703 1522242 1520671 1520269 1520559 1520959 1520897 1520000 1518104 
1550.561 1515218 1511506 1507118 1502113 1496452 1490030 1482816 1474935 
1554.418 1466749 1458855 1451945 1446660 1443436 1442356 1443155 1445242 
1558.275 1447889 1450321 1451936 1452385 1451640 1449917 1447638 1445310 
1562.133 1443436 1442411 1442528 1443814 1446144 1449174 1452391 1455234 
1565.990 1457161 1457800 1456907 1454565 1450957 1446435 1441448 1436415 
1569.848 1431757 1427814 1424904 1423220 1422865 1423743 1425477 1427458 
1573.705 1428902 1428945 1426997 1422856 1416986 1410430 1404644 1401143 
1577.563 1401075 1404903 1412262 1422051 1432766 1442815 1450903 1456278 
1581.420 1458778 1458714 1456690 1453378 1449444 1445490 1442092 1439785 
1585.277 1439103 1440431 1443869 1449204 1455843 1462974 1469799 1475725 
1589.135 1480497 1484218 1487242 1489976 1492695 1495497 1498375 1501261 
1592.992 1504229 1507550 1511612 1516826 1523518 1531685 1541084 1551166 
1596.850 1561298 1570799 1579137 1585876 1590820 1593957 1595538 1596095 
1600.707 1596408 1597443 1600074 1604934 1612177 1621338 1631529 1641601 
1604.564 1650543 1657748 1663198 1667409 1671213 1675434 1680672 1687065 
1608.422 1694483 1702517 1710852 1719324 1727993 1737045 1746656 1756794 
1612.279 1767224 1777491 1787097 1795606 1802838 1808800 1813750 1818060 
1616.137 1822119 1826269 1830680 1835417 1840433 1845578 1850738 1855795 
1619.994 1860779 1865837 1871251 1877358 1884445 1892631 1901783 1911461 
1623.852 1921034 1929812 1937229 1943019 1947255 1950347 1952837 1955306 
1627.709 1958197 1961811 1966237 1971542 1977806 1985217 1994073 2004663 
1631.566 2017185 2031675 2047884 2065361 2083542 2101826 2119758 2137034 
1635.424 2153581 2169403 2184590 2199132 2212819 2225244 2235785 2243621 
1639.281 2247942 2248025 2243504 2234358 2221061 2204488 2185744 2165994 
1643.139 2146227 2127106 2108909 2091570 2074826 2058440 2042368 2026852 
1646.996 2012486 1999956 1989969 1983004 1979147 1978147 1979461 1982418 
1650.854 1986399 1990922 1995741 2000725 2005927 2011390 2017217 2023522 
1654.711 2030439 2038105 2046634 2055948 2065832 2075757 2085045 2092946 
1658.568 2098907 2102709 2104583 2105200 2105483 2106434 2108888 2113310 
1662.426 2119782 2128069 2137745 2148354 2159538 2171122 2183078 2195509 
1666.283 2208574 2222361 2236933 2252171 2267859 2283588 2298832 2313053 
1670.141 2325788 2336737 2345909 2353599 2360384 2366996 2374162 2382540 
1673.998 2392535 2404319 2417885 2433056 2449581 2467200 2485655 2504618 
1677.855 2523809 2542884 2561535 2579579 2596986 2614019 2631192 2649134 
1681.713 2668640 2690295 2714502 2741254 2770151 2800473 2831351 2861939 
1685.570 2891714 2920540 2948713 2976940 3006096 3037081 3070580 3106938 
1689.428 3146161 3187777 3231112 3275358 3319718 3363589 3406676 3448999 
1693.285 3490869 3532879 3575791 3620489 3667849 3718702 3773770 3833598 
1697.143 3898624 3969076 4045066 4126442 4212760 4303277 4397110 4493268 
1701.000 4591071 4690251 4791234 4895054 5003288 5117675 5239875 5371126 
1704.857 5512019 5662554 5822184 5990138 6165774 6348720 6539152 6737579 
1708.715 6944851 7161900 7389591 7628549 7879263 8142047 8417288 8705410 
1712.572 9006873 9322242 9651882 9996022 10354682 10727688 11114835 11515921 
1716.430 11930835 12359425 12801421 13256380 13723700 14202848 14693762 
1719.805 15197097 15714489 16248311 16801328 17376016 17974132 18596480 
1723.180 19243110 19913984 20609700 21331956 22083806 22869102 23691968 
1726.555 24555842 25463050 26414618 27410820 28451542 29537218 30669168 
1729.931 31849722 33082316 34371372 35722060 37140212 38631792 40202560 
1733.306 41857252 43599228 45430236 47351104 49362604 51466592 53666568 
1736.681 55967428 58374172 60890000 63514636 66243188 69066128 71970280 
1740.056 74940136 77958560 81006520 84062032 87098720 90085408 92987000 
1743.432 95767000 98390208 100825216 103045560 105029568 106760240 108225120 
1746.807 109417352 110336528 110988616 111384376 111536440 111456432 
1749.700 111153424 110634816 109908280 108984544 107878112 106606272 
1752.593 105186128 103631856 101953016 100155672 98244808 96227560 94115112 
1755.968 91922784 89668160 87368312 85037696 82687224 80325144 77958872 
1759.344 75596712 73249016 70927944 68646512 66417044 64250128 62153788 
1762.719 60133292 58191508 56329228 54545552 52838480 51205344 49643328 
1766.094 48149976 46723400 45362340 44065644 42831696 41657928 40540396 
1769.469 39473956 38452608 37470168 36520792 35599188 34700768 33821444 
1772.844 32957468 32105240 31261476 30423356 29588572 28755658 27923766 
1776.220 27092534 26261804 25431428 24601228 23771028 22940962 22111832 
1779.595 21285166 20463366 19649354 18846184 18056608 17282722 16525991 
1782.970 15787391 15067942 14369081 13692936 13042253 12419979 11828779 
1786.345 11270496 10745854 10254475 9795090 9365867 8964829 8590009 8239559 
1790.203 7911713 7604874 7317477 7048133 6795614 6559068 6337879 6131632 
1794.060 5940049 5762655 5598827 5447552 5307526 5177258 5055260 4940222 
1797.918 4831316 4728140 4630853 4539936 4455878 4378882 4308579 4243880 
1801.775 4183156 4124429 4065880 4006194 3944776 3881948 3818635 3756227 
1805.633 3696124 3639583 3587347 3539734 3496576 3457315 3421245 3387462 
1809.490 3355109 3323434 3291743 3259472 3226048 3190857 3153194 3112437 
1813.347 3068169 3020437 2970036 2918632 2868538 2822483 2782971 2751716 
1817.205 2729182 2714365 2705042 2698314 2691265 2681618 2668112 2650709 
1821.062 2630199 2608038 2585784 2564747 2545625 2528395 2512288 2495938 
1824.920 2477786 2456491 2431417 2402950 2372451 2341936 2313424 2288381 
1828.777 2267091 2248608 2231042 2212149 2190058 2163891 2133853 2101105 
1832.635 2067239 2033668 2001321 1970460 1940834 1911938 1883311 1854780 
1836.492 1826305 1798051 1770258 1743214 1717347 1693218 1671567 1653158 
1840.349 1638428 1627310 1618964 1611910 1604217 1593992 1579826 1561251 
1844.207 1538827 1514174 1489522 1467182 1448990 1435844 1427404 1422199 
1848.064 1417915 1412026 1402469 1388188 1369325 1347190 1323622 1300479 
1851.922 1279150 1260124 1243298 1228369 1215150 1204009 1195657 1190896 
1855.779 1189883 1192083 1196070 1200041 1202308 1201926 1198944 1194135 
1859.636 1188510 1182789 1177028 1170695 1162989 1153489 1142434 1130735 
1863.494 1119759 1110600 1103710 1098722 1094601 1090122 1084143 1076048 
1867.351 1065399 1051886 1035021 1014288 989343 960814 930487 901496 877753 
1871.691 863049 859936 869068 888847 915791 945389 972983 994657 1007690 
1876.031 1010711 1003795 988195 966301 941349 917103 897081 883820 878091 
1880.370 878688 882554 885748 884595 876929 862658 843712 823290 804881 
1884.710 791051 783080 780783 783172 788932 797000 806494 816625 826270 
1889.049 833891 837595 836037 828708 816579 802104 788555 779165 776312 
1893.389 780772 791709 807051 824256 840775 854608 864406 869414 869209 
1897.729 863890 854036 840900 826252 812292 800692 792210 786115 780469 
1902.068 772709 760829 744427 725380 707295 694651 690957 697486 712323 
1906.408 730892 747269 756131 754421 742483 723560 702745 684928 673385 
1910.747 668507 668229 668716 666056 657127 640677 617009 587453 553972 
1915.087 518688 483681 451422 424706 406780 400517 407815 428596 460530 
1919.427 498760 537194 569207 589128 593238 580241 551280 509572 459725 
1923.766 406835 355975 311246 275522 249862 233661 224662 219443 214311 
1928.106 205809 192191 173382 151781 131578 118094 116093 128670 155934 
1932.445 194411 237684 277859 307698 322803 322832 311963 297365 286900 
1936.785 286366 297471 316895 337121 348356 341623 310837 254679 176832 
1941.125 85072 -10099 -97248 -165929 -207724 -217873 -195760 -145567 -76065 
1945.464 683 71764 125552 154555 156804 136084 100440 60090 24623 1556 -4794 
1950.768 7303 37233 82592 139354 201137 259711 305743 330476 329023 301380 
1955.590 254013 198003 145495 105867 82025 69507 57952 34640 -10120 -79984 
1960.412 -170707 -272816 -374452 -466204 -542360 -601045 -641999 -664013 
1964.269 -663827 -636456 -577799 -488027 -373731 -248318 -129851 -36461 
1968.126 17569 25983 -8839 -76212 -160075 -243304 -310489 -351343 -361748 
1972.466 -344440 -307243 -261466 -217259 -180340 -147808 -107706 -39884 
1976.323 77321 260165 510506 812556 1133888 1435347 1680945 1848870 1934349 
1980.663 1948043 1909301 1839000 1753822 1662070 1564304 1455927 1330862 
1984.521 1186084 1023269 849661 675820 513831 374797 267453 197217 166632 
1988.860 174470 216098 282711 363009 443235 510990 557030 577728 575196 
1993.200 556112 528986 500627 473785 446527 413504 368793 308217 231756 
1997.539 143034 47881 -47913 -141090 -230670 -317449 -402012 -482249 -553061 
2001.879 -606944 -636950 -639415 -616624 -576603 -531621 -493667 -470535 
2005.736 -461322 -455607 -435945 -382587 -280245 -124557 76427 303084 529524 
2010.076 729531 883266 980880 1023169 1019084 981093 920168 841991 746772 
2014.416 631300 493337 336635 172000 18199 -103953 -176622 -190954 -150509 
2018.755 -70295 26370 114746 173960 190445 160611 88299 -16372 -141011 
2023.095 -271661 -395791 -501384 -578691 -620450 -623190 -588006 -520071 
2026.952 -427634 -320620 -208209 -98528 2036 88239 155270 199228 217614 
2031.292 210001 180292 135727 86768 44613 18208 11727 24096 47732 72310 
2036.114 86750 82833 57793 15393 -34849 -79716 -106412 -106161 -77787 -28071 
2040.935 29000 77153 102634 99204 69390 23847 -22871 -57588 -72218 -65260 
2045.757 -39758 718 55610 129273 227890 354912 505533 664666 809267 916068 
2050.579 968831 964642 913473 835368 752892 684978 641387 621347 615173 
2054.918 609957 595469 568177 532162 496535 470574 459945 464125 477406 
2059.258 491162 496959 489079 464991 425053 371264 306457 234706 161794 
2063.598 96066 47227 24642 33826 74584 139428 215795 289350 348943 389897 
2068.419 414949 432326 452105 481329 521483 567882 612038 645257 662406 
2072.759 663820 654895 643518 636933 639075 649653 665252 681575 696098 
2077.099 709223 724187 745540 776619 817988 866810 917735 964706 1002778 
2081.438 1029317 1043887 1047109 1039616 1020755 988800 941803 879336 803423 
2085.778 719500 635324 559611 499821 460355 441918 441658 454093 472730 
2090.117 491316 504662 509474 504497 490891 471983 453015 440426 439914 
2094.457 455134 485847 527561 572388 611586 637903 648421 644804 632784 
2098.797 619753 612143 613271 623031 638214 654571 668293 677449 681478 
2103.136 681087 677002 669629 659317 647252 635949 629321 631827 646797 
2107.476 674691 712467 753797 790949 817055 828161 824413 809529 789229 
2111.815 769481 754421 745926 743195 743944 744855 742447 733029 712983 
2116.155 678946 628607 561800 481574 394467 309791 237570 185918 158438 
2120.495 152935 161537 172516 173527 154539 110311 41355 -47275 -147373 
2124.834 -250363 -349119 -439059 -518102 -586302 -644581 -694859 -739515 
2128.692 -782227 -827713 -881823 -950241 -1036978 -1142291 -1261640 -1385260 
2132.549 -1499277 -1588247 -1638331 -1640494 -1593015 -1502183 -1381745 
2135.924 -1249952 -1126471 -1028883 -969292 -952700 -975899 -1028346 
2139.300 -1094428 -1157040 -1201755 -1220438 -1213507 -1189530 -1162584 
2142.675 -1148009 -1158233 -1199302 -1270924 -1367404 -1481121 -1604849 
2146.050 -1733549 -1863135 -1989697 -2107526 -2209582 -2289621 -2345738 
2149.425 -2382454 -2410439 -2443211 -2491350 -2557090 -2631978 -2700078 
2152.801 -2745064 -2760136 -2754893 -2756903 -2804221 -2931157 -3153383 
2156.176 -3454280 -3781904 -4056766 -4194036 -4130400 -3851759 -3402812 
2159.551 -2875960 -2377711 -1993386 -1765166 -1688592 -1725370 -1824069 
2162.926 -1935228 -2023852 -2070469 -2071218 -2031053 -1959007 -1864533 
2166.302 -1756797 -1643838 -1533644 -1433713 -1349657 -1284259 -1236506 
2169.677 -1202067 -1175545 -1152087 -1129651 -1109340 -1094506 -1088324 
2173.052 -1091555 -1100837 -1109617 -1109628 -1095943 -1068438 -1035002 
2176.427 -1008445 -1003337 -1029867 -1089140 -1171552 -1257712 -1323328 
2179.802 -1345397 -1308725 -1209987 -1058510 -873910 -680045 -499862 -350127 
2183.660 -239449 -168808 -133131 -123560 -130211 -142600 -151586 -150260 
2187.517 -135682 -109539 -78596 -52566 -42166 -54460 -90695 -144589 -204026 
2191.857 -254907 -285565 -290691 -273554 -244213 -215996 -200705 -204589 
2195.714 -226068 -257015 -285339 -300011 -294212 -267656 -226031 -178538 
2199.572 -134428 -99847 -75569 -57935 -39831 -14728 21098 66530 115614 
2203.911 159653 189754 199977 189368 161872 125507 89411 62065 48568 51170 
2208.733 69268 100675 143024 194390 253165 318042 387679 460703 535708 
2213.073 611277 685416 754935 814604 857407 875607 863388 819505 749703 
2217.412 666361 586780 528240 502922 513661 552895 604428 648950 669921 
2221.752 658718 616593 553853 484989 424469 381701 359372 353486 356441 
2226.092 359864 358417 350733 339981 331706 332156 345938 374305 414758 
2230.431 461860 508129 546722 572700 584900 585897 581207 577654 580773 
2234.771 593390 615033 642393 671437 698800 723546 746830 770854 797190 
2239.110 825265 851668 871680 880811 877322 863363 844867 829806 825660 
2243.450 836565 862154 897374 934461 965342 984061 988790 981708 967916 
2247.790 953668 943959 940957 943370 947005 946214 936222 914640 883198 
2252.129 847260 815067 795387 795331 818114 862514 922866 990800 1057162 
2256.469 1114016 1155717 1179685 1185888 1176660 1155841 1128922 1102142 
2260.326 1081984 1073733 1080135 1099786 1127259 1153696 1169830 1168455 
2264.184 1147337 1110345 1066538 1027176 1002354 997704 1012942 1042552 
2268.041 1078414 1112829 1141155 1162615 1179987 1196934 1216466 1239326 
2271.898 1264029 1287987 1309197 1327123 1343197 1359799 1378864 1400853 
2275.756 1424180 1446152 1464256 1477478 1487175 1496631 1509918 1530182 
2279.613 1558553 1593669 1632391 1671045 1706983 1739026 1767843 1794778 
2283.471 1820791 1845626 1867578 1883927 1892204 1891114 1881259 1864901 
2287.328 1845435 1826027 1808876 1794562 1782175 1769861 1755798 1738827 
2291.186 1718878 1696886 1674426 1653028 1633641 1616427 1600893 1586019 
2295.043 1570901 1555023 1538591 1522457 1507957 1496435 1488936 1485855 
2298.900 1486831 1490654 1495839 1500648 1503686 1504040 1501444 1496106 
2302.758 1488714 1480010 1470940 1462300 1454757 1448870 1445042 1443515 
2306.615 1444406 1447794 1453720 1462226 1473320 1486741 1502095 1518469 
2310.473 1534727 1549665 1562425 1572741 1581264 1589091 1597747 1608276 
2314.330 1621118 1635829 1651406 1666696 1680994 1694255 1707070 1720461 
2318.188 1735626 1753715 1776233 1805134 1843018 1892464 1954843 2028705 
2322.045 2108441 2184002 2242178 2269370 2254942 2194166 2089793 1951397 
2325.902 1793710 1633345 1485521 1361383 1266528 1200782 1159680 1136464 
2329.760 1124382 1118081 1114346 1111702 1109753 1108389 1107485 1106831 
2333.617 1106255 1105889 1105969 1106854 1108616 1110950 1113386 1115315 
2337.475 1116367 1116464 1115762 1114426 1112375 1109234 1104704 1098487 
2341.332 1090919 1082713 1074952 1068529 1064049 1061310 1059676 1058128 
2345.189 1055684 1051715 1045876 1038095 1028465 1017104 1004387 990984 
2349.047 978158 967529 960811 959412 963776 973286 986271 1000482 1013567 
2353.386 1023706 1029855 1031634 1029339 1023331 1014183 1002312 988182 
2357.244 972370 955559 938430 921493 904923 888640 872219 855179 837086 
2361.583 817687 796833 774523 750853 726106 700787 675818 652328 631610 
2365.923 614735 602446 594847 591639 592296 596276 603392 613598 626875 
2370.263 643059 661489 681148 700795 719266 735800 749864 761274 769948 
2374.602 775740 778705 779005 777347 774958 773449 774304 778502 786012 
2378.942 795893 806614 816584 824643 830464 834267 836679 838154 838833 
2383.281 838549 837118 834731 832144 830496 831030 834490 840805 849012 
2387.621 857782 865798 872532 878208 883887 890662 899366 909872 921231 
2391.961 931923 940654 946612 950019 951932 953637 956095 959379 962472 
2396.300 963587 960856 953161 940759 925691 911220 901060 898097 903491 
2400.640 915917 931969 946961 956468 957600 950199 936777 921817 910372 
2404.979 906512 912088 926360 946376 968199 988022 1003361 1013407 1018945 
2409.319 1021551 1022933 1024162 1025569 1026782 1027084 1025942 1023208 
2413.177 1019190 1014614 1010318 1006982 1005050 1004410 1004611 1004779 
2417.034 1003839 1000878 995230 986878 976534 965531 955658 948897 946755 
2421.374 950125 958712 971295 985489 998475 1007389 1010014 1005356 994029 
2425.713 978091 960648 945043 934164 929489 931183 938033 948312 960238 
2430.053 972519 984538 995953 1006398 1015221 1021273 1023738 1022337 
2433.910 1018037 1012864 1009481 1010170 1016073 1026430 1038887 1050069 
2437.768 1056730 1056539 1048808 1034275 1014802 992672 970105 948987 930941 
2442.107 917266 909039 906810 910427 918848 930393 943040 954876 964804 
2446.447 972527 978234 982396 985078 986058 984737 980770 974377 966622 
2450.786 959003 953243 950455 951101 954625 959996 965845 971097 974727 
2455.126 976059 974404 969257 960520 948839 935775 923784 915618 913776 
2459.466 919593 932796 951640 973250 994354 1012029 1024112 1029305 1027216 
2463.805 1018393 1004094 986511 968603 953650 944315 942108 946325 954198 
2468.145 961604 964267 959189 946020 926738 905338 886081 872128 864512 
2472.484 861997 862024 861837 859708 855521 850480 846637 845744 848728 
2476.824 855511 865457 877716 891837 907489 924549 942339 959717 975080 
2481.164 986692 993465 995260 992937 987974 981730 975086 967932 959688 
2485.503 949514 937351 924014 911462 902106 898183 901001 910439 925014 
2489.843 942367 959905 975620 988353 998026 1005403 1011350 1016757 1022058 
2494.182 1027178 1031899 1035962 1039377 1042316 1045148 1048015 1050958 
2498.040 1053659 1055785 1056967 1057196 1056739 1055923 1054913 1053526 
2501.897 1051043 1046490 1039216 1029049 1016946 1004781 995074 990274 
2505.755 992064 1000870 1015623 1034040 1053054 1069393 1080167 1083372 
2509.612 1077987 1064303 1043712 1018691 992356 968025 948568 936002 931184 
2513.952 933782 942716 956673 974623 995913 1020035 1046368 1073627 1099682 
2518.291 1121883 1137621 1145270 1144527 1136840 1124628 1110598 1096886 
2522.149 1084410 1072868 1061339 1048963 1035698 1022673 1011731 1005000 
2526.006 1004026 1009160 1019568 1033304 1048027 1061633 1072530 1079911 
2529.864 1083528 1083582 1080401 1074416 1066184 1056468 1046053 1035991 
2533.721 1027215 1020715 1017383 1018187 1024122 1035996 1054264 1078502 
2537.578 1107119 1137062 1164432 1184872 1194844 1192485 1178231 1155065 
2541.436 1127847 1102113 1083028 1073968 1076095 1088274 1107450 1129924 
2545.293 1151959 1171049 1185868 1196481 1204045 1209965 1215477 1221240 
2549.151 1227090 1232182 1235192 1234904 1230488 1221857 1209846 1196139 
2553.008 1182865 1172143 1165703 1164315 1167777 1174920 1183863 1192647 
2556.865 1199448 1203101 1203096 1199690 1193600 1186000 1178166 1171530 
2560.723 1167301 1166569 1170013 1177877 1189813 1205024 1222201 1239808 
2564.580 1256273 1270176 1280432 1286564 1288689 1287804 1285413 1283537 
2568.438 1284002 1287971 1295344 1304606 1313140 1317962 1316753 1308982 
2572.295 1296138 1281705 1270036 1264952 1268459 1280129 1297216 1315841 
2576.153 1332169 1343926 1350720 1353989 1355877 1358300 1362092 1366724 
2580.010 1370995 1373865 1375030 1375495 1377068 1381691 1390596 1403673 
2583.867 1419514 1435787 1449866 1459534 1463373 1460920 1452423 1438949 
2587.725 1422067 1403905 1386885 1373657 1366470 1366672 1374424 1388586 
2591.582 1406918 1426748 1445587 1461652 1474059 1482789 1488290 1491198 
2595.440 1492164 1491752 1490234 1487869 1484544 1479857 1473241 1464111 
2599.297 1452483 1439116 1425929 1415565 1410827 1413655 1424533 1441914 
2603.155 1462799 1483485 1500729 1512638 1519129 1521676 1522579 1524051 
2607.012 1527450 1533039 1540128 1547535 1554000 1558687 1561166 1561376 
2610.869 1559630 1556505 1552871 1549964 1549215 1552090 1559435 1571455 
2614.727 1587328 1605398 1623538 1639762 1652520 1661156 1665696 1666882 
2618.584 1665622 1663094 1660282 1658201 1657643 1659190 1662985 1668659 
2622.442 1675377 1681955 1687266 1690585 1691919 1691956 1691940 1693275 
2626.299 1697031 1703570 1712498 1722737 1732760 1741108 1746540 1748515 
2630.156 1747189 1743509 1738978 1735375 1734294 1736852 1743176 1752515 
2634.014 1763239 1773313 1780882 1784569 1784035 1779766 1772922 1764931 
2637.871 1757151 1750575 1745852 1743401 1743418 1746161 1751544 1759301 
2641.729 1768741 1778720 1787946 1795059 1799177 1799932 1797590 1792879 
2645.586 1786760 1780123 1773661 1767688 1762318 1757543 1753293 1749575 
2649.444 1746471 1744106 1742595 1742003 1742248 1743127 1744113 1744689 
2653.301 1744105 1741779 1737275 1730492 1721689 1711347 1700038 1688127 
2657.158 1675757 1662724 1648677 1633278 1616383 1598127 1578920 1559164 
2661.016 1539145 1518899 1498194 1476833 1454637 1431963 1409563 1388606 
2664.873 1370353 1355857 1345701 1339769 1337303 1337071 1337679 1337840 
2668.731 1336526 1333305 1328124 1321455 1314024 1306644 1300015 1294546 
2672.588 1290348 1287195 1284597 1282142 1279542 1276788 1274150 1272130 
2676.446 1271176 1271539 1273168 1275631 1278292 1280397 1281265 1280526 
2680.303 1277991 1273865 1268490 1262377 1256046 1250082 1244852 1240681 
2684.160 1237659 1235778 1234831 1234603 1234699 1234975 1235214 1235337 
2688.018 1235234 1234853 1234102 1232873 1231086 1228748 1225923 1222728 
2691.875 1219234 1215522 1211683 1207725 1203857 1200447 1197991 1197087 
2695.733 1198167 1201306 1206206 1211992 1217528 1221702 1223583 1222799 
2699.590 1219619 1214702 1208826 1202695 1196570 1190453 1183973 1176992 
2703.448 1169639 1162573 1156817 1153448 1153292 1156485 1162451 1169949 
2707.305 1177514 1183822 1188184 1190445 1191137 1190932 1190300 1189387 
2711.162 1187947 1185518 1181798 1177079 1172186 1168426 1167008 1168814 
2715.020 1173892 1181270 1189433 1196635 1201431 1203172 1201921 1198550 
2718.877 1193985 1189154 1184359 1179626 1174699 1169444 1164214 1159830 
2722.735 1157530 1158455 1163198 1171553 1182428 1193983 1204174 1211367 
2726.592 1214740 1214544 1211873 1208407 1205753 1204962 1206244 1209134 
2730.449 1212482 1215192 1216504 1216279 1215040 1213653 1213081 1213908 
2734.307 1216309 1219920 1224127 1228235 1231859 1234696 1236829 1238339 
2738.164 1239172 1239262 1238453 1236800 1234678 1232749 1231809 1232448 
2742.022 1234996 1238886 1243163 1246514 1247789 1246400 1242429 1236728 
2745.879 1230345 1224484 1219909 1216923 1215490 1215271 1216000 1217437 
2749.737 1219482 1222025 1224679 1227012 1228434 1228621 1227454 1225310 
2753.594 1222805 1220567 1218808 1217426 1215739 1213019 1208756 1202998 
2757.451 1196481 1190581 1186783 1186234 1189396 1195791 1204018 1212221 
2761.309 1218357 1220760 1218431 1211348 1200268 1186855 1173263 1161804 
2765.166 1154550 1152800 1156850 1165918 1178296 1191688 1203965 1213505 
2769.024 1219657 1222604 1223271 1222835 1222305 1222416 1223408 1225254 
2772.881 1227825 1230786 1233813 1236396 1237827 1237401 1234643 1229626 
2776.739 1223157 1216788 1212482 1211827 1215702 1223810 1234619 1245861 
2780.596 1255432 1261674 1264165 1263527 1261082 1258337 1256356 1255595 
2784.453 1255934 1256999 1258383 1260028 1262130 1265017 1268866 1273659 
2788.311 1279154 1285221 1291786 1299268 1308164 1319027 1331914 1346341 
2792.168 1361167 1374942 1386309 1394403 1399158 1401319 1402067 1402711 
2796.026 1404247 1407113 1411228 1416122 1421206 1426104 1430619 1434854 
2799.883 1439053 1443488 1448281 1453368 1458607 1463857 1469024 1474316 
2803.740 1480004 1486588 1494454 1503847 1514675 1526571 1538914 1551028 
2807.598 1562374 1572858 1582574 1591991 1601498 1611338 1621390 1631257 
2811.455 1640383 1648332 1654914 1660498 1665583 1670773 1676598 1683420 
2815.313 1691406 1700881 1712375 1726657 1744590 1766709 1792847 1822004 
2819.170 1852373 1881962 1909186 1933406 1955275 1976422 1998902 2024397 
2823.028 2053549 2085753 2119471 2152875 2184518 2214169 2242607 2271489 
2826.885 2302698 2337648 2376832 2419837 2465681 2513232 2561766 2611129 
2830.742 2661650 2713973 2768532 2825525 2884725 2945732 3008069 3071536 
2834.600 3136127 3201997 3269294 3338137 3408432 3480202 3553507 3628750 
2838.457 3706670 3788108 3873917 3964721 4060776 4162146 4268621 4380228 
2842.315 4497089 4619838 4749349 4886672 5032831 5188743 5354934 5531509 
2846.172 5718210 5913851 6116298 6322179 6526471 6722884 6903852 7061611 
2850.030 7188734 7279494 7330284 7340294 7311381 7247589 7154446 7038104 
2853.887 6904588 6759248 6606419 6449574 6291184 6133054 5976545 5822583 
2857.744 5671953 5525359 5383528 5247377 5117897 4996204 4883234 4779690 
2861.602 4685748 4601005 4524634 4455482 4392399 4334585 4281689 4233955 
2865.459 4192124 4157332 4130668 4113090 4105171 4106863 4117562 4136137 
2869.317 4160882 4190015 4221713 4254561 4287645 4320688 4354114 4388804 
2873.174 4425890 4466611 4511871 4562149 4617238 4676246 4737567 4798958 
2877.031 4857930 4912101 4959536 4999359 5031821 5058291 5080800 5101510 
2880.889 5121991 5142940 5163829 5183355 5199922 5212363 5220227 5224208 
2884.746 5225689 5226523 5228423 5232647 5239903 5250423 5264321 5281516 
2888.604 5302114 5326177 5353619 5384304 5417955 5454418 5493924 5537029 
2892.461 5584533 5637120 5695154 5758189 5825244 5894769 5965338 6035920 
2896.319 6106081 6176119 6246594 6317936 6390290 6463398 6536630 6609604 
2900.176 6682126 6754631 6827922 6902911 6980369 7060581 7143527 7228724 
2904.033 7315624 7403848 7493037 7583125 7674104 7766261 7859929 7955900 
2907.891 8055229 8159490 8270275 8389229 8517446 8655601 8803804 8961760 
2911.748 9129168 9306075 9492757 9689986 9898636 10119332 10352294 10596906 
2915.606 10851444 11113277 11378554 11642468 11899533 12143876 12369872 
2918.981 12572680 12748672 12895632 13012964 13101347 13162291 13197921 
2922.356 13210477 13202393 13175967 13133657 13077892 13011084 12935428 
2925.731 12852900 12765016 12673226 12578614 12482437 12385857 12289928 
2929.107 12195560 12103252 12013157 11925171 11839227 11755535 11674896 
2932.482 11598762 11528981 11467754 11417191 11378965 11354257 11343610 
2935.857 11346865 11363383 11391920 11430965 11478724 11533353 11593141 
2939.232 11656591 11722310 11789066 11855331 11919264 11978464 12030145 
2942.608 12071370 12099317 12111721 12107143 12084977 12045232 11988511 
2945.983 11915512 11826951 11723540 11605938 11475034 11331948 11178136 
2949.358 11015455 10845994 10671914 10495386 10318253 10142138 9968133 
2952.733 9796984 9629090 9464619 9303510 9145854 8991767 8841562 8695605 
2956.591 8554282 8417873 8286354 8159533 8037014 7918434 7803498 7692305 
2960.448 7585117 7482373 7384398 7291108 7201905 7115724 7031367 6947818 
2964.306 6864690 6782572 6702935 6627667 6558738 6497205 6443102 6395183 
2968.163 6351421 6309467 6267491 6224639 6181087 6137947 6096644 6058449 
2972.021 6024224 5994238 5968428 5946894 5929784 5917776 5911678 5912264 
2975.878 5920034 5935003 5956835 5984774 6018112 6055986 6097743 6142744 
2979.735 6190550 6241320 6295640 6354907 6421204 6497009 6584568 6685543 
2983.593 6800586 6929054 7069633 7220604 7380465 7548207 7723357 7905864 
2987.450 8095248 8290516 8489773 8690265 8888803 9081992 9266670 9440254 
2991.308 9600623 9746234 9876061 9989456 10086039 10165744 10228540 10274515 
2995.165 10303772 10316464 10313022 10294005 10260201 10212471 10151514 
2998.540 10077964 9991957 9893735 9783651 9662631 9532255 9394453 9251183 
3002.398 9103867 8952920 8797953 8638028 8472472 8301486 8126400 7949528 
3006.255 7773444 7600214 7430823 7264895 7101381 6939061 6777428 6616922 
3010.113 6458763 6304317 6154366 6008594 5865738 5724108 5582317 5440137 
3013.970 5298462 5159234 5024481 4895581 4772850 4655591 4542489 4432417 
3017.827 4325079 4220967 4121197 4026724 3938062 3854657 3775256 3698379 
3021.685 3622810 3548238 3475114 3404578 3337798 3275551 3217853 3164032 
3025.542 3113112 3063950 3015919 2968835 2922850 2878518 2836134 2795965 
3029.400 2757867 2721468 2686257 2651597 2616894 2581524 2545066 2507061 
3033.257 2467437 2426440 2384624 2342941 2302343 2263975 2228655 2196843 
3037.115 2168659 2143919 2122153 2102910 2085730 2070081 2055605 2041680 
3040.972 2027597 2012622 1996016 1977105 1955592 1931578 1905608 1878550 
3044.829 1851530 1825652 1801930 1781008 1763222 1748380 1736082 1725521 
3048.687 1715745 1705855 1695286 1683763 1671469 1659121 1647673 1638063 
3052.544 1631134 1627459 1627061 1629858 1635269 1642639 1650924 1659119 
3056.402 1665984 1670278 1671239 1668496 1662511 1654481 1646019 1638786 
3060.259 1633912 1631705 1631634 1632651 1633555 1633750 1633227 1632744 
3064.116 1633258 1635499 1639437 1644342 1648828 1651566 1651559 1648752 
3067.974 1643876 1638257 1633203 1629784 1628476 1629215 1631552 1635011 
3071.831 1639111 1643645 1648397 1653119 1657596 1661538 1664656 1666825 
3075.689 1667922 1667946 1666742 1664154 1659841 1653607 1645326 1635204 
3079.546 1623645 1610967 1597430 1583063 1567743 1551428 1534428 1517518 
3083.404 1501866 1488772 1479250 1473746 1471713 1471954 1472752 1472403 
3087.261 1469458 1463213 1453512 1440808 1425909 1409889 1393856 1379072 
3091.118 1366705 1357709 1352684 1351684 1354110 1358805 1364432 1369647 
3094.976 1373559 1375907 1376909 1377269 1377494 1377936 1378410 1378334 
3098.833 1377024 1373929 1369121 1363347 1357861 1354180 1353394 1355827 
3102.691 1360845 1366675 1371136 1371952 1367645 1357943 1343739 1327007 
3106.548 1310188 1295444 1284357 1277508 1274577 1274712 1276802 1279715 
3110.406 1282380 1283920 1283578 1280915 1275877 1269048 1261550 1254956 
3114.263 1250724 1249741 1252049 1256546 1261420 1264679 1264885 1261619 
3118.120 1255600 1248452 1242148 1238428 1238275 1241837 1248457 1257220 
3121.978 1266894 1276456 1284958 1291612 1295740 1296902 1294949 1290068 
3125.835 1283001 1274656 1266079 1257960 1250854 1244698 1239314 1234357 
3129.693 1229713 1225392 1221656 1218997 1217876 1218744 1221948 1227667 
3133.550 1235775 1245805 1256771 1267333 1276095 1281923 1284113 1282936 
3137.407 1279272 1274484 1269957 1266688 1265035 1264746 1265192 1265775 
3141.265 1266117 1266111 1265864 1265512 1264876 1263682 1261395 1257771 
3145.122 1252779 1246819 1240688 1235218 1231083 1228568 1227503 1227355 
3148.980 1227374 1226909 1225454 1222925 1219531 1215788 1212265 1209574 
3152.837 1208010 1207636 1208053 1208796 1209403 1209777 1210278 1211656 
3156.695 1214732 1220131 1227632 1236266 1244301 1249804 1251114 1247502 
3160.552 1239239 1227613 1214442 1201606 1190734 1182819 1178453 1177798 
3164.409 1180674 1186554 1194531 1203157 1210706 1215495 1216368 1213112 
3168.267 1206699 1198908 1191952 1187864 1187780 1192029 1200053 1210836 
3172.124 1223310 1236540 1249596 1261628 1271636 1278624 1281812 1281019 
3175.982 1276912 1270956 1264977 1260739 1259272 1260718 1264321 1268914 
3179.839 1273232 1276424 1278096 1278215 1276940 1274527 1271101 1266983 
3183.697 1262683 1258839 1256006 1254417 1253713 1253178 1251823 1249082 
3187.554 1244998 1240508 1236783 1235020 1235580 1237963 1240848 1242913 
3191.411 1243379 1242553 1241823 1242971 1247386 1255273 1265459 1275691 
3195.269 1283299 1286420 1284295 1277498 1267599 1256436 1245324 1235183 
3199.126 1226312 1218850 1213151 1209718 1208937 1210842 1214717 1219213 
3202.984 1222791 1224313 1223491 1221061 1218492 1217369 1218773 1222836 
3206.841 1228883 1235661 1242077 1247615 1252437 1257131 1262299 1268252 
3210.698 1274702 1280884 1286006 1289539 1291419 1292097 1292269 1292549 
3214.556 1293237 1294227 1295195 1295626 1295261 1293906 1291776 1289075 
3218.413 1286266 1283660 1281398 1279458 1277389 1274597 1270350 1264067 
3222.271 1255789 1246388 1237546 1231492 1230286 1235213 1246103 1261223 
3226.128 1277677 1292304 1302500 1306991 1306106 1301421 1294867 1288084 
3229.986 1281754 1275562 1268601 1260159 1250169 1239724 1230616 1224985 
3233.843 1224530 1229945 1240843 1255790 1272798 1289911 1305408 1318030 
3237.700 1326933 1331614 1331791 1327482 1319293 1308231 1296094 1284865 
3241.558 1276581 1272792 1274153 1280284 1289844 1300883 1311134 1318632 
3245.415 1322008 1320673 1314779 1305181 1293126 1280222 1268010 1258065 
3249.273 1251648 1249672 1252476 1259660 1270248 1282503 1294491 1304168 
3253.130 1310006 1311234 1307903 1300903 1291594 1281391 1271468 1262555 
3256.988 1255012 1249013 1244755 1242510 1242694 1245460 1250526 1257064 
3260.845 1263736 1269156 1272244 1272650 1270940 1268412 1266581 1266833 
3264.702 1269836 1275525 1283127 1291648 1300304 1308580 1316520 1324266 
3268.560 1332091 1339908 1347312 1353571 1357960 1359692 1358371 1353876 
3272.417 1346348 1336147 1323974 1310626 1297036 1284394 1273732 1265970 
3276.275 1261732 1261172 1263998 1269487 1276644 1284197 1290733 1294827 
3280.132 1295182 1290886 1281752 1268666 1253560 1239339 1229284 1226228 
3283.990 1231840 1245951 1266370 1289269 1310211 1325019 1330962 1327409 
3287.847 1315905 1299705 1282819 1268988 1260861 1259451 1264178 1273440 
3291.704 1285291 1298092 1310943 1323556 1336141 1348720 1360840 1371411 
3295.562 1378931 1382165 1380559 1374695 1366116 1356983 1349448 1344747 
3299.419 1343023 1343363 1344001 1343292 1339955 1333713 1324930 1314764 
3303.277 1304320 1294603 1286352 1279934 1275513 1273235 1272935 1274281 
3307.134 1276667 1279374 1281606 1283009 1283561 1283793 1284511 1286391 
3310.991 1289644 1293917 1298213 1301448 1302701 1301561 1298150 1293131 
3314.849 1287379 1281737 1276780 1272887 1270167 1268423 1267210 1265763 
3318.706 1262941 1257667 1249096 1237083 1222461 1207103 1193307 1183415 
3322.564 1178926 1180251 1186673 1196572 1208286 1220192 1231292 1240840 
3326.421 1248190 1252529 1253044 1249155 1241083 1230005 1218103 1207833 
3330.279 1201209 1199058 1200667 1204291 1207683 1209283 1208801 1207283 
3334.136 1206633 1208701 1214414 1223249 1233581 1243292 1250519 1254314 
3337.993 1254908 1253371 1250963 1248666 1246971 1245756 1244898 1244318 
3341.851 1244297 1245347 1248018 1252466 1258312 1264864 1271173 1276365 
3345.708 1279993 1281844 1282051 1280692 1277777 1273172 1266550 1257656 
3349.566 1246352 1232796 1217502 1201557 1186403 1173933 1166063 1164259 
3353.423 1169232 1180322 1195662 1212287 1227023 1237291 1241787 1240855 
3357.281 1236232 1230396 1225747 1223735 1224708 1228049 1232548 1236980 
3361.138 1240583 1243109 1244512 1244769 1243677 1240799 1235862 1228946 
3364.995 1220701 1212263 1204993 1199959 1197634 1197817 1199665 1202211 
3368.853 1204532 1206292 1207534 1208652 1210266 1212760 1216436 1221286 
3372.710 1227139 1233502 1239630 1244554 1247077 1246082 1240790 1231199 
3376.568 1218311 1204079 1191028 1181890 1178617 1182035 1191415 1204692 
3380.425 1218777 1230449 1237019 1236924 1230026 1217714 1202290 1186525 
3384.282 1173028 1163565 1158892 1158684 1161789 1166580 1171542 1175409 
3388.140 1177545 1177894 1176805 1174969 1173211 1172427 1173465 1177257 
3391.997 1184437 1195517 1210511 1228810 1249249 1270081 1289425 1305281 
3395.855 1316045 1320785 1319303 1312109 1300370 1285664 1269581 1253722 
3399.712 1239474 1227881 1219750 1215458 1215153 1218473 1224636 1232188 
3403.570 1239186 1243410 1242813 1236140 1223300 1205633 1185870 1167298 
3407.427 1153218 1145837 1145931 1152490 1163160 1175053 1185527 1192700 
3411.284 1195854 1195260 1191770 1186479 1180320 1174125 1168739 1164878 
3415.142 1163458 1165014 1169695 1176798 1185020 1192607 1197866 1199840 
3418.999 1198547 1195153 1191369 1189092 1189694 1193679 1200590 1209344 
3422.857 1218718 1227672 1235658 1242547 1248535 1253757 1258169 1261574 
3426.714 1263572 1263865 1262485 1259535 1255508 1250896 1246270 1242022 
3430.572 1238460 1235895 1234464 1234339 1235545 1237863 1240835 1243809 
3434.429 1246072 1247062 1246376 1244209 1241008 1237348 1233835 1230701 
3438.286 1227899 1225164 1222096 1218614 1214981 1211842 1210103 1210549 
3442.144 1213570 1218983 1226055 1233681 1240826 1246638 1250715 1252973 
3446.001 1253471 1252311 1249423 1244783 1238714 1231722 1225108 1220337 
3449.859 1219044 1222268 1230462 1242959 1258424 1274980 1290757 1304243 
3453.716 1314560 1321498 1325377 1326890 1327018 1326799 1327284 1329307 
3457.573 1333387 1339549 1347320 1355788 1363853 1370649 1375861 1379779 
3461.431 1383282 1387410 1393126 1400778 1409938 1419518 1428023 1433762 
3465.288 1435503 1432584 1425166 1414477 1402359 1391329 1383939 1382333 
3469.146 1387734 1400039 1417595 1437711 1456965 1472266 1481473 1483933 
3473.003 1480583 1473374 1464897 1457359 1452446 1450985 1453268 1459366 
3476.861 1469606 1484516 1504842 1530940 1562603 1598511 1636407 1673355 
3480.718 1706321 1732759 1751144 1761308 1764353 1762262 1757649 1752929 
3484.575 1750100 1750506 1754708 1762756 1774383 1788948 1805823 1824072 
3488.433 1842456 1859702 1874437 1885735 1893583 1898846 1903524 1910007 
3492.290 1920594 1936576 1958004 1983463 2010670 2037184 2061128 2081630 
3496.148 2098993 2113966 2127452 2139826 2150959 2160273 2167379 2172100 
3500.005 2175093 2177122 2178999 2180888 2182271 2181947 2178763 2171998 
3503.863 2161982 2150091 2138563 2129706 2125487 2126781 2133248 2143440 
3507.720 2155109 2165461 2171772 2171788 2164160 2148616 2126347 2099793 
3511.577 2072163 2046866 2026508 2012267 2003650 1998581 1994231 1987886 
3515.435 1977610 1962918 1944602 1924229 1903748 1884668 1868098 1854712 
3519.292 1844781 1838637 1836339 1837605 1841482 1846304 1849782 1849610 
3523.150 1844026 1832310 1815179 1794324 1772119 1750715 1731683 1715684 
3527.007 1702649 1692104 1683542 1676563 1671023 1666736 1663287 1660085 
3530.865 1656516 1652177 1647186 1642040 1637722 1634940 1633885 1633942 
3534.722 1633881 1632340 1628467 1622425 1615411 1609319 1606021 1606548 
3538.579 1610534 1616204 1621046 1622440 1618915 1610126 1597338 1582367 
3542.437 1567144 1553045 1540556 1529416 1519365 1510344 1502982 1498204 
3546.294 1496901 1499407 1505164 1512823 1520805 1527863 1533522 1538292 
3550.152 1543063 1548703 1555556 1562864 1569460 1573859 1575071 1572847 
3554.009 1567695 1560461 1551761 1541632 1529538 1514739 1496821 1476306 
3557.866 1454848 1434898 1419110 1409639 1407437 1412021 1421761 1434219 
3561.724 1446979 1458219 1466840 1472760 1476451 1478857 1480690 1482369 
3565.581 1483810 1484488 1483794 1481262 1477059 1472032 1467540 1465100 
3569.439 1465847 1469925 1476597 1484190 1490925 1495440 1497338 1497242 
3573.296 1496488 1496343 1497453 1499581 1501709 1502677 1501815 1499241 
3577.154 1495937 1493087 1491553 1491131 1490674 1488492 1483172 1474162 
3581.011 1462228 1449129 1437011 1427609 1421679 1418911 1418179 1418178 
3584.868 1417638 1415551 1411318 1404337 1394298 1381319 1366322 1351276 
3588.726 1338924 1332088 1332686 1340544 1353503 1367344 1377515 1380366 
3592.583 1374775 1362374 1347400 1334850 1329216 1332613 1344399 1361271 
3596.441 1378451 1390984 1395103 1389011 1373164 1349834 1322712 1295997 
3600.298 1273644 1258721 1252756 1255437 1264785 1277446 1289845 1298734 
3604.156 1302291 1300334 1294101 1285650 1277113 1269935 1264864 1261912 
3608.013 1260996 1262225 1266287 1273992 1286063 1302638 1322851 1345026 
3611.870 1367005 1386626 1402233 1412881 1418591 1419868 1417737 1413551 
3615.728 1408529 1403954 1400950 1400254 1402242 1406820 1413649 1422149 
3619.585 1431754 1441833 1451892 1461082 1468507 1473099 1474119 1471395 
3623.443 1465993 1459935 1456045 1457184 1465282 1480707 1501814 1525368 
3627.300 1547355 1563923 1572642 1572888 1566235 1555791 1545419 1538530 
3631.157 1537483 1542693 1553082 1565941 1578015 1586347 1589233 1586646 
3635.015 1580470 1573818 1570146 1572009 1580420 1594519 1612106 1630502 
3638.872 1647651 1662796 1676581 1690334 1705140 1720988 1736428 1749127 
3642.730 1756803 1758549 1755498 1750749 1748356 1751969 1763144 1780920 
3646.587 1801842 1821025 1834224 1838783 1834917 1825217 1813667 1804341 
3650.445 1799834 1800671 1805595 1812002 1817320 1819899 1819306 1816509 
3654.302 1813443 1812077 1814227 1820776 1831726 1846247 1862917 1879852 
3658.159 1895222 1907236 1914518 1916341 1912679 1904424 1893198 1881122 
3662.017 1870456 1863016 1859946 1861272 1866061 1872571 1878617 1882035 
3665.874 1881078 1874626 1862507 1845235 1823928 1800271 1776071 1753047 
3669.732 1732614 1715486 1701660 1690267 1679928 1669059 1656343 1641264 
3673.589 1624240 1606710 1590590 1577751 1569473 1565779 1565554 1566756 
3677.447 1567072 1564632 1558622 1549386 1538339 1527450 1518811 1513877 
3681.304 1513238 1516465 1522280 1528663 1533447 1534473 1530139 1519555 
3685.161 1502831 1481211 1456890 1432739 1411851 1396851 1389367 1389696 
3689.019 1396634 1408125 1421531 1434546 1445531 1453606 1458881 1461615 
3692.876 1462398 1461552 1459532 1456832 1454589 1454272 1457649 1466219 
3696.734 1480390 1498844 1518591 1535241 1544312 1542385 1528367 1504063 
3700.591 1473632 1442777 1416919 1399447 1391290 1390480 1393397 1395881 
3704.448 1394998 1389570 1380415 1369660 1359695 1352379 1348282 1346983 
3708.306 1347468 1348485 1349194 1349010 1347549 1344203 1338426 1329759 
3712.163 1318462 1305773 1294025 1285957 1283991 1289120 1300491 1315428 
3716.021 1330234 1341444 1347144 1347505 1344885 1342724 1344625 1352740 
3719.878 1367345 1386729 1407849 1427273 1442437 1451931 1455952 1455780 
3723.736 1453280 1450281 1448090 1447331 1447892 1449001 1449799 1449264 
3727.593 1446835 1442536 1436839 1430718 1425156 1420865 1417894 1415633 
3731.450 1413097 1409451 1404531 1399049 1394688 1393371 1396571 1404764 
3735.308 1416880 1430611 1442959 1451003 1452701 1447216 1435132 1417935 
3739.165 1397687 1376661 1357069 1341061 1330374 1326233 1329154 1338477 
3743.023 1352579 1368987 1385089 1398668 1408773 1415551 1420190 1424041 
3746.880 1428032 1432186 1435728 1437403 1436210 1431808 1424886 1416909 
3750.738 1409595 1404612 1403163 1405775 1412528 1422907 1435786 1449498 
3754.595 1461670 1469603 1470947 1464305 1450366 1431866 1413489 1400534 
3758.452 1397611 1406810 1427369 1455641 1486213 1513591 1533747 1545016 
3762.310 1548020 1545160 1539228 1532339 1525460 1518316 1509848 1498910 
3766.167 1484835 1467887 1448933 1429612 1411775 1397321 1388004 1384945 
3770.025 1388611 1398188 1411913 1426778 1439491 1446875 1446884 1439123 
3773.882 1424877 1407097 1389567 1375983 1369208 1370871 1380990 1398154 
3777.740 1419983 1443538 1465877 1484370 1497298 1503682 1503671 1498048 
3781.597 1488200 1475619 1461885 1448351 1436371 1427195 1421976 1421449 
3785.454 1425603 1433452 1442999 1451474 1456254 1455490 1448989 1438308 
3789.312 1426258 1416016 1409989 1408813 1411172 1414379 1415396 1411888 
3793.169 1403359 1391191 1378184 1367546 1361799 1362010 1367484 1376117 
3797.027 1385109 1391768 1394343 1392033 1385495 1376163 1366245 1357938 
3800.884 1353184 1353089 1357731 1366198 1376610 1386887 1395184 1400458 
3804.741 1402619 1402186 1400202 1397416 1394108 1390024 1384742 1378047 
3808.599 1370498 1363317 1358272 1356827 1359659 1366311 1375130 1383888 
3812.456 1390457 1393524 1392936 1389570 1385005 1380796 1378140 1377563 
3816.314 1378961 1381915 1385813 1390159 1394544 1398497 1401622 1403394 
3820.171 1403469 1401629 1397976 1392789 1386427 1379220 1371284 1362976 
3824.029 1354628 1347121 1341491 1338964 1340424 1346050 1355103 1366128 
3827.886 1377196 1386744 1393839 1398800 1402776 1407342 1414022 1423507 
3831.743 1435492 1448621 1460921 1470163 1474564 1472930 1465040 1451560 
3835.601 1433976 1414480 1395584 1379979 1369884 1366774 1370741 1380518 
3839.458 1393660 1406857 1417068 1421866 1420235 1412557 1400564 1386553 
3843.316 1372912 1361438 1353224 1348617 1347271 1348762 1352374 1357234 
3847.173 1362261 1365851 1366253 1361719 1351219 1334892 1314437 1292872 
3851.031 1274108 1261963 1259009 1266086 1281667 1302387 1324054 1342537 
3854.888 1355066 1360772 1360762 1357455 1353811 1352628 1355567 1363095 
3858.745 1374466 1388110 1402184 1415192 1426282 1435466 1443414 1451183 
3862.603 1459536 1468768 1478430 1487307 1493977 1497213 1496534 1492508 
3866.460 1486555 1480575 1476287 1474519 1475168 1476968 1478252 1477518 
3870.318 1474054 1468273 1461431 1455143 1450562 1448102 1446988 1445770 
3874.175 1442830 1436808 1427340 1414840 1400435 1385392 1370956 1357942 
3878.032 1346907 1338163 1332293 1329789 1331315 1337247 1347769 1362508 
3881.890 1380830 1401765 1424175 1446787 1467967 1485871 1498404 1503850 
3885.747 1501114 1490544 1473932 1454278 1435101 1419300 1408445 1402176 
3889.605 1398724 1395597 1390870 1383893 1375876 1369169 1366413 1369339 
3893.462 1378040 1390672 1404374 1416038 1423658 1426672 1426054 1423692 
3897.320 1421368 1420176 1420078 1420306 1419870 1418169 1415477 1412629 
3901.177 1410770 1410840 1413061 1416965 1421796 1426810 1431760 1436751 
3905.034 1442187 1448212 1454395 1459678 1462535 1461514 1455792 1445458 
3908.892 1431739 1416373 1401540 1389002 1379912 1374608 1372687 1373405 
3912.749 1375848 1379299 1383338 1387823 1393002 1399072 1406020 1413454 
3916.607 1420380 1425293 1426502 1422580 1412727 1397558 1378851 1359329 
3920.464 1342136 1329849 1323937 1324493 1330235 1339162 1349323 1359238 
3924.322 1368226 1376246 1383482 1389854 1394576 1396465 1394131 1386641 
3928.179 1373874 1356815 1337458 1318176 1301320 1288646 1281049 1278594 
3932.036 1280799 1286837 1295923 1307440 1320840 1335598 1351043 1366283 
3935.894 1380135 1391453 1399238 1402960 1402803 1399607 1394753 1389976 
3939.751 1386869 1386460 1388960 1393645 1399108 1403730 1406128 1405707 
3943.609 1402770 1398515 1394575 1392532 1393479 1397590 1404287 1412448 
3947.466 1420665 1427868 1433279 1436568 1437773 1437091 1434864 1431449 
3951.323 1427267 1423072 1419430 1416975 1415708 1415154 1414257 1411483 
3955.181 1405565 1395879 1383021 1368786 1356015 1347709 1346314 1352968 
3959.038 1367081 1386316 1407464 1427044 1442303 1451929 1455931 1455566 
3962.896 1452631 1448836 1445277 1442208 1439403 1436398 1433221 1430308 
3966.753 1428639 1429211 1432738 1438971 1446717 1453961 1458767 1459514 
3970.611 1455950 1449055 1440832 1433695 1429622 1429623 1433473 1440113 
3974.468 1448096 1456346 1464466 1472655 1481151 1489863 1497700 1502707 
3978.325 1502570 1495479 1481191 1461211 1438874 1418303 1403128 1395465 
3982.183 1395155 1400073 1406895 1412494 1414901 1413967 1411277 1409224 
3986.040 1410154 1415357 1424892 1437492 1451216 1463944 1473811 1479415 
3989.898 1479874 1474652 1463949 1448550 1430522 1412731 1398685 1391692 
3993.755 1393887 1405235 1423752 1445492 1466145 1482158 1491846 1495873 
3997.613 1496668 1497383 1500677 1507647 1517413 1527677 1535456 
##END=
