##TITLE=Bambu-Lab_PLA_Beige_Filament_r6_ATR-Corrected
##JCAMP-DX=5.01  $$ Nicolet v. 1
##DATATYPE=INFRARED SPECTRUM
##ORIGIN=Curtin University
##OWNER=Nicolet
##LONGDATE=2024/07/03
##TIME=11:17:04
##SPECTROMETER/DATA SYSTEM=Nicolet iS50
##DATA PROCESSING=
Ratio against background
%Transmittance->Absorbance
ATR Correction
Truncated
ElementMultiply or ElementDivide
##COMMENTS=
Number of sample scans: 32
Collection length: 47.28 sec
Sample gain: 1.0
Background collected on: Wed Jul 03 11:11:20 2024 (GMT+08:00);
Number of background scans: 32
Background gain: 1.0
Sample spacing:  1.000
Number of scan points: 16672
Resolution points: 8192
Number of FFT points: 65536
Apodization: N-B strong;
Phase correction: Mertz;
Laser frequency: 15798.3 cm-1
Number of rejected sample scans: 0
Number of rejected background scans: 0
Bench serial number: AUP1200105;
##RESOLUTION=4.000
##XUNITS=1/CM
##YUNITS=ABSORBANCE
##FIRSTX=400.163452
##LASTX=4000.187744
##FIRSTY=0.068596
##MAXX=4000.187744
##MINX=400.163452
##MAXY=1.089307
##MINY=-0.028877
##XFACTOR=1.000000
##YFACTOR=1.000000E-008
##NPOINTS=7468
##DELTAX=0.482125
##ZPD=8192
##XYDATA=(X++(Y..Y))
400.163 6859642 6741010 6623305 6499246 6363191 6215363 6061538 5911305 
404.020 5775386 5662509 5577282 5519364 5484294 5465249 5455376 5449465 
407.877 5444735 5440476 5436812 5433253 5427593 5415658 5392358 5352972 
411.734 5295092 5219708 5131124 5035795 4940256 4848953 4763058 4680513 
415.591 4597807 4512271 4424430 4338919 4263535 4206808 4175013 4169702 
419.448 4187154 4219473 4257260 4292284 4319444 4336956 4345350 4345570 
423.305 4337745 4321003 4294389 4258235 4214944 4168518 4122892 4079847 
427.162 4037843 3992557 3939056 3874933 3802537 3729315 3665853 3622168 
431.019 3604035 3610663 3635027 3666430 3695060 3715027 3726153 3733071 
434.876 3742457 3759811 3787313 3823580 3865144 3908548 3952111 3996070 
438.733 4041524 4088695 4135551 4177815 4210376 4229476 4234739 4229723 
442.590 4221030 4215985 4220124 4235558 4260759 4291821 4324436 4355591 
446.447 4384458 4411995 4439805 4468852 4498647 4527275 4552090 4570713 
450.304 4581683 4584631 4579884 4567826 4548506 4521485 4486262 4442807 
454.161 4391961 4335614 4276491 4217693 4162356 4113259 4072779 4042796 
458.017 4024743 4019545 4027634 4048971 4083054 4129071 4185866 4251735 
461.874 4324150 4399397 4472413 4536740 4586022 4614142 4616754 4592197 
465.731 4541997 4470651 4384777 4291755 4198327 4109397 4027445 3952469 
469.588 3882632 3815243 3747783 3678842 3608524 3538301 3470419 3407007 
473.445 3349224 3296939 3248801 3202949 3157821 3112894 3068923 3027466 
477.302 2990223 2958074 2930615 2906209 2882631 2857932 2831262 2803090 
481.159 2774942 2748584 2725251 2705044 2686937 2669237 2650366 2629493 
485.016 2606865 2583703 2561686 2542390 2526824 2515216 2507062 2501353 
488.873 2496841 2492349 2486978 2480378 2472896 2465620 2460231 2458609 
492.730 2462272 2471784 2486411 2503935 2521696 2536722 2546693 2550512 
496.587 2548431 2541842 2532789 2523417 2515609 2510736 2509661 2512662 
500.444 2519481 2529212 2540347 2550919 2558855 2562431 2560719 2553732 
504.301 2542397 2528235 2512878 2497793 2484029 2472228 2462685 2455338 
508.158 2449756 2445078 2440058 2433397 2424189 2412423 2399258 2386823 
512.015 2377634 2373675 2375630 2382522 2392041 2401306 2407903 2410530 
515.871 2409182 2404610 2397536 2387962 2375082 2357773 2335628 2309793 
519.728 2283307 2260548 2246010 2242808 2251597 2270285 2294837 2320661 
523.585 2344124 2363593 2379512 2393571 2408011 2424082 2441730 2459751 
527.442 2476516 2490799 2502354 2511930 2520870 2530484 2541537 2554115 
531.299 2567840 2582276 2597281 2613042 2629830 2647531 2665284 2681429 
535.156 2693843 2700551 2700402 2693428 2680812 2664396 2645953 2626459 
539.013 2605814 2582919 2556235 2524529 2487488 2445980 2401920 2357728 
542.870 2315709 2277480 2243751 2214350 2188572 2165523 2144436 2124788 
546.727 2106359 2089257 2073889 2061087 2052079 2048348 2051213 2061285 
550.584 2077912 2098924 2120838 2139615 2151714 2155163 2150220 2139288 
554.441 2126204 2115010 2108724 2108456 2113620 2122214 2131914 2140910 
558.298 2148448 2154714 2160338 2165720 2170651 2174240 2175402 2173393 
562.155 2168300 2161168 2153651 2147404 2143500 2142021 2142161 2142592 
566.012 2142093 2140046 2136631 2132777 2129772 2128843 2130804 2135942 
569.869 2144042 2154586 2166946 2180549 2194883 2209519 2224018 2237961 
573.725 2250962 2262741 2273254 2282710 2291563 2300408 2309823 2320166 
577.582 2331428 2343179 2354672 2365083 2373794 2380614 2385954 2390655 
581.439 2395715 2401894 2409348 2417491 2425076 2430574 2432673 2430725 
585.296 2425067 2417048 2408784 2402742 2401302 2406253 2418440 2437559 
589.153 2462104 2489576 2516868 2540863 2559078 2570221 2574500 2573510 
593.010 2569775 2565974 2564215 2565576 2569958 2576421 2583754 2590972 
596.867 2597666 2604016 2610539 2617805 2626172 2635760 2646567 2658641 
600.724 2672186 2687426 2704472 2723122 2742827 2762884 2782775 2802461 
604.581 2822496 2843901 2867722 2894569 2924326 2956104 2988572 3020415 
608.438 3050770 3079395 3106583 3132801 3158306 3182968 3206262 3227506 
612.295 3246188 3262163 3275631 3287022 3296684 3304777 3311236 3316013 
616.152 3319282 3321613 3324002 3327632 3333627 3342758 3355303 3371099 
620.009 3389670 3410411 3432728 3456079 3479969 3503910 3527452 3550201 
623.866 3571895 3592367 3611555 3629437 3646005 3661299 3675518 3689088 
627.723 3702700 3717198 3733337 3751591 3771981 3794088 3817329 3841171 
631.579 3865440 3890304 3916145 3943239 3971519 4000442 4029175 4056916 
635.436 4083255 4108360 4132849 4157446 4182577 4208006 4232859 4255875 
639.293 4275906 4292346 4305350 4315772 4324835 4333730 4343319 4354024 
643.150 4365902 4378837 4392625 4407032 4421708 4436117 4449656 4461862 
647.007 4472727 4482916 4493746 4506809 4523434 4544053 4567929 4593201 
650.864 4617426 4638400 4654897 4667157 4676851 4686583 4699212 4717018 
654.721 4741248 4771928 4808018 4847779 4889172 4930206 4969210 5004987 
658.578 5036959 5065330 5091091 5115987 5142312 5172486 5208640 5252170 
662.435 5303555 5362325 5427297 5496915 5569569 5643774 5718246 5791707 
666.292 5862811 5929991 5991440 6045200 6089433 6122518 6143325 6151263 
670.149 6146355 6129288 6101378 6064642 6021708 5975692 5929917 5887497 
674.006 5850962 5821804 5800307 5785558 5775752 5768679 5762350 5755538 
677.863 5748064 5740826 5735498 5734014 5737816 5747490 5762477 5781160 
681.720 5801248 5820371 5836600 5848866 5857064 5861900 5864617 5866544 
685.577 5868849 5872407 5877823 5885610 5896291 5910403 5928480 5950737 
689.433 5976911 6006060 6036576 6066390 6093288 6115380 6131463 6141307 
693.290 6145688 6146269 6145224 6144855 6147123 6153365 6164055 6178812 
697.147 6196604 6215932 6235201 6252948 6268046 6279738 6287650 6291734 
701.004 6292204 6289498 6284282 6277426 6269938 6262789 6256748 6252093 
704.861 6248541 6245154 6240580 6233326 6222184 6206531 6186579 6163249 
708.718 6137969 6112201 6087009 6062776 6038939 6014197 5986821 5955125 
712.575 5917890 5874686 5825896 5772511 5715661 5656151 5594063 5528592 
716.432 5458259 5381437 5296942 5204637 5105660 5002251 4897244 4793308 
720.289 4692291 4594874 4500574 4408322 4316984 4226048 4135954 4048008 
724.146 3964095 3886198 3815980 3754672 3703088 3661864 3631707 3613466 
728.003 3608034 3616174 3638259 3674157 3723229 3784501 3856932 3939513 
731.860 4031404 4131860 4240127 4355444 4476962 4603900 4735566 4871353 
735.717 5010597 5152406 5295424 5437799 5577260 5711516 5838576 5957137 
739.574 6066745 6167743 6261021 6347751 6429216 6506627 6581212 6654259 
743.431 6727079 6800940 6876798 6955188 7036078 7119027 7203373 7288581 
747.287 7374426 7461045 7548834 7638161 7729132 7821453 7914525 8007540 
751.144 8099736 8190497 8279220 8365161 8447074 8523002 8590236 8645561 
755.001 8685716 8707921 8710349 8692424 8654775 8598884 8526638 8439823 
758.858 8339780 8227341 8102999 7967257 7820981 7665594 7503114 7335930 
762.715 7166478 6997028 6829493 6665453 6506333 6353403 6207793 6070244 
766.572 5940782 5818528 5701671 5587814 5474528 5360054 5243825 5126601 
770.429 5010258 4897171 4789561 4688835 4595436 4508792 4427609 4350369 
774.286 4275599 4202153 4129195 4056192 3982885 3909238 3835446 3761959 
778.143 3689347 3618211 3548965 3481786 3416543 3352896 3290458 3228884 
782.000 3167949 3107492 3047350 2987310 2927108 2866556 2805612 2744445 
785.857 2683423 2622947 2563284 2504531 2446598 2389393 2332970 2277727 
789.714 2224335 2173592 2126196 2082487 2042420 2005596 1971512 1939755 
793.571 1910106 1882554 1857116 1833719 1812054 1791651 1771959 1752584 
797.428 1733304 1714204 1695549 1677735 1661230 1646561 1634305 1624992 
801.285 1618994 1616275 1616250 1617753 1619411 1619912 1618488 1615231 
805.141 1610991 1607053 1604550 1603977 1604974 1606502 1607354 1606743 
808.998 1604677 1601952 1599825 1599420 1601167 1604702 1608925 1612596 
812.855 1614788 1615261 1614440 1613128 1612004 1611341 1610854 1609909 
816.712 1607913 1604686 1600627 1596679 1594003 1593596 1595965 1600980 
820.569 1607953 1615832 1623546 1630257 1635584 1639623 1642929 1646246 
824.426 1650270 1655354 1661349 1667625 1673291 1677511 1679926 1680792 
828.283 1680992 1681660 1683764 1687733 1693324 1699849 1706674 1713682 
832.140 1721583 1731823 1746106 1765733 1791111 1821515 1855307 1890622 
835.997 1926017 1961003 1996176 2032975 2073242 2118645 2170392 2229138 
839.854 2295049 2367901 2447194 2532050 2621170 2712809 2804929 2895463 
843.711 2982619 3065066 3142018 3213059 3277971 3336506 3388444 3433681 
847.568 3472398 3505201 3533134 3557590 3580189 3602750 3627384 3656683 
851.425 3693791 3742307 3806007 3888218 3991454 4116938 4264690 4433770 
855.282 4622710 4829947 5053937 5293159 5545706 5809083 6079958 6354311 
859.139 6627639 6895437 7153526 7398421 7627467 7839063 8032640 8208804 
862.995 8369070 8515523 8650270 8774702 8888963 8991796 9080756 9152929 
866.852 9205808 9237979 9249524 9241831 9217042 9177341 9124258 9058402 
870.709 8979393 8886287 8777913 8653367 8512255 8354812 8181936 7995107 
874.566 7796275 7587703 7371793 7150872 6927058 6702091 6477449 6254307 
878.423 6033730 5816765 5604454 5397864 5198056 5006098 4823166 4650625 
882.280 4490090 4343409 4212469 4098992 4004249 3928924 3873083 3836190 
886.137 3817229 3814688 3826480 3849866 3881441 3917310 3953556 3986825 
889.994 4014884 4036913 4053458 4065919 4075977 4084958 4093555 4101869 
893.851 4109670 4116809 4123429 4129896 4136662 4143872 4151234 4157991 
897.708 4163201 4165970 4165791 4162544 4156452 4147986 4137724 4126404 
901.565 4115035 4104926 4097603 4094547 4096797 4104612 4117377 4133716 
905.422 4151949 4170625 4188829 4206341 4223403 4240340 4257162 4273386 
909.279 4288033 4299968 4308183 4312087 4311650 4307264 4299653 4289668 
913.136 4278138 4265802 4253284 4240985 4229090 4217510 4205896 4193875 
916.993 4181139 4167697 4153843 4140123 4126985 4114629 4102805 4090926 
920.849 4078261 4064257 4048783 4032139 4014954 3997897 3981451 3965866 
924.706 3951177 3937476 3925052 3914414 3906213 3900863 3898276 3897765 
928.563 3898099 3897855 3895844 3891417 3884680 3876377 3867631 3859655 
932.420 3853456 3849703 3848699 3850473 3854837 3861486 3869998 3879937 
936.277 3890883 3902557 3914872 3928018 3942406 3958550 3976924 3997820 
940.134 4021233 4046908 4074427 4103348 4133408 4164673 4197576 4232928 
943.991 4271720 4314927 4363261 4416885 4475431 4537953 4603366 4670742 
947.848 4739604 4810236 4883465 4960382 5041880 5128212 5218834 5312508 
951.705 5407565 5502394 5595644 5686339 5773644 5856475 5933212 6001563 
955.562 6058769 6102003 6128901 6137992 6128947 6102504 6060311 6004603 
959.419 5937959 5863143 5782987 5700270 5617687 5537604 5461978 5392240 
963.276 5329342 5273819 5225944 5185800 5153268 5127997 5109268 5096044 
967.133 5086999 5080710 5075893 5071563 5067061 5062063 5056465 5050281 
970.990 5043695 5037077 5031088 5026736 5025215 5027702 5035073 5047670 
974.847 5065193 5086908 5111821 5139150 5168484 5199890 5233908 5271246 
978.703 5312545 5358245 5408437 5462979 5521504 5583566 5648637 5716045 
982.560 5785008 5854662 5924111 5992690 6060131 6126710 6193210 6260869 
986.417 6331007 6404840 6483190 6566497 6654692 6747558 6844761 6946128 
990.274 7051521 7160809 7273602 7389154 7506326 7623732 7740041 7854432 
994.131 7966848 8078173 8190158 8305074 8425231 8552477 8687911 8831699 
997.988 8983215 9141359 9304904 9472892 9644899 9821077 10002148 10189276 
1001.845 10383817 10587075 10800221 11024084 11259224 11505952 11764512 
1005.220 12035146 12318257 12614381 12924132 13248010 13586332 13939050 
1008.595 14305785 14685929 15078776 15483665 15900093 16327585 16765682 
1011.970 17213694 17670598 18134966 18604962 19078336 19552590 20025010 
1015.344 20492812 20953322 21404124 21843312 22269634 22682588 23082330 
1018.719 23469550 23845098 24209852 24564568 24909970 25246840 25576246 
1022.094 25899634 26218754 26535538 26851862 27169350 27489376 27813176 
1025.469 28142106 28477958 28823042 29180360 29553482 29946368 30363184 
1028.844 30808100 31285038 31797430 32347906 32937878 33567296 34234564 
1032.219 34936516 35668872 36426556 37204112 37996012 38796432 39599124 
1035.595 40397016 41182116 41945680 42678744 43372876 44020920 44617536 
1038.970 45159136 45643524 46069240 46434776 46738376 46977844 47151024 
1042.345 47256204 47292768 47261260 47163592 47002900 46783404 46510336 
1045.720 46189960 45829312 45436012 45017712 44581552 44133560 43678580 
1049.096 43220268 42761700 42305884 41856264 41416888 40992160 40586184 
1052.471 40202240 39842184 39506316 39193676 38902480 38630956 38378004 
1055.846 38143700 37929768 37739588 37578176 37451936 37368480 37336012 
1059.221 37363148 37458268 37629360 37883632 38227540 38666560 39205292 
1062.597 39847256 40594820 41448860 42408596 43471368 44632660 45886288 
1065.972 47224616 48639028 50120240 51658700 53244828 54869340 56523520 
1069.347 58199604 59891004 61592316 63299192 65007556 66713212 68410992 
1072.722 70094720 71757344 73391704 74991016 76549464 78061896 79523144 
1076.098 80927160 82266256 83530960 84710320 85793104 86768672 87627416 
1079.473 88361208 88962904 89426384 89746400 89919456 89944192 89822328 
1082.848 89558416 89159736 88635168 87994432 87247568 86404720 85476128 
1086.223 84472632 83405280 82285456 81124184 79931880 78717800 77490088 
1089.599 76255520 75019864 73787632 72562472 71347032 70143224 68952264 
1092.974 67774984 66611976 65463716 64330644 63213156 62111528 61026012 
1096.349 59956704 58903564 57866312 56844400 55836956 54842788 53860436 
1099.724 52888488 51925760 50971620 50026112 49090028 48164772 47252292 
1103.100 46354732 45474444 44613684 43774740 42959820 42171192 41411148 
1106.475 40682204 39986996 39328572 38710016 38134560 37605168 37124252 
1109.850 36693348 36313012 35982648 35700720 35465140 35273464 35123284 
1113.225 35012440 34939000 34901200 34897392 34925856 34984900 35072948 
1116.601 35188748 35331608 35501416 35698652 35924072 36178484 36462192 
1119.976 36774776 37114832 37479984 37866828 38271044 38687404 39109672 
1123.351 39530520 39941352 40332428 40693164 41012712 41280724 41488292 
1126.726 41628596 41697340 41692836 41615564 41467732 41252588 40974020 
1130.102 40636196 40243340 39799648 39309192 38775468 38201304 37588548 
1133.477 36938180 36250484 35525648 34764216 33967456 33137568 32277512 
1136.852 31390650 30480534 29550672 28604674 27646434 26680488 25712148 
1140.227 24747510 23793046 22855282 21940182 21052796 20197222 19376522 
1143.603 18593014 17848502 17144508 16482295 15862894 15286912 14754444 
1146.978 14265038 13817704 13411100 13043669 12713815 12419934 12160420 
1150.353 11933544 11737448 11570031 11429106 11312509 11218321 11145067 
1153.728 11091805 11058021 11043573 11048370 11072209 11114632 11174962 
1157.104 11252511 11346796 11457829 11586303 11733535 11901321 12091674 
1160.479 12306577 12547845 12817131 13116209 13447173 13812785 14216606 
1163.854 14662987 15157077 15704545 16311641 16985042 17731896 18559900 
1167.229 19477210 20492234 21613470 22849118 24207024 25694414 27317914 
1170.604 29083308 30995342 33056950 35268476 37626416 40122356 42742056 
1173.980 45464632 48262112 51099344 53933972 56716980 59393788 61906248 
1177.355 64195960 66208452 67897688 69230296 70187744 70767192 70979976 
1180.730 70849192 70406568 69689728 68739656 67598592 66308124 64907600 
1184.105 63432644 61914440 60379036 58847660 57336964 55859696 54425448 
1187.481 53041232 51712060 50441392 49231456 48083536 46998076 45974760 
1190.856 45012484 44109340 43262684 42469372 41726020 41029404 40376856 
1194.231 39766484 39197024 38667764 38178068 37727100 37313564 36935740 
1197.606 36591644 36279260 35996656 35742140 35513972 35310400 35129284 
1200.982 34968296 34824824 34696368 34580612 34475560 34379456 34290600 
1204.357 34207212 34127200 34047972 33966652 33879996 33784636 33677188 
1207.732 33554414 33413458 33252084 33068926 32863606 32636750 32389772 
1211.107 32124358 31842140 31544160 31230778 30901614 30556002 30193272 
1214.483 29813304 29416698 29004934 28580174 28145068 27702394 27254838 
1217.858 26804712 26353902 25903856 25455568 25009704 24566840 24127538 
1221.233 23692522 23262780 22839528 22424044 22017498 21620662 21233838 
1224.608 20856872 20489260 20130398 19779902 19437648 19103924 18779184 
1227.984 18463972 18158718 17863644 17578760 17303946 17039036 16783900 
1231.359 16538467 16302820 16077074 15861510 15656494 15462451 15279666 
1234.734 15108149 14947475 14796703 14654364 14518806 14388435 14262162 
1238.109 14139511 14020684 13906321 13797200 13693874 13596529 13504906 
1241.485 13418508 13336720 13259064 13185208 13115028 13048525 12985814 
1244.860 12927027 12872417 12822314 12777086 12737055 12702367 12672912 
1248.235 12648350 12628220 12612174 12600164 12592547 12590007 12593392 
1251.610 12603427 12620506 12644586 12675245 12711886 12753917 12800939 
1254.986 12852730 12909231 12970291 13035618 13104644 13176566 13250500 
1258.361 13325672 13401452 13477497 13553700 13630074 13706659 13783225 
1261.736 13859335 13934177 14006570 14075081 14138177 14194299 14242151 
1265.111 14280699 14309290 14327659 14335750 14333603 14321202 14298368 
1268.487 14264698 14219643 14162536 14092767 14009817 13913368 13803312 
1271.862 13679823 13543326 13394465 13234121 13063312 12883097 12694368 
1275.237 12497825 12293789 12082240 11862982 11635814 11400800 11158516 
1278.612 10910046 10657077 10401648 10145941 9891970 9641420 9395511 9155017 
1282.470 8920438 8692248 8471075 8257927 8054301 7862083 7683399 7520292 
1286.327 7374490 7247150 7138767 7049210 6977824 6923693 6885846 6863420 
1290.185 6855728 6862262 6882559 6916138 6962261 7019908 7087603 7163504 
1294.042 7245400 7330885 7417437 7502699 7584532 7661286 7731826 7795683 
1297.899 7852866 7903920 7949549 7990486 8027208 8059878 8088331 8112224 
1301.757 8131269 8145506 8155317 8161527 8165101 8167003 8167895 8168082 
1305.614 8167481 8165888 8163085 8159085 8154083 8148470 8142557 8136476 
1309.472 8130093 8123097 8115050 8105628 8094745 8082556 8069379 8055641 
1313.329 8041706 8027906 8014468 8001619 7989586 7978601 7968764 7960085 
1317.187 7952381 7945357 7938758 7932447 7926529 7921321 7917280 7914858 
1321.044 7914290 7915620 7918648 7923106 7928747 7935554 7943707 7953608 
1324.901 7965830 7980987 7999692 8022530 8050006 8082543 8120405 8163676 
1328.759 8212275 8265909 8324232 8386916 8453695 8524469 8599252 8678044 
1332.616 8760785 8847245 8937015 9029553 9124359 9221124 9319802 9420804 
1336.474 9524880 9633041 9746259 9865323 9990511 10121575 10257749 10398018 
1340.331 10541522 10687765 10836956 10989947 11147989 11312407 11484161 
1343.706 11663640 11850657 12044604 12244794 12450767 12662362 12879695 
1347.082 13102847 13331643 13565348 13802819 14042486 14282820 14522398 
1350.457 14760157 14995174 15226658 15453576 15674601 15888064 16092090 
1353.832 16284676 16463955 16628250 16776153 16906532 17018672 17112268 
1357.207 17187566 17245394 17287148 17314714 17330142 17335532 17332740 
1360.583 17323278 17308390 17289088 17266264 17240778 17213340 17184328 
1363.958 17153594 17120234 17082498 17037740 16982768 16913904 16827480 
1367.333 16720107 16589022 16432399 16249789 16042274 15812972 15567043 
1370.708 15311834 15056726 14812709 14591807 14406367 14268190 14187679 
1374.083 14172924 14228965 14357293 14555551 14817554 15133719 15491585 
1377.459 15876663 16273308 16665728 17038788 17378936 17674762 17917202 
1380.834 18099604 18217464 18268138 18250592 18165048 18013062 17797356 
1384.209 17521930 17191932 16813676 16394354 15941685 15463391 14966621 
1387.584 14457397 13940424 13418941 12895124 12370509 11846422 11324358 
1390.960 10806079 10293607 9789211 9295324 8814623 8350034 7904791 7482141 
1394.817 7085128 6716041 6376149 6065557 5783290 5527568 5296313 5087367 
1398.675 4898811 4728918 4576124 4438890 4315654 4204793 4104712 4014029 
1402.532 3931595 3856552 3788318 3726482 3670738 3620788 3576325 3536934 
1406.389 3502216 3471713 3444924 3421340 3400383 3381466 3364012 3347465 
1410.247 3331422 3315723 3300491 3286072 3273087 3262139 3253772 3248241 
1414.104 3245476 3245104 3246557 3249255 3252825 3257105 3262292 3268726 
1417.962 3276898 3287158 3299712 3314514 3331315 3349799 3369614 3390560 
1421.819 3412642 3436056 3461262 3488744 3518992 3552382 3589002 3628760 
1425.677 3671400 3716701 3764644 3815515 3869979 3928930 3993344 4064059 
1429.534 4141625 4226209 4317820 4416357 4521956 4635160 4756986 4889031 
1433.391 5033307 5192184 5368270 5564280 5782987 6027126 6299343 6602189 
1437.249 6938096 7309419 7718341 8166817 8656373 9187706 9760545 10373162 
1441.106 11022388 11703400 12409879 13134183 13867564 14600609 15323791 
1444.481 16028035 16705267 17348880 17953760 18516018 19032840 19502056 
1447.857 19922200 20292566 20613454 20886042 21112350 21294594 21434742 
1451.232 21534234 21593798 21613682 21593834 21533910 21433200 21290432 
1454.607 21103806 20871206 20591014 20262792 19888028 19470032 19013496 
1457.982 18523396 18004160 17459160 16890920 16301778 15694657 15073515 
1461.358 14443371 13809812 13178518 12554529 11942185 11345021 10765965 
1464.733 10207421 9671319 9158914 8670855 8207274 7768109 7353429 6963716 
1468.590 6599805 6262624 5952656 5669473 5411443 5175814 4959053 4757496 
1472.448 4567889 4387909 4216312 4052929 3898240 3753191 3618714 3495603 
1476.305 3384259 3284738 3196642 3119224 3051410 2991893 2939248 2892007 
1480.163 2848831 2808501 2770040 2732777 2696387 2660900 2626675 2594344 
1484.020 2564572 2537992 2514901 2495204 2478371 2463562 2449776 2436122 
1487.877 2421990 2407198 2391907 2376585 2361794 2348066 2335689 2324818 
1491.735 2315350 2307090 2299744 2292962 2286340 2279438 2271824 2263128 
1495.592 2253083 2241643 2228986 2215527 2201873 2188629 2176313 2165331 
1499.450 2155776 2147598 2140556 2134379 2128758 2123524 2118570 2113926 
1503.307 2109619 2105731 2102191 2098911 2095623 2092044 2087969 2083277 
1507.165 2078072 2072745 2067704 2063542 2060662 2059328 2059453 2060777 
1511.022 2062706 2064610 2065801 2065756 2064128 2060838 2056071 2050192 
1514.879 2043715 2037140 2030884 2025193 2020085 2015476 2011165 2007032 
1518.737 2003120 1999621 1996773 1994748 1993449 1992513 1991226 1988807 
1522.594 1984592 1978330 1970214 1960938 1951413 1942596 1935154 1929388 
1526.452 1925203 1922253 1920094 1918366 1916797 1915254 1913610 1911694 
1530.309 1909306 1906233 1902380 1897809 1892770 1887634 1882793 1878555 
1534.167 1875068 1872389 1870418 1869059 1868175 1867479 1866609 1865036 
1538.024 1862163 1857536 1850989 1842812 1833770 1824934 1817295 1811551 
1541.881 1807787 1805606 1804238 1802901 1801173 1799112 1797251 1796397 
1545.739 1797210 1800018 1804543 1810124 1815856 1820975 1825069 1828290 
1549.596 1831133 1834358 1838623 1844371 1851628 1860170 1869552 1879317 
1553.454 1889089 1898587 1907509 1915584 1922381 1927406 1930094 1929976 
1557.311 1926697 1920221 1910686 1898508 1884278 1868667 1852364 1836081 
1561.168 1820419 1805873 1792723 1781029 1770579 1760980 1751674 1742257 
1565.026 1732453 1722324 1712159 1702467 1693671 1686094 1679802 1674695 
1568.883 1670516 1667097 1664315 1662208 1660778 1659980 1659593 1659264 
1572.741 1658582 1657264 1655203 1652621 1649915 1647614 1646091 1645546 
1576.598 1645878 1646805 1647935 1649033 1649944 1650791 1651750 1653140 
1580.456 1655162 1657980 1661551 1665719 1670159 1674430 1678047 1680623 
1584.313 1681936 1682178 1681808 1681641 1682545 1685260 1690046 1696716 
1588.170 1704518 1712497 1719646 1725319 1729327 1731975 1733889 1735771 
1592.028 1738142 1741238 1745002 1749147 1753398 1757570 1761662 1765887 
1595.885 1770468 1775620 1781384 1787640 1794025 1800164 1805643 1810278 
1599.743 1814093 1817497 1821023 1825362 1831103 1838560 1847625 1857880 
1603.600 1868627 1879213 1889200 1898472 1907325 1916254 1925732 1936053 
1607.458 1947154 1958652 1969998 1980673 1990390 1999120 2007076 2014626 
1611.315 2022064 2029634 2037347 2045207 2053166 2061284 2069678 2078523 
1615.172 2087959 2098008 2108555 2119297 2129820 2139670 2148472 2155913 
1619.030 2161871 2166405 2169707 2172180 2174239 2176326 2178814 2181962 
1622.887 2185916 2190727 2196328 2202677 2209629 2216992 2224404 2231464 
1626.745 2237694 2242804 2246697 2249719 2252557 2256172 2261534 2269414 
1630.602 2280200 2293845 2309948 2327968 2347434 2368163 2390147 2413696 
1634.459 2439014 2466134 2494626 2523537 2551387 2576271 2596113 2608969 
1638.317 2613211 2607981 2593234 2569980 2540103 2506190 2471067 2437394 
1642.174 2407157 2381606 2361054 2345182 2333228 2324381 2317906 2313264 
1646.032 2310071 2308010 2306673 2305579 2304150 2301863 2298384 2293774 
1649.889 2288462 2283299 2279319 2277556 2278712 2282972 2289924 2298635 
1653.747 2307979 2316893 2324737 2331396 2337147 2342538 2348092 2354147 
1657.604 2360734 2367711 2374789 2381768 2388530 2395013 2401117 2406685 
1661.461 2411407 2415119 2417825 2419956 2422379 2426291 2432845 2442878 
1665.319 2456576 2473523 2492660 2512726 2532478 2551003 2567779 2582695 
1669.176 2595821 2607414 2617673 2626842 2635127 2642779 2650091 2657316 
1673.034 2664597 2672055 2679667 2687531 2695791 2704742 2714725 2726092 
1676.891 2738932 2753195 2768641 2784941 2801884 2819481 2837856 2857247 
1680.749 2877725 2899222 2921299 2943488 2965329 2986630 3007542 3028582 
1684.606 3050349 3073379 3097869 3123638 3150276 3177294 3204400 3231630 
1688.463 3259242 3287691 3317368 3348461 3380908 3414509 3449118 3484884 
1692.321 3522280 3562176 3605413 3652734 3704271 3759613 3817765 3877574 
1696.178 3938027 3998704 4059926 4122737 4188487 4258569 4333924 4414962 
1700.036 4501500 4593097 4689234 4789708 4894685 5004714 5120454 5242615 
1703.893 5371707 5508129 5652172 5804130 5964294 6133031 6310508 6496777 
1707.750 6691617 6894758 7105881 7324963 7552168 7787998 8032927 8287433 
1711.608 8551733 8825967 9110195 9404560 9709366 10024906 10351314 10688283 
1715.465 11034899 11389773 11751197 12117663 12488201 12862557 13241223 
1718.841 13625295 14016032 14414795 14822868 15241644 15672487 16117221 
1722.216 16577891 17056960 17557048 18081032 18631842 19212600 19826480 
1725.591 20476996 21167888 21903370 22688060 23527100 24425746 25389188 
1728.966 26422160 27528576 28711644 29974396 31320402 32754746 34284408 
1732.342 35918032 37664812 39532672 41526576 43647532 45892748 48257372 
1735.717 50736344 53326388 56026172 58835088 61750688 64765948 67867264 
1739.092 71034136 74240472 77457192 80654136 83801440 86869520 89828616 
1742.467 92648632 95300368 97757232 99997400 102004496 103767160 105277408 
1745.843 106529392 107519136 108245840 108713224 108930704 108912488 
1748.736 108675536 108236776 107611560 106813024 105853248 104744176 
1751.629 103498432 102128312 100644496 99054536 97362712 95571128 93681952 
1755.004 91699472 89631632 87489888 85288104 83041048 80762984 78466960 
1758.379 76165160 73869072 71589672 69337440 67121920 64951312 62832672 
1761.754 60772080 58775288 56847860 54995136 53221524 51529612 49919536 
1765.130 48389024 46933668 45548288 44227584 42967384 41764604 40617080 
1768.505 39522816 38479440 37483580 36530964 35616540 34735004 33880980 
1771.880 33049428 32235674 31435468 30645028 29861220 29081524 28304390 
1775.255 27528902 26754760 25981898 25210314 24439686 23669494 22899122 
1778.631 22128146 21356702 20585686 19816872 19052946 18296880 17551864 
1782.006 16820756 16106011 15409514 14732614 14076363 13441639 12829228 
1785.381 12239999 11674897 11135100 10621882 10136607 9680439 9254103 
1788.756 8857559 8489942 8149445 7833811 7540621 7267706 7013364 6776527 
1792.614 6556361 6352201 6163252 5988504 5826830 5677134 5538359 5409621 
1796.471 5290023 5178667 5074548 4976815 4884704 4797869 4716102 4639397 
1800.329 4567452 4499643 4434841 4371794 4309415 4247263 4185650 4125572 
1804.186 4068223 4014555 3964780 3918353 3874144 3830975 3787976 3745040 
1808.043 3702603 3661459 3622268 3585353 3550457 3516932 3483836 3450172 
1811.901 3414813 3376637 3334448 3287318 3234919 3178058 3118901 3060989 
1815.758 3008603 2965877 2935677 2918754 2913498 2916415 2923015 2929107 
1819.616 2931423 2928200 2918823 2903458 2882636 2857101 2827744 2796016 
1823.473 2763585 2732364 2703702 2678063 2654589 2631378 2606080 2576850 
1827.331 2543051 2505680 2466989 2429971 2397217 2370362 2349491 2333462 
1831.188 2320114 2307166 2292459 2274497 2252406 2225949 2195414 2161570 
1835.045 2125463 2088474 2051832 2016809 1984212 1954549 1928051 1904923 
1838.903 1885370 1869611 1857671 1849147 1842884 1837155 1829638 1818358 
1842.760 1801891 1780166 1754290 1726635 1699875 1676612 1658394 1645834 
1846.618 1638064 1633588 1630272 1626230 1619848 1610457 1597936 1583123 
1850.475 1567123 1551393 1537120 1525394 1516559 1510630 1507081 1505364 
1854.333 1504604 1503999 1502549 1499325 1493198 1483228 1468754 1449950 
1858.190 1427551 1403291 1379245 1357751 1340618 1328882 1322557 1320875 
1862.047 1322352 1325348 1328169 1329580 1328631 1325069 1318923 1310853 
1865.905 1301611 1292145 1283215 1275319 1268582 1262792 1257527 1252455 
1869.762 1247229 1241806 1236072 1229970 1223349 1216171 1208612 1201415 
1873.620 1195544 1192298 1192333 1195635 1200874 1205850 1208047 1205725 
1877.477 1198630 1188451 1178261 1171635 1171120 1177247 1187934 1199298 
1881.334 1206501 1205931 1196088 1178628 1157448 1137831 1124551 1120515 
1885.192 1125716 1137577 1151569 1162793 1167245 1162982 1150380 1132096 
1889.049 1112011 1094376 1082427 1077866 1080262 1087478 1096020 1102266 
1892.907 1102845 1095872 1080757 1058612 1031521 1002475 974536 950806 
1896.764 933700 925120 925832 935678 953084 975398 999151 1020601 1036469 
1901.104 1044680 1044562 1037284 1024966 1010378 995798 982784 971239 960151 
1905.443 947429 931440 911217 887803 863905 844069 833041 834912 851055 
1909.783 879704 915518 951219 978911 993246 992304 978888 959004 940474 
1914.123 929673 930029 940916 958653 977654 993161 1002295 1004952 1002664 
1918.462 997467 990338 981082 968077 950304 927681 902658 878950 861176 
1922.802 852677 854925 866609 884595 904689 923430 938262 948404 953948 
1927.141 955686 954426 951163 946851 942841 940173 939496 940087 940393 
1931.481 937981 930946 918729 903013 886987 874550 868292 869013 874633 
1935.821 882130 888463 892777 896859 904746 920643 947242 983528 1025247 
1940.160 1064982 1095245 1109605 1104737 1080215 1038784 984533 923103 
1944.018 860367 803012 756980 727171 715646 721176 738181 758394 772505 
1948.357 773589 758123 727310 685551 638609 591181 546302 505053 468949 
1952.697 440406 424208 425146 446753 487660 541749 597804 643997 670581 
1957.036 673968 657067 628187 596728 570263 551132 537929 526760 516019 
1961.376 507941 509583 528960 572106 638369 719989 802476 869272 905876 
1965.716 904914 866490 799587 718150 639261 577972 545595 546536 578916 
1970.055 633580 698626 759971 807040 833241 838612 826876 804760 777122 
1974.395 747941 720247 701681 705687 754604 873600 1083410 1386919 1763601 
1978.734 2168698 2545127 2837901 3009685 3048212 2967539 2799810 2586256 
1982.592 2365210 2165449 2001564 1876951 1787265 1727671 1694332 1686369 
1986.449 1702075 1737074 1781293 1820987 1840714 1829193 1781204 1700449 
1990.307 1596740 1483966 1374383 1276612 1192950 1121348 1056296 992563 
1994.164 926797 859721 795140 740045 702078 688744 703498 746214 810411 
1998.504 885750 958418 1015389 1046358 1047610 1021375 976760 925201 878633 
2002.843 844443 824502 813776 803456 781797 740337 674738 589124 493450 
2007.183 402906 331974 292571 288534 317207 369395 434169 500535 561364 
2011.522 612733 654391 685839 706353 712131 699568 665148 610232 539392 
2015.862 462789 390316 331805 291867 271916 269855 284050 314320 363723 
2020.202 435158 530371 645759 774091 904729 1029115 1142489 1246269 1344004 
2024.541 1438130 1523791 1588855 1613392 1577505 1466913 1280946 1031820 
2028.399 745195 451797 183642 -33559 -180132 -244902 -221513 -112012 74111 
2032.738 315164 578912 824474 1012590 1113599 1118758 1039942 908791 765193 
2037.078 647654 581146 574453 618659 694685 778638 850856 898632 919558 
2041.417 918935 908420 901327 910696 944200 1003863 1083504 1172636 1258147 
2045.757 1331394 1390549 1444035 1505656 1589751 1701387 1831532 1955668 
2049.615 2041567 2059716 1994970 1851129 1650628 1426744 1214961 1042828 
2053.472 924574 858124 829554 819029 809559 791968 767033 741681 724825 
2057.812 721805 733003 753534 776784 797420 814144 829549 849017 876942 
2062.151 915573 962575 1012873 1059313 1095933 1118973 1128436 1127015 
2066.009 1120291 1113801 1112993 1120937 1138697 1164209 1193505 1220863 
2069.866 1241102 1249660 1244588 1226078 1197302 1163020 1129237 1101986 
2073.723 1086963 1088106 1107118 1142310 1188792 1238046 1280154 1304949 
2077.581 1305475 1278853 1228111 1160543 1086153 1014383 952166 902393 
2081.438 864878 837274 817715 805788 803474 813497 838460 878227 929854 
2085.778 986830 1040847 1083108 1106849 1107763 1085329 1041860 982619 
2089.635 913549 841661 772893 712447 663685 628751 608144 601966 609485 
2093.975 630372 663931 709578 765755 830395 900041 970980 1038619 1098797 
2098.314 1147298 1180749 1195931 1190870 1164759 1119264 1058290 988431 
2102.172 917538 853882 803871 771288 756400 757367 770306 791668 818064 
2106.511 847361 877230 905352 928507 944063 950104 947609 940106 933843 
2110.851 935385 950037 979245 1020399 1066575 1108983 1138835 1150046 
2114.708 1140135 1110988 1067568 1017016 966384 921702 886449 861245 843383 
2119.048 828080 808911 780394 738670 683558 618037 548162 480472 420883 
2123.388 372396 335578 308476 289003 275429 267841 266729 272224 281554 
2127.727 289326 286887 265433 218084 143108 44014 -70198 -188247 -298611 
2132.067 -393174 -467228 -520161 -553092 -568425 -567886 -553657 -528009 
2135.924 -495501 -461762 -433542 -416052 -412147 -420358 -436493 -453698 
2139.782 -466153 -469101 -461994 -447033 -429865 -417661 -418731 -440291 
2143.639 -488467 -565961 -672064 -801090 -944141 -1089118 -1224108 -1338835 
2147.497 -1427579 -1488708 -1525618 -1543561 -1549784 -1550657 -1552715 
2150.872 -1560331 -1579255 -1612725 -1665017 -1737567 -1831979 -1947749 
2154.247 -2084608 -2239614 -2408640 -2580725 -2737976 -2851809 -2887706 
2157.622 -2810338 -2598683 -2254711 -1814557 -1338167 -894656 -537041 
2160.998 -290777 -147410 -77085 -38795 1060 62524 145839 236813 312522 
2165.337 352362 343891 288141 195811 85847 -22535 -111786 -171589 -198031 
2169.677 -195823 -174445 -148997 -134399 -143790 -182854 -249864 -333316 
2173.534 -416502 -480935 -513492 -509270 -474585 -422483 -369245 -326109 
2177.392 -296923 -275839 -252207 -214218 -155360 -74943 20062 120436 216594 
2181.731 303753 380091 447565 506899 557235 594555 614179 611757 587662 
2186.071 545159 491959 435810 385199 345900 323419 322100 347774 404917 
2190.410 496562 619814 765826 917605 1053856 1151959 1195148 1175054 1095766 
2194.750 971775 826370 684772 570396 498641 476098 498282 552582 619767 
2199.090 679991 715575 716900 683441 626539 565140 523383 522903 578178 
2203.429 691164 851022 1035976 1219609 1376561 1489870 1553378 1573092 
2207.287 1562486 1538235 1513638 1495934 1483534 1469330 1443324 1398465 
2211.144 1332300 1249648 1159472 1073234 999386 942780 902636 876025 859317 
2215.484 851883 855935 876336 916265 975604 1047878 1122059 1184472 1224400 
2219.823 1236197 1222421 1190962 1153183 1119037 1095484 1084356 1085180 
2223.681 1096190 1117172 1148006 1188460 1234759 1279306 1310880 1318860 
2227.538 1296875 1247469 1181570 1116680 1070253 1054469 1071149 1112330 
2231.396 1163116 1208828 1239627 1254740 1260663 1268253 1286184 1317942 
2235.253 1359337 1401533 1433735 1448214 1442011 1417907 1381688 1340632 
2239.110 1300365 1265442 1238394 1221572 1216617 1224422 1243274 1268853 
2242.968 1293763 1310606 1313443 1301402 1278491 1253540 1236249 1234359 
2246.825 1250359 1281433 1319882 1356762 1383838 1396532 1393489 1376698 
2250.683 1349551 1316784 1283129 1254852 1238597 1241825 1270120 1325766 
2254.540 1405250 1499543 1594877 1676558 1732001 1754598 1744260 1707469 
2258.397 1654345 1596389 1543179 1501335 1473089 1457741 1451474 1449670 
2262.255 1447073 1440314 1427518 1410276 1392709 1381332 1382775 1402309 
2266.112 1441624 1498331 1565794 1635348 1698045 1747182 1779024 1793422 
2269.970 1792294 1778963 1756376 1727282 1693903 1659273 1626877 1601260 
2273.827 1586700 1586952 1603205 1634557 1677251 1726266 1775756 1820673 
2277.685 1857108 1883108 1898143 1903186 1900032 1891270 1879602 1868061 
2281.542 1859213 1855638 1859143 1871152 1892103 1921809 1958614 1999921 
2285.399 2041779 2079937 2110031 2129044 2135641 2130763 2117038 2098089 
2289.257 2077059 2056026 2035174 2013480 1989460 1962561 1933491 1904881 
2293.114 1879938 1861788 1851842 1849241 1851040 1853025 1850988 1842254 
2296.972 1826262 1804808 1781258 1759610 1743266 1734508 1733949 1740772 
2300.829 1753022 1768273 1783953 1797940 1808695 1815554 1818585 1818608 
2304.687 1816531 1813248 1809233 1804437 1798551 1791370 1783160 1774853 
2308.544 1767883 1763752 1763396 1767012 1773777 1782503 1792011 1801883 
2312.401 1812369 1824412 1838882 1855975 1874953 1894490 1912998 1929601 
2316.259 1944445 1958726 1974039 1991829 2012638 2036438 2062983 2092723 
2320.116 2127187 2168707 2218931 2277296 2339262 2396208 2436382 2447866 
2323.974 2421587 2354185 2249064 2115809 1968129 1820957 1687407 1576642 
2327.831 1492672 1434696 1398382 1377773 1367128 1362199 1360250 1359858 
2331.688 1360171 1360421 1359731 1357356 1353021 1347094 1340561 1334637 
2335.546 1330137 1327471 1325988 1324787 1322652 1318859 1313095 1305634 
2339.403 1297134 1288144 1279128 1270328 1261934 1254299 1247934 1243744 
2343.261 1242467 1244711 1250314 1258460 1267664 1276124 1282211 1284876 
2347.118 1283856 1280056 1274930 1270268 1267676 1267960 1270963 1275506 
2350.976 1279640 1281236 1278397 1270239 1256813 1239398 1220069 1201256 
2354.833 1185139 1173422 1166675 1164553 1165763 1168379 1170293 1169694 
2358.690 1165191 1156527 1144027 1128969 1112768 1096943 1082419 1069488 
2362.548 1057645 1046027 1033520 1019396 1003393 986034 968258 951507 937055 
2366.887 926199 919676 917924 920779 927753 937796 949572 961552 972404 
2371.227 981136 987412 991652 994782 997842 1001722 1006699 1012553 1018583 
2375.567 1024148 1028816 1032707 1036274 1040096 1044430 1049227 1053938 
2379.424 1058039 1061320 1064212 1067784 1073485 1082481 1095415 1111803 
2383.281 1130388 1149326 1166893 1181785 1193391 1201629 1206870 1209394 
2387.139 1209487 1207354 1203555 1198987 1195081 1193336 1195107 1200940 
2390.996 1210495 1222468 1235193 1246825 1256224 1262858 1267006 1269269 
2394.854 1270263 1270383 1269787 1268354 1266166 1263317 1260267 1257335 
2398.711 1254837 1252700 1250626 1248149 1245011 1241115 1236750 1232440 
2402.569 1228845 1226619 1226527 1229239 1235636 1246423 1262055 1282270 
2406.426 1305921 1330862 1354535 1374406 1388685 1396752 1399394 1397975 
2410.283 1394079 1388611 1381602 1372260 1359701 1343397 1324255 1304113 
2414.141 1285797 1272084 1265097 1265593 1273032 1285816 1301971 1319450 
2417.998 1336524 1351643 1363530 1370851 1372659 1368383 1358393 1343874 
2421.856 1326710 1308761 1291541 1275478 1260402 1245648 1231069 1217380 
2425.713 1206525 1200919 1202841 1213110 1230666 1252433 1274246 1291729 
2429.571 1301944 1303832 1298710 1289469 1279743 1272657 1270217 1272656 
2433.428 1278881 1286783 1294149 1299077 1300633 1298750 1294406 1289064 
2437.285 1284423 1282077 1283197 1288367 1297498 1309792 1324139 1338714 
2441.143 1351495 1360365 1363625 1360255 1350652 1336751 1321935 1310330 
2445.000 1305832 1310593 1324365 1344079 1364667 1380543 1387618 1384497 
2448.858 1373444 1359213 1347783 1343822 1349432 1362924 1379814 1394062 
2452.715 1400380 1395565 1379648 1355260 1326882 1299143 1275995 1259677 
2456.573 1251014 1249447 1253713 1262051 1272396 1282498 1290296 1293882 
2460.430 1292460 1286145 1276451 1265566 1256139 1250020 1248332 1250584 
2464.287 1255554 1261278 1266227 1269294 1270443 1270179 1269492 1269145 
2468.145 1269409 1269690 1268771 1264813 1256108 1241447 1220994 1196222 
2472.002 1170271 1147189 1131232 1125565 1131649 1148465 1172934 1200494 
2475.860 1226455 1246803 1259400 1263797 1261336 1253988 1244245 1234059 
2479.717 1225017 1218090 1214022 1213044 1215292 1220468 1228010 1237036 
2483.574 1246832 1256624 1266254 1275656 1285028 1294380 1303627 1312304 
2487.432 1320075 1326673 1332121 1336579 1340178 1342676 1343495 1341734 
2491.289 1336753 1328429 1317694 1306329 1296432 1289826 1287341 1288384 
2495.147 1291302 1293861 1294304 1291842 1287134 1281957 1278629 1279009 
2499.004 1283973 1292928 1304108 1315118 1323582 1327772 1327273 1322778 
2502.862 1316151 1309780 1306322 1307850 1315636 1329584 1348524 1369989 
2506.719 1391129 1408991 1421501 1427676 1428077 1424325 1419081 1414695 
2510.576 1413306 1415660 1421344 1428817 1435856 1440097 1439673 1433645 
2514.434 1422255 1406751 1389286 1372120 1357415 1346421 1339595 1336347 
2518.291 1335564 1335854 1336371 1336754 1337500 1339675 1344599 1353171 
2522.149 1365833 1381878 1400167 1418966 1436606 1451822 1464172 1473627 
2526.006 1480813 1486263 1490408 1493087 1493889 1492034 1487096 1479004 
2529.864 1468455 1456645 1445222 1435513 1428546 1424526 1423063 1423172 
2533.721 1423860 1424267 1423866 1422494 1420348 1417605 1414767 1412150 
2537.578 1410306 1409773 1411132 1414715 1420548 1427988 1436180 1443899 
2541.436 1450273 1454823 1458010 1460617 1463960 1468909 1475876 1484265 
2545.293 1492752 1499361 1502279 1499964 1491933 1478673 1461986 1444484 
2549.151 1429450 1419983 1418711 1426615 1443213 1465945 1491175 1514516 
2553.008 1532322 1542340 1544304 1539773 1531506 1522404 1514673 1508931 
2556.865 1504716 1500423 1494719 1486710 1476767 1466132 1456698 1450097 
2560.723 1447482 1449053 1454304 1462233 1471722 1481784 1491755 1501111 
2564.580 1509618 1517018 1523421 1529051 1534468 1540163 1546533 1553604 
2568.438 1560920 1567385 1572082 1574087 1573467 1570954 1568381 1567742 
2572.295 1571173 1579836 1593787 1611758 1631565 1650508 1666257 1677441 
2576.153 1684080 1687255 1689036 1691190 1694880 1699793 1704466 1706521 
2580.010 1703654 1694572 1679601 1660834 1641663 1625726 1616106 1614254 
2583.867 1620053 1631745 1646944 1663124 1678504 1691908 1702961 1711468 
2587.725 1717393 1720447 1720463 1717604 1712583 1706541 1701082 1697555 
2591.582 1696894 1699242 1704223 1710916 1718589 1726693 1735272 1744483 
2595.440 1754667 1765966 1778275 1791131 1804011 1816145 1826910 1835546 
2599.297 1841305 1843441 1841454 1835261 1825590 1813796 1802051 1792467 
2603.155 1786823 1785839 1789133 1795136 1801766 1807037 1809740 1809707 
2607.012 1807918 1805759 1804741 1805601 1808254 1811619 1814273 1815013 
2610.869 1813344 1809916 1806232 1804129 1805368 1810575 1819418 1830228 
2614.727 1840937 1849353 1854186 1855083 1852931 1849112 1845398 1843040 
2618.584 1842851 1844919 1848954 1854509 1861381 1869244 1877968 1887224 
2622.442 1896468 1905052 1912473 1918474 1923442 1928050 1933394 1940332 
2626.299 1949274 1960079 1972067 1984210 1995420 2004783 2011809 2016097 
2630.156 2017673 2016774 2013976 2010113 2006389 2004147 2004603 2008202 
2634.014 2014858 2023400 2032195 2039331 2043492 2044007 2041242 2036216 
2637.871 2030263 2024593 2019855 2016281 2013632 2011525 2009853 2008466 
2641.729 2007594 2007230 2007418 2007989 2008623 2009078 2009267 2009232 
2645.586 2009178 2009197 2009402 2009652 2009840 2009822 2009581 2009143 
2649.444 2008669 2008141 2007461 2006351 2004463 2001449 1997100 1991248 
2653.301 1983838 1974860 1964359 1952432 1939482 1925939 1912643 1900327 
2657.158 1889477 1880109 1871821 1863620 1854485 1843504 1830335 1815058 
2661.016 1798363 1780911 1763304 1745649 1727766 1709234 1689740 1669410 
2664.873 1648834 1628979 1611047 1596039 1584683 1577076 1572935 1571589 
2668.731 1572177 1573815 1575686 1577235 1578067 1578038 1577219 1575826 
2672.588 1574117 1572130 1569891 1567130 1563640 1559242 1554097 1548599 
2676.446 1543468 1539307 1536591 1535366 1535301 1535649 1535737 1534942 
2680.303 1533032 1530122 1526635 1523128 1520179 1518210 1517519 1518143 
2684.160 1519984 1522644 1525604 1528204 1529723 1529591 1527602 1523843 
2688.018 1518820 1513173 1507705 1503083 1499759 1497996 1497831 1499175 
2691.875 1501792 1505269 1509036 1512470 1514965 1516122 1515950 1514747 
2695.733 1513082 1511506 1510238 1509069 1507428 1504519 1499843 1493264 
2699.590 1485215 1476583 1468285 1461062 1455206 1450707 1447277 1444851 
2703.448 1443513 1443661 1445724 1449738 1455342 1461501 1467009 1470603 
2707.305 1471619 1469873 1465956 1460801 1455372 1450459 1446572 1443919 
2711.162 1442612 1442751 1444453 1447713 1452338 1457767 1463242 1467837 
2715.020 1470839 1471884 1471106 1468980 1466215 1463494 1461365 1460147 
2718.877 1460032 1461039 1463086 1466010 1469547 1473185 1476550 1479159 
2722.735 1480800 1481583 1481892 1482236 1483212 1485010 1487623 1490630 
2726.592 1493418 1495403 1496116 1495373 1493422 1490719 1488089 1486382 
2730.449 1486443 1488859 1493897 1501356 1510441 1520107 1529219 1536682 
2734.307 1541908 1544797 1545758 1545342 1544245 1542809 1541207 1539190 
2738.164 1536603 1533225 1529256 1524993 1521004 1517786 1515790 1515238 
2742.022 1516057 1517934 1520382 1522785 1524554 1525052 1524012 1521331 
2745.879 1517360 1512604 1507828 1503585 1500244 1497732 1495800 1494079 
2749.737 1492376 1490793 1489707 1489543 1490617 1492798 1495646 1498448 
2753.594 1500576 1501707 1502091 1502224 1502783 1504100 1506074 1507993 
2757.451 1508932 1508040 1504953 1499977 1494064 1488345 1483919 1481382 
2761.309 1480658 1481186 1482204 1483028 1483287 1483045 1482646 1482440 
2765.166 1482838 1483867 1485499 1487484 1489637 1491846 1494084 1496313 
2769.024 1498626 1500959 1503386 1505897 1508622 1511498 1514616 1517623 
2772.881 1520092 1521287 1520435 1516966 1510703 1502056 1492158 1482425 
2776.739 1474561 1469955 1469493 1473214 1480534 1490215 1500833 1510980 
2780.596 1519722 1526368 1530842 1533198 1533753 1532721 1530352 1526779 
2784.453 1522260 1517141 1511909 1507171 1503683 1502036 1502838 1506400 
2788.311 1512834 1521853 1532860 1545060 1557425 1568934 1578873 1586812 
2792.168 1592756 1597100 1600386 1603120 1605638 1607876 1609617 1610627 
2796.026 1610877 1610779 1611179 1613091 1617549 1625213 1636189 1649914 
2799.883 1665395 1681316 1696425 1709678 1720460 1728497 1733909 1737034 
2803.740 1738511 1739045 1739391 1740256 1742035 1744862 1748634 1752915 
2807.598 1757378 1761777 1766158 1770880 1776369 1782956 1790717 1799304 
2811.455 1808158 1816572 1824147 1830732 1836723 1842651 1849204 1856793 
2815.313 1865540 1875257 1885622 1896380 1907484 1919161 1931792 1945548 
2819.170 1960259 1975252 1989530 2001781 2011064 2016920 2019812 2020851 
2823.028 2021767 2024404 2030296 2040243 2054238 2071372 2090343 2109580 
2826.885 2127712 2143793 2157374 2168481 2177417 2184648 2190652 2195855 
2830.742 2200803 2205981 2212060 2219717 2229632 2242228 2257650 2275652 
2834.600 2295614 2316716 2338144 2359315 2380103 2400873 2422593 2446549 
2838.457 2474163 2506573 2544611 2588274 2636938 2689302 2744006 2799745 
2842.315 2855979 2913010 2972239 3035831 3106425 3186435 3277663 3380626 
2846.172 3494534 3617091 3744847 3873262 3997400 4112004 4212248 4293905 
2850.030 4353908 4390601 4403959 4395551 4368297 4326026 4272885 4212658 
2853.887 4148499 4082448 4015725 3948694 3881394 3813786 3745950 3678235 
2857.744 3611265 3545801 3482706 3422778 3366918 3315844 3270311 3230732 
2861.602 3197272 3169695 3147396 3129550 3115338 3104091 3095720 3090353 
2865.459 3088538 3090809 3097512 3108589 3123733 3142314 3163954 3188384 
2869.317 3215949 3247197 3282926 3323648 3369509 3420006 3474141 3530560 
2873.174 3587786 3644429 3699567 3752509 3803016 3850975 3896550 3939706 
2877.031 3980559 4018850 4054189 4086071 4113832 4136795 4154611 4167047 
2880.889 4174444 4177404 4176810 4173599 4168747 4162926 4156748 4150488 
2884.746 4144296 4138112 4131609 4124365 4115762 4105280 4092681 4078288 
2888.604 4063032 4048495 4036505 4028794 4026638 4030435 4039813 4053548 
2892.461 4070141 4088047 4106081 4123429 4139893 4155551 4170780 4186035 
2896.319 4201852 4218609 4236615 4255889 4276325 4297487 4319075 4340844 
2900.176 4363030 4386302 4411687 4440081 4472148 4507580 4545358 4583638 
2904.033 4620473 4654237 4684363 4711398 4737028 4763451 4793169 4827948 
2907.891 4868934 4916510 4970583 5031035 5098040 5172133 5254265 5345319 
2911.748 5445945 5556231 5675550 5802608 5935659 6072600 6211386 6349890 
2915.606 6486201 6618403 6744834 6863808 6973882 7073657 7162092 7238349 
2919.463 7302083 7353246 7392322 7420023 7437441 7445702 7446119 7439799 
2923.321 7428005 7411936 7392823 7371992 7350766 7330227 7311263 7294208 
2927.178 7278977 7265129 7252151 7239724 7228148 7218253 7211611 7209973 
2931.035 7215053 7228113 7249734 7279841 7317961 7363558 7416603 7477440 
2934.893 7547115 7626822 7717690 7820401 7934917 8060559 8196202 8340303 
2938.750 8491406 8647642 8807018 8966860 9123918 9274215 9413804 9538807 
2942.608 9646241 9734332 9802321 9850486 9879456 9889896 9882037 9855757 
2946.465 9810691 9746626 9663901 9563596 9447551 9318209 9178598 9031596 
2950.323 8880109 8726608 8573212 8421375 8272130 8125891 7982917 7843179 
2954.180 7706940 7574540 7446854 7324853 7209746 7102275 7002816 6910994 
2958.037 6825687 6745256 6667814 6591530 6514956 6437343 6358773 6280011 
2961.895 6202434 6127721 6057505 5992828 5934189 5881222 5832978 5788221 
2965.752 5745715 5704617 5664577 5625686 5588212 5552452 5518610 5486746 
2969.610 5457087 5429973 5406127 5386127 5370640 5359512 5352005 5346774 
2973.467 5342291 5337562 5332521 5328465 5327726 5333131 5347211 5371579 
2977.324 5406470 5450909 5503129 5561157 5623455 5688980 5757303 5828493 
2981.182 5902867 5981040 6064305 6154625 6254908 6368518 6498789 6648048 
2985.039 6816944 7003817 7205219 7416445 7632697 7850124 8066506 8281026 
2988.897 8494125 8706239 8917026 9124805 9326538 9518077 9695151 9853846 
2992.754 9991309 10105985 10197505 10266344 10313563 10340320 10347831 
2996.129 10337029 10308629 10263059 10200860 10122436 10028543 9920254 
2999.505 9799071 9666614 9524690 9374716 9217867 9054825 8886295 8713176 
3003.362 8536901 8359279 8182482 8008127 7837101 7668962 7502223 7334843 
3007.219 7165061 6992071 6816665 6640694 6466949 6297872 6135095 5978977 
3011.077 5828828 5683483 5542014 5404002 5269878 5140324 5015786 4895933 
3014.934 4779736 4665574 4551910 4437885 4323821 4210966 4101134 3996041 
3018.792 3896821 3803587 3715854 3632782 3553912 3479227 3409351 3345024 
3022.649 3286830 3234515 3187079 3142868 3099920 3056449 3011297 2964034 
3026.507 2914999 2864819 2814683 2765576 2718684 2674865 2634960 2599447 
3030.364 2568334 2541047 2516562 2493487 2470347 2446099 2420250 2392975 
3034.221 2365217 2338172 2313181 2291328 2273299 2259229 2248963 2241857 
3038.079 2237166 2233957 2231260 2228050 2223384 2216555 2207061 2194593 
3041.936 2179325 2161707 2142324 2122087 2102052 2083324 2067094 2054335 
3045.794 2045620 2040901 2039533 2040163 2040958 2040255 2036741 2029954 
3049.651 2020374 2009192 1997986 1988296 1981221 1977049 1975801 1976996 
3053.509 1980399 1985724 1993054 2002205 2012901 2024229 2034872 2043307 
3057.366 2048269 2048983 2045447 2038257 2028502 2017324 2005702 1994302 
3061.223 1983724 1974461 1967224 1962642 1961221 1963158 1968021 1974884 
3065.081 1982596 1990072 1996624 2002033 2006422 2009792 2011955 2012116 
3068.938 2009315 2002662 1991929 1977911 1962412 1947758 1936271 1929469 
3072.796 1927778 1930312 1935420 1941004 1945495 1948002 1948349 1947124 
3076.653 1945153 1943172 1941697 1940811 1940267 1939597 1938193 1935484 
3080.510 1931044 1924667 1916734 1907971 1899568 1892706 1888247 1886376 
3084.368 1886474 1887049 1886431 1883097 1876475 1866936 1855913 1845363 
3088.225 1837332 1833085 1833060 1836719 1843005 1850799 1859218 1867900 
3092.083 1876918 1886437 1896490 1906579 1915891 1923262 1927607 1928220 
3095.940 1925087 1918611 1909783 1899817 1889870 1880847 1873477 1868229 
3099.798 1865250 1864645 1866216 1869559 1874007 1878582 1882251 1883972 
3103.655 1883118 1879593 1873784 1866595 1858998 1851827 1845426 1839618 
3107.512 1833923 1827736 1820921 1813697 1807087 1802261 1800462 1802266 
3111.370 1807686 1815844 1825564 1835234 1843632 1849910 1853785 1855160 
3115.227 1854390 1851799 1847920 1843401 1839122 1836129 1835356 1837472 
3119.085 1842659 1850351 1859409 1868323 1875720 1880561 1882603 1882075 
3122.942 1879890 1877127 1874887 1873928 1874731 1877330 1881379 1886165 
3126.800 1890973 1894879 1897168 1897491 1895912 1893093 1890072 1888071 
3130.657 1888288 1891514 1897929 1907092 1917869 1928798 1938235 1944748 
3134.514 1947228 1945114 1938491 1927986 1914793 1900195 1885593 1872180 
3138.372 1860788 1851934 1845956 1843002 1843464 1847671 1856025 1868667 
3142.229 1885240 1904797 1925663 1945787 1963025 1975492 1982097 1982442 
3146.087 1977004 1966783 1953207 1937745 1921879 1906834 1893870 1883993 
3149.944 1878198 1877289 1881757 1891604 1906337 1924634 1944602 1963848 
3153.802 1980071 1991157 1996106 1994842 1988664 1979579 1970120 1962398 
3157.659 1957933 1957107 1959434 1963926 1969578 1975827 1982693 1990636 
3161.516 2000229 2011578 2024209 2036897 2047995 2055989 2059719 2058862 
3165.374 2053895 2045872 2036175 2026166 2016987 2009562 2004499 2002109 
3169.231 2002499 2005276 2009929 2015448 2020925 2025679 2029475 2032610 
3173.089 2035938 2040292 2046323 2054021 2062704 2071017 2077591 2081112 
3176.946 2081107 2077853 2072439 2066501 2061757 2059835 2061859 2068193 
3180.803 2078552 2091943 2106859 2121342 2133668 2142314 2146527 2146348 
3184.661 2142708 2136988 2130698 2124932 2120172 2116290 2112663 2108650 
3188.518 2104014 2099022 2094351 2091019 2089747 2090878 2094275 2099509 
3192.376 2106183 2114105 2123513 2134698 2147885 2162626 2177759 2191566 
3196.233 2202031 2207539 2207344 2201800 2192336 2181050 2170171 2161529 
3200.091 2156427 2155223 2157734 2163327 2171164 2180328 2189939 2199206 
3203.948 2207572 2214549 2220223 2224863 2229115 2233768 2239503 2246664 
3207.805 2255330 2265111 2275392 2285440 2294529 2302011 2307418 2310457 
3211.663 2311021 2309225 2305654 2301000 2296432 2293020 2291848 2293589 
3215.520 2298590 2306625 2317123 2329044 2341198 2352163 2360508 2364951 
3219.378 2364665 2359496 2350182 2338380 2326446 2316863 2311826 2312552 
3223.235 2319087 2330250 2344046 2358129 2370469 2379682 2385234 2387407 
3227.093 2386992 2385086 2382733 2380772 2379800 2379981 2381240 2383119 
3230.950 2385283 2387283 2389164 2391296 2394464 2399572 2407418 2418024 
3234.807 2430695 2443818 2455331 2463095 2465645 2462377 2453891 2441549 
3238.665 2427327 2413233 2400904 2391401 2385402 2382950 2383894 2387646 
3242.522 2393498 2400444 2407480 2413731 2418704 2422575 2425987 2430088 
3246.380 2436009 2444382 2455299 2467939 2481043 2493057 2502927 2510072 
3250.237 2514774 2517844 2520279 2522945 2526215 2530089 2534162 2537984 
3254.094 2541291 2543984 2546162 2547802 2548729 2548513 2546769 2543290 
3257.952 2538534 2533601 2530183 2529876 2533901 2542337 2554109 2567194 
3261.809 2579360 2588889 2595250 2599190 2602437 2606908 2613783 2622907 
3265.667 2632674 2640527 2643960 2641472 2633281 2621349 2609006 2599871 
3269.524 2597022 2602006 2614762 2633782 2656664 2680837 2703950 2724320 
3273.382 2740941 2753133 2760750 2763690 2762127 2756470 2747325 2735599 
3277.239 2722532 2709395 2697518 2688139 2682146 2680072 2681806 2686775 
3281.096 2694126 2702899 2712483 2722736 2733902 2746458 2760660 2776089 
3284.954 2791789 2806198 2817890 2826011 2830880 2833828 2836977 2842206 
3288.811 2850715 2862273 2875582 2888594 2899543 2907357 2912213 2915222 
3292.669 2917819 2921165 2925568 2930464 2934703 2937183 2937167 2934732 
3296.526 2930413 2925077 2919249 2913108 2906385 2898645 2889577 2879323 
3300.384 2868499 2858006 2848794 2841600 2836825 2834416 2834171 2835511 
3304.241 2837913 2840694 2843332 2845143 2845748 2844978 2842968 2840141 
3308.098 2837022 2834138 2831901 2830334 2829225 2828161 2826570 2823804 
3311.956 2819414 2812908 2804263 2793835 2782533 2771799 2763425 2758956 
3315.813 2759312 2764205 2772191 2780706 2786926 2788351 2783835 2773589 
3319.671 2759406 2743952 2730044 2719877 2714586 2714106 2717304 2722489 
3323.528 2728034 2732426 2734775 2734622 2732121 2727767 2722457 2717404 
3327.385 2713833 2712856 2715294 2721284 2730445 2741735 2753771 2765047 
3331.243 2774177 2780160 2782498 2781212 2777010 2771040 2764842 2760084 
3335.100 2758366 2760815 2767591 2778075 2790672 2803092 2813014 2818473 
3338.958 2818259 2812326 2801744 2788395 2774614 2762637 2754154 2750071 
3342.815 2750287 2753923 2759334 2764758 2768330 2768582 2764597 2756036 
3346.673 2743189 2726985 2708844 2690509 2673922 2660915 2652810 2650061 
3350.530 2652251 2657789 2664459 2669831 2672036 2670282 2665155 2658409 
3354.387 2652600 2650015 2652140 2658873 2668734 2678972 2686631 2689045 
3358.245 2684796 2673892 2657727 2638703 2619676 2603298 2591610 2585747 
3362.102 2585936 2591512 2601320 2613719 2627063 2639732 2650316 2657713 
3365.960 2661217 2660462 2655572 2647102 2636176 2624248 2613147 2604578 
3369.817 2599904 2599810 2604002 2611367 2620066 2628073 2633682 2635674 
3373.675 2633695 2628187 2620060 2610553 2600725 2591419 2583079 2575728 
3377.532 2569182 2563069 2557113 2551292 2545937 2541640 2539381 2540006 
3381.389 2544061 2551435 2561286 2572156 2582504 2590894 2596616 2599690 
3385.247 2600929 2601151 2601110 2600715 2599475 2596395 2590789 2582554 
3389.104 2572523 2562146 2553242 2546999 2543817 2543082 2543226 2542524 
3392.962 2539603 2534096 2526529 2518433 2511766 2508290 2509012 2514061 
3396.819 2522580 2532808 2542685 2550194 2553924 2553404 2549239 2542954 
3400.677 2536735 2532692 2532409 2536449 2544355 2554627 2565464 2575054 
3404.534 2582156 2586162 2586918 2584551 2579117 2570500 2558574 2543382 
3408.391 2525453 2505811 2486027 2467710 2452550 2441661 2435813 2435273 
3412.249 2439984 2449341 2462334 2477184 2491613 2503033 2509313 2509230 
3416.106 2503115 2492797 2481210 2471095 2464512 2461796 2461637 2461684 
3419.964 2459670 2454198 2445533 2435208 2425628 2418870 2415984 2416739 
3423.821 2419916 2423889 2427495 2430235 2432343 2434289 2436316 2438079 
3427.678 2438814 2437691 2434305 2429057 2423024 2417635 2413885 2412065 
3431.536 2411548 2411044 2409140 2404935 2398303 2390119 2381875 2375225 
3435.393 2371627 2372099 2376873 2385468 2396657 2408603 2419048 2425721 
3439.251 2426941 2422139 2412157 2399184 2386360 2376753 2372695 2374974 
3443.108 2382922 2394593 2407660 2419932 2429817 2436516 2439700 2439461 
3446.966 2436146 2430636 2424311 2419030 2416849 2418929 2425179 2433547 
3450.823 2440592 2442293 2435787 2420318 2398022 2373237 2351226 2336280 
3454.680 2330340 2332607 2340107 2349087 2356546 2361133 2363476 2364993 
3458.538 2367266 2370891 2375355 2379437 2382156 2383327 2383915 2385494 
3462.395 2389428 2396148 2404982 2414273 2422365 2428197 2431895 2434276 
3466.253 2436459 2439156 2442075 2444318 2444938 2443514 2440607 2437499 
3470.110 2435571 2435501 2436716 2437709 2436551 2432119 2424750 2416456 
3473.968 2410441 2409957 2417416 2433443 2457025 2485968 2517595 2549542 
3477.825 2580110 2608007 2632128 2651544 2665370 2673168 2675311 2673239 
3481.682 2669183 2665490 2664027 2665512 2669428 2674239 2678287 2680385 
3485.540 2680497 2679846 2680287 2683844 2691919 2704843 2721643 2740310 
3489.397 2758465 2773765 2784855 2791589 2795286 2798394 2803872 2814303 
3493.255 2831069 2853739 2880147 2906791 2930070 2947159 2956943 2960339 
3497.112 2959802 2958415 2958941 2962906 2970395 2980382 2991259 3001642 
3500.969 3010621 3017828 3022978 3025833 3025704 3021870 3013891 3002131 
3504.827 2988025 2973893 2962410 2955770 2955170 2960244 2969361 2980033 
3508.684 2989702 2996242 2998539 2996354 2990159 2980676 2968522 2953956 
3512.542 2937171 2918151 2897397 2875880 2855120 2836836 2822525 2812779 
3516.399 2807077 2803711 2800155 2794046 2783792 2769143 2751381 2732632 
3520.257 2715268 2700703 2689235 2679723 2670317 2659400 2646117 2630683 
3524.114 2614366 2598534 2584113 2571197 2559063 2546808 2533874 2520628 
3527.971 2508127 2497680 2490143 2485206 2481386 2476601 2468891 2457279 
3531.829 2442134 2424870 2407211 2390464 2374797 2359448 2343264 2325329 
3535.686 2305869 2286145 2268166 2253871 2244520 2240223 2240160 2243213 
3539.544 2248612 2256083 2266080 2279034 2294850 2312483 2330026 2345253 
3543.401 2356289 2362249 2363512 2361377 2357452 2352774 2347582 2341101 
3547.259 2331885 2318563 2300405 2277758 2252161 2225929 2201745 2182106 
3551.116 2168560 2161659 2160509 2163249 2167219 2169663 2168572 2163110 
3554.973 2154015 2143473 2134542 2130160 2132456 2141791 2156844 2174687 
3558.831 2191652 2204233 2209892 2207475 2197255 2180846 2160534 2138831 
3562.688 2118094 2100226 2086567 2077790 2074037 2074808 2079339 2086482 
3566.546 2095100 2104009 2112153 2118503 2122193 2122408 2118474 2110187 
3570.403 2097750 2082085 2064726 2047580 2032674 2021604 2015435 2014220 
3574.260 2017215 2022839 2029076 2033647 2034437 2029861 2019160 2002766 
3578.118 1982166 1959954 1939289 1923171 1913968 1912544 1918351 1929434 
3581.975 1943067 1956406 1967260 1974174 1976568 1974428 1968138 1957986 
3585.833 1944655 1929168 1913426 1900027 1891992 1891946 1901119 1918588 
3589.690 1941219 1963979 1981122 1987570 1980256 1958743 1925345 1884439 
3593.548 1841219 1800662 1766464 1740779 1724161 1716177 1715733 1721481 
3597.405 1732112 1746194 1762186 1778485 1793620 1806324 1815966 1822546 
3601.262 1826918 1830362 1834351 1840212 1848781 1860047 1873166 1886458 
3605.120 1897616 1904145 1903795 1895293 1878612 1855265 1828105 1800798 
3608.977 1777079 1759756 1750230 1748117 1751702 1758324 1765469 1771394 
3612.835 1775771 1779446 1784334 1792372 1805028 1822415 1843310 1865075 
3616.692 1884532 1898660 1905549 1904893 1898157 1888143 1878272 1871470 
3620.550 1869547 1872649 1879589 1888255 1896512 1902875 1906664 1908182 
3624.407 1908059 1906964 1905223 1902692 1898896 1893688 1887128 1879594 
3628.264 1871815 1864205 1856872 1849465 1841582 1833113 1824703 1817739 
3632.122 1814268 1816298 1825404 1841918 1865016 1892597 1921738 1949331 
3635.979 1972532 1989203 1998509 2000946 1998416 1994115 1991828 1994961 
3639.837 2005863 2024697 2049330 2075818 2099372 2115829 2122922 2120830 
3643.694 2112191 2100945 2091140 2085531 2085145 2089326 2096336 2104474 
3647.552 2113055 2122497 2134159 2149967 2171347 2198717 2231276 2267016 
3651.409 2303067 2336115 2362853 2380499 2387178 2382221 2366866 2343791 
3655.266 2317125 2291561 2271280 2259351 2256798 2262922 2275551 2291887 
3659.124 2309249 2325314 2338344 2346837 2349485 2345091 2332915 2313029 
3662.981 2286836 2256935 2226910 2200463 2180501 2168502 2164170 2165847 
3666.839 2171242 2178117 2184970 2191381 2197831 2205146 2214213 2225639 
3670.696 2240028 2258135 2281543 2312724 2354800 2410560 2481200 2564890 
3674.553 2655788 2743813 2816341 2860276 2865438 2827146 2747721 2636076 
3678.411 2506107 2373342 2251765 2151244 2075895 2024632 1992538 1973100 
3682.268 1960526 1950815 1942176 1934142 1926685 1919425 1911287 1900934 
3686.126 1887626 1871547 1854230 1838035 1825285 1817378 1814216 1814070 
3689.983 1814295 1812034 1805345 1793485 1777404 1759120 1741266 1726192 
3693.841 1715519 1709545 1707219 1706514 1704942 1700202 1691115 1677917 
3697.698 1662427 1647479 1636106 1630649 1631889 1638752 1648837 1658951 
3701.555 1666516 1670104 1669962 1667613 1665140 1664266 1665834 1669424 
3705.413 1674095 1678668 1682720 1686575 1691363 1698311 1708093 1720250 
3709.270 1733405 1745272 1753750 1757408 1756021 1750543 1742651 1734161 
3713.128 1726354 1719701 1714141 1709202 1704672 1700775 1698445 1698665 
3716.985 1702445 1710035 1720926 1733825 1746966 1758529 1767217 1772132 
3720.843 1773084 1770459 1764929 1757403 1748903 1740488 1733106 1727494 
3724.700 1724063 1722727 1723000 1724109 1725405 1726327 1726713 1726774 
3728.557 1726797 1726971 1727356 1727942 1729052 1731200 1735485 1742983 
3732.415 1754495 1769801 1787462 1804842 1818900 1826994 1827756 1821382 
3736.272 1809788 1795763 1782010 1770359 1761522 1755213 1750856 1748114 
3740.130 1747437 1749955 1756783 1768576 1784936 1804173 1823730 1840672 
3743.987 1852640 1858099 1856794 1849678 1838494 1825399 1812604 1802141 
3747.844 1795480 1793463 1795904 1801511 1808312 1813998 1816618 1815231 
3751.702 1810286 1803303 1796357 1791307 1789337 1790598 1794463 1800114 
3755.559 1806900 1814594 1823096 1832078 1840497 1846425 1847556 1841634 
3759.417 1827699 1806217 1779619 1751494 1725634 1705149 1691802 1685670 
3763.274 1685634 1689882 1696626 1704506 1712666 1720602 1727770 1733616 
3767.132 1737673 1739586 1739771 1739375 1740241 1744465 1753740 1768650 
3770.989 1788453 1810677 1831987 1848804 1858282 1859278 1852194 1839392 
3774.846 1823894 1808747 1795976 1786112 1778383 1771235 1763187 1753593 
3778.704 1743036 1732920 1725004 1720478 1719431 1720790 1722896 1723913 
3782.561 1723095 1720718 1718252 1717571 1720349 1727247 1737569 1749466 
3786.419 1760403 1767843 1769844 1765578 1755388 1740501 1723163 1705975 
3790.276 1691651 1682477 1679924 1684275 1694543 1708356 1722758 1734586 
3794.134 1741324 1741647 1735578 1724564 1711096 1698109 1688411 1684291 
3797.991 1687072 1696721 1712019 1730286 1748140 1761800 1768146 1765315 
3801.848 1753470 1734481 1711580 1688461 1668178 1652640 1642384 1636964 
3805.706 1635542 1637239 1641688 1648801 1658439 1670221 1683078 1695619 
3809.563 1706431 1714593 1719977 1723090 1725133 1727317 1730445 1734838 
3813.421 1740318 1746361 1752393 1757801 1762239 1765337 1766978 1767151 
3817.278 1766185 1764669 1763473 1763261 1764340 1766315 1768112 1768220 
3821.135 1765397 1758992 1749449 1738189 1727209 1718339 1712782 1710848 
3824.993 1711895 1714801 1718244 1721099 1722649 1722353 1719841 1714957 
3828.850 1707854 1699123 1689979 1681974 1676737 1675217 1677326 1681872 
3832.708 1686869 1690134 1690488 1687929 1684175 1681666 1682930 1689548 
3836.565 1701497 1717098 1733474 1747647 1757184 1760875 1758911 1752241 
3840.423 1742393 1730653 1718281 1706305 1695793 1688187 1684887 1687067 
3844.280 1695049 1708015 1723791 1739392 1751598 1757832 1756919 1749281 
3848.137 1737004 1723049 1710677 1702619 1700603 1705133 1715479 1730069 
3851.995 1746843 1763521 1778062 1788865 1795013 1796128 1792661 1785410 
3855.852 1775510 1764098 1752064 1740145 1728791 1718313 1708880 1700645 
3859.710 1693947 1688978 1686127 1685807 1688409 1694229 1703348 1715210 
3863.567 1728577 1741521 1751584 1756487 1754803 1746648 1733961 1720172 
3867.425 1709383 1705117 1709188 1721082 1737914 1755245 1768693 1774837 
3871.282 1772543 1762691 1747899 1731379 1716063 1704012 1696418 1693647 
3875.139 1695803 1702603 1713531 1727290 1741963 1754914 1763429 1765518 
3878.997 1760569 1749605 1735119 1720099 1707232 1698117 1692963 1691198 
3882.854 1691746 1693880 1697391 1702126 1707824 1713458 1717378 1717799 
3886.712 1713862 1705931 1696280 1688293 1685574 1690443 1703083 1721366 
3890.569 1741322 1758445 1768981 1770868 1764194 1750572 1732711 1713207 
3894.427 1694560 1678568 1666758 1660135 1659414 1664509 1674482 1687602 
3898.284 1701639 1714493 1724806 1732551 1738653 1744561 1751332 1759176 
3902.141 1767154 1773565 1776790 1775938 1771412 1764651 1757574 1751764 
3905.999 1747953 1745789 1744500 1743290 1742145 1741666 1743137 1747474 
3909.856 1754901 1764386 1774187 1782106 1786674 1787326 1784717 1780207 
3913.714 1775277 1770699 1766475 1762039 1756672 1750059 1742631 1735595 
3917.571 1730249 1727747 1728458 1732003 1737516 1744277 1751723 1759774 
3921.428 1768510 1777774 1786751 1793932 1797437 1795398 1786973 1772187 
3925.286 1752550 1730440 1708498 1689182 1674317 1664956 1661507 1663814 
3929.143 1671590 1684102 1700365 1719029 1738185 1755822 1769911 1778725 
3933.001 1781273 1777185 1767052 1751886 1733345 1713262 1693834 1676972 
3936.858 1664361 1656925 1654823 1657094 1662172 1668267 1673928 1678510 
3940.716 1682486 1687307 1694662 1706055 1722137 1742301 1764849 1787550 
3944.573 1808094 1824762 1836612 1843589 1846087 1844661 1839942 1832155 
3948.430 1821589 1808602 1793736 1777888 1762382 1748381 1736824 1728360 
3952.288 1723055 1720699 1720803 1722985 1727032 1732987 1741181 1751508 
3956.145 1763930 1777483 1790827 1802123 1809353 1810912 1805923 1794503 
3960.003 1777859 1758057 1737616 1719214 1705277 1697689 1697670 1705635 
3963.860 1721136 1742825 1768437 1794855 1818775 1836925 1847031 1848266 
3967.718 1841515 1829088 1814308 1800335 1789777 1783641 1781571 1782054 
3971.575 1783187 1783297 1781399 1777373 1771896 1765899 1760220 1755417 
3975.432 1751665 1748658 1746128 1743704 1741121 1738230 1734793 1730662 
3979.290 1725678 1719855 1713430 1707138 1701949 1699158 1700017 1705459 
3983.147 1715835 1730760 1749196 1769279 1789115 1806771 1820788 1830459 
3987.005 1835954 1838152 1838360 1837942 1838044 1839508 1842470 1846941 
3990.862 1852604 1859043 1865912 1872648 1878812 1883760 1886863 1887680 
3994.719 1886035 1882194 1876828 1870911 1865274 1860493 1856701 1853511 
3998.577 1850293 1846513 1841927 1836765 1831789 
##END=
