##TITLE=Bambu-Lab_PLA_Beige_Filament_r7_ATR-Corrected
##JCAMP-DX=5.01  $$ Nicolet v. 1
##DATATYPE=INFRARED SPECTRUM
##ORIGIN=Curtin University
##OWNER=Nicolet
##LONGDATE=2024/07/03
##TIME=11:31:32
##SPECTROMETER/DATA SYSTEM=Nicolet iS50
##DATA PROCESSING=
Ratio against background
%Transmittance->Absorbance
ATR Correction
Truncated
ElementMultiply or ElementDivide
##COMMENTS=
Number of sample scans: 32
Collection length: 47.29 sec
Sample gain: 1.0
Background collected on: Wed Jul 03 11:20:43 2024 (GMT+08:00);
Number of background scans: 32
Background gain: 1.0
Sample spacing:  1.000
Number of scan points: 16672
Resolution points: 8192
Number of FFT points: 65536
Apodization: N-B strong;
Phase correction: Mertz;
Laser frequency: 15798.3 cm-1
Number of rejected sample scans: 0
Number of rejected background scans: 0
Bench serial number: AUP1200105;
##RESOLUTION=4.000
##XUNITS=1/CM
##YUNITS=ABSORBANCE
##FIRSTX=400.163452
##LASTX=4000.187744
##FIRSTY=0.074369
##MAXX=4000.187744
##MINX=400.163452
##MAXY=1.163509
##MINY=-0.031550
##XFACTOR=1.000000
##YFACTOR=1.000000E-008
##NPOINTS=7468
##DELTAX=0.482125
##ZPD=8192
##XYDATA=(X++(Y..Y))
400.163 7436932 7304378 7169095 7035953 6905126 6775439 6644596 6511509 
404.020 6378060 6249692 6134236 6039200 5968796 5921605 5889874 5861028 
407.877 5820828 5757518 5665207 5545925 5409204 5269664 5143217 5043127 
411.734 4976682 4943824 4937492 4945837 4955357 4954386 4935665 4897559 
415.591 4843489 4779967 4713943 4650593 4592013 4537593 4485147 4432771 
419.448 4380131 4329306 4284163 4249348 4228666 4223957 4234313 4256155 
423.305 4283832 4310696 4330039 4336213 4325345 4295974 4249266 4188961 
427.162 4120789 4051676 3988574 3937489 3902448 3885121 3884624 3897943 
431.019 3920510 3947069 3972512 3992720 4005172 4009556 4007812 4003890 
434.876 4002896 4009920 4028718 4060815 4104963 4157495 4213111 4266037 
438.733 4310989 4343862 4361917 4363744 4349169 4319359 4277124 4227146 
442.590 4175933 4131159 4100438 4089904 4102777 4138773 4194228 4263188 
446.447 4338798 4414822 4486518 4550859 4606122 4651316 4685712 4708754 
450.304 4720298 4721031 4712569 4697260 4677457 4654784 4629555 4600759 
454.161 4566584 4525426 4476838 4422194 4364660 4308695 4259044 4219767 
458.017 4193494 4181217 4182457 4195836 4219625 4252159 4291821 4336856 
461.874 4384929 4432899 4476777 4511826 4534011 4540085 4528511 4499861 
465.731 4456657 4402768 4342420 4279233 4215418 4151580 4086959 4020231 
469.588 3950313 3877127 3801828 3726564 3653774 3585367 3522133 3463627 
473.445 3408560 3355521 3303718 3253374 3205576 3161726 3122702 3088267 
477.302 3056920 3026276 2993880 2958052 2918419 2876035 2832864 2791182 
481.159 2752826 2718907 2689769 2665354 2645422 2629713 2617714 2608364 
485.016 2599785 2589448 2574696 2553619 2525769 2492591 2457123 2423169 
488.873 2394192 2372309 2357834 2349525 2345251 2342969 2341316 2339853 
492.730 2338674 2337964 2337512 2336504 2334380 2330824 2326408 2322599 
496.587 2321360 2324388 2332405 2344794 2359737 2374783 2387571 2396458 
500.444 2400681 2400193 2395236 2386088 2372906 2356072 2336520 2316019 
504.301 2297028 2282149 2273327 2271140 2274419 2280568 2286273 2288564 
508.158 2285635 2277358 2265125 2251287 2238366 2228344 2222195 2219827 
512.015 2220231 2221894 2223173 2222712 2219688 2213991 2206272 2197772 
515.871 2190045 2184545 2182174 2183020 2186181 2190040 2192639 2192145 
519.728 2187362 2177966 2164572 2148660 2132295 2117888 2107845 2104231 
523.585 2108395 2120661 2140141 2164700 2191697 2218209 2241829 2261158 
527.442 2276064 2287521 2297208 2307050 2318848 2334095 2353943 2379178 
531.299 2410021 2445861 2484885 2524033 2559273 2586415 2602177 2605164 
535.156 2596334 2578729 2556507 2533635 2512723 2494462 2477845 2460940 
539.013 2441968 2420067 2395507 2369353 2342724 2316139 2289246 2261031 
542.870 2230388 2196804 2160703 2123524 2087288 2054088 2025602 2002812 
546.727 1985977 1974753 1968276 1965270 1964068 1962726 1959379 1952641 
550.584 1942109 1928607 1914079 1901121 1892148 1888731 1891064 1897954 
554.441 1907173 1916115 1922364 1924148 1920762 1912384 1900035 1885479 
558.298 1871023 1859215 1852408 1852211 1858949 1871410 1886993 1902331 
562.155 1914177 1920295 1920033 1914388 1905440 1895659 1887090 1880924 
566.012 1877466 1876495 1877678 1880929 1886415 1894393 1904865 1917353 
569.869 1930890 1944309 1956557 1967081 1975959 1983859 1991790 2000814 
573.725 2011744 2025062 2040788 2058549 2077625 2096986 2115485 2131961 
577.582 2145437 2155276 2161215 2163382 2162095 2157855 2151309 2143362 
581.439 2135316 2128936 2126281 2129323 2139317 2156340 2178986 2204658 
585.296 2230122 2252489 2269934 2282099 2289951 2295109 2299103 2302688 
589.153 2305702 2307377 2306953 2304321 2300329 2296709 2295458 2298220 
593.010 2305694 2317507 2332444 2349036 2366064 2382936 2399634 2416431 
596.867 2433454 2450410 2466535 2480899 2492753 2501945 2509021 2515099 
600.724 2521437 2529030 2538272 2548962 2560567 2572608 2585104 2598741 
604.581 2614728 2634469 2658940 2688297 2721666 2757260 2792803 2826118 
608.438 2855662 2880847 2902109 2920747 2938531 2957319 2978691 3003643 
612.295 3032328 3063999 3096925 3128640 3156272 3177271 3190079 3194760 
616.152 3193250 3189151 3186828 3190367 3202377 3223240 3251046 3282194 
620.009 3312514 3338557 3358465 3372305 3381744 3389256 3397254 3407481 
623.866 3420772 3437304 3456970 3479762 3505859 3535484 3568559 3604428 
627.723 3641745 3678764 3713688 3745178 3772599 3796115 3816433 3834542 
631.579 3851306 3867388 3883172 3898889 3914752 3931033 3948025 3965959 
635.436 3984912 4004751 4025178 4045860 4066535 4087099 4107650 4128401 
639.293 4149563 4171250 4193334 4215460 4237043 4257425 4276007 4292416 
643.150 4306566 4318716 4329298 4338804 4347571 4355769 4363453 4370742 
647.007 4378062 4386257 4396587 4410366 4428555 4451359 4478000 4506834 
650.864 4535741 4562773 4586687 4607273 4625293 4642139 4659283 4677815 
654.721 4698128 4719976 4742658 4765328 4787298 4808228 4828142 4847476 
658.578 4867016 4887893 4911444 4939089 4971963 5010699 5055183 5104605 
662.435 5157745 5213472 5271213 5331230 5394504 5462200 5534998 5612355 
666.292 5692157 5770880 5844116 5907491 5957453 5991955 6010609 6014501 
670.149 6005766 5987122 5961367 5931173 5898835 5866268 5834857 5805562 
674.006 5778930 5755274 5734832 5717939 5704999 5696438 5692501 5693083 
677.863 5697691 5705603 5716075 5728645 5743096 5759431 5777479 5796609 
681.720 5815528 5832461 5845654 5854011 5857593 5857809 5857092 5858209 
685.577 5863408 5873772 5888993 5907663 5927899 5948111 5967515 5986260 
689.433 6005122 6025000 6046314 6068740 6091178 6112177 6130414 6145130 
693.290 6156351 6164793 6171502 6177483 6183279 6188905 6193943 6197845 
697.147 6200284 6201451 6202047 6203221 6206159 6211752 6220247 6231156 
701.004 6243322 6255207 6265220 6272059 6274906 6273447 6267823 6258493 
704.861 6246041 6231148 6214486 6196680 6178155 6159072 6139183 6117830 
708.718 6094103 6067068 6036121 6001316 5963336 5923387 5882776 5842415 
712.575 5802367 5761698 5718599 5670830 5616326 5553727 5482676 5403888 
716.432 5318817 5229291 5136971 5043035 4948042 4851992 4754601 4655647 
720.289 4555249 4454082 4353351 4254634 4159525 4069341 3984839 3906192 
724.146 3833072 3765068 3701996 3644264 3592968 3549759 3516550 3495098 
728.003 3486644 3491807 3510540 3542376 3586632 3642636 3709824 3787694 
731.860 3875730 3973319 4079648 4193749 4314462 4440550 4570685 4703576 
735.717 4837936 4972683 5106931 5240087 5371771 5501695 5629460 5754396 
739.574 5875485 5991534 6101436 6204485 6300736 6391033 6476898 6560203 
743.431 6642749 6725953 6810613 6896927 6984606 7073050 7161551 7249532 
747.287 7336750 7423490 7510731 7600062 7693462 7792745 7898867 8011312 
751.144 8127746 8244230 8355891 8457983 8546828 8620498 8678731 8722423 
755.001 8752608 8769668 8772872 8760545 8730754 8682098 8614419 8528914 
758.858 8427828 8313804 8189151 8055511 7913771 7764439 7608042 7445530 
762.715 7278344 7108396 6937788 6768650 6602994 6442656 6289170 6143692 
766.572 6006690 5877875 5756093 5639616 5526566 5415458 5305631 5197305 
770.429 5091319 4988644 4889777 4794416 4701545 4609760 4517863 4425403 
774.286 4332852 4241483 4152836 4068142 3987829 3911388 3837561 3764779 
778.143 3691688 3617534 3542275 3466456 3390851 3316119 3242521 3169883 
782.000 3097668 3025280 2952304 2878739 2805005 2731864 2660172 2590609 
785.857 2523503 2458762 2396045 2334951 2275286 2217263 2161461 2108683 
789.714 2059577 2014415 1972895 1934234 1897333 1861207 1825273 1789455 
793.571 1754189 1720174 1688090 1658450 1631494 1607306 1585960 1567607 
797.428 1552457 1540629 1531937 1525794 1521230 1517130 1512541 1506995 
801.285 1500611 1494032 1488088 1483370 1480063 1477717 1475465 1472387 
805.141 1467943 1462175 1455835 1450112 1446182 1444866 1446253 1449695 
808.998 1454021 1457901 1460241 1460494 1458691 1455350 1451166 1446727 
812.855 1442384 1438212 1434160 1430284 1426864 1424429 1423611 1424917 
816.712 1428511 1434192 1441454 1449733 1458671 1468230 1478599 1489956 
820.569 1502095 1514262 1525201 1533476 1538029 1538602 1535995 1531907 
824.426 1528393 1527264 1529459 1534910 1542654 1551428 1560194 1568577 
828.283 1576894 1585904 1596283 1608289 1621522 1635131 1648222 1660277 
832.140 1671417 1682413 1694453 1708638 1725854 1746480 1770482 1797708 
835.997 1828085 1861782 1899210 1940933 1987490 2039275 2096473 2159055 
839.854 2226771 2299189 2375735 2455710 2538389 2623207 2709767 2797823 
843.711 2887091 2976933 3066035 3152311 3233017 3305242 3366531 3415512 
847.568 3452273 3478354 3496437 3509891 3522226 3536907 3557234 3586457 
851.425 3627818 3684499 3759310 3854404 3971013 4109399 4269078 4449151 
855.282 4648610 4866414 5101328 5351633 5614694 5886974 6164199 6441913 
859.139 6716008 6983279 7241416 7488986 7724852 7947906 8156867 8350352 
862.995 8527091 8686190 8827194 8950021 9054640 9140902 9208491 9257129 
866.852 9286787 9298044 9292060 9270379 9234489 9185307 9122907 9046557 
870.709 8955014 8847138 8722360 8581074 8424588 8254964 8074487 7885328 
874.566 7689242 7487415 7280670 7069578 6854676 6636733 6416839 6196408 
878.423 5977207 5761181 5550290 5346311 5150661 4964345 4787998 4622066 
882.280 4466997 4323455 4192361 4074840 3971989 3884709 3813546 3758612 
886.137 3719675 3696164 3687226 3691612 3707580 3732791 3764383 3799169 
889.994 3834115 3866724 3895397 3919613 3939706 3956622 3971395 3984865 
893.851 3997385 4008831 4018683 4026177 4030558 4031234 4027956 4020905 
897.708 4010810 3998875 3986613 3975556 3966919 3961271 3958437 3957625 
901.565 3957770 3958006 3957976 3958118 3959377 3962958 3969773 3980100 
905.422 3993493 4008987 4025406 4041842 4057829 4073458 4089085 4105037 
909.279 4121267 4137231 4151937 4164150 4172728 4176862 4176236 4170998 
913.136 4161674 4149037 4133936 4117221 4099677 4082016 4064845 4048624 
916.993 4033656 4020050 4007715 3996412 3985729 3975155 3964090 3951938 
920.849 3938124 3922251 3904131 3883924 3862026 3839120 3816019 3793563 
924.706 3772544 3753635 3737380 3724165 3714266 3707679 3704098 3702857 
928.563 3702963 3703242 3702588 3700273 3696137 3690691 3685052 3680594 
932.420 3678594 3679863 3684454 3691718 3700396 3709073 3716551 3722174 
936.277 3726037 3728877 3731922 3736489 3743657 3754048 3767797 3784568 
940.134 3803886 3825317 3848723 3874355 3902833 3934899 3971295 4012461 
943.991 4058403 4108693 4162491 4218851 4276816 4335723 4395286 4455655 
947.848 4517295 4580883 4647083 4716496 4789489 4866242 4946723 5030721 
951.705 5117821 5207339 5298182 5388827 5477221 5560901 5637131 5703146 
955.562 5756411 5794824 5816859 5821691 5809160 5779769 5734728 5675836 
959.419 5605457 5526367 5441622 5354255 5267194 5182973 5103666 5030766 
963.276 4965224 4907434 4857283 4814277 4777625 4746503 4720195 4698242 
967.133 4680480 4666940 4657577 4652067 4649585 4648769 4647983 4645690 
970.990 4640839 4633278 4623771 4613901 4605614 4600768 4600741 4606219 
974.847 4617189 4633177 4653427 4677245 4704051 4733504 4765498 4800138 
978.703 4837769 4878896 4924131 4974013 5028788 5088244 5151620 5217671 
982.560 5284857 5351728 5417150 5480554 5542006 5602103 5661881 5722641 
986.417 5785815 5852814 5924878 6002933 6087204 6177256 6271916 6369555 
990.274 6468452 6567327 6665754 6764313 6864444 6968025 7076784 7191800 
994.131 7313177 7440089 7570997 7704146 7837951 7971445 8104463 8237711 
997.988 8372760 8511837 8657445 8812072 8977661 9155235 9344728 9545074 
1001.845 9754600 9971721 10195482 10426136 10665102 10914676 11177488 
1005.220 11455747 11750799 12063003 12391938 12736875 13097167 13472560 
1008.595 13863184 14269277 14690982 15128003 15579623 16044763 16522132 
1011.970 17010334 17507884 18012912 18523086 19035456 19546476 20052452 
1015.344 20549758 21035436 21507326 21964160 22405448 22831290 23242210 
1018.719 23639186 24023456 24396636 24760548 25116882 25466978 25811622 
1022.094 26151102 26485574 26815510 27142212 27468022 27796272 28130906 
1025.469 28476018 28835464 29212614 29610508 30032134 30480490 30958728 
1028.844 31469866 32016352 32599658 33220124 33876992 34568672 35293260 
1032.219 36048644 36832544 37642084 38473356 39320976 40177976 41036084 
1035.595 41886380 42719920 43528332 44303924 45039488 45728032 46362460 
1038.970 46935700 47441064 47873008 48227636 48503256 48700228 48820604 
1042.345 48867388 48843988 48753564 48598952 48382800 48107996 47778196 
1045.720 47398348 46974760 46515064 46027704 45521232 45003740 44482384 
1049.096 43963280 43451736 42952316 42469200 42006184 41566428 41152216 
1052.471 40764744 40404040 40069252 39758976 39471708 39206244 38961928 
1055.846 38738904 38538360 38362876 38216668 38105844 38038336 38023316 
1059.221 38070484 38188996 38386688 38669484 39041516 39505352 40062800 
1062.597 40715216 41463880 42309712 43252892 44292204 45424724 46645604 
1065.972 47948356 49325348 50768496 52269624 53821212 55416316 57048940 
1069.347 58713908 60406940 62124388 63863088 65619784 67391024 69172584 
1072.722 70959696 72747128 74529760 76302656 78061152 79800184 81513712 
1076.098 83193752 84830288 86411216 87923048 89351800 90683528 91904352 
1079.473 93000360 93957552 94762192 95401496 95865312 96147056 96244376 
1082.848 96158904 95895560 95461656 94866296 94120624 93237872 92233184 
1086.223 91123328 89925328 88655784 87329856 85961208 84562240 83144520 
1089.599 81718768 80294504 78879368 77478712 76095464 74730872 73385344 
1092.974 72059384 70753928 69470208 68208824 66969188 65749264 64546032 
1096.349 63356524 62179048 61013668 59862320 58727776 57612628 56518048 
1099.724 55443616 54387636 53348096 52323736 51314716 50322740 49350580 
1103.100 48401292 47477716 46581984 45715748 44880332 44077180 43307836 
1106.475 42574112 41877876 41221056 40605576 40033460 39506868 39027984 
1109.850 38598676 38220112 37892388 37614364 37383864 37197936 37053316 
1113.225 36946768 36875196 36835664 36825296 36841236 36880868 36942196 
1116.601 37024148 37126840 37251520 37400080 37574524 37776348 38006096 
1119.976 38263264 38546456 38853516 39181728 39527704 39887176 40254584 
1123.351 40622864 40983360 41326184 41640712 41916452 42143752 42314532 
1126.726 42422800 42464800 42439108 42346268 42188408 41968648 41690468 
1130.102 41357224 40971760 40536368 40052848 39522660 38947160 38327692 
1133.477 37665592 36962144 36218588 35436148 34616140 33760280 32870814 
1136.852 31950704 31003698 30034340 29047870 28050116 27047310 26045858 
1140.227 25052128 24072134 23111330 22174486 21265524 20387856 19544352 
1143.603 18737550 17969898 17243586 16560601 15922466 15330058 14783482 
1146.978 14282085 13824506 13408899 13033216 12695445 12393790 12126807 
1150.353 11893297 11692229 11522417 11382376 11270086 11183070 11118528 
1153.728 11073782 11046621 11035692 11040652 11062060 11101048 11158899 
1157.104 11236657 11334907 11453883 11593658 11754542 11937299 12143298 
1160.479 12374469 12633096 12921657 13242762 13599265 13994397 14432089 
1163.854 14917070 15454935 16052034 16715237 17451752 18268928 19174180 
1167.229 20175034 21279044 22493908 23827362 25287130 26880706 28615022 
1170.604 30496060 32528264 34713840 37052072 39538436 42163928 44914476 
1173.980 47770236 50705064 53685976 56672816 59618224 62468456 65165264 
1177.355 67648760 69861480 71752416 73281128 74420312 75157592 75495688 
1180.730 75451752 75055464 74346368 73370600 72177040 70813552 69324400 
1184.105 67748280 66118044 64461108 62800240 61154484 59539496 57967876 
1187.481 56448984 54989160 53592068 52259392 50991692 49789088 48651624 
1190.856 47579356 46572048 45628812 44747920 43926708 43161920 42450036 
1194.231 41787696 41171888 40600044 40070068 39580084 39128428 38713508 
1197.606 38333772 37987576 37673136 37388380 37130980 36898480 36688460 
1200.982 36498788 36327612 36173440 36034756 35909792 35796268 35691304 
1204.357 35591728 35494380 35396424 35295504 35189708 35077192 34955864 
1207.732 34823156 34676076 34511544 34326852 34120028 33890076 33636892 
1211.107 33361078 33063576 32745540 32408128 32052488 31679822 31291238 
1214.483 30887800 30470472 30040202 29598094 29145598 28684664 28217704 
1217.858 27747330 27275994 26805612 26337388 25871882 25409306 24949970 
1221.233 24494586 24044428 23601096 23166178 22740832 22325464 21919776 
1224.608 21522964 21134164 20752802 20378886 20012956 19655890 19308570 
1227.984 18971644 18645280 18329356 18023566 17727686 17441734 17166070 
1231.359 16901242 16647811 16406137 16176212 15957671 15749779 15551725 
1234.734 15362664 15182012 15009326 14844313 14686680 14535984 14391626 
1238.109 14252897 14119112 13989839 13865007 13744926 13630159 13521296 
1241.485 13418671 13322230 13231491 13145719 13064161 12986363 12912205 
1244.860 12842020 12776339 12715665 12660292 12610170 12565054 12524563 
1248.235 12488415 12456557 12429081 12406258 12388241 12375150 12367009 
1251.610 12363882 12365939 12373503 12387033 12406883 12433118 12465435 
1254.986 12503015 12544775 12589626 12636630 12685283 12735476 12787439 
1258.361 12841481 12897880 12956655 13017595 13080309 13144284 13208960 
1261.736 13273732 13337870 13400474 13460393 13516317 13566798 13610487 
1265.111 13646281 13673355 13691348 13700104 13699616 13689791 13670291 
1268.487 13640541 13599701 13546903 13481398 13402703 13310701 13205607 
1271.862 13087894 12958175 12817143 12665461 12503840 12333009 12153625 
1275.237 11966274 11771349 11569058 11359426 11142549 10918730 10688701 
1278.612 10453709 10215436 9975810 9736668 9499612 9265792 9035970 8810666 
1282.470 8590446 8376004 8168380 7968949 7779391 7601535 7437197 7288113 
1286.327 7155671 7040866 6944216 6865669 6804795 6760834 6732933 6720307 
1290.185 6722299 6738336 6767776 6809713 6862816 6925381 6995377 7070739 
1294.042 7149485 7229984 7310752 7390516 7467983 7541819 7610760 7673745 
1297.899 7730223 7780124 7823939 7862399 7896207 7925811 7951325 7972674 
1301.757 7989844 8003081 8013041 8020574 8026533 8031399 8035125 8037133 
1305.614 8036557 8032588 8024821 8013437 7999094 7982836 7965728 7948643 
1309.472 7932178 7916573 7901885 7888016 7874790 7861950 7849238 7836342 
1313.329 7823026 7809184 7794934 7780588 7766674 7753695 7742153 7732382 
1317.187 7724567 7718784 7715053 7713350 7713606 7715714 7719479 7724602 
1321.044 7730812 7737876 7745768 7754616 7764774 7776709 7790919 7807938 
1324.901 7828190 7852050 7879770 7911481 7947200 7986805 8030198 8077220 
1328.759 8127974 8182741 8241952 8306215 8375995 8451524 8532720 8619187 
1332.616 8710366 8805729 8904861 9007644 9114051 9224153 9337935 9455295 
1336.474 9576070 9700114 9827408 9958124 10092544 10231021 10373912 10521465 
1340.331 10673887 10831359 10994023 11161999 11335407 11514217 11698242 
1343.706 11887264 12081058 12279488 12482635 12690690 12903942 13122584 
1347.082 13346569 13575633 13809152 14046258 14285816 14526403 14766306 
1350.457 15003575 15236132 15461989 15679444 15887287 16084704 16271147 
1353.832 16446000 16608362 16756929 16890150 17006624 17105416 17186510 
1357.207 17250856 17300236 17336920 17363318 17381630 17393690 17400876 
1360.583 17404176 17404266 17401510 17396074 17387908 17376852 17362582 
1363.958 17344586 17322042 17293636 17257298 17210100 17148414 17068144 
1367.333 16965298 16836476 16679545 16494012 16281405 16045383 15791851 
1370.708 15528962 15266892 15017526 14793831 14608955 14475350 14403640 
1374.083 14401717 14474125 14621592 14840913 15125193 15464042 15844169 
1377.459 16250081 16665012 17072016 17455284 17801092 18098568 18339732 
1380.834 18519178 18633486 18680590 18659502 18570348 18414472 18194706 
1384.209 17915302 17581784 17200472 16778108 16321507 15837260 15331635 
1387.584 14810319 14278373 13739906 13198136 12655361 12113257 11573148 
1390.960 11036397 10504764 9980412 9466076 8964773 8479749 8014256 7571294 
1394.817 7153521 6762967 6400959 6067976 5763704 5487060 5236481 5010110 
1398.675 4806072 4622601 4458152 4311269 4180521 4064374 3961187 3869275 
1402.532 3787010 3712949 3645924 3584997 3529346 3478248 3430937 3386802 
1406.389 3345470 3306899 3271401 3239500 3211637 3187834 3167644 3150102 
1410.247 3134057 3118502 3103000 3087737 3073411 3060983 3051205 3044371 
1414.104 3040245 3038179 3037436 3037446 3038012 3039274 3041581 3045285 
1417.962 3050680 3057895 3066944 3077839 3090611 3105298 3121915 3140434 
1421.819 3160848 3183188 3207639 3234550 3264374 3297530 3334237 3374489 
1425.677 3418131 3464945 3514949 3568482 3626151 3688680 3756722 3830628 
1429.534 3910498 3996331 4088326 4187087 4293770 4409976 4537545 4678264 
1433.391 4833738 5005347 5194416 5402465 5631343 5883426 6161464 6468630 
1437.249 6808243 7183755 7598509 8055512 8557147 9104658 9697846 10334637 
1441.106 11011131 11721633 12459086 13215356 13981643 14748828 15507770 
1444.481 16249737 16966754 17651890 18299396 18904536 19463452 19972936 
1447.857 20430438 20834410 21184518 21481820 21728666 21928092 22083076 
1451.232 22195932 22267710 22298280 22286492 22230632 22128806 21979272 
1454.607 21780568 21531882 21233220 20885680 20491578 20054260 19577808 
1457.982 19066360 18523812 17953696 17359396 16744444 16112840 15469100 
1461.358 14818056 14164399 13512526 12866338 12229540 11605679 10998400 
1464.733 10411297 9847685 9310208 8800611 8319798 7867939 7444907 7050353 
1468.590 6683802 6344551 6031395 5742558 5475649 5227937 4996657 4779309 
1472.448 4573967 4379385 4194968 4020717 3857072 3704720 3564448 3436973 
1476.305 3322610 3221206 3131944 3053485 2984026 2921690 2864724 2811738 
1480.163 2761802 2714400 2669450 2627115 2587796 2551978 2520111 2492516 
1484.020 2469187 2449682 2433139 2418439 2404311 2389833 2374486 2358340 
1487.877 2341850 2325737 2310660 2296988 2284752 2273748 2263613 2254071 
1491.735 2244924 2236089 2227428 2218691 2209478 2199410 2188164 2175780 
1495.592 2162643 2149453 2137032 2126075 2116886 2109334 2102905 2096954 
1499.450 2090903 2084493 2077803 2071175 2065083 2059860 2055662 2052314 
1503.307 2049472 2046731 2043782 2040471 2036793 2032864 2028738 2024480 
1507.165 2020014 2015312 2010428 2005602 2001139 1997385 1994495 1992341 
1511.022 1990412 1987970 1984272 1978826 1971620 1963170 1954437 1946474 
1514.879 1940125 1935742 1933099 1931536 1930132 1928173 1925290 1921665 
1518.737 1917763 1914268 1911755 1910422 1910141 1910461 1910787 1910541 
1522.594 1909287 1906770 1902916 1897760 1891380 1883997 1875868 1867390 
1526.452 1859002 1851124 1844132 1838177 1833238 1829104 1825420 1821771 
1530.309 1817796 1813187 1807830 1801704 1794958 1787917 1780960 1774521 
1534.167 1768941 1764474 1761147 1758874 1757415 1756461 1755668 1754702 
1538.024 1753233 1750915 1747491 1742902 1737279 1731118 1725143 1720243 
1541.881 1717185 1716427 1717903 1721121 1725222 1729320 1732733 1735244 
1545.739 1737005 1738498 1740192 1742386 1745018 1747789 1750298 1752276 
1549.596 1753738 1755085 1756923 1759927 1764553 1770982 1778989 1788112 
1553.454 1797779 1807358 1816368 1824431 1831218 1836426 1839745 1840766 
1557.311 1839114 1834396 1826402 1815110 1800777 1783929 1765398 1746122 
1561.168 1727132 1709309 1693411 1679783 1668549 1659470 1652170 1646136 
1565.026 1640927 1636178 1631632 1627154 1622662 1618130 1613547 1608914 
1568.883 1604193 1599357 1594369 1589235 1583991 1578770 1573925 1569877 
1572.741 1567106 1566034 1566792 1569156 1572535 1576098 1579043 1580804 
1576.598 1581282 1580915 1580441 1580662 1582108 1584867 1588510 1592307 
1580.456 1595429 1597385 1598071 1597893 1597580 1597933 1599515 1602446 
1584.313 1606448 1610860 1614894 1617897 1619486 1619742 1619023 1618001 
1588.170 1617372 1617793 1619653 1623126 1628058 1634045 1640602 1647191 
1592.028 1653438 1659143 1664408 1669590 1675160 1681598 1689248 1698177 
1595.885 1708212 1718926 1729843 1740491 1750555 1759855 1768313 1775848 
1599.743 1782343 1787597 1791477 1793976 1795333 1796157 1797188 1799309 
1603.600 1803171 1809119 1817056 1826587 1837108 1848122 1859325 1870667 
1607.458 1882270 1894241 1906517 1918813 1930652 1941535 1951135 1959475 
1611.315 1966853 1973885 1981168 1989187 1998086 2007723 2017608 2027214 
1615.172 2035983 2043551 2049823 2054919 2059162 2063015 2066899 2071176 
1619.030 2076075 2081657 2087861 2094527 2101436 2108444 2115389 2122123 
1622.887 2128511 2134349 2139453 2143705 2147205 2150330 2153727 2158194 
1626.745 2164391 2172654 2182742 2193894 2204948 2214784 2222699 2228602 
1630.602 2233197 2237762 2243785 2252631 2265202 2281839 2302362 2326215 
1634.459 2352614 2380622 2409207 2437145 2463090 2485587 2503226 2514812 
1638.317 2519501 2516929 2507237 2491026 2469255 2443271 2414613 2384927 
1642.174 2355737 2328346 2303577 2281792 2262785 2246105 2231151 2217490 
1646.032 2205067 2194168 2185302 2178997 2175526 2174868 2176602 2180162 
1649.889 2184908 2190287 2195868 2201288 2206197 2210262 2213166 2214789 
1653.747 2215311 2215193 2215127 2215913 2218194 2222360 2228476 2236368 
1657.604 2245665 2255965 2266800 2277829 2288684 2299036 2308656 2317390 
1661.461 2325294 2332560 2339518 2346513 2353764 2361338 2369242 2377458 
1665.319 2386096 2395469 2406065 2418368 2432778 2449318 2467643 2487173 
1669.176 2507194 2527065 2546403 2565067 2583092 2600546 2617364 2633368 
1673.034 2648320 2662018 2674500 2686011 2697064 2708251 2720143 2733041 
1676.891 2747015 2761842 2777089 2792285 2807035 2821066 2834344 2847064 
1680.749 2859625 2872571 2886523 2902137 2919980 2940466 2963903 2990335 
1684.606 3019531 3051105 3084417 3118683 3153047 3186675 3218870 3249272 
1688.463 3277960 3305485 3332924 3361625 3393067 3428479 3468714 3514031 
1692.321 3564133 3618179 3675052 3733499 3792343 3850704 3908141 3964787 
1696.178 4021316 4078953 4139211 4203653 4273700 4350327 4433913 4524319 
1700.036 4620872 4722745 4829174 4939803 5054700 5174447 5299807 5431647 
1703.893 5570590 5716979 5870894 6032241 6200903 6376959 6560664 6752404 
1707.750 6952657 7161806 7380188 7608133 7846095 8094713 8354895 8627672 
1711.608 8913960 9214349 9528881 9856927 10197448 10549174 10910860 11281567 
1715.465 11660651 12047628 12441994 12843016 13249686 13660985 14076173 
1718.841 14495282 14919244 15350072 15790398 16243181 16711029 17196056 
1722.216 17699624 18222846 18766796 19333272 19924880 20545208 21198544 
1725.591 21889584 22623156 23404170 24237516 25128406 26082150 27103942 
1728.966 28198642 29370252 30622036 31956902 33378228 34890796 36501360 
1732.342 38218428 40051332 42008516 44095948 46316116 48668084 51148880 
1735.717 53755160 56484668 59336428 62309612 65401428 68604776 71906432 
1739.092 75287016 78721472 82180848 85633504 89045776 92382176 95605688 
1742.467 98678936 101566888 104239616 106674216 108854952 110771368 
1745.360 112415376 113779320 114856168 115641592 116136968 116350904 
1748.253 116298760 115999616 115472712 114734712 113798928 112676760 
1751.146 111379576 109920392 108313688 106574432 104716424 102751208 
1754.040 100688312 98536232 96303680 94000464 91637560 89226960 86781000 
1757.415 84312264 81833432 79357728 76898376 74468168 72078456 69738520 
1760.790 67455200 65233652 63078176 60993280 58984048 57055824 55213040 
1764.165 53458100 51790632 50207444 48703280 47272320 45909224 44610048 
1767.541 43372096 42193536 41072412 40005924 38990088 38019888 37089680 
1770.916 36193664 35326220 34482148 33656528 32844842 32042834 31246760 
1774.291 30453340 29660028 28864816 28066436 27263996 26457056 25645422 
1777.666 24829084 24008426 23184192 22357870 21531730 20708900 19893252 
1781.042 19088862 18299492 17527966 16775931 16043881 15331720 14639482 
1784.417 13967973 13319106 12695791 12101255 11538240 11008237 10511300 
1787.792 10046048 9610408 9202121 8819467 8461419 8127476 7817300 7530281 
1791.649 7265055 7019572 6791123 6576850 6374157 6181136 5996779 5821135 
1795.507 5655122 5500323 5358395 5230734 5117847 5019098 4932577 4855430 
1799.364 4784284 4716005 4648129 4579391 4509548 4439282 4369579 4301437 
1803.222 4235532 4172189 4111428 4053290 3997884 3945490 3896329 3850556 
1807.079 3808029 3768292 3730452 3693503 3656212 3617407 3576072 3531530 
1810.937 3483535 3432503 3379304 3325292 3271959 3220757 3172665 3128467 
1814.794 3088611 3053636 3024298 3001525 2986216 2978668 2978169 2982713 
1818.651 2989142 2993766 2993063 2984587 2967326 2941862 2910000 2874221 
1822.509 2837025 2800578 2766319 2734997 2706698 2680921 2656765 2633198 
1826.366 2609175 2584078 2557612 2530060 2501877 2473640 2445598 2417776 
1830.224 2389956 2362087 2334370 2307504 2282338 2259609 2239287 2220557 
1834.081 2201810 2181240 2157309 2129501 2098277 2065045 2031373 1998596 
1837.938 1967376 1937855 1909928 1883793 1860042 1839625 1823201 1810866 
1841.796 1801547 1793347 1783989 1771724 1755988 1737800 1719269 1703061 
1845.653 1691152 1684347 1681650 1680871 1678959 1673207 1661819 1644617 
1849.511 1622807 1598984 1576013 1556544 1541910 1531917 1524528 1516579 
1853.368 1504697 1486460 1461204 1430732 1398666 1369605 1347619 1335077 
1857.226 1331852 1335677 1342846 1349788 1353953 1354624 1352663 1349860 
1861.083 1347834 1347449 1348149 1348624 1346990 1341839 1332479 1319430 
1864.940 1304096 1288676 1275449 1266607 1263693 1267186 1276334 1289228 
1868.798 1303006 1314621 1321414 1321975 1316255 1305594 1291929 1277295 
1872.655 1263059 1249909 1237863 1227137 1218159 1212059 1209873 1212317 
1876.513 1218838 1227687 1236022 1241034 1240701 1234554 1223612 1209948 
1880.370 1195489 1181347 1167061 1151367 1132771 1110939 1087034 1064173 
1884.228 1046365 1037361 1038980 1050497 1068371 1087404 1101908 1107869 
1888.085 1103688 1090932 1073364 1056032 1042988 1036504 1035861 1038252 
1891.942 1039564 1036374 1027068 1012702 996565 983066 975743 976340 983664 
1896.282 994444 1004258 1009597 1008893 1003241 995753 990331 990022 995995 
1900.622 1006899 1019876 1031234 1038337 1039909 1036909 1031616 1026972 
1904.479 1025475 1028623 1036145 1046677 1057606 1066129 1069529 1066092 
1908.336 1055180 1037808 1016172 993531 972973 957104 947046 942608 942128 
1912.676 943782 945892 948144 950840 955289 962385 972348 983725 993977 
1917.016 999884 999023 990239 974736 955705 937735 925446 922623 930764 
1921.355 948947 973462 998731 1018236 1025981 1017501 991185 948291 892974 
1925.695 830803 768203 710813 663107 627829 606556 599564 606641 626416 
1930.034 656710 693950 733801 771112 801673 822587 833606 836441 834553 
1934.374 831214 828728 827328 825999 822732 816963 809253 802577 800442 
1938.714 805894 819277 838231 857218 869981 870672 856746 828882 791293 
1943.053 749279 708480 672316 642537 618531 599681 585357 576184 572411 
1947.393 573728 577639 580142 575955 561865 537744 508670 483278 472462 
1951.732 484571 523243 584574 658760 732200 792438 830890 845926 841246 
1956.072 824169 801399 777178 751310 721519 685141 643654 603010 573937 
1960.412 567467 591823 647720 728388 820448 909432 983574 1039194 1079586 
1964.751 1114865 1155772 1209421 1274568 1341993 1395226 1417128 1393577 
1968.609 1319930 1201850 1055924 905104 774568 684774 648379 665063 723916 
1972.948 804649 884917 944771 975088 979674 977186 994814 1062891 1202473 
1977.288 1418398 1692313 1987378 2256439 2456557 2557835 2551159 2446361 
1981.145 2267935 2047444 1818155 1607696 1436270 1313094 1238924 1206446 
1985.003 1204185 1217880 1234127 1241137 1231815 1203490 1159633 1107742 
1988.860 1058472 1020851 1001300 999995 1012243 1029258 1042430 1045749 
1992.718 1038551 1024401 1010379 1003150 1007370 1023532 1049930 1083440 
1996.575 1122386 1166264 1216944 1274663 1337922 1399965 1451329 1480158 
2000.432 1476066 1432292 1348775 1231178 1091041 942636 802473 686307 609253 
2004.772 582353 612644 699280 833443 996677 1165316 1313777 1421703 1476076 
2009.112 1475651 1427431 1345486 1244907 1140960 1044716 964383 903110 
2012.969 861664 835774 819727 804962 784546 753363 711469 662331 612289 
2017.309 565966 524803 484218 437656 378162 305564 226730 157621 117154 
2021.648 122897 182719 293743 441103 603840 758684 887044 976186 1021441 
2025.988 1022234 983353 912064 819072 717491 622794 547997 502065 484533 
2030.327 488226 500596 511924 519528 532067 565800 639723 763243 932072 
2034.667 1123832 1306033 1444211 1515629 1515494 1459522 1375963 1297761 
2038.524 1249857 1243459 1272314 1317722 1354642 1361636 1325632 1247247 
2042.382 1137702 1016041 901759 810926 751730 725046 724978 744551 777987 
2046.721 824413 886059 966559 1065718 1176912 1284673 1369288 1411428 
2050.579 1399281 1332025 1221681 1089568 962256 864582 814511 818191 869797 
2054.918 952809 1046465 1130569 1191493 1222856 1225713 1204852 1166538 
2058.776 1114885 1052640 980300 899898 814369 730328 655878 599440 566610 
2063.115 559004 572600 600048 631850 660694 682830 699876 716802 740685 
2067.455 776794 827246 889191 956867 1022593 1080131 1125138 1156461 1174382 
2071.795 1180344 1174908 1158783 1132588 1098939 1062206 1028920 1005301 
2075.652 996397 1003271 1023843 1052720 1083836 1111742 1133428 1147761 
2079.510 1155026 1155099 1147610 1131168 1105296 1070645 1030610 989871 
2083.367 953895 926071 907302 895094 885358 873554 857761 838355 819217 
2087.707 804869 799680 805247 819953 838742 854726 860181 849476 819543 
2092.046 772232 713541 654315 607349 585714 598324 647683 727137 822743 
2096.386 915468 987455 1025905 1027624 998370 951353 901452 861872 839797 
2100.725 836513 847806 867647 889731 910085 926173 937102 942000 940349 
2105.065 931989 918651 903660 892597 890390 900691 923181 953959 985991 
2109.405 1012076 1026473 1027316 1015768 995922 971919 947120 922351 896927 
2113.744 868968 837166 800844 760895 718684 676332 635372 597553 564038 
2118.084 536245 514702 499471 489072 480964 471342 456469 432947 399076 
2122.423 354238 299826 237655 170724 102191 36587 -21066 -64831 -89602 
2126.763 -92241 -73890 -40449 -3560 22226 21328 -18357 -102906 -229359 
2131.103 -386563 -555653 -714980 -843121 -924149 -949857 -922662 -853231 
2134.960 -759227 -659844 -572800 -510172 -478801 -479261 -509968 -566589 
2138.817 -645483 -741815 -850589 -964639 -1076127 -1176247 -1259149 -1321653 
2142.675 -1366118 -1397712 -1424322 -1451350 -1481522 -1512432 -1539431 
2146.050 -1556847 -1562177 -1556574 -1546728 -1541077 -1549649 -1579025 
2149.425 -1633882 -1713827 -1815474 -1931863 -2054284 -2171417 -2273480 
2152.801 -2352418 -2407375 -2445072 -2481380 -2535550 -2625407 -2755980 
2156.176 -2914487 -3064570 -3155043 -3129659 -2949345 -2608418 -2146077 
2159.551 -1633309 -1153909 -773256 -526240 -409137 -393280 -435339 -493531 
2163.408 -533841 -535428 -488354 -394042 -260230 -100960 65782 217928 334342 
2167.748 395897 392248 321521 194005 28471 -150199 -317501 -451641 -538803 
2172.088 -572549 -555646 -496501 -408937 -308640 -212620 -135242 -88333 
2175.945 -77447 -103334 -160221 -238690 -326297 -411533 -482942 -532497 
2179.802 -553547 -543844 -503697 -438369 -356319 -269085 -186995 -118032 
2183.660 -62265 -14696 35647 98910 180988 278057 378440 463643 517525 530797 
2188.482 507853 464664 425367 411760 437248 499298 581766 659032 706870 
2192.821 709873 668622 597487 521110 464570 446986 474841 543257 637949 
2197.161 741243 835908 909832 955094 969758 954696 914869 856994 790672 
2201.500 725206 669144 626752 597661 576762 557871 536022 511268 488023 
2205.840 474115 475269 492554 519173 543765 553774 542376 511252 472442 
2210.180 443158 441202 476860 550883 654022 771489 888100 993408 1081962 
2214.519 1153250 1206636 1239989 1247801 1224589 1167642 1081434 977598 
2218.377 874043 788334 734127 716450 732712 773776 830262 894413 963200 
2222.716 1035453 1111218 1187471 1259091 1318733 1360783 1383546 1390879 
2226.574 1389878 1388862 1392704 1400951 1407360 1403049 1379380 1332723 
2230.431 1264990 1184307 1101645 1028413 973035 940297 930586 942213 971603 
2234.771 1015206 1068919 1128710 1188967 1243989 1287354 1314020 1320526 
2238.628 1306579 1274617 1230161 1180087 1132391 1094271 1071849 1068294 
2242.486 1084150 1116326 1159281 1205345 1246818 1276848 1291595 1289656 
2246.343 1273026 1245299 1211244 1174970 1140382 1109868 1085386 1067946 
2250.200 1058287 1056176 1060987 1070612 1082829 1095211 1106272 1115706 
2254.058 1124791 1135482 1149967 1168830 1191420 1215205 1237317 1254944 
2257.915 1267116 1274315 1278629 1282034 1286070 1290078 1292364 1290203 
2261.773 1282103 1268534 1252956 1240959 1239286 1253248 1285575 1334768 
2265.630 1395845 1460742 1520888 1568045 1596650 1604176 1591584 1562650 
2269.488 1523692 1482092 1445552 1420285 1410501 1417031 1437865 1468097 
2273.345 1502105 1534540 1561977 1583291 1599714 1613357 1626556 1640221 
2277.202 1654270 1667405 1678721 1688000 1696614 1706962 1722012 1743822 
2281.060 1773109 1808544 1847442 1885893 1920388 1947988 1967347 1978216 
2284.917 1981870 1980141 1975367 1969609 1964290 1959912 1956050 1951436 
2288.775 1944671 1934631 1921286 1905408 1888759 1873197 1860060 1849325 
2292.632 1839825 1829347 1815692 1797343 1774571 1749155 1724355 1703520 
2296.490 1689614 1683792 1685539 1692436 1701156 1708238 1710867 1707637 
2300.347 1698707 1685495 1670294 1655477 1643144 1634476 1629878 1628908 
2304.204 1630832 1634720 1639891 1645747 1651987 1658222 1664343 1670140 
2308.062 1675917 1682264 1690309 1701145 1715731 1734251 1755944 1779156 
2311.919 1801673 1821309 1836415 1846158 1850790 1851340 1849413 1846939 
2315.777 1845878 1847989 1854683 1866636 1883603 1904641 1928628 1954825 
2319.634 1983845 2017771 2059671 2111963 2174567 2242970 2308014 2356935 
2323.491 2376409 2356085 2291762 2186733 2051432 1900872 1751519 1617654 
2327.349 1508838 1428563 1374802 1341687 1322087 1309606 1300109 1291446 
2331.206 1282999 1274494 1265595 1255558 1244063 1231413 1219160 1209454 
2335.064 1204568 1205749 1212921 1224211 1236910 1247984 1255268 1257802 
2338.921 1256100 1251462 1245669 1240038 1235285 1231362 1227760 1223787 
2342.779 1219137 1213848 1208534 1203989 1200990 1199908 1200516 1201888 
2346.636 1202764 1201847 1198379 1192273 1184393 1175928 1168342 1162479 
2350.493 1158535 1156023 1154022 1151713 1148686 1145011 1141177 1137618 
2354.351 1134514 1131638 1128517 1124739 1120202 1115063 1109630 1103927 
2358.208 1097558 1089560 1079039 1065537 1049558 1032540 1016490 1003217 
2362.066 993433 986459 980487 973058 962464 948198 931469 914799 901035 
2366.405 892368 889687 892416 898968 907352 916112 924417 932195 939747 
2370.745 947414 955084 962575 969347 974901 978798 980767 980609 978386 
2375.084 974358 969249 964201 960542 959457 961440 966057 972108 977938 
2379.424 982203 984432 985229 985906 987922 992098 998100 1004528 1009595 
2383.764 1011657 1010251 1006131 1001275 998102 998926 1005076 1016844 
2387.621 1033307 1052793 1073130 1092175 1107967 1119252 1125579 1127503 
2391.479 1126561 1124930 1124644 1127251 1132993 1140903 1149010 1155299 
2395.336 1158155 1157409 1153700 1148593 1143580 1139609 1136569 1133929 
2399.193 1130742 1126516 1121212 1115392 1109794 1104886 1100725 1097165 
2403.051 1094030 1091674 1090855 1092700 1098121 1107394 1119741 1133780 
2406.908 1147704 1160257 1170872 1180023 1188671 1197960 1208279 1219346 
2410.766 1230128 1239372 1245878 1249144 1249207 1246479 1241412 1234189 
2414.623 1224504 1211942 1195903 1176428 1153970 1129954 1106281 1085268 
2418.480 1069042 1059386 1057127 1062157 1073508 1089492 1108014 1127244 
2422.338 1145479 1161646 1174835 1184456 1189899 1190712 1186650 1178125 
2426.195 1166434 1153895 1143271 1137441 1138383 1146686 1161202 1179388 
2430.053 1197820 1213428 1223837 1228237 1227306 1222788 1216727 1211121 
2433.910 1207127 1205237 1205100 1206098 1207472 1208633 1209060 1208270 
2437.768 1205626 1200349 1191515 1178585 1161516 1141443 1120337 1101032 
2441.625 1086448 1078962 1079633 1088171 1102839 1121150 1140321 1158300 
2445.482 1173683 1186067 1195555 1202621 1207672 1211256 1213973 1216666 
2449.340 1220427 1226259 1234647 1245479 1257689 1269774 1280022 1287429 
2453.197 1291615 1293045 1292394 1290228 1286357 1280145 1270580 1257157 
2457.055 1240313 1221826 1204257 1190523 1183013 1182643 1188710 1199000 
2460.912 1210194 1218869 1221954 1217605 1205299 1186313 1162983 1138765 
2464.770 1117118 1101152 1092396 1090851 1094772 1101279 1107161 1109864 
2468.627 1108114 1102115 1093030 1082728 1072637 1063916 1056986 1052139 
2472.484 1049656 1050108 1053806 1060757 1070089 1080203 1088996 1094785 
2476.342 1096747 1095444 1092324 1089551 1088651 1090356 1094211 1099246 
2480.199 1104499 1109730 1115402 1122506 1131625 1142385 1153017 1160926 
2484.057 1163431 1158923 1147680 1132123 1116089 1104111 1099631 1104556 
2487.914 1118529 1139440 1164081 1189287 1212515 1232368 1248543 1261327 
2491.771 1271102 1277965 1281404 1280758 1275379 1265367 1251655 1236284 
2495.629 1221788 1210792 1204978 1204868 1209452 1216900 1224845 1231513 
2499.486 1236064 1238749 1240396 1242017 1244034 1246085 1247038 1245827 
2503.344 1241679 1234887 1226524 1218375 1211971 1208325 1207424 1208555 
2507.201 1210333 1211473 1210933 1208350 1203682 1197339 1189893 1182133 
2511.059 1174967 1169574 1167022 1168374 1173976 1183730 1196647 1211306 
2514.916 1226081 1239600 1250857 1259606 1265929 1270340 1273234 1275005 
2518.773 1275807 1275536 1273854 1270398 1264778 1256764 1246517 1234711 
2522.631 1222387 1210871 1201330 1194610 1190703 1189070 1188570 1188120 
2526.488 1186781 1184282 1180793 1176937 1173504 1171246 1170834 1172854 
2530.346 1177704 1185505 1195888 1207904 1219908 1229933 1236134 1237490 
2534.203 1233955 1226878 1218176 1209939 1203790 1200382 1199573 1200762 
2538.061 1203481 1207791 1214195 1223214 1234875 1248371 1261917 1273425 
2541.918 1280977 1283768 1282171 1277853 1273150 1270415 1271372 1276902 
2545.775 1286872 1300422 1315995 1331567 1344763 1353204 1354888 1348817 
2549.633 1335418 1316935 1296756 1278856 1266569 1261712 1264011 1271608 
2553.490 1281733 1291923 1300610 1307784 1314448 1321851 1330732 1341032 
2557.348 1351602 1361105 1368364 1372861 1374914 1375319 1374883 1374214 
2561.205 1373562 1373219 1373598 1375704 1380718 1389561 1402373 1418014 
2565.063 1434283 1448365 1457965 1462116 1461650 1459029 1457466 1459896 
2568.920 1467638 1480180 1495040 1508820 1518272 1521416 1518013 1509667 
2572.777 1499107 1489305 1482541 1479855 1480944 1484490 1488400 1490711 
2576.635 1489701 1484451 1474681 1461136 1445233 1429162 1415243 1406081 
2580.492 1403322 1407914 1419289 1436042 1455933 1476892 1497177 1516155 
2584.350 1533701 1550146 1565443 1579184 1590203 1597393 1599969 1598223 
2588.207 1593503 1587971 1583742 1582280 1583549 1586325 1588309 1587490 
2592.064 1582716 1574378 1564356 1555446 1550507 1551571 1559191 1572368 
2595.922 1588813 1605608 1619792 1629085 1632243 1629218 1621117 1610009 
2599.779 1598530 1589442 1585009 1586701 1594733 1608233 1625369 1643994 
2603.637 1661989 1677865 1690763 1700635 1707706 1712554 1715633 1717388 
2607.494 1718066 1718006 1717508 1716860 1716220 1715581 1714730 1713351 
2611.352 1711130 1707966 1703994 1699634 1695544 1692438 1690886 1691268 
2615.209 1693700 1697935 1703484 1709729 1716065 1722104 1727847 1733679 
2619.066 1740228 1748172 1757873 1769095 1781037 1792508 1802113 1808968 
2622.924 1812841 1814243 1814215 1813973 1814378 1815595 1817086 1817889 
2626.781 1817090 1814187 1809442 1803838 1798843 1795996 1796369 1800487 
2630.639 1807963 1817966 1829125 1840218 1850094 1858190 1864260 1868495 
2634.496 1871313 1873111 1874199 1874533 1873952 1872128 1868856 1864196 
2638.354 1858602 1852881 1848030 1844866 1844002 1845531 1848998 1853668 
2642.211 1858570 1862896 1865888 1867136 1866444 1863792 1859304 1853301 
2646.068 1846092 1838222 1830261 1822823 1816488 1811755 1809000 1808465 
2649.926 1810113 1813752 1818695 1824068 1828587 1830883 1829779 1824404 
2653.783 1814686 1801232 1785265 1768311 1751854 1737036 1724342 1713727 
2657.641 1704600 1696213 1687860 1678949 1669151 1658313 1646247 1632881 
2661.498 1617902 1601078 1582175 1561176 1538376 1514463 1490483 1467627 
2665.355 1447091 1429843 1416347 1406532 1399836 1395473 1392576 1390492 
2669.213 1388864 1387727 1387172 1387306 1388040 1389061 1389957 1390306 
2673.070 1389867 1388638 1386719 1384332 1381515 1378229 1374261 1369636 
2676.928 1364418 1359207 1354730 1351742 1350836 1352139 1355229 1359391 
2680.785 1363706 1367439 1370193 1371941 1372907 1373433 1373706 1373683 
2684.643 1373156 1371737 1369103 1365053 1359625 1352969 1345330 1337058 
2688.500 1328415 1319651 1311038 1302855 1295464 1289241 1284586 1281912 
2692.357 1281438 1283111 1286589 1291097 1295606 1298988 1300241 1298776 
2696.215 1294628 1288481 1281475 1275026 1270428 1268486 1269418 1272818 
2700.072 1277839 1283350 1288347 1292061 1294138 1294686 1294111 1293047 
2703.930 1292073 1291633 1291827 1292420 1292967 1292880 1291687 1289323 
2707.787 1286061 1282525 1279578 1277864 1277746 1279127 1281451 1283895 
2711.645 1285631 1285978 1284544 1281355 1276703 1271157 1265565 1260743 
2715.502 1257593 1256880 1258877 1263540 1270190 1277715 1284844 1290499 
2719.359 1294198 1296168 1297218 1298478 1300896 1304810 1309737 1314621 
2723.217 1317874 1318327 1315329 1309255 1301215 1292945 1286116 1281905 
2727.074 1280789 1282322 1285436 1288761 1291036 1291566 1290295 1287806 
2730.932 1285079 1283193 1282934 1284653 1288174 1293025 1298610 1304380 
2734.789 1310089 1315533 1320467 1324587 1327177 1327456 1324755 1318833 
2738.646 1310349 1300615 1291503 1284939 1282357 1284152 1289722 1297553 
2742.504 1305691 1312352 1316305 1317281 1315766 1312944 1310093 1308383 
2746.361 1308475 1310397 1313600 1317163 1320055 1321538 1321365 1319883 
2750.219 1317977 1316799 1317214 1319565 1323253 1327008 1329076 1327934 
2754.076 1322732 1313662 1302015 1289747 1278962 1271146 1267066 1266466 
2757.934 1268322 1271269 1273939 1275243 1274551 1271621 1266565 1259778 
2761.791 1251926 1244034 1237074 1232064 1229661 1229931 1232339 1235858 
2765.648 1239369 1241910 1243191 1243630 1244236 1246177 1250444 1257475 
2769.506 1266902 1277798 1288709 1298250 1305270 1309202 1310042 1308403 
2773.363 1305119 1301305 1297917 1295745 1295106 1296046 1298233 1301100 
2777.221 1304154 1306901 1308980 1310324 1311110 1311672 1312468 1314027 
2781.078 1316845 1321070 1326685 1333198 1339768 1345474 1349410 1351165 
2784.936 1350885 1349355 1347676 1347060 1348319 1351653 1356716 1362668 
2788.793 1368623 1373991 1378473 1382245 1385561 1388794 1391990 1395169 
2792.650 1398293 1401361 1404609 1408326 1412718 1417834 1423280 1428568 
2796.508 1433183 1436900 1439886 1442695 1446059 1450512 1456272 1462945 
2800.365 1470005 1476814 1482922 1488373 1493367 1498399 1503622 1508968 
2804.223 1514072 1518445 1521764 1523908 1525215 1526249 1527481 1529194 
2808.080 1531304 1533376 1534826 1535203 1534297 1532477 1530495 1529475 
2811.938 1530652 1535048 1543163 1554907 1569470 1585380 1600978 1614663 
2815.795 1625395 1633030 1638266 1642557 1647692 1655233 1666138 1680607 
2819.652 1698058 1717355 1737106 1756100 1773329 1788195 1800381 1810000 
2823.510 1817421 1823334 1828708 1834502 1841580 1850392 1860880 1872352 
2827.367 1883829 1894369 1903400 1910921 1917625 1924561 1932852 1943272 
2831.225 1956059 1970996 1987534 2005089 2023331 2042278 2062198 2083524 
2835.082 2106474 2131100 2157000 2183718 2210748 2237936 2265474 2294005 
2838.939 2324488 2357970 2395205 2436599 2482084 2531329 2583802 2639229 
2842.797 2697837 2760501 2828654 2904092 2988456 3083062 3188308 3303740 
2846.654 3427919 3558516 3692336 3825615 3953829 4072111 4175476 4259247 
2850.512 4319590 4354178 4362302 4345257 4305896 4248300 4177100 4096798 
2854.369 4011501 3924458 3838052 3753735 3672314 3594019 3518628 3445859 
2858.227 3375423 3307416 3242312 3180944 3124376 3073683 3029648 2992577 
2862.084 2962098 2937433 2917358 2900514 2885560 2871408 2857506 2843815 
2865.941 2831004 2820318 2813418 2811996 2817542 2830712 2851472 2878907 
2869.799 2911651 2948300 2987718 3029287 3072931 3118857 3167111 3217615 
2873.656 3269906 3323380 3377412 3431613 3485747 3539677 3592962 3644901 
2877.514 3694327 3740034 3780927 3816457 3846646 3871991 3893086 3910152 
2881.371 3922913 3930476 3931853 3926311 3913888 3895637 3873419 3849444 
2885.229 3825732 3803573 3783422 3764893 3747297 3730141 3713297 3697455 
2889.086 3683640 3673223 3667191 3665989 3669520 3677076 3687704 3700557 
2892.943 3715073 3731186 3749183 3769609 3792951 3819418 3848789 3880284 
2896.801 3912727 3944853 3975352 4003508 4029052 4052535 4074959 4097751 
2900.658 4122192 4149349 4179640 4213010 4248737 4286136 4324395 4363086 
2904.516 4402100 4441697 4482275 4524178 4567655 4612758 4659482 4708037 
2908.373 4758998 4813489 4872990 4939304 5014241 5099419 5195925 5304457 
2912.230 5425202 5557978 5702012 5856123 6018357 6186053 6355861 6523959 
2916.088 6686576 6840335 6982942 7113165 7230932 7337011 7432299 7517507 
2919.945 7592782 7657518 7710645 7751091 7778255 7792335 7794412 7786616 
2923.803 7771473 7751611 7729220 7705807 7681887 7657335 7631659 7604340 
2927.660 7575341 7545404 7516069 7489399 7467748 7453155 7447083 7450068 
2931.518 7461963 7481774 7508324 7540589 7577893 7620328 7668552 7723823 
2935.375 7787706 7861951 7947995 8046902 8159142 8284353 8421402 8568271 
2939.232 8722246 8879982 9037763 9191757 9338118 9473420 9594581 9699242 
2943.090 9785640 9852695 9899969 9927398 9935150 9923636 9893083 9843865 
2946.947 9776448 9691643 9590636 9475254 9347655 9210379 9065790 8916017 
2950.805 8762792 8607341 8450641 8293572 8137232 7982938 7832173 7686341 
2954.662 7546536 7413468 7287069 7166998 7052684 6943669 6839963 6741926 
2958.520 6650189 6565237 6487141 6415181 6347906 6283417 6219774 6155504 
2962.377 6090052 6023925 5958323 5894955 5835401 5780684 5731171 5686435 
2966.234 5645707 5608098 5572654 5538863 5506280 5474618 5443713 5413493 
2970.092 5384133 5356185 5330604 5308663 5291559 5280188 5274672 5274429 
2973.949 5278292 5284999 5293578 5303895 5316671 5333471 5356086 5386085 
2977.807 5424320 5470648 5524145 5583379 5646969 5714201 5785102 5860819 
2981.664 5943087 6034075 6135745 6249660 6376710 6517044 6670335 6835907 
2985.521 7012973 7200869 7398793 7605903 7821105 8042774 8268742 8496292 
2989.379 8722349 8943522 9156546 9358271 9545840 9716769 9869012 10000914 
2993.236 10111506 10200264 10267331 10313359 10339170 10345767 10333913 
2996.612 10304181 10256901 10192461 10111421 10014831 9904086 9781083 
2999.987 9647742 9505836 9356692 9201366 9040359 8874208 8703411 8528741 
3003.844 8351119 8171513 7990651 7809159 7627231 7445121 7263071 7081716 
3007.702 6902078 6725405 6553096 6386196 6225473 6070840 5921771 5777309 
3011.559 5636190 5497159 5358897 5220375 5080712 4939536 4796967 4653939 
3015.417 4512274 4374376 4242917 4120287 4007896 3905784 3812646 3726109 
3019.274 3643440 3562400 3481847 3401997 3324356 3250874 3183297 3122503 
3023.131 3068085 3018408 2971266 2924269 2875604 2824433 2770900 2715857 
3026.989 2660482 2606115 2553831 2504486 2458763 2417224 2380436 2348749 
3030.846 2322117 2300071 2281722 2265700 2250543 2234964 2217910 2199146 
3034.704 2178549 2156517 2133419 2109674 2085404 2060896 2036344 2012269 
3038.561 1989457 1968790 1951041 1936601 1925122 1915634 1906583 1896323 
3042.418 1883709 1868260 1850538 1831830 1813805 1797913 1784923 1774711 
3046.276 1766462 1758987 1751244 1742978 1734290 1726162 1719558 1715254 
3050.133 1713478 1714025 1716283 1719647 1723771 1728449 1733518 1738589 
3053.991 1742821 1744890 1743494 1737533 1726924 1712732 1697059 1682667 
3057.848 1672200 1667364 1668540 1674582 1683110 1691190 1696048 1695986 
3061.706 1690490 1680656 1668630 1657281 1649289 1646640 1650127 1659147 
3065.563 1671821 1685694 1697988 1706489 1709877 1707931 1701394 1691723 
3069.420 1680515 1669234 1658959 1650216 1643191 1637761 1633866 1631370 
3073.278 1630245 1630553 1632283 1635272 1639179 1643439 1647318 1650105 
3077.135 1651200 1650354 1647804 1644293 1640574 1637475 1635200 1633369 
3080.993 1630907 1626563 1619469 1609716 1598504 1588085 1580951 1579120 
3084.850 1583204 1592130 1603336 1613521 1619705 1620041 1614392 1604112 
3088.708 1591345 1578254 1566331 1556113 1547292 1539277 1531705 1524649 
3092.565 1518690 1514459 1512446 1512578 1514255 1516607 1518689 1519870 
3096.422 1519806 1518330 1515484 1511257 1505564 1498656 1490966 1483286 
3100.280 1476568 1471595 1468655 1467356 1466649 1465256 1462158 1456959 
3104.137 1449991 1442471 1435728 1431063 1429091 1429697 1432166 1435354 
3107.995 1438273 1440213 1441009 1441066 1440998 1441430 1442799 1445190 
3111.852 1448061 1450620 1451950 1451309 1448593 1444385 1439988 1437144 
3115.709 1437367 1441356 1448760 1457826 1465903 1470245 1468738 1460765 
3119.567 1447315 1431063 1415320 1403533 1398044 1399692 1407685 1419801 
3123.424 1433082 1444464 1451603 1453418 1449885 1442561 1433655 1425564 
3127.282 1420213 1418443 1419824 1422819 1425228 1425038 1421108 1413540 
3131.139 1403673 1393512 1384962 1379398 1377073 1377536 1379825 1383269 
3134.997 1387689 1393423 1400943 1410398 1421211 1432039 1441221 1447317 
3138.854 1449652 1448623 1445408 1441582 1438364 1436376 1435534 1435502 
3142.711 1436006 1437132 1439426 1443531 1449523 1456759 1463788 1468911 
3146.569 1470622 1468392 1462746 1455221 1447432 1440663 1435094 1430062 
3150.426 1424301 1416807 1407477 1397322 1388240 1382438 1381477 1385721 
3154.284 1394167 1404729 1414946 1422726 1427011 1427789 1425957 1422803 
3158.141 1419383 1416216 1413090 1409467 1404859 1399265 1393469 1389079 
3161.999 1388137 1392551 1403413 1420549 1442300 1465608 1486722 1501971 
3165.856 1508414 1504794 1491605 1471148 1446975 1423159 1403414 1390442 
3169.713 1385286 1387290 1394250 1403091 1410449 1413817 1411972 1405420 
3173.571 1396234 1387299 1381529 1380825 1385498 1394297 1404725 1414254 
3177.428 1420988 1424576 1426165 1428009 1432249 1440270 1451743 1464935 
3181.286 1476886 1484686 1486339 1481320 1470895 1457611 1444602 1434798 
3185.143 1430143 1431543 1438319 1449045 1461461 1473306 1482561 1488028 
3189.000 1489460 1487751 1484611 1482047 1481833 1485049 1491580 1500498 
3192.858 1510285 1519519 1527452 1534124 1540189 1546384 1552924 1559219 
3196.715 1563610 1564050 1558853 1547227 1529747 1508332 1485660 1464495 
3200.573 1446949 1434158 1426143 1422296 1421663 1423443 1427077 1432419 
3204.430 1439403 1447795 1457210 1467025 1476479 1484862 1491583 1496373 
3208.288 1499015 1499499 1498037 1494929 1490714 1486089 1481968 1479222 
3212.145 1478487 1480053 1483665 1488644 1493969 1498607 1501836 1503439 
3216.002 1503880 1504213 1505753 1509815 1517198 1527924 1541071 1554902 
3219.860 1567206 1575782 1579072 1576459 1568382 1556407 1542486 1528810 
3223.717 1517129 1508491 1503273 1501111 1501422 1503321 1506063 1508958 
3227.575 1511280 1512371 1511613 1508562 1503066 1495470 1486552 1477395 
3231.432 1468992 1462200 1457278 1454184 1452528 1452052 1452799 1455235 
3235.290 1460033 1467802 1478541 1491583 1505355 1517865 1526897 1530965 
3239.147 1529251 1522013 1510433 1496247 1481406 1467876 1457219 1450695 
3243.004 1448837 1451778 1458803 1468719 1479823 1490475 1499304 1505735 
3246.862 1509937 1512783 1515150 1517714 1520257 1521864 1521121 1517026 
3250.719 1509140 1498270 1486070 1474617 1465547 1459742 1456713 1455382 
3254.577 1454312 1452566 1450112 1447711 1446464 1447343 1450447 1454926 
3258.434 1459319 1462186 1462664 1461003 1458480 1456938 1458104 1463003 
3262.292 1471476 1482486 1494483 1506004 1516217 1525089 1533155 1541202 
3266.149 1549645 1558255 1566081 1571774 1574010 1572139 1566392 1557982 
3270.006 1548715 1540530 1534864 1532285 1532303 1533701 1534936 1534745 
3273.864 1532515 1528311 1522987 1517661 1513409 1510976 1510683 1512595 
3277.721 1516385 1521713 1528096 1534965 1541550 1547083 1550783 1552308 
3281.579 1551777 1549807 1547484 1545919 1545816 1547352 1550032 1553219 
3285.436 1556144 1558496 1560508 1562609 1565282 1568662 1572373 1575655 
3289.293 1577737 1578233 1577505 1576557 1576733 1579346 1585069 1593872 
3293.151 1604886 1616852 1628458 1638788 1647299 1653903 1658762 1662110 
3297.008 1663989 1664497 1663491 1660993 1657089 1651946 1645916 1639565 
3300.866 1633288 1627664 1622945 1619198 1616059 1612975 1609181 1604213 
3304.723 1598058 1591337 1585169 1580826 1579107 1580101 1582836 1585715 
3308.581 1586811 1584881 1579435 1571283 1561932 1553188 1546305 1541661 
3312.438 1538591 1535653 1531161 1523849 1513251 1499953 1485266 1471097 
3316.295 1459257 1451144 1447502 1448012 1451721 1457186 1462574 1466731 
3320.153 1468811 1468935 1467648 1465804 1464071 1462616 1461059 1458813 
3324.010 1455287 1450502 1445071 1440151 1436887 1436093 1437838 1441587 
3327.868 1446317 1451272 1456061 1460885 1466223 1472320 1478810 1484733 
3331.725 1488551 1488833 1484820 1476645 1465378 1452690 1440257 1429473 
3335.583 1421030 1415175 1411751 1410571 1411356 1413815 1417504 1421887 
3339.440 1426338 1430366 1433836 1436894 1439740 1442520 1444987 1446516 
3343.297 1446321 1443968 1439588 1434065 1428552 1424213 1421429 1419865 
3347.155 1418468 1416096 1412055 1406668 1401034 1396664 1394725 1395486 
3351.012 1397940 1400338 1400686 1397556 1390545 1380392 1368745 1357466 
3354.870 1348361 1342720 1341421 1344846 1352829 1364722 1379248 1394587 
3358.727 1408641 1419485 1425793 1427459 1425269 1420807 1415657 1410979 
3362.584 1407131 1403812 1400559 1397114 1393724 1391155 1390150 1391160 
3366.442 1393836 1397268 1400273 1402084 1402477 1402069 1401830 1402673 
3370.299 1404971 1408430 1412252 1415601 1417834 1418793 1418634 1417663 
3374.157 1415812 1412910 1408697 1403083 1396654 1390552 1386153 1384905 
3378.014 1387464 1393651 1402451 1412193 1421066 1427523 1430430 1429220 
3381.872 1423846 1414782 1402966 1389914 1377426 1367504 1361745 1361011 
3385.729 1365099 1372733 1381831 1390230 1396002 1398185 1396649 1392257 
3389.586 1386299 1380397 1375989 1374314 1376018 1381171 1389048 1398404 
3393.444 1407558 1415013 1419824 1422160 1423010 1424053 1426732 1431934 
3397.301 1439116 1446914 1453510 1457434 1458221 1456654 1454278 1452663 
3401.159 1452653 1453872 1454989 1454466 1451177 1445347 1438388 1432589 
3405.016 1430229 1432562 1439579 1449835 1461075 1471190 1478651 1482955 
3408.874 1484511 1484196 1482888 1481101 1478879 1475983 1471956 1466489 
3412.731 1459445 1451064 1441983 1433118 1425610 1420728 1419614 1422683 
3416.588 1429672 1439202 1449135 1456876 1459918 1456623 1446475 1430410 
3420.446 1410509 1389655 1370962 1357276 1350693 1352119 1361340 1376805 
3424.303 1396031 1416056 1433911 1447201 1454615 1455874 1451734 1443578 
3428.161 1432852 1420977 1409087 1398262 1389614 1384337 1383717 1388536 
3432.018 1398671 1412931 1428918 1443683 1454363 1459267 1458081 1452240 
3435.875 1444490 1437864 1435077 1437486 1445024 1456316 1468969 1480545 
3439.733 1488913 1492725 1491541 1485647 1475882 1463213 1448733 1433559 
3443.590 1418786 1405772 1395843 1390485 1390818 1397513 1410387 1428397 
3447.448 1449724 1472144 1493420 1511749 1525884 1535093 1539026 1537636 
3451.305 1530930 1519371 1503882 1486252 1468944 1454694 1445964 1444259 
3455.163 1449616 1460732 1475505 1491603 1507336 1522092 1536089 1549930 
3459.020 1563891 1577521 1589616 1598562 1603038 1602624 1597990 1590688 
3462.877 1582654 1575395 1569793 1566045 1563885 1563198 1564181 1567520 
3466.735 1573797 1583210 1595110 1608061 1620028 1629362 1635120 1637637 
3470.592 1638306 1639255 1642552 1649514 1660432 1674287 1689264 1703292 
3474.450 1714542 1722116 1726106 1727696 1728646 1730995 1736386 1745556 
3478.307 1758261 1773303 1788945 1803485 1815766 1825542 1833243 1840106 
3482.165 1847192 1855414 1865111 1876213 1888558 1902182 1917470 1935280 
3486.022 1956208 1980633 2008182 2037629 2067137 2094806 2118972 2138845 
3489.879 2154328 2166250 2175876 2184743 2194083 2204834 2217326 2231338 
3493.737 2246284 2261352 2275732 2288789 2300110 2309507 2316836 2321932 
3497.594 2324488 2324314 2321598 2317221 2312702 2310277 2311902 2319217 
3501.452 2332258 2349711 2369174 2387831 2403595 2415696 2424853 2432903 
3505.309 2441758 2452481 2464789 2476878 2486135 2490069 2487197 2477484 
3509.167 2462049 2442937 2422180 2401255 2381000 2361676 2343234 2325772 
3513.024 2309558 2294950 2282170 2271160 2261496 2252480 2243367 2233554 
3516.881 2222723 2210897 2198512 2186290 2175095 2165944 2159439 2155619 
3520.739 2153595 2151642 2147487 2139131 2125659 2107759 2087714 2068909 
3524.596 2054327 2045718 2042529 2042347 2041572 2037067 2027303 2013142 
3528.454 1997132 1982705 1972279 1966508 1963767 1961239 1955913 1946486 
3532.311 1933726 1920490 1910629 1907357 1912170 1924159 1940221 1956253 
3536.168 1968196 1973306 1970501 1960311 1944218 1924181 1901969 1879125 
3540.026 1856812 1835980 1817473 1802025 1789982 1781308 1775221 1770606 
3543.883 1765894 1759708 1751074 1739954 1727300 1715084 1705716 1701670 
3547.741 1704456 1714400 1730041 1748650 1766850 1781642 1791131 1795040 
3551.598 1794415 1791087 1786567 1781474 1775249 1766640 1754337 1738136 
3555.456 1719228 1700139 1684108 1674032 1671340 1675845 1685606 1697898 
3559.313 1709777 1719359 1725806 1729488 1731440 1732963 1734988 1737813 
3563.170 1741069 1744015 1745600 1744977 1741724 1736022 1728706 1721126 
3567.028 1714893 1711301 1711054 1714118 1719599 1726336 1733196 1739578 
3570.885 1745341 1750866 1756440 1762100 1767235 1771054 1772598 1771651 
3574.743 1768356 1763455 1757522 1750821 1742752 1732428 1718950 1702401 
3578.600 1683824 1665472 1649670 1638193 1631220 1627411 1624285 1619707 
3582.458 1612418 1603027 1593647 1587120 1585473 1589478 1597937 1608595 
3586.315 1618656 1626210 1630560 1632329 1632440 1631927 1630932 1629072 
3590.172 1625685 1620458 1614052 1607716 1602905 1600607 1600617 1601783 
3594.030 1602094 1599637 1593318 1583170 1570325 1556526 1543616 1533122 
3597.887 1525804 1521915 1521180 1522973 1526441 1530488 1533861 1535669 
3601.745 1535501 1533791 1531790 1531103 1533068 1538181 1545527 1553249 
3605.602 1558971 1561026 1558808 1553356 1546719 1541180 1538307 1538428 
3609.459 1540408 1542474 1542970 1541026 1536954 1531963 1527479 1524600 
3613.317 1523462 1523520 1523808 1523697 1523150 1523208 1525311 1531116 
3617.174 1541668 1557125 1576402 1597636 1618189 1635586 1647621 1653198 
3621.032 1652036 1645127 1634469 1622511 1611909 1604907 1602974 1606924 
3624.889 1616274 1630178 1647219 1665699 1683846 1699765 1711934 1719405 
3628.747 1722113 1721406 1719786 1720525 1726628 1739909 1760202 1785153 
3632.604 1810588 1831846 1844975 1847997 1841322 1827689 1810958 1795285 
3636.461 1783545 1777164 1776096 1779330 1785539 1793982 1804550 1817890 
3640.319 1834724 1855714 1880643 1908648 1937814 1965892 1990463 2009762 
3644.176 2022782 2029923 2032626 2033238 2034082 2036945 2042404 2049811 
3648.034 2057515 2063799 2067416 2068632 2068661 2069608 2073202 2080242 
3651.891 2089748 2099257 2105740 2106607 2100591 2088503 2072915 2057839 
3655.749 2047166 2043927 2049486 2063258 2082991 2105346 2126605 2143424 
3659.606 2153280 2154916 2148402 2135038 2117173 2097755 2079810 2066252 
3663.463 2059110 2059688 2068064 2083369 2103516 2125528 2145777 2160614 
3667.321 2166909 2163030 2149234 2127859 2102958 2079544 2062485 2055857 
3671.178 2062583 2084828 2124403 2183106 2262321 2362014 2478905 2605440 
3675.036 2729061 2834004 2903903 2925993 2894219 2811123 2687074 2537877 
3678.893 2380802 2230996 2098648 1988312 1899484 1828902 1772591 1727717 
3682.750 1693018 1668402 1653724 1647724 1647804 1650290 1651295 1647970 
3686.608 1639029 1625100 1608047 1590350 1574205 1561093 1551471 1545280 
3690.465 1542025 1541190 1542329 1545112 1549020 1553422 1557604 1560748 
3694.323 1562175 1561514 1558800 1554589 1549686 1545275 1542422 1542128 
3698.180 1544729 1550016 1556925 1563898 1569091 1571029 1568831 1562732 
3702.038 1553870 1544114 1535471 1529515 1527100 1528178 1531884 1537177 
3705.895 1542745 1547583 1551045 1552636 1552081 1549157 1543676 1535874 
3709.752 1526371 1516455 1507730 1501856 1500240 1503426 1510910 1521314 
3713.610 1532690 1543213 1551552 1557395 1561314 1564438 1568098 1573238 
3717.467 1579934 1587454 1594428 1599301 1600753 1598185 1591832 1582987 
3721.325 1573406 1565181 1560241 1559945 1564643 1573690 1585445 1597439 
3725.182 1606808 1610881 1607710 1596608 1578434 1555580 1531353 1509467 
3729.040 1493289 1484990 1485194 1493133 1506575 1522830 1539004 1552923 
3732.897 1563338 1569910 1573185 1574201 1574054 1573770 1573948 1574976 
3736.754 1576917 1579809 1583626 1588358 1593917 1600240 1606916 1613405 
3740.612 1618908 1622697 1624108 1622777 1618728 1612499 1604991 1597355 
3744.469 1590608 1585613 1582772 1581936 1582603 1584186 1585781 1587026 
3748.327 1587318 1586494 1584365 1580730 1575451 1568538 1560082 1550783 
3752.184 1541582 1533823 1528861 1527827 1531200 1538705 1549239 1561233 
3756.042 1572830 1582319 1588480 1590682 1588950 1584011 1576896 1569100 
3759.899 1562107 1557376 1555953 1558241 1563713 1570936 1577608 1581159 
3763.756 1579296 1570671 1555257 1534829 1512207 1490917 1474258 1464573 
3767.614 1462620 1467783 1478049 1490525 1502235 1510735 1514610 1513845 
3771.471 1509789 1504924 1502354 1504867 1514358 1531249 1554153 1580237 
3775.329 1605687 1626788 1640643 1645618 1641695 1630185 1613187 1593444 
3779.186 1573558 1556148 1543387 1536706 1536813 1543257 1554218 1567195 
3783.043 1579100 1587642 1591794 1592300 1591149 1591009 1593745 1599711 
3786.901 1607175 1613006 1613705 1606851 1592085 1571259 1547793 1525605 
3790.758 1507699 1495468 1488572 1485528 1484627 1484790 1485663 1487514 
3794.616 1490481 1494160 1497547 1499274 1498563 1495770 1492760 1492442 
3798.473 1497686 1510336 1529979 1554000 1577891 1596668 1606281 1604945 
3802.331 1593790 1576361 1557696 1542780 1535062 1535664 1543163 1553986 
3806.188 1563540 1567545 1563235 1550228 1530354 1507510 1486154 1470551 
3810.045 1463528 1466325 1478396 1497976 1522650 1549858 1577153 1602317 
3813.903 1623215 1637893 1644662 1642648 1632067 1614397 1592282 1568963 
3817.760 1547289 1529354 1516076 1507457 1502832 1501579 1503276 1507681 
3821.618 1514478 1522771 1530951 1536808 1538268 1533807 1523296 1508167 
3825.475 1490900 1474692 1462202 1455160 1453885 1457548 1464488 1473106 
3829.333 1481907 1490120 1497261 1503289 1508141 1511956 1514799 1516963 
3833.190 1518768 1520818 1523497 1527265 1532317 1538679 1546249 1554821 
3837.047 1563986 1573282 1581952 1589020 1593406 1594299 1591237 1584462 
3840.905 1574743 1563417 1551960 1541644 1533357 1527355 1523601 1521749 
3844.762 1521387 1522246 1524121 1526884 1530420 1534535 1539140 1544467 
3848.620 1550915 1559181 1569752 1582748 1597307 1611755 1623398 1629336 
3852.477 1627233 1616042 1596677 1571922 1545810 1522597 1505592 1496371 
3856.334 1494431 1497712 1503251 1508094 1510153 1508613 1503770 1496874 
3860.192 1489448 1483143 1479160 1478518 1481814 1489371 1501076 1516233 
3864.049 1533631 1551486 1567978 1581580 1591203 1596665 1598119 1596080 
3867.907 1590884 1582738 1571989 1559322 1546344 1535381 1529049 1529330 
3871.764 1536719 1549715 1565021 1578195 1585193 1583537 1573135 1556250 
3875.622 1536681 1518497 1504650 1496374 1493035 1492922 1494067 1495096 
3879.479 1495463 1495364 1495316 1495554 1495818 1495653 1494671 1493104 
3883.336 1491810 1492125 1495387 1502196 1512084 1523612 1534715 1543626 
3887.194 1549341 1552055 1552924 1553454 1554817 1557286 1560055 1561627 
3891.051 1560376 1555287 1546708 1536267 1526552 1520442 1520109 1526234 
3894.909 1537921 1552699 1567052 1577683 1581775 1577995 1566524 1548938 
3898.766 1527700 1505613 1485503 1469471 1458950 1454763 1456729 1464160 
3902.624 1475870 1490481 1506740 1523540 1540228 1556347 1571440 1584892 
3906.481 1595605 1602270 1603696 1599202 1589151 1575086 1559305 1544150 
3910.338 1531346 1521206 1512673 1503771 1492567 1478052 1460749 1442868 
3914.196 1427326 1416987 1413420 1416590 1424863 1435913 1447503 1458546 
3918.053 1469227 1480670 1494382 1510943 1529736 1548798 1565193 1576111 
3921.911 1579571 1575292 1564611 1550322 1535924 1524568 1518720 1519497 
3925.768 1526797 1539651 1556395 1575390 1595088 1614295 1631851 1646838 
3929.625 1658214 1664992 1666564 1662704 1653833 1641184 1626206 1610527 
3933.483 1595333 1581190 1568227 1556302 1545335 1535722 1528080 1523161 
3937.340 1521149 1521612 1523326 1524960 1525437 1524715 1523808 1524574 
3941.198 1528661 1536806 1548118 1560342 1570460 1575861 1575684 1570773 
3945.055 1563829 1558044 1555938 1558557 1564910 1572664 1579113 1582303 
3948.913 1581546 1577777 1572753 1568625 1566888 1568361 1573071 1580611 
3952.770 1590188 1600879 1611401 1620141 1625245 1625113 1618974 1607449 
3956.627 1592600 1577670 1566019 1560096 1560551 1566075 1573812 1580267 
3960.485 1582604 1579433 1571122 1559550 1547433 1537301 1531037 1529447 
3964.342 1532310 1538712 1547330 1556667 1565475 1572721 1577727 1580533 
3968.200 1581614 1581859 1582383 1583943 1586790 1590461 1593868 1595907 
3972.057 1595849 1593837 1590869 1588670 1589036 1593109 1600892 1610991 
3975.915 1621026 1628111 1629785 1624861 1613551 1597782 1580360 1564667 
3979.772 1553547 1548878 1551435 1560620 1575053 1592873 1612044 1630755 
3983.629 1647407 1660920 1670505 1676000 1677816 1677139 1675408 1674303 
3987.487 1675053 1678030 1682570 1687150 1689637 1688346 1682222 1671624 
3991.344 1657807 1642813 1628604 1616623 1607484 1601107 1596799 1594067 
3995.202 1592456 1591967 1592760 1595037 1598998 1604659 1612179 1621640 
3999.059 1633043 1646135 1659953 1672974 
##END=
