##TITLE=Bambu-Lab_ABS_White_Filament_r5_ATR-Corrected
##JCAMP-DX=5.01  $$ Nicolet v. 1
##DATATYPE=INFRARED SPECTRUM
##ORIGIN=Curtin University
##OWNER=Nicolet
##LONGDATE=2024/07/03
##TIME=13:56:29
##SPECTROMETER/DATA SYSTEM=Nicolet iS50
##DATA PROCESSING=
Ratio against background
%Transmittance->Absorbance
ATR Correction
Truncated
ElementMultiply or ElementDivide
##COMMENTS=
Number of sample scans: 32
Collection length: 47.28 sec
Sample gain: 1.0
Background collected on: Wed Jul 03 13:54:33 2024 (GMT+08:00);
Number of background scans: 32
Background gain: 1.0
Sample spacing:  1.000
Number of scan points: 16672
Resolution points: 8192
Number of FFT points: 65536
Apodization: N-B strong;
Phase correction: Mertz;
Laser frequency: 15798.3 cm-1
Number of rejected sample scans: 0
Number of rejected background scans: 0
Bench serial number: AUP1200105;
##RESOLUTION=4.000
##XUNITS=1/CM
##YUNITS=ABSORBANCE
##FIRSTX=400.163452
##LASTX=4000.187744
##FIRSTY=0.013337
##MAXX=4000.187744
##MINX=400.163452
##MAXY=0.428358
##MINY=-0.017420
##XFACTOR=1.000000
##YFACTOR=1.000000E-009
##NPOINTS=7468
##DELTAX=0.482125
##ZPD=8192
##XYDATA=(X++(Y..Y))
400.163 13336540 13534285 13590241 13573736 13562514 13617776 13774468 
403.538 14039726 14398932 14825129 15288311 15758254 16204866 16594332 
406.913 16888638 17047858 17038570 16843882 16473737 15970448 15405455 
410.288 14869467 14455759 14240280 14264644 14523193 14963245 15494060 
413.663 16007969 16404124 16610106 16596528 16379947 16014157 15577270 
417.038 15155942 14831546 14669341 14711323 14971774 15435088 16056925 
420.412 16769953 17493246 18144516 18655280 18983512 19121976 19099458 
423.787 18970314 18799410 18641878 18528734 18461002 18415560 18359232 
427.162 18266152 18130414 17970658 17822784 17726244 17709120 17777230 
430.537 17913286 18084924 18256536 18402142 18512680 18595642 18666092 
433.912 18737142 18812692 18884972 18938976 18960006 18941272 18886726 
437.286 18808312 18719140 18624984 18519450 18383766 18193736 17929540 
440.661 17586422 17181074 16751152 16349729 16033508 15850296 15828880 
444.036 15971802 16254857 16630454 17036302 17407960 17691614 17854156 
447.411 17889768 17817932 17676550 17509908 17357088 17243444 17177998 
450.786 17154892 17160698 17180046 17199822 17209596 17200524 17163578 
454.161 17090886 16979090 16834414 16675960 16533488 16439764 16419649 
457.535 16479230 16602010 16751925 16886584 16971360 16993134 16963980 
460.910 16915408 16884408 16898654 16964750 17067768 17179042 17269606 
464.285 17323220 17343206 17350784 17375760 17444980 17572658 17757038 
467.660 17982650 18227432 18470104 18695378 18895538 19068444 19215166 
471.035 19338342 19440990 19526316 19597496 19655758 19699302 19721868 
474.409 19714670 19669438 19582666 19458516 19308100 19146288 18986326 
477.784 18834960 18691490 18550782 18408576 18266340 18133380 18023998 
481.159 17951772 17922290 17930730 17962004 17997068 18019534 18021442 
484.534 18003994 17974718 17941892 17910588 17881262 17852756 17826366 
487.909 17809124 17812520 17848534 17922740 18030150 18154926 18275644 
491.284 18373458 18439802 18479914 18510910 18553866 18625436 18730228 
494.658 18859454 18993128 19107122 19180022 19198446 19159016 19068738 
498.033 18943214 18805004 18681376 18600934 18589328 18663006 18824004 
501.408 19057672 19335012 19620482 19881536 20098102 20267768 20404276 
504.783 20530696 20670438 20839416 21042146 21273540 21523550 21782484 
508.158 22045050 22309856 22577838 22849128 23122502 23396094 23670036 
511.532 23948778 24241420 24559616 24914472 25313134 25758122 26247516 
514.907 26777542 27344282 27943430 28568986 29211026 29854808 30482966 
518.282 31079276 31634394 32149058 32635588 33113390 33605100 34129924 
521.657 34700988 35324508 36001468 36729252 37502364 38310816 39138788 
525.032 39963688 40759472 41502012 42175916 42779268 43324168 43832120 
528.406 44326448 44824940 45335152 45855212 46376960 46892020 47394732 
531.781 47882632 48353988 48804864 49228444 49618060 49972408 50301548 
535.156 50628244 50983560 51398188 51890420 52457864 53074508 53696940 
538.531 54275048 54766308 55146100 55412396 55583816 55692104 55772780 
541.906 55856572 55964196 56104324 56273568 56459284 56642880 56803504 
545.281 56922948 56990044 57003644 56972720 56913056 56841228 56767872 
548.655 56692888 56604832 56485112 56315656 56087096 55804072 55486368 
552.030 55163552 54867472 54623124 54442676 54322896 54247688 54193408 
555.405 54135184 54052864 53934252 53776332 53584164 53367888 53139304 
558.780 52907928 52678784 52451120 52219280 51975024 51711576 51426944 
562.155 51126104 50820648 50526144 50257368 50023904 49826436 49656348 
565.529 49497768 49332092 49142744 48919756 48660984 48371724 48061756 
568.904 47740992 47415772 47086888 46749260 46394596 46014572 45605572 
572.279 45170568 44720048 44270124 43838732 43440436 43083812 42769004 
575.654 42488876 42231108 41982004 41729128 41463620 41180056 40876312 
579.029 40552808 40212316 39859112 39499632 39141636 38793088 38460328 
582.404 38147232 37854312 37579048 37318120 37067948 36825840 36589420 
585.778 36355660 36120012 35877268 35622824 35356000 35082348 34814492 
589.153 34570188 34367860 34221716 34137048 34108616 34121648 34155620 
592.528 34189260 34205056 34191748 34145872 34069876 33970720 33857072 
595.903 33737044 33616144 33495918 33373826 33244368 33102036 32944900 
599.278 32777358 32611128 32462842 32349038 32279768 32253884 32258242 
602.652 32271896 32272666 32245274 32186768 32106650 32021988 31950406 
606.027 31903234 31882428 31882502 31895216 31915486 31944144 31986944 
609.402 32049920 32134532 32235044 32339170 32433856 32509926 32566774 
612.777 32611218 32653220 32700342 32753456 32807566 32856486 32899816 
616.152 32948162 33022396 33147168 33340924 33604916 33918160 34239592 
619.527 34517888 34704188 34764788 34688496 34486920 34189364 33834392 
622.901 33461738 33107028 32798298 32555074 32387414 32295470 32269172 
626.276 32289966 32334518 32380224 32411202 32421448 32414942 32401178 
629.651 32389626 32384158 32380830 32369840 32340552 32286480 32209110 
633.026 32116826 32021798 31934612 31860612 31799414 31747520 31702950 
636.401 31668644 31654016 31672064 31734626 31847000 32004754 32193464 
639.775 32392096 32577932 32731726 32841712 32905020 32927700 32922804 
643.150 32908474 32904570 32930274 32999802 33119426 33285330 33483240 
646.525 33691376 33885504 34045484 34160844 34234216 34280272 34321708 
649.900 34382628 34481752 34627976 34818844 35042372 35281484 35519136 
653.275 35742528 35945696 36129908 36302056 36471916 36649272 36841868 
656.650 37054036 37286568 37537804 37804680 38084956 38377856 38685592 
660.024 39012860 39366256 39752800 40177812 40642928 41144260 41672056 
663.399 42210852 42742260 43247888 43714096 44134836 44513848 44863952 
666.774 45203744 45552956 45927560 46335492 46776204 47241580 47719596 
670.149 48198596 48670284 49131648 49584600 50034980 50490288 50958860 
673.524 51448508 51965952 52515204 53096772 53705468 54330300 54956492 
676.898 55568480 56155524 56716644 57263272 57818172 58411512 59074052 
680.273 59830104 60692788 61663716 62735608 63897892 65142916 66470548 
683.648 67889672 69417704 71078272 72898840 74909296 77141824 79632472 
687.023 82423000 85563872 89117032 93160168 97791936 103138184 109357536 
690.398 116646024 125235960 135391088 147392448 161517808 178012960 
693.290 197054784 218706096 242861136 269184224 297047968 325485856 
696.183 353188768 378578016 399989760 415952992 425497152 428357696 
699.076 424987008 416371360 403748672 388354080 371252288 353271776 
701.969 335007232 316857504 299075840 281811872 265147504 249119472 
704.861 233735488 218982528 204835696 191264352 178239264 165739264 
707.754 153755792 142294784 131376120 121028128 111282248 102167168 93704496 
711.129 85906408 78775672 72307144 66489732 61307204 56738284 52756084 
714.504 49326248 46407216 43950488 41903172 40210724 38820188 37682648 
717.878 36754908 35998864 35382172 34877284 34461708 34118496 33835696 
721.253 33607148 33430338 33305254 33232414 33211272 33239864 33315730 
724.628 33436284 33600092 33807136 34057552 34350920 34684724 35053964 
728.003 35452232 35872620 36310804 36766628 37245464 37757984 38319096 
731.378 38945272 39652060 40451480 41350172 42348976 43443028 44623360 
734.752 45878508 47195912 48562524 49964476 51386476 52810488 54216708 
738.127 55585388 56900232 58152704 59344816 60489856 61609332 62727876 
741.502 63868268 65045992 66269672 67543296 68871960 70267424 71750632 
744.877 73350752 75099600 77024088 79139552 81446280 83931432 86573952 
748.252 89353040 92254208 95272864 98413176 101684048 105092816 108641200 
751.627 112322704 116123312 120023512 123999720 128024728 132065472 
754.519 136080016 140015376 143806976 147381856 150663920 153581376 
757.412 156072624 158090016 159600544 160583328 161025968 160921536 
760.305 160267312 159065712 157327904 155076832 152350592 149202608 
763.197 145699392 141915552 137926928 133804512 129608672 125386864 
766.090 121173624 116993696 112865816 108806880 104833808 100964344 97215400 
769.465 93600072 90126280 86795864 83605232 80547912 77616152 74802816 
772.840 72101208 69504432 67004756 64593480 62262288 60004648 57817960 
776.214 55703652 53665984 51709748 49837448 48047008 46332600 44686424 
779.589 43101996 41577476 40116364 38726708 37417912 36196864 35064516 
782.964 34015076 33036836 32115758 31238562 30396166 29585130 28807366 
786.339 28068128 27373950 26730218 26139156 25599558 25106534 24652672 
789.714 24229596 23829222 23446122 23077716 22724786 22390294 22077824 
793.089 21789928 21527036 21287418 21068168 20867178 20683186 20516558 
796.463 20366994 20232312 20106866 19981564 19846202 19692938 19519128 
799.838 19329724 19135882 18951826 18789956 18656690 18550336 18461522 
803.213 18377748 18286590 18180626 18058842 17926280 17791752 17664666 
806.588 17552584 17459706 17386646 17330944 17287730 17251044 17214450 
809.963 17173132 17125044 17071794 17019244 16974618 16944170 16928510 
813.337 16921138 16908222 16872644 16799734 16683646 16530434 16357644 
816.712 16189640 16049325 15951408 15898297 15880236 15880307 15880905 
820.087 15869848 15843021 15803583 15758803 15715735 15678450 15647549 
823.462 15621711 15599460 15580256 15563989 15549409 15533000 15509414 
826.837 15473812 15425370 15369801 15320182 15293283 15304727 15363028 
830.212 15466413 15602724 15753755 15901927 16035756 16153414 16262366 
833.586 16375333 16506443 16666310 16861130 17093150 17362454 17668092 
836.961 18008174 18378412 18769944 19169424 19560154 19926094 20255872 
840.336 20545814 20800044 21028134 21240102 21442234 21634312 21809958 
843.711 21959924 22075426 22151710 22188980 22191546 22164890 22113080 
847.086 22037544 21937660 21812314 21661990 21490324 21303004 21106710 
850.460 20906090 20702340 20492446 20270568 20030208 19767288 19481882 
853.835 19179154 18868714 18562918 18274364 18013724 17788118 17600462 
857.210 17449326 17329370 17232776 17150336 17072048 16988820 16892870 
860.585 16779202 16646681 16499037 16344428 16195348 16065704 15968053 
863.960 15910028 15892135 15907126 15942078 15981853 16014475 16034598 
867.335 16045162 16055914 16078973 16123742 16191794 16275294 16358349 
870.709 16421337 16447226 16426312 16359806 16259123 16142473 16030012 
874.084 15938684 15878821 15853293 15858157 15886229 15929524 15982099 
877.459 16040584 16104652 16175713 16255148 16343826 16441010 16544947 
880.834 16653009 16762456 16871154 16977602 17080420 17178558 17270774 
884.209 17354830 17428394 17489428 17536668 17570860 17594782 17613980 
887.583 17635926 17668826 17720308 17795530 17895990 18019254 18158312 
890.958 18304460 18448420 18583608 18708638 18828392 18953394 19098464 
894.333 19279384 19509408 19796788 20144082 20548530 21004698 21507312 
897.708 22054538 22649566 23301090 24022494 24829374 25737632 26760818 
901.083 27908786 29186114 30592572 32122784 33768032 35517332 37359024 
904.458 39281880 41274312 43322632 45408124 47503580 49571236 51562916 
907.832 53423024 55093852 56522844 57667988 58501992 59013264 59204588 
911.207 59089736 58690840 58034764 57151832 56073976 54833176 53460000 
914.582 51982012 50422596 48801472 47135620 45441832 43738436 42045784 
917.957 40386220 38781584 37250172 35805004 34452496 33193894 32027692 
921.332 30951632 29964886 29068120 28261904 27544088 26908464 26344006 
924.706 25836368 25370552 24934412 24521238 24130986 23769522 23445840 
928.081 23169406 22946780 22778734 22659898 22579094 22521164 22470180 
931.456 22413436 22344364 22264452 22183816 22118224 22085858 22102002 
934.831 22175198 22305008 22482258 22692220 22918052 23145950 23366656 
938.206 23577244 23779162 23975788 24170108 24363674 24556308 24748048 
941.581 24940686 25139560 25352732 25590252 25861158 26170952 26519534 
944.955 26900854 27304544 27718354 28131352 28536872 28933860 29327418 
948.330 29727214 30145350 30594240 31085526 31628762 32232630 32904870 
951.705 33653352 34486004 35410172 36431456 37554516 38782416 40119032 
955.080 41571224 43151224 44876540 46769184 48852428 51145656 53660156 
958.455 56395204 59337088 62458912 65723188 69083688 72487720 75877608 
961.829 79191840 82366736 85338760 88047688 90440032 92472256 94111968 
965.204 95337800 96137848 96507928 96450000 95973072 95093632 93838728 
968.579 92246216 90364128 88247464 85952440 83531376 81028120 78476040 
971.954 75899432 73316672 70744360 68201720 65711580 63301020 60998624 
975.329 58832080 56824648 54992852 53345204 51881900 50595216 49470140 
978.703 48486824 47621896 46850748 46151160 45504872 44900012 44331360 
982.078 43800080 43311784 42874092 42494136 42176384 41922140 41729208 
985.453 41592896 41507228 41466780 41466804 41503928 41575944 41681312 
988.828 41818100 41983336 42172164 42377376 42588976 42794308 42978508 
992.203 43125436 43219140 43245516 43193692 43057568 42836568 42536136 
995.578 42167624 41748232 41300496 40851604 40431940 40072936 39803572 
998.952 39646572 39613644 39701948 39893428 40155336 40444996 40717084 
1002.327 40930668 41056408 41080100 41004276 40844684 40625520 40373404 
1005.702 40112724 39862004 39633536 39433672 39264528 39125424 39014096 
1009.077 38926984 38859900 38808548 38769452 38741188 38725216 38725700 
1012.452 38749168 38801892 38889212 39012968 39172048 39362196 39578480 
1015.826 39815888 40071904 40346576 40642812 40965576 41321648 41717764 
1019.201 42161324 42658616 43215012 43834500 44519888 45272648 46094936 
1022.576 46989056 47959684 49012044 50151076 51377412 52683292 54048960 
1025.951 55439792 56806348 58087480 59215340 60122252 60747460 61043840 
1029.326 60981392 60550684 59762156 58645820 57247232 55624060 53839944 
1032.702 51960144 50046056 48152208 46325024 44602208 43013680 41582072 
1036.077 40322668 39242440 38339316 37601492 37008772 36535512 36155008 
1039.452 35843384 35583488 35365760 35187572 35049672 34954080 34899620 
1042.827 34881952 34893864 34926420 34971144 35020988 35071076 35117532 
1046.203 35157360 35188516 35210012 35223372 35232976 35246560 35273348 
1049.578 35322664 35401080 35511088 35650800 35814476 35995224 36186520 
1052.953 36385040 36590792 36807236 37039792 37294828 37577228 37889732 
1056.328 38232444 38602656 38995736 39406752 39831708 40269028 40720072 
1059.704 41188704 41680148 42199100 42747620 43324312 43923712 44537264 
1063.079 45155936 45770324 46373428 46959508 47523804 48061660 48567024 
1066.454 49032272 49449184 49809668 50107044 50335980 50493128 50574764 
1069.829 50577532 50497088 50329440 50072104 49726124 49297832 48799588 
1073.205 48249040 47667120 47075348 46492448 45932240 45402004 44902728 
1076.580 44430312 43978496 43540712 43112512 42692336 42280900 41881292 
1079.955 41496212 41127628 40776508 40442220 40123852 39820496 39531424 
1083.330 39256216 38994044 38743680 38503560 38272800 38052160 37844612 
1086.706 37655184 37489336 37351164 37241468 37155684 37085916 37021932 
1090.081 36953996 36876508 36787548 36689448 36586240 36481900 36378376 
1093.456 36275716 36173024 36070920 35972424 35883092 35808988 35754796 
1096.831 35721516 35704764 35696696 35687816 35669716 35637284 35589160 
1100.207 35527036 35453752 35371412 35281336 35183092 35075824 34959108 
1103.582 34832416 34694828 34543968 34376344 34187556 33973624 33733796 
1106.957 33470552 33189782 32898050 32600264 32296632 31982020 31647708 
1110.332 31284298 30885660 30451670 29988776 29507766 29020604 28536384 
1113.708 28059364 27589134 27122562 26657418 26194194 25737818 25296262 
1117.083 24877564 24487582 24127290 23793572 23479736 23178518 22884814 
1120.458 22596558 22314842 22042770 21783290 21538262 21307178 21088408 
1123.833 20879534 20679356 20488490 20309586 20147034 20005582 19889128 
1127.208 19800476 19739658 19705136 19693394 19699502 19718668 19746498 
1130.584 19780196 19819098 19864518 19920242 19990900 20081524 20196258 
1133.959 20337956 20506966 20702562 20923068 21166754 21432770 21721298 
1137.334 22033708 22372116 22739064 23137138 23569022 24037614 24545572 
1140.709 25095756 25690274 26330854 27018238 27753436 28537972 29375448 
1144.085 30272168 31236496 32278388 33406652 34628356 35946692 37362396 
1147.460 38874692 40483128 42189764 43998396 45912832 47932972 50050552 
1150.835 52245644 54485424 56725796 58915404 61001200 62934428 64675092 
1154.210 66195132 67479520 68525144 69339656 69939048 70345208 70583600 
1157.586 70681200 70665016 70560600 70391784 70180624 69947056 69708712 
1160.961 69480248 69272152 69089480 68931712 68792616 68662584 68530968 
1164.336 68387928 68226768 68043632 67836512 67604296 67345024 67056024 
1167.711 66734060 66377700 65987884 65568552 65126272 64668492 64202452 
1171.087 63734336 63270232 62816808 62382708 61978352 61614904 61301316 
1174.462 61042456 60837372 60680892 60565376 60484888 60437784 60427772 
1177.837 60460996 60542644 60671928 60838644 61022360 61195728 61328840 
1181.212 61395348 61377116 61265664 61061644 60772228 60407724 59978828 
1184.588 59496240 58970224 58411848 57833656 57249812 56675112 56123872 
1187.963 55608360 55137704 54717644 54350556 54035524 53769544 53547952 
1191.338 53365516 53217232 53098936 53008016 52942420 52900592 52879856 
1194.713 52875876 52882688 52892536 52898148 52893756 52876288 52846056 
1198.089 52804928 52756208 52701240 52639456 52567756 52481396 52375844 
1201.464 52248344 52099244 51931672 51751384 51564416 51376396 51191316 
1204.839 51011356 50836948 50668348 50505172 50347356 50194096 50043616 
1208.214 49892224 49735012 49566104 49381092 49177760 48957396 48724616 
1211.590 48486076 48248260 48015776 47789992 47568912 47350048 47131236 
1214.965 46913576 46701460 46501540 46320240 46161156 46023508 45902472 
1218.340 45791084 45683544 45577920 45477504 45388696 45318992 45272760 
1221.715 45249376 45243068 45245684 45250120 45254008 45261140 45280604 
1225.091 45323360 45398820 45511276 45659816 45839684 46044516 46269792 
1228.466 46513388 46775788 47056564 47353780 47661812 47973060 48279884 
1231.841 48577076 48863580 49142008 49415928 49686852 49951352 50200256 
1235.216 50420432 50597508 50720428 50783800 50789320 50743536 50656192 
1238.592 50536464 50391192 50223736 50035156 49824808 49592508 49338952 
1241.967 49066520 48779408 48482744 48183316 47888372 47605572 47342052 
1245.342 47104004 46894824 46715616 46564520 46436356 46323880 46218040 
1248.717 46109072 45987456 45845956 45680364 45491340 45285160 45072788 
1252.093 44868440 44686220 44537440 44427788 44356428 44316264 44296132 
1255.468 44284312 44270044 44246496 44210092 44160148 44097412 44022796 
1258.843 43936600 43838544 43728208 43605696 43471572 43327880 43177180 
1262.218 43022936 42869152 42720044 42579904 42452948 42342844 42252640 
1265.594 42184612 42139492 42116980 42114976 42129460 42153968 42180380 
1268.969 42199364 42202236 42183332 42141460 42080872 42010596 41942408 
1272.344 41888088 41855920 41849292 41865592 41897708 41935792 41969516 
1275.719 41990216 41991216 41969072 41922344 41852564 41763152 41659576 
1279.094 41548160 41434768 41323580 41215488 41108288 40997508 40878332 
1282.470 40747984 40607596 40461604 40317220 40181692 40060080 39954096 
1285.845 39862548 39782480 39711500 39649364 39597660 39559252 39536564 
1289.220 39530092 39537632 39555712 39580820 39611120 39647868 39694972 
1292.595 39758052 39842236 39950960 40084592 40240128 40412172 40593420 
1295.971 40776452 40954456 41122488 41278504 41423980 41563936 41706044 
1299.346 41858700 42029228 42221028 42433420 42660948 42894804 43126252 
1302.721 43347596 43554524 43746356 43924972 44093564 44254504 44409404 
1306.096 44557560 44696860 44824600 44938288 45036344 45119452 45190256 
1309.472 45253836 45316984 45386896 45469820 45568688 45682500 45805592 
1312.847 45929092 46043040 46138472 46210084 46256608 46280520 46286976 
1316.222 46282048 46271096 46258128 46245424 46233144 46220068 46203000 
1319.597 46177180 46137304 46079380 46001764 45906932 45801700 45695884 
1322.973 45599300 45519756 45460036 45417648 45386492 45359580 45332112 
1326.348 45303004 45274864 45252544 45240388 45239952 45249708 45265892 
1329.723 45283740 45300020 45313436 45324644 45334812 45344828 45353696 
1333.098 45359980 45362384 45360956 45357744 45356144 45360608 45374636 
1336.474 45401164 45442836 45502980 45586696 45700160 45850344 46042200 
1339.849 46277048 46551080 46856492 47183520 47522504 47867208 48214512 
1343.224 48564900 48919732 49279696 49643276 50005892 50361468 50703000 
1346.599 51023844 51319784 51587636 51826276 52036356 52220100 52381320 
1349.975 52524968 52656388 52780960 52902400 53022656 53141432 53257296 
1353.350 53367792 53471396 53566768 53653752 53732168 53801488 53860552 
1356.725 53907680 53941268 53960340 53965296 53958012 53941288 53918168 
1360.100 53891916 53864352 53835720 53804292 53766352 53715784 53645244 
1363.476 53547156 53415468 53247216 53043080 52808116 52550288 52278628 
1366.851 52001976 51726992 51457332 51194728 50939112 50689564 50445200 
1370.226 50204252 49964028 49719440 49463484 49188292 48886032 48551248 
1373.601 48181536 47778168 47344872 46886116 46405288 45903608 45379484 
1376.977 44829728 44251620 43644908 43012984 42364044 41710128 41065456 
1380.352 40444628 39859676 39319032 38826712 38381924 37980800 37617288 
1383.727 37285360 36979928 36697212 36434668 36190636 35963352 35750584 
1387.102 35550024 35358796 35174720 34995920 34820912 34647732 34473456 
1390.478 34293840 34103324 33895776 33665376 33407648 33120316 32803628 
1393.853 32460534 32096892 31719632 31337582 30958682 30589834 30235214 
1397.228 29896024 29570604 29255886 28948844 28648402 28356558 28077868 
1400.603 27817578 27580440 27367270 27175210 26997460 26826486 26656174 
1403.979 26484860 26316540 26160008 26027266 25930814 25880832 25883920 
1407.354 25943530 26060128 26232984 26461014 26743958 27081304 27473194 
1410.729 27918760 28416410 28963130 29553942 30181988 30838840 31513888 
1414.104 32195284 32870058 33524960 34146172 34719456 35229916 35662708 
1417.479 36004088 36244264 36379376 36413736 36361056 36243164 36087196 
1420.855 35921584 35772808 35663304 35610344 35627060 35723816 35909316 
1424.230 36192148 36580592 37083920 37710804 38470344 39370088 40416180 
1427.605 41610880 42952072 44431888 46038444 47756648 49571104 51467484 
1430.980 53433144 55457424 57530252 59640996 61779448 63936180 66105688 
1434.356 68286032 70480176 72693952 74933936 77204048 79504744 81834208 
1437.731 84190304 86574640 88995464 91470232 94024656 96691392 99506352 
1441.106 102505096 105719944 109176256 112891728 116874160 121122792 
1443.999 125627472 130371392 135332384 140486784 145812560 151294272 
1446.892 156927584 162723712 168708720 174918032 181379168 188084144 
1449.785 194953072 201797760 208295472 213988928 218320560 220704192 
1452.678 220623328 217728992 211912144 203328544 192376000 179632656 
1455.572 165778400 151510704 137470560 124185320 112031856 101228416 
1458.465 91847976 83849624 77115720 71487488 66793120 62866376 59556160 
1461.840 56732272 54286344 52131960 50202720 48451624 46847344 45370728 
1465.215 44011368 42762876 41620232 40577476 39626920 38760012 37968136 
1468.590 37244420 36583904 35982536 35435464 34934160 34465128 34008744 
1471.966 33543606 33048972 32511838 31930062 31313882 30682630 30060974 
1475.341 29471622 28932110 28451864 28034498 27680348 27389722 27165418 
1478.716 27012836 26939044 26950996 27055834 27260540 27574488 28011106 
1482.091 28588418 29328896 30256620 31396632 32772746 34408336 36327820 
1485.467 38560272 41143360 44130260 47596004 51644420 56412288 62064068 
1488.842 68774392 76693040 85895368 96322016 107723832 119627656 131338808 
1492.217 141994048 150666000 156502240 158874160 157493632 152468912 
1495.110 144278400 133676128 121552344 108794560 96174352 84280448 73498984 
1498.485 64028060 55915456 49101524 43461912 38840916 35076756 32017078 
1501.861 29527788 27496016 25828092 24447424 23291012 22307690 21458148 
1505.236 20715474 20063814 19498148 19018030 18623292 18308882 18062072 
1508.611 17863632 17692504 17529684 17362794 17187772 17007804 16830340 
1511.986 16663957 16515039 16386969 16280022 16192662 16121967 16065018 
1515.362 16018527 15978597 15941830 15905814 15869670 15834430 15802311 
1518.737 15775010 15753318 15735779 15719879 15702989 15683915 15664725 
1522.112 15648723 15640300 15642205 15654186 15673099 15694404 15713749 
1525.487 15729226 15741808 15755380 15775070 15804669 15847454 15903799 
1528.863 15973885 16057149 16153557 16263496 16387295 16523773 16671859 
1532.238 16828818 16992258 17160478 17332178 17505538 17678678 17848360 
1535.613 18011234 18164676 18309242 18448528 18589864 18741536 18910734 
1538.988 19099022 19301908 19508758 19705180 19877786 20017706 20123512 
1542.364 20200428 20259218 20312142 20369894 20438814 20520292 20611636 
1545.739 20708224 20805094 20899386 20990040 21077904 21164238 21249786 
1549.114 21333698 21413424 21485250 21545452 21591046 21620532 21634048 
1552.489 21633012 21618852 21593838 21559390 21517426 21471076 21424962 
1555.865 21385258 21359898 21356720 21382610 21441706 21535002 21659664 
1559.240 21810990 21982720 22169176 22365996 22569994 22778024 22986236 
1562.615 23188470 23376572 23540322 23668408 23750536 23779012 23749920 
1565.990 23663694 23525790 23343880 23128372 22889806 22637158 22378594 
1569.365 22120772 21870092 21633316 21418492 21234808 21091454 20996490 
1572.741 20955102 20968946 21036560 21154356 21318904 21528392 21785490 
1576.116 22097466 22476968 22941676 23512390 24211518 25058656 26065680 
1579.491 27231080 28533442 29927696 31344514 32695298 33881780 34809132 
1582.866 35400260 35607036 35416796 34854208 33975176 32858890 31595382 
1586.242 30275284 28980138 27777658 26719000 25838590 25156166 24678126 
1589.617 24399748 24308310 24384466 24606240 24951040 25399742 25938718 
1592.992 26563538 27280004 28105584 29067812 30203138 31551622 33152402 
1596.367 35036700 37222080 39705848 42460044 45427788 48521800 51625868 
1599.743 54600468 57292356 59547916 61228924 62227616 62480112 61972712 
1603.118 60743660 58877248 56492692 53729280 50730872 47632056 44548736 
1606.493 41571600 38766612 36176880 33826376 31725354 29873916 28265294 
1609.868 26887724 25725200 24757778 23961484 23309170 22772078 22321578 
1613.244 21933698 21590078 21280610 21001794 20755228 20543218 20365542 
1616.619 20217686 20090494 19972792 19854874 19731938 19605530 19482932 
1619.994 19374732 19290598 19235788 19209708 19206364 19216492 19231376 
1623.369 19246322 19261656 19282530 19317300 19373676 19456440 19566462 
1626.745 19701220 19857090 20030454 20221660 20434020 20674128 20950160 
1630.120 21270036 21640810 22067904 22555264 23105972 23721342 24399476 
1633.495 25132526 25903634 26686312 27443606 28133180 28711996 29143830 
1636.870 29403900 29482564 29383502 29121338 28717094 28194444 27577168 
1640.246 26887830 26147896 25377932 24596990 23822922 23071562 22356184 
1643.621 21687424 21073046 20518338 20025624 19594548 19223144 18906446 
1646.996 18639158 18414944 18227798 18072634 17944862 17840958 17757908 
1650.371 17693538 17646230 17614824 17599496 17600146 17616054 17644886 
1653.747 17682378 17722418 17758434 17784972 17799486 17802926 17799894 
1657.122 17796690 17799784 17814250 17841740 17882538 17934972 17998714 
1660.497 18075246 18168136 18281128 18417194 18575282 18749668 18931034 
1663.872 19107622 19267812 19403076 19509024 19585440 19636432 19667706 
1667.248 19686338 19698672 19710046 19724550 19743716 19767384 19793224 
1670.623 19817314 19835324 19843094 19838796 19822988 19799254 19772994 
1673.998 19750024 19734732 19729352 19732408 19739970 19746446 19746646 
1677.373 19737420 19718358 19692034 19662888 19635784 19614206 19599418 
1680.749 19590630 19585432 19582008 19579548 19579892 19586076 19600222 
1684.124 19622230 19647512 19667930 19673158 19655200 19611804 19547598 
1687.499 19474290 19406342 19357430 19334862 19338140 19359584 19387876 
1690.874 19413138 19432138 19448384 19471488 19512918 19580182 19673998 
1694.250 19787654 19909696 20027670 20133884 20227002 20312374 20398556 
1697.625 20494330 20605098 20732668 20876656 21036856 21216304 21420484 
1701.000 21656806 21931426 22246628 22599352 22982990 23389518 23812876 
1704.375 24252398 24712510 25203320 25737316 26327054 26982960 27712146 
1707.750 28518232 29401944 30362022 31396280 32502328 33678720 34927060 
1711.126 36253528 37669156 39189768 40833940 42619356 44560208 46663508 
1714.501 48928488 51347784 53909172 56598872 59402860 62308804 65304868 
1717.876 68381184 71527184 74733288 77991904 81296880 84643976 88029032 
1721.251 91445080 94880440 98315368 101723408 105071944 108325864 111450808 
1724.627 114414816 117189936 119750144 122070808 124128536 125901448 
1727.520 127371088 128524664 129355680 129865184 130058440 129943952 
1730.413 129530672 128827152 127840056 126574648 125035632 123227056 
1733.306 121153584 118822112 116242608 113430720 110406808 107196984 
1736.199 103829560 100334304 96739672 93072224 89357208 85619968 81886400 
1739.574 78182648 74534136 70963208 67487256 64117776 60861740 57724972 
1742.949 54714396 51840936 49120492 46570068 44205688 42035188 40057068 
1746.325 38258600 36618008 35109712 33709972 32400080 31169376 30014228 
1749.700 28934342 27931458 27004842 26152110 25369544 24653680 24001084 
1753.075 23408954 22873418 22388906 21947450 21539690 21156624 20791300 
1756.450 20439938 20101638 19777290 19467658 19173692 18896050 18635620 
1759.826 18394246 18173724 17974172 17791938 17618490 17442176 17252250 
1763.201 17042490 16816964 16588338 16376976 16201872 16075639 15998228 
1766.576 15956217 15927874 15889769 15825152 15729882 15612200 15489624 
1769.951 15381356 15301649 15255541 15238022 15236543 15236075 15223924 
1773.327 15192586 15142052 15078782 15013325 14957788 14921962 14910173 
1776.702 14919380 14939038 14952038 14940296 14889914 14796846 14669903 
1780.077 14527526 14393030 14285534 14212383 14166436 14127685 14070868 
1783.452 13974787 13831793 13649575 13449970 13261440 13109623 13009033 
1786.828 12960831 12953308 12968006 12985722 12992115 12979642 12947806 
1790.203 12900094 12842946 12783236 12728748 12688413 12670880 12684010 
1793.578 12732724 12816935 12930395 13061954 13197412 13322493 13426221 
1796.953 13501242 13547280 13567947 13572010 13570795 13576860 13602708 
1800.329 13658429 13750921 13881138 14044016 14228294 14419161 14600068 
1803.704 14756080 14878085 14962565 15013080 15037580 15046108 15047074 
1807.079 15044378 15036973 15019368 14985507 14932138 14862371 14786703 
1810.454 14720414 14678787 14669673 14689418 14719819 14733098 14698758 
1813.830 14594299 14413323 14170767 13898528 13640745 13438795 13323285 
1817.205 13304592 13373171 13504171 13665972 13830160 13977222 14098110 
1820.580 14191380 14258167 14299672 14313970 14297714 14247805 14164292 
1823.955 14050784 13915204 13767087 13617013 13472917 13340153 13218176 
1827.331 13102736 12985097 12854485 12700858 12518795 12308970 12079758 
1830.706 11843718 11614828 11400597 11201887 11010139 10812179 10596681 
1834.081 10360812 10114054 9878016 9679781 9544778 9486075 9501622 9571274 
1837.938 9663340 9741835 9776339 9745897 9643553 9474158 9250843 8991566 
1841.796 8715147 8439604 8182210 7959056 7784455 7669885 7623020 7644332 
1845.653 7728753 7862084 8026095 8197766 8355831 8482136 8565811 8605632 
1849.511 8608247 8585338 8550456 8513760 8480206 8448620 8415219 8376032 
1853.368 8330063 8280410 8232719 8191339 8157388 8126776 8093663 8053885 
1857.226 8010855 7977750 7977892 8037308 8179326 8413892 8734616 9117601 
1861.083 9527230 9925660 10280937 10573400 10799495 10968059 11096234 
1864.458 11202758 11301957 11400901 11499406 11590883 11666853 11719078 
1867.833 11744331 11744599 11727023 11702464 11683173 11678893 11695297 
1871.209 11732277 11787458 11854755 11929771 12008987 12093921 12185522 
1874.584 12284686 12390339 12496881 12594525 12671893 12716840 12721621 
1877.959 12682926 12605905 12502554 12391195 12293516 12229567 12213281 
1881.334 12248745 12327648 12430658 12530690 12601001 12620961 12581396 
1884.710 12487156 12353752 12202988 12054966 11923194 11811294 11711909 
1888.085 11612107 11496020 11351902 11174164 10966481 10742115 10520935 
1891.460 10326672 10181161 10099074 10082410 10117747 10177244 10225145 
1894.835 10226667 10158505 10017511 9822482 9609728 9420888 9290561 9232562 
1898.693 9237071 9271806 9292745 9260788 9154055 8975261 8751776 8526265 
1902.550 8342726 8231411 8201012 8232461 8289420 8327093 8308603 8215224 
1906.408 8052346 7845792 7634528 7455101 7333415 7275803 7272216 7301118 
1910.265 7341783 7378319 7407590 7431124 7452624 7467867 7463481 7418021 
1914.123 7312525 7136668 6897866 6621074 6344106 6105279 5935678 5850602 
1917.980 5850665 5921208 6044303 6196885 6356237 6498062 6593794 6613672 
1921.837 6532541 6332707 6013459 5591077 5098279 4574820 4061295 3591518 
1925.695 3195935 2898765 2723802 2689251 2804686 3059252 3415965 3815063 
1929.552 4186213 4467254 4626767 4674887 4662990 4665957 4757650 4987448 
1933.410 5370137 5885327 6494866 7153895 7826581 8479990 9076769 9566061 
1937.267 9882587 9958392 9752949 9273923 8598104 7854574 7198919 6761658 
1941.125 6609440 6721245 6998750 7306474 7522417 7583799 7506329 7373259 
1944.982 7297601 7369762 7618838 7992380 8373893 8615543 8587948 8220267 
1948.839 7526835 6595299 5574454 4628078 3902189 3490573 3416961 3635132 
1952.697 4038130 4484909 4829930 4947621 4764060 4261965 3487861 2536214 
1956.554 1538209 628546 -70626 -475194 -554947 -339452 82064 581972 1023174 
1960.894 1290031 1325299 1149541 858203 596042 515800 724482 1250146 2017919 
1965.233 2873843 3621157 4093082 4196624 3949582 3468185 2932185 2516814 
1969.091 2343789 2435978 2722808 3063864 3299210 3291164 2968025 2325787 
1972.948 1424847 362634 -736028 -1746346 -2541881 -3009925 -3044190 -2585721 
1976.806 -1630948 -256966 1383959 3080661 4626568 5859628 6709770 7191058 
1980.663 7396255 7449367 7480785 7586351 7813144 8151599 8542119 8886178 
1984.521 9074437 9007922 8630089 7943052 7019712 5998933 5067486 4416713 
1988.378 4199559 4479793 5215158 6250946 7352984 8263483 8763201 8721192 
1992.235 8126154 7079405 5767985 4416688 3239525 2398923 1993659 2044508 
1996.093 2511555 3295832 4262836 5246301 6065144 6547636 6554288 6002026 
1999.950 4891516 3308586 1423992 -535297 -2314451 -3682921 -4457443 -4544755 
2003.808 -3946679 -2767290 -1195522 513923 2078795 3231952 3779451 3637970 
2007.665 2856735 1607030 135374 -1301008 -2491759 -3320878 -3767843 -3909119 
2011.522 -3862814 -3758341 -3691519 -3703161 -3784158 -3890961 -3969763 
2014.898 -3981745 -3905588 -3751846 -3534728 -3283700 -3014095 -2744744 
2018.273 -2470580 -2178584 -1823729 -1337143 -617049 439972 1912625 3807130 
2022.130 6024176 8340095 10441056 11974159 12646616 12298562 10966014 
2025.506 8878125 6413633 3997760 2006340 671725 60943 79239 539753 1227403 
2029.845 1975972 2687139 3333969 3929391 4499040 5049009 5576130 6070372 
2033.703 6533965 6976553 7415696 7848595 8246646 8554120 8715115 8693866 
2037.560 8506756 8212927 7903862 7663648 7540191 7517094 7539188 7526852 
2041.417 7430681 7247300 7038017 6891578 6897161 7092489 7451593 7884076 
2045.275 8276202 8531943 8616236 8566706 8486751 8496695 8692949 9100864 
2049.132 9665902 10266115 10758104 11012701 10960524 10593509 9961528 
2052.508 9152213 8267943 7402725 6623913 5960395 5403361 4914342 4448020 
2056.365 3965777 3456957 2938477 2458615 2077689 1860647 1857049 2090162 
2060.222 2551304 3195349 3944893 4702352 5356598 5812334 5997753 5890408 
2064.080 5516417 4949312 4288940 3639465 3082537 2666118 2401096 2274121 
2067.937 2265035 2364434 2577724 2920543 3403592 4017341 4726005 5470701 
2071.795 6186223 6818239 7333420 7724897 7996726 8157379 8205888 8136126 
2075.652 7946089 7656101 7317864 7014203 6841446 6887574 7196990 7761324 
2079.510 8509587 9329349 10088678 10667237 10975265 10971312 10660829 
2082.885 10093111 9348322 8526230 7725958 7032805 6500880 6145868 5942222 
2086.742 5834896 5756694 5651594 5488195 5271152 5029629 4809567 4649732 
2090.600 4573875 4585375 4674334 4823407 5021580 5257899 5523278 5799748 
2094.457 6059940 6268536 6398615 6440719 6414781 6362524 6337117 6381268 
2098.314 6513734 6721373 6971835 7221709 7435493 7591661 7683615 7707287 
2102.172 7657500 7520939 7286558 6953098 6546580 6119491 5748131 5509319 
2106.029 5461794 5623070 5967333 6429375 6924723 7370423 7709147 7914197 
2109.887 7994912 7982633 7921176 7848405 7789721 7747739 7709057 7646777 
2113.744 7532008 7342559 7074265 6740054 6369181 5994125 5644453 5333842 
2117.602 5060089 4808020 4559505 4298739 4022977 3731161 3427530 3108136 
2121.459 2763610 2386773 1985112 1587178 1250734 1042890 1025159 1219159 
2125.316 1596669 2072974 2531373 2853709 2953763 2797160 2404922 1832734 
2129.174 1144727 386963 -416659 -1261331 -2137175 -3006885 -3797945 -4409670 
2133.031 -4737604 -4708433 -4298868 -3555488 -2566923 -1456490 -333540 
2136.406 713211 1631462 2392980 2988104 3412348 3666854 3751227 3670429 
2140.264 3423113 3007233 2410813 1620997 635378 -520223 -1785124 -3053195 
2144.121 -4195655 -5078472 -5599146 -5706957 -5423468 -4833461 -4074051 
2147.497 -3298576 -2659859 -2272892 -2206990 -2470110 -3024422 -3785595 
2150.872 -4668530 -5593897 -6525843 -7472772 -8485122 -9625212 -10940698 
2154.247 -12417719 -13981346 -15475369 -16699715 -17420234 -17417114 
2157.140 -16500765 -14574060 -11650333 -7920914 -3734684 431121 4095608 
2160.515 6880075 8621163 9378456 9413901 9103854 8835148 8892254 9413826 
2164.373 10355626 11553914 12778332 13834172 14586689 14982211 15010791 
2167.748 14672370 13957327 12867301 11432515 9757154 8010355 6404960 5123962 
2171.605 4263029 3789785 3563287 3388909 3114197 2688891 2207548 1862116 
2175.463 1873145 2383330 3402858 4789590 6305184 7685579 8729963 9330184 
2179.320 9488460 9283914 8841152 8282138 7719930 7223360 6834462 6550405 
2183.178 6331841 6109011 5804945 5362894 4783612 4134605 3553949 3202992 
2187.035 3228782 3701009 4599581 5809839 7161951 8472666 9589024 10410199 
2190.893 10888824 11018282 10826037 10361940 9705176 8963848 8270356 7760872 
2194.750 7543988 7666542 8105704 8761947 9502869 10186709 10710943 11021279 
2198.607 11114339 11017562 10768471 10399727 9941597 9419709 8872992 8343721 
2202.465 7878813 7507791 7245173 7082110 7004566 7002198 7079618 7251554 
2206.322 7531303 7911292 8354226 8795045 9161060 9395006 9480365 9439698 
2210.180 9326842 9197757 9088156 8994865 8888967 8723998 8476058 8153588 
2214.037 7805645 7507814 7337352 7343016 7533955 7864489 8254547 8604974 
2217.895 8824258 8849319 8667258 8312622 7870163 7448474 7163320 7103782 
2221.752 7317359 7794535 8488547 9324435 10237201 11187530 12178313 13232717 
2225.609 14387591 15658718 17039574 18497000 19999432 21531262 23123254 
2228.985 24837804 26758238 28949848 31436556 34177828 37083344 40032088 
2232.360 42914052 45650932 48214388 50614048 52877732 55018468 57017628 
2235.735 58809596 60298800 61376292 61949484 61961340 61412028 60350464 
2239.110 58869772 57079844 55087548 52972528 50774548 48492972 46103076 
2242.486 43578196 40921300 38173136 35423400 32786000 30371752 28257032 
2245.861 26464164 24957914 23667498 22510438 21424444 20378752 19376526 
2249.236 18435430 17571562 16784470 16059985 15378619 14736514 14155044 
2252.611 13680843 13369434 13265497 13378637 13674072 14077797 14496571 
2255.987 14841707 15050828 15097782 14994145 14772523 14478713 14154116 
2259.362 13833812 13543162 13299461 13113938 12991996 12931055 12924851 
2262.737 12957991 13016295 13083369 13149028 13205667 13253966 13297189 
2266.112 13344768 13408277 13502584 13639213 13824765 14053580 14306569 
2269.488 14548664 14738623 14833615 14805985 14647260 14374607 14024782 
2272.863 13650727 13305515 13036918 12877288 12841919 12928117 13119032 
2276.238 13383600 13686132 13985742 14248895 14451028 14586167 14664971 
2279.613 14716137 14773385 14870542 15025835 15240548 15496794 15765276 
2282.989 16015716 16229181 16401540 16547063 16687740 16844280 17024640 
2286.364 17217976 17393850 17510972 17528626 17419048 17175872 16817242 
2289.739 16380386 15913544 15462914 15066171 14744168 14503736 14339009 
2293.114 14237743 14183543 14160849 14153416 14147289 14129047 14091584 
2296.490 14032269 13959348 13885552 13830334 13811771 13842239 13925482 
2299.865 14054823 14214846 14385403 14542979 14665588 14735000 14738936 
2303.240 14674804 14551632 14391323 14227799 14098156 14036882 14064070 
2306.615 14179319 14360615 14570409 14765511 14911198 14987149 14994084 
2309.990 14947417 14871597 14790235 14721197 14674913 14655893 14666491 
2313.366 14708205 14782452 14889577 15025715 15186224 15364666 15557703 
2316.741 15765674 15991477 16238492 16507762 16797368 17107262 17442316 
2320.116 17818304 18255810 18772728 19367040 20003928 20608724 21078632 
2323.491 21303992 21200288 20731724 19925292 18864184 17669490 16471095 
2326.867 15381412 14474148 13777704 13279728 12943085 12723714 12585578 
2330.242 12506498 12474999 12483601 12522709 12576696 12628753 12666038 
2333.617 12684156 12689207 12694019 12713249 12757171 12829717 12928331 
2336.992 13048013 13183055 13327351 13472822 13606833 13713413 13774388 
2340.368 13776364 13715523 13601516 13455080 13302392 13165629 13057292 
2343.743 12975741 12910683 12847329 12774671 12689079 12594490 12499003 
2347.118 12408050 12323760 12243928 12165961 12091353 12027823 11988145 
2350.493 11984300 12022855 12098164 12193536 12283594 12342843 12350107 
2353.869 12297699 12188589 12036895 11861636 11682939 11517544 11377056 
2357.244 11267564 11187890 11131172 11084391 11030319 10953076 10841191 
2360.619 10692126 10513782 10323693 10142258 9988526 9872615 9794224 9742610 
2364.477 9701892 9657202 9598968 9525918 9446512 9372223 9316906 9288879 
2368.334 9289426 9312383 9345408 9371478 9375048 9344140 9276276 9178259 
2372.191 9067370 8965484 8896004 8876157 8911916 8997930 9118360 9253146 
2376.049 9384348 9499487 9595687 9675950 9745911 9810657 9870733 9924709 
2379.906 9969553 10003822 10028471 10045241 10055562 10055765 10040740 
2383.281 10001311 9932202 9833723 9714796 9590569 9479946 9399287 9359295 
2387.139 9362702 9406501 9483856 9586806 9707064 9836337 9962636 10070848 
2390.996 10144473 10169002 10137601 10053840 9932032 9793537 9659647 9545096 
2394.854 9453491 9376992 9302230 9214304 9105042 8977401 8842914 8720169 
2398.711 8627757 8580601 8586093 8644587 8749709 8892510 9061554 9246267 
2402.569 9437755 9628791 9815514 9997601 10176814 10357334 10541259 10727221 
2406.426 10906763 11065290 11183350 11242278 11227833 11136347 10975372 
2409.801 10764101 10528104 10295134 10087850 9921503 9800615 9722372 9678317 
2413.659 9661123 9666202 9693890 9747433 9828707 9933536 10049976 10157418 
2417.516 10233449 10259920 10230491 10154354 10055613 9964531 9910254 
2420.891 9907207 9951374 10021078 10085545 10116000 10098395 10037732 
2424.267 9958723 9895987 9882219 9938136 10064109 10243324 10447572 10646172 
2428.124 10816192 10943947 11027445 11071119 11081126 11064528 11027247 
2431.499 10975299 10919264 10870942 10843535 10845358 10877570 10931065 
2434.875 10990208 11036249 11053765 11037928 10993774 10938263 10890402 
2438.250 10868724 10883363 10934425 11012053 11100501 11183267 11248826 
2441.625 11293482 11321389 11344239 11373395 11419421 11484048 11560819 
2445.000 11636318 11695382 11725792 11724661 11700495 11672222 11660827 
2448.375 11685512 11751967 11851435 11959737 12045016 12076539 12034478 
2451.751 11916328 11739410 11535343 11342240 11194774 11116533 11112883 
2455.126 11173179 11273132 11382758 11473595 11525465 11532091 11501342 
2458.501 11453127 11413622 11406799 11448084 11538332 11662501 11792666 
2461.876 11895595 11939836 11905619 11787631 11597895 11361494 11112761 
2465.252 10885027 10708989 10603136 10575412 10617686 10709767 10822626 
2468.627 10923726 10983546 10984039 10920453 10805828 10662895 10520747 
2472.002 10403045 10324345 10285740 10280135 10295047 10321307 10353205 
2475.377 10392486 10440895 10498354 10559900 10617076 10662504 10695098 
2478.753 10720652 10752355 10802413 10876395 10968347 11060587 11130026 
2482.128 11158030 11137675 11078662 11003083 10938786 10906901 10917334 
2485.503 10964873 11033651 11105121 11164719 11207770 11236097 11256351 
2488.878 11274279 11291217 11305907 11313599 11311203 11297628 11273787 
2492.254 11242343 11206966 11170824 11142431 11132064 11153839 11219307 
2495.629 11332347 11482799 11647881 11794228 11891288 11919609 11881486 
2499.004 11799655 11710598 11652239 11648292 11702465 11796962 11900301 
2502.379 11980216 12013465 11991374 11919036 11810942 11682262 11547259 
2505.755 11414986 11294676 11195566 11128396 11102083 11119832 11175541 
2509.130 11256645 11342991 11419713 11477888 11520198 11556637 11600325 
2512.505 11658754 11733283 11815000 11889008 11939882 11955230 11926685 
2515.880 11852285 11734969 11583991 11414688 11250740 11121564 11056000 
2519.256 11075063 11184798 11369925 11599465 11832097 12032172 12179039 
2522.631 12273323 12333409 12383373 12442916 12517119 12592878 12648015 
2526.006 12659065 12614910 12519501 12391292 12254745 12132647 12036353 
2529.381 11967056 11917905 11881275 11853024 11833835 11827101 11834866 
2532.757 11854932 11882471 11912058 11941910 11977291 12027293 12100418 
2536.132 12198893 12314069 12428450 12519673 12570275 12572835 12531915 
2539.507 12464172 12390368 12326751 12283292 12259738 12250652 12248121 
2542.882 12246184 12243224 12239920 12237381 12236717 12236817 12237343 
2546.258 12238382 12241468 12248480 12260272 12273945 12285404 12289863 
2549.633 12285697 12276230 12270262 12276599 12303281 12349640 12408585 
2553.008 12469610 12521421 12560155 12589835 12620463 12664464 12725957 
2556.383 12800754 12873271 12923274 12932396 12892731 12809311 12699789 
2559.759 12587238 12493527 12433848 12412420 12425740 12466367 12525726 
2563.134 12598682 12681031 12767885 12852199 12923137 12969424 12981494 
2566.509 12957608 12904976 12837440 12774612 12735696 12735761 12781638 
2569.884 12873610 13006204 13171011 13357197 13554266 13749713 13931369 
2573.260 14084458 14194442 14247634 14234836 14152215 14003720 13803426 
2576.635 13573110 13340765 13137933 12994084 12931519 12961597 13081959 
2580.010 13277973 13523766 13790390 14048686 14275691 14456363 14582079 
2583.385 14650269 14661156 14616441 14520436 14381284 14211898 14032844 
2586.760 13867293 13738751 13665373 13656808 13711095 13817165 13957334 
2590.136 14112950 14266041 14402422 14511473 14586555 14622333 14618702 
2593.511 14579982 14517137 14447043 14391641 14370976 14400823 14486190 
2596.886 14622317 14793995 14982251 15167548 15335489 15478108 15593195 
2600.261 15682308 15749084 15797187 15831236 15856203 15879868 15909573 
2603.637 15952151 16011814 16086724 16172266 16260466 16345114 16422354 
2607.012 16492084 16556412 16614798 16662948 16690416 16683497 16631385 
2610.387 16531514 16393520 16239701 16100058 16004885 15974041 16014220 
2613.762 16113529 16248289 16389439 16510617 16595615 16640192 16649943 
2617.138 16637435 16615245 16593130 16576029 16565872 16561965 16564751 
2620.513 16575197 16595604 16627742 16671611 16726261 16789304 16859340 
2623.888 16936382 17022010 17118540 17227204 17344486 17464210 17575766 
2627.263 17666688 17726874 17751084 17742844 17712920 17680422 17665960 
2630.639 17687700 17757966 17878118 18038812 18222274 18405828 18567490 
2634.014 18690724 18767168 18798114 18792056 18761672 18721416 18682212 
2637.389 18651348 18631306 18620586 18615634 18612102 18606880 18598542 
2640.764 18588514 18580966 18581868 18598516 18637060 18701610 18792806 
2644.140 18905860 19032242 19159300 19274118 19364202 19419986 19436016 
2647.515 19410470 19345480 19246654 19121024 18979034 18832722 18695748 
2650.890 18580966 18499716 18458798 18459920 18497840 18563648 18645206 
2654.265 18730642 18810842 18879892 18936274 18979610 19009362 19023018 
2657.641 19014922 18976562 18899952 18778098 18608934 18395940 18149512 
2661.016 17884238 17617408 17365050 17140766 16951812 16800420 16684186 
2664.391 16597919 16536076 16494906 16471641 16465299 16474552 16497431 
2667.766 16528832 16563566 16595261 16619792 16635085 16641770 16642442 
2671.142 16639698 16635880 16631426 16625265 16617395 16608978 16602360 
2674.517 16600767 16607536 16621951 16641764 16661491 16676012 16682616 
2677.892 16682379 16679531 16680371 16688239 16702680 16716408 16717609 
2681.267 16694933 16641334 16558418 16457541 16356813 16276166 16231745 
2684.643 16229339 16263830 16320527 16378960 16419636 16428269 16401146 
2688.018 16342582 16265754 16187368 16124768 16091513 16095212 16136423 
2691.393 16209023 16301729 16400896 16493866 16571304 16629223 16669683 
2694.768 16697479 16718226 16736073 16749941 16756291 16749857 16728373 
2698.144 16694183 16655719 16626587 16620394 16646773 16705288 16786608 
2701.519 16871508 16938002 16965826 16943776 16872376 16763333 16636264 
2704.894 16513528 16414301 16349861 16321773 16323496 16342958 16366610 
2708.269 16384354 16390821 16387003 16378082 16370984 16371710 16382638 
2711.645 16402313 16425366 16445786 16458189 16459748 16451638 16437139 
2715.020 16422002 16410865 16407210 16412405 16425630 16446169 16472736 
2718.395 16503880 16537594 16571498 16601305 16623169 16633609 16631074 
2721.770 16617374 16596355 16573953 16554469 16540747 16533880 16531590 
2725.146 16533691 16541010 16557403 16587630 16637022 16706500 16791406 
2728.521 16881854 16963070 17020928 17044488 17029970 16981118 16907922 
2731.896 16822584 16737502 16661115 16597748 16547309 16508337 16479278 
2735.271 16459301 16449062 16448926 16460007 16480288 16507193 16537331 
2738.646 16566833 16594043 16618690 16642695 16669381 16701786 16741844 
2742.022 16789476 16840810 16890134 16928140 16945776 16936398 16895924 
2745.397 16827392 16738176 16642194 16554682 16491042 16461352 16469873 
2748.772 16512837 16580570 16658952 16733300 16792152 16828560 16842328 
2752.147 16838436 16825566 16813252 16810274 16820988 16846150 16881406 
2755.523 16920566 16955848 16981786 16996338 17001070 17001358 17004330 
2758.898 17016018 17039762 17074460 17115388 17155120 17186050 17202976 
2762.273 17204308 17191434 17169542 17145230 17125462 17116834 17125578 
2765.648 17156172 17211876 17292988 17395802 17511870 17627900 17728988 
2769.024 17801258 17836300 17833258 17801986 17759054 17724780 17717050 
2772.399 17747070 17815892 17916072 18034208 18156220 18270162 18371926 
2775.774 18460842 18541480 18616360 18686126 18747138 18793394 18819004 
2779.149 18821710 18806266 18782774 18765912 18770008 18804714 18873320 
2782.525 18969116 19079278 19188268 19282124 19352018 19398592 19430648 
2785.900 19461496 19506144 19575202 19672074 19791236 19920686 20044932 
2789.275 20149686 20226662 20276128 20305204 20326394 20353324 20396258 
2792.650 20460098 20542688 20637272 20733586 20822498 20897504 20956140 
2796.026 21000940 21036992 21071828 21113378 21166724 21234906 21315668 
2799.401 21403444 21489556 21565594 21625794 21669294 21702410 21735356 
2802.776 21781162 21850246 21946600 22065694 22197808 22327700 22443262 
2806.151 22537752 22612672 22677098 22744112 22827358 22935672 23073710 
2809.527 23237904 23422388 23618924 23819926 24018266 24208534 24386348 
2812.902 24548838 24696192 24832476 24964722 25104172 25261582 25445642 
2816.277 25658370 25896372 26150616 26410720 26668862 26923806 27180124 
2819.652 27449772 27745842 28081288 28463144 28892908 29366636 29876058 
2823.028 30413092 30970978 31547152 32143578 32767888 33429946 34143420 
2826.403 34919672 35767940 36691480 37686448 38743380 39849108 40990688 
2829.778 42159040 43351608 44572960 45832732 47141088 48506416 49930396 
2833.153 51409440 52936220 54502184 56102324 57734380 59401972 61109584 
2836.529 62859968 64653524 66485600 68348520 70234368 72137960 74057792 
2839.904 75998744 77968232 79975440 82027200 84127888 86277832 88475320 
2843.279 90719600 93012344 95357208 97757544 100212360 102709936 105220920 
2846.654 107696336 110067136 112250928 114160664 115717672 116863648 
2849.547 117570408 117843272 117720280 117265128 116558152 115681624 
2852.440 114713680 113716576 112733192 111786904 110883160 110014392 
2855.333 109165408 108318168 107458424 106577176 105672536 104745528 
2858.227 103802216 102846776 101882944 100911320 99933680 98952096 97971584 
2861.602 97001600 96052424 95135608 94259944 93429072 92644024 91899744 
2864.977 91190720 90510680 89853944 89216840 88597600 87995400 87410944 
2868.352 86845400 86301136 85782592 85294024 84840616 84428864 84064232 
2871.728 83752064 83497168 83303104 83170440 83095336 83071432 83089424 
2875.103 83140232 83219144 83327208 83474152 83673928 83942632 84291016 
2878.478 84721664 85227760 85795384 86409592 87060768 87749144 88485072 
2881.853 89285808 90167680 91139480 92199024 93332680 94519224 95737568 
2885.229 96972264 98216616 99473048 100749336 102052640 103388256 104755440 
2888.604 106149424 107563320 108990080 110424576 111861328 113296720 
2891.497 114725656 116144768 117553528 118955080 120357816 121772952 
2894.390 123212016 124683880 126190768 127729432 129292576 130873216 
2897.283 132468400 134081112 135718080 137389488 139102000 140860128 
2900.176 142662720 144508864 146398224 148336448 150333312 152401168 
2903.069 154550640 156785488 159100336 161481520 163912096 166378080 
2905.962 168874048 171408512 174000080 176675632 179463424 182384560 
2908.855 185449984 188657248 191993776 195440192 198975600 202579824 
2911.748 206236240 209928576 213638064 217339568 220997600 224566720 
2914.641 227993344 231220272 234194736 236873008 239226480 241243632 
2917.534 242927696 244292592 245359248 246148208 246679744 246970080 
2920.427 247034736 246890592 246557904 246059808 245422112 244670032 
2923.321 243826272 242907936 241926512 240889056 239799136 238659008 
2926.214 237468592 236227280 234932400 233579280 232161584 230674752 
2929.107 229117696 227494688 225817152 224100576 222361440 220614544 
2932.000 218867264 217118512 215360768 213580912 211767472 209913008 
2934.893 208017552 206089760 204143520 202194496 200255648 198332432 
2937.786 196422448 194514832 192594464 190644912 188653040 186612320 
2940.679 184522384 182389504 180222352 178030864 175823264 173606672 
2943.572 171386592 169169856 166963088 164776656 162619760 160500688 
2946.465 158425616 156396544 154411856 152467392 150558160 148678224 
2949.358 146821648 144980992 143146608 141308176 139453952 137575664 
2952.251 135666560 133726656 131758960 129769208 127760232 125734464 
2955.144 123689528 121623320 119533896 117425048 115304664 113185752 
2958.037 111081968 109005120 106961264 104951632 102972360 101019200 
2960.930 99087816 97178208 95292624 93437808 91621296 89852760 88141336 
2964.306 86496152 84924328 83429728 82009912 80656616 79355136 78089232 
2967.681 76844536 75614424 74402304 73222376 72095296 71040712 70073720 
2971.056 69198864 68408320 67687312 67016184 66376084 65751860 65134592 
2974.431 64520420 63908944 63304080 62710276 62132816 61577976 61049056 
2977.807 60546752 60065880 59597856 59130992 58655260 58165200 57660712 
2981.182 57148324 56637408 56134788 55645320 55167624 54697184 54228408 
2984.557 53759856 53294224 52839620 52407192 52006596 51644808 51324724 
2987.932 51045184 50804124 50598032 50424748 50281928 50167892 50080616 
2991.308 50021640 49994984 50009848 50081064 50226012 50462172 50801800 
2994.683 51250600 51806360 52459764 53198084 54009164 54882220 55809820 
2998.058 56785992 57804324 58857960 59934428 61017404 62084936 63108800 
3001.433 64057304 64894208 65585128 66102124 66427356 66557616 66504716 
3004.809 66291852 65947080 65498428 64968020 64370780 63716216 63013024 
3008.184 62272584 61513932 60760808 60040892 59381040 58803656 58325728 
3011.559 57958072 57708988 57584812 57591220 57736284 58028264 58477368 
3014.934 59096448 59901632 60912088 62149220 63631736 65373176 67376792 
3018.310 69635272 72130464 74839912 77737936 80800528 84005232 87328376 
3021.685 90738424 94194064 97638936 101006704 104220440 107202640 109879296 
3025.060 112184560 114063632 115474672 116388072 116788880 116676472 
3027.953 116065056 114982656 113468648 111568264 109332728 106813704 
3030.846 104062128 101130224 98071424 94938344 91783472 88653344 85587416 
3034.221 82613648 79749280 77002976 74377304 71873872 69497256 67252520 
3037.597 65147520 63187048 61372520 59699624 58156824 56728160 55395700 
3040.972 54141724 52953912 51826016 50760432 49768564 48866992 48075376 
3044.347 47410056 46880632 46485960 46213540 46043508 45951920 45918424 
3047.722 45931656 45992348 46111320 46308692 46606200 47022920 47570844 
3051.098 48251868 49060300 49982760 51001260 52097112 53250760 54444664 
3054.473 55663744 56895200 58129008 59357456 60574592 61774840 62951052 
3057.848 64092076 65181940 66198060 67111496 67889704 68498416 68908696 
3061.223 69099024 69061080 68800648 68335944 67694824 66908224 66005556 
3064.599 65009512 63935808 62795028 61596700 60351656 59077336 57796856 
3067.974 56536084 55319472 54166704 53089516 52090820 51169088 50319028 
3071.349 49536520 48821488 48177848 47613024 47136548 46757452 46482008 
3074.724 46312740 46244788 46269556 46373148 46538512 46751464 47001152 
3078.100 47285096 47608712 47981764 48415460 48914184 49471912 50068096 
3081.475 50669168 51231320 51707796 52055228 52237464 52231076 52024088 
3084.850 51617900 51023516 50261396 49357200 48339564 47235732 46067664 
3088.225 44850644 43592804 42297844 40970920 39623600 38275956 36957468 
3091.601 35704352 34549572 33519380 32626678 31869582 31234274 30699454 
3094.976 30240924 29838820 29476978 29145206 28838574 28555920 28302486 
3098.351 28086860 27923292 27827312 27813504 27889030 28050810 28281800 
3101.726 28553624 28830210 29074054 29254868 29351788 29357398 29274918 
3105.102 29116198 28894900 28625636 28318602 27980756 27614830 27221260 
3108.477 26799948 26350900 25876250 25380830 24870848 24356916 23848474 
3111.852 23356122 22888964 22454226 22056718 21699456 21381910 21103332 
3115.227 20860254 20647442 20459434 20292258 20141926 20007704 19890442 
3118.603 19792860 19715704 19656146 19607790 19559632 19500552 19420994 
3121.978 19316762 19192042 19055546 18920170 18796206 18689010 18597110 
3125.353 18514636 18432666 18345636 18252914 18159642 18075698 18011054 
3128.728 17973072 17963238 17976826 18005450 18038388 18065134 18078222 
3132.104 18072276 18045296 17996530 17927130 17838990 17735886 17623072 
3135.479 17507294 17395590 17296386 17215680 17158638 17128536 17126218 
3138.854 17148966 17193308 17252836 17319978 17388188 17452736 17511506 
3142.229 17566180 17621614 17682868 17755116 17839736 17934836 18034514 
3145.604 18129790 18211686 18270264 18296626 18285058 18229828 18130606 
3148.980 17988024 17809886 17609416 17405420 17220634 17078528 16998454 
3152.355 16991330 17056646 17182922 17349568 17530038 17700002 17840066 
3155.730 17940242 18000200 18026366 18030286 18023290 18013848 18007694 
3159.105 18006940 18012658 18024742 18043196 18067916 18096038 18122892 
3162.481 18141266 18144772 18130124 18099958 18062984 18031634 18017802 
3165.856 18027884 18059858 18102048 18137556 18150204 18130100 18078394 
3169.231 18004440 17924404 17853388 17798848 17760048 17728474 17692420 
3172.606 17644534 17583856 17518590 17460754 17421548 17407042 17415224 
3175.982 17436838 17462184 17484026 17503842 17528678 17571228 17639284 
3179.357 17735212 17848356 17960368 18049146 18095024 18088690 18033640 
3182.732 17943642 17840912 17745954 17674590 17631420 17610788 17601270 
3186.107 17588538 17562008 17519108 17466356 17416588 17386272 17389652 
3189.483 17435620 17524522 17647502 17789268 17929696 18049074 18129488 
3192.858 18158700 18131644 18051616 17931262 17790828 17655300 17550304 
3196.233 17496970 17506582 17578414 17699630 17849874 18006724 18151610 
3199.608 18274104 18370862 18444656 18497732 18529434 18533946 18504156 
3202.984 18435214 18331084 18205208 18080166 17981664 17928752 17929834 
3206.359 17978372 18054372 18132120 18186748 18203694 18179826 18126114 
3209.734 18059886 18002264 17968006 17966070 17995176 18047360 18110452 
3213.109 18173460 18228394 18272884 18309726 18344524 18381062 18419878 
3216.485 18453634 18470114 18453656 18393548 18286966 18143844 17986864 
3219.860 17844762 17745748 17708634 17737336 17820426 17934034 18050608 
3223.235 18145478 18202940 18219408 18200810 18161856 18120074 18093220 
3226.610 18097226 18142172 18229924 18352594 18490922 18616292 18697686 
3229.986 18709044 18638950 18495400 18307026 18115042 17962512 17882306 
3233.361 17888226 17971090 18104890 18254484 18387196 18480962 18527718 
3236.736 18533194 18510524 18476544 18447010 18432254 18439564 18471890 
3240.111 18527612 18601192 18684918 18766822 18836014 18882042 18898026 
3243.487 18882974 18840578 18778448 18709226 18647392 18609404 18610646 
3246.862 18662568 18768918 18921870 19100954 19275752 19412962 19484944 
3250.237 19477572 19396708 19265160 19116326 18984174 18894586 18857516 
3253.612 18869490 18915006 18975622 19036038 19085430 19120296 19139640 
3256.988 19144550 19135792 19114990 19086742 19059692 19043024 19046064 
3260.363 19074610 19125940 19192184 19258884 19313342 19345454 19351930 
3263.738 19335716 19304146 19266210 19230016 19202034 19186884 19188508 
3267.113 19208132 19245860 19299516 19363292 19431916 19498150 19557814 
3270.489 19608924 19651486 19686362 19714764 19737126 19755208 19773078 
3273.864 19797874 19839516 19907684 20006794 20133688 20274936 20411392 
3277.239 20520696 20585962 20600234 20569426 20509734 20444738 20399014 
3280.614 20394186 20444158 20555254 20723770 20937260 21174916 21409146 
3283.990 21609896 21751734 21817584 21808520 21741858 21650082 21571888 
3287.365 21542652 21583744 21700066 21879494 22098624 22333010 22563404 
3290.740 22782608 22994032 23208880 23442222 23704062 23999536 24324898 
3294.115 24668310 25013450 25340436 25631358 25870928 26051444 26173620 
3297.490 26244984 26279764 26291282 26291008 26282714 26263616 26225804 
3300.866 26161022 26064038 25937288 25787226 25625556 25461958 25302344 
3304.241 25147046 24990270 24823886 24639306 24431632 24199756 23947010 
3307.616 23680760 23409018 23141592 22886286 22647876 22427932 22224442 
3310.991 22032172 21845108 21657900 21469994 21284400 21108018 20948992 
3314.367 20813548 20704038 20617572 20548468 20488712 20432950 20378510 
3317.742 20327960 20287092 20263168 20263992 20294152 20355002 20443096 
3321.117 20548968 20658450 20753454 20814988 20829736 20791646 20706960 
3324.492 20591526 20470932 20370644 20312578 20306472 20351334 20434004 
3327.868 20534480 20631190 20704550 20741118 20736066 20691162 20618038 
3331.243 20533478 20458636 20413000 20409796 20452510 20532540 20630862 
3334.618 20726864 20802274 20849676 20872878 20882958 20891360 20901110 
3337.993 20903568 20880780 20811856 20687136 20512336 20312140 20123140 
3341.369 19982928 19917000 19930990 20010108 20125640 20245262 20342562 
3344.744 20403484 20424298 20409592 20366662 20301568 20223190 20141416 
3348.119 20069748 20025620 20023440 20067842 20152772 20257200 20354352 
3351.494 20418086 20432286 20395686 20320666 20228276 20140934 20074418 
3354.870 20036734 20027216 20039902 20067922 20102602 20136506 20161278 
3358.245 20169816 20158942 20131596 20099728 20082182 20098724 20162464 
3361.620 20272186 20410076 20544510 20638994 20663878 20606588 20475694 
3364.995 20297176 20108450 19944912 19832330 19780558 19782938 19821170 
3368.371 19870956 19908986 19918176 19890354 19829474 19748772 19667366 
3371.746 19605420 19578442 19592340 19641242 19709980 19778516 19829508 
3375.121 19854668 19854106 19836646 19812488 19787648 19760304 19723650 
3378.496 19668606 19593238 19504354 19417488 19351714 19320990 19328626 
3381.872 19366122 19416008 19462502 19495036 19515310 19533318 19560646 
3385.247 19603444 19658530 19712038 19748052 19755756 19735928 19700628 
3388.622 19669068 19657870 19672844 19708538 19748686 19777228 19786190 
3391.997 19781258 19780310 19805908 19874704 19986718 20125446 20258754 
3395.373 20351052 20372990 20311880 20174084 19982404 19768108 19563478 
3398.748 19394412 19275758 19211960 19199280 19227456 19281898 19347664 
3402.123 19409906 19457894 19485554 19494484 19493590 19494978 19510542 
3405.498 19547834 19606288 19678716 19753338 19819866 19873820 19918636 
3408.874 19962206 20014834 20080874 20155874 20226424 20273628 20279930 
3412.249 20235690 20144218 20021200 19887962 19766040 19670578 19604220 
3415.624 19560314 19524774 19483828 19428192 19356254 19275002 19195686 
3418.999 19130230 19090008 19082028 19109854 19174776 19274858 19406904 
3422.375 19563240 19733426 19904136 20060658 20189750 20281280 20328998 
3425.750 20330248 20285354 20196138 20067084 19907614 19732582 19563734 
3429.125 19426168 19343480 19330660 19388876 19504124 19649592 19795690 
3432.500 19916948 19999166 20042562 20055752 20050264 20031972 19996832 
3435.875 19932958 19827642 19674422 19482178 19274328 19085490 18952232 
3439.251 18900994 18940812 19059826 19229578 19412444 19570082 19672546 
3442.626 19704078 19662220 19557354 19410036 19244778 19089430 18968970 
3446.001 18904100 18906742 18978670 19111696 19286660 19479750 19663654 
3449.376 19814860 19915964 19958830 19943892 19880860 19785480 19675944 
3452.752 19570902 19486126 19430536 19408206 19416134 19449924 19503904 
3456.127 19573560 19657626 19753328 19856486 19958756 20043522 20094168 
3459.502 20093252 20031110 19909934 19743534 19556194 19374404 19220120 
3462.877 19106594 19033370 18991042 18963230 18935994 18899330 18852544 
3466.253 18799350 18748234 18706758 18681326 18674382 18685588 18714604 
3469.628 18759572 18819454 18892630 18975376 19062458 19145958 19215966 
3473.003 19261872 19274338 19245420 19171608 19054408 18901270 18724316 
3476.378 18539876 18366480 18220812 18115350 18056980 18046184 18077734 
3479.754 18144646 18239006 18353354 18482690 18621648 18764976 18905436 
3483.129 19034610 19143490 19225288 19278110 19306504 19319820 19332670 
3486.504 19359446 19411854 19494126 19601006 19718346 19825770 19899844 
3489.879 19921454 19879332 19772512 19613766 19425220 19234422 19070550 
3493.255 18955400 18901876 18909406 18965712 19049824 19135488 19199712 
3496.630 19226294 19209114 19155082 19080964 19008240 18958508 18946562 
3500.005 18976530 19042676 19129986 19220732 19299402 19356946 19392876 
3503.380 19413648 19429960 19452860 19488470 19538912 19601248 19668666 
3506.756 19731986 19781078 19804286 19791344 19731178 19618824 19454860 
3510.131 19251178 19029330 18820058 18656920 18568666 18572042 18667904 
3513.506 18837694 19050692 19267784 19452176 19576710 19630722 19619136 
3516.881 19562694 19488062 19423802 19389392 19392880 19428956 19481932 
3520.257 19531736 19562644 19567808 19552050 19528724 19516032 19527568 
3523.632 19568436 19631900 19706150 19776162 19834952 19883112 19931876 
3527.007 19994506 20080364 20188394 20304164 20403384 20460088 20455654 
3530.382 20386496 20263628 20113108 19964104 19843886 19768100 19739732 
3533.758 19749424 19780228 19812704 19830594 19819534 19772748 19689510 
3537.133 19574686 19439654 19301634 19181510 19099830 19071920 19103610 
3540.508 19188638 19308386 19438272 19550856 19624362 19647600 19620194 
3543.883 19554602 19468664 19382700 19314682 19275316 19268656 19290198 
3547.259 19329832 19374356 19409610 19424032 19409288 19363570 19289972 
3550.634 19197422 19097344 19003556 18927028 18873950 18845888 18838076 
3554.009 18840750 18845216 18842404 18829580 18808758 18787214 18773898 
3557.384 18775368 18792590 18820198 18845782 18855260 18836922 18784430 
3560.760 18700160 18592108 18469944 18342738 18214432 18082522 17942820 
3564.135 17791986 17631330 17472198 17330124 17223984 17169562 17173314 
3567.510 17231568 17328454 17441750 17545398 17617380 17643206 17619390 
3570.885 17553444 17461754 17366694 17290042 17247014 17242994 17269866 
3574.260 17308362 17332492 17319380 17253312 17133198 16971372 16790464 
3577.636 16616005 16469909 16367283 16313527 16309492 16351964 16437005 
3581.011 16559489 16710680 16874520 17031586 17160498 17244678 17279176 
3584.386 17274174 17249476 17230418 17234896 17268450 17320280 17370318 
3587.761 17395374 17382802 17333080 17261578 17188498 17130316 17090758 
3591.137 17059736 17018234 16948210 16842314 16711729 16582083 16487671 
3594.512 16458107 16509550 16638659 16824294 17035420 17239396 17410190 
3597.887 17534270 17608962 17640022 17637440 17610372 17566408 17509886 
3601.262 17444062 17373392 17304156 17244440 17205586 17197266 17225406 
3604.638 17287238 17369382 17449014 17497256 17487392 17407556 17266308 
3608.013 17096276 16946638 16870940 16910308 17077844 17354294 17688944 
3611.388 18018182 18280622 18435882 18473224 18413672 18297048 18169498 
3614.763 18069430 18019130 18023110 18074112 18157616 18261880 18377940 
3618.139 18500464 18625094 18745034 18853242 18938538 18991568 19005388 
3621.514 18975736 18902720 18790328 18648522 18491144 18339324 18216150 
3624.889 18143974 18138612 18203246 18325756 18481496 18639362 18770038 
3628.264 18855500 18893536 18895680 18881152 18868442 18865594 18868952 
3631.640 18865610 18837670 18773790 18673358 18549758 18425162 18326852 
3635.015 18274944 18281026 18340608 18438724 18553090 18661392 18748144 
3638.390 18809552 18853034 18897756 18967140 19081588 19252002 19476090 
3641.765 19733990 19994442 20222362 20385694 20465436 20459338 20381926 
3645.141 20258498 20117312 19982706 19869608 19782796 19719086 19673234 
3648.516 19642054 19624942 19623864 19641024 19672764 19711370 19742758 
3651.891 19752104 19728858 19667498 19573282 19459314 19344592 19249456 
3655.266 19191196 19180734 19220536 19303764 19415960 19538256 19649180 
3658.642 19730068 19766550 19750860 19683110 19568690 19416180 19236632 
3662.017 19039004 18830666 18616166 18400528 18188672 17987100 17803428 
3665.392 17646134 17523436 17439896 17397850 17394240 17422820 17472662 
3668.767 17534686 17598448 17658784 17714716 17768692 17824652 17885796 
3672.143 17949910 18010228 18055426 18075274 18063982 18026210 17975752 
3675.518 17932420 17913216 17926160 17962390 17999496 18006660 17954050 
3678.893 17824518 17620880 17362864 17082882 16814704 16583601 16401023 
3682.268 16264265 16162489 16085835 16029017 15995976 15995108 16034201 
3685.644 16114868 16228994 16359938 16486360 16587393 16650060 16669156 
3689.019 16648486 16599897 16538700 16480697 16441340 16430017 16450576 
3692.394 16497221 16556362 16608598 16633395 16616520 16554004 16454978 
3695.769 16339110 16231142 16151479 16112136 16112505 16142080 16185157 
3699.145 16226264 16253764 16262691 16250320 16216639 16161520 16088797 
3702.520 16007628 15932888 15883537 15877424 15921015 16004788 16101602 
3705.895 16173026 16180960 16102554 15937420 15712712 15473713 15269915 
3709.270 15140274 15101794 15150039 15262094 15409560 15571109 15735075 
3712.646 15901459 16074492 16254915 16433913 16593084 16710768 16768165 
3716.021 16758522 16690277 16586185 16477715 16396848 16367987 16405085 
3719.396 16508052 16665215 16855936 17055454 17239342 17387028 17486516 
3722.771 17534040 17534194 17499546 17443316 17378590 17312972 17250338 
3726.146 17189434 17128890 17067588 17006890 16950554 16901688 16862924 
3729.522 16836762 16825452 16834248 16869274 16937538 17040684 17170982 
3732.897 17308074 17423584 17485354 17469606 17369670 17200678 16998510 
3736.272 16808950 16674899 16622631 16652176 16742418 16855216 16952152 
3739.647 17006672 17011118 16977368 16930210 16895816 16890850 16915706 
3743.023 16955354 16984984 16978900 16922792 16821416 16696952 16585002 
3746.398 16523311 16541366 16649354 16835540 17068604 17304898 17499472 
3749.773 17619894 17653690 17610608 17517770 17409334 17315202 17252586 
3753.148 17222380 17212276 17204556 17185396 17150388 17106818 17071164 
3756.524 17060150 17086364 17150828 17245260 17353062 17457246 17543208 
3759.899 17603504 17636996 17645806 17635474 17608126 17565402 17510064 
3763.274 17445264 17378054 17318770 17278378 17266348 17287472 17340506 
3766.649 17419792 17514110 17609972 17693372 17751170 17773010 17753440 
3770.025 17693210 17601902 17494156 17392078 17316246 17283474 17301852 
3773.400 17366730 17465244 17577186 17684232 17773484 17842146 17894514 
3776.775 17939810 17983600 18023604 18048054 18037066 17969742 17832776 
3780.150 17625652 17366090 17084860 16821452 16613586 16487721 16454754 
3783.526 16508259 16626872 16781622 16942766 17086980 17199934 17277048 
3786.901 17322734 17345484 17353398 17354468 17351222 17344800 17334066 
3790.276 17318884 17301668 17287494 17282964 17294560 17326220 17375664 
3793.651 17437706 17502044 17559034 17602568 17633148 17658908 17691154 
3797.027 17741342 17815960 17911334 18014756 18107896 18170016 18186958 
3800.402 18153874 18076860 17973342 17863948 17769944 17707246 17686314 
3803.777 17710844 17779466 17887738 18027138 18184566 18344210 18487458 
3807.152 18595930 18657994 18669546 18637196 18575102 18499852 18425984 
3810.528 18361806 18307188 18257920 18208004 18153988 18098426 18046684 
3813.903 18004256 17974084 17951438 17927000 17888372 17825832 17737078 
3817.278 17625934 17503776 17384282 17277548 17192406 17133326 17103772 
3820.653 17108746 17153756 17244198 17380986 17556984 17757118 17958728 
3824.029 18137102 18273520 18357314 18389106 18379502 18341952 18289910 
3827.404 18231058 18167324 18097672 18018390 17931912 17843618 17762618 
3830.779 17699174 17660990 17652694 17673134 17716300 17773466 17834242 
3834.154 17884896 17913470 17908528 17864024 17781868 17673108 17557130 
3837.530 17457316 17393336 17376758 17404776 17461848 17525366 17573472 
3840.905 17593810 17587790 17569156 17560552 17582318 17646548 17750958 
3844.280 17881016 18012402 18122714 18194284 18221558 18208768 18169428 
3847.655 18119386 18071004 18033826 18010948 17999538 17995606 17994248 
3851.031 17992244 17988564 17983720 17980294 17980478 17985570 17994920 
3854.406 18005302 18013882 18017424 18015544 18010824 18009200 18016230 
3857.781 18036054 18066996 18101562 18127734 18132714 18107832 18052942 
3861.156 17977484 17897998 17831172 17791624 17781554 17793606 17812130 
3864.531 17820562 17806220 17768316 17715908 17668534 17646010 17662582 
3867.907 17723580 17820474 17935666 18046874 18133754 18184490 18196998 
3871.282 18180596 18148886 18116392 18092576 18078614 18068284 18049384 
3874.657 18011016 17946558 17858334 17757894 17661850 17587982 17549016 
3878.032 17547952 17578962 17628288 17681004 17724120 17750490 17759064 
3881.408 17752562 17735142 17710308 17680136 17649700 17627052 17626900 
3884.783 17667068 17763702 17925160 18146278 18407706 18678616 18924234 
3888.158 19113534 19227184 19259284 19215790 19113106 18969860 18806910 
3891.533 18644454 18500748 18392736 18332428 18325440 18366836 18440332 
3894.909 18522456 18588162 18618262 18607906 18566872 18516950 18483076 
3898.284 18483144 18522388 18590376 18665568 18724054 18748716 18735482 
3901.659 18694010 18642596 18603850 18594384 18621002 18680450 18762024 
3905.034 18847542 18919872 18963562 18967078 18926356 18843994 18730328 
3908.410 18601584 18476090 18370086 18292212 18241168 18206616 18171006 
3911.785 18119410 18043824 17948570 17848454 17764564 17719186 17725300 
3915.160 17786072 17892622 18028832 18175318 18315688 18437730 18536848 
3918.535 18613548 18671892 18716728 18755010 18790280 18823590 18852044 
3921.911 18868162 18864304 18833112 18774050 18693286 18605542 18529214 
3925.286 18479824 18464868 18478970 18505442 18521916 18509458 18459632 
3928.661 18379266 18287838 18212174 18175850 18191242 18256660 18356990 
3932.036 18468802 18568004 18636940 18666894 18659168 18622314 18570954 
3935.412 18520638 18486130 18482198 18516898 18594860 18712416 18859162 
3938.787 19019682 19176556 19316056 19430914 19520974 19591780 19650716 
3942.162 19701474 19743792 19770918 19774128 19746410 19686024 19599322 
3945.537 19498982 19402586 19326542 19285786 19286426 19329392 19405310 
3948.913 19501104 19599702 19684962 19745882 19778480 19789374 19791654 
3952.288 19800694 19828544 19876542 19932906 19976024 19978326 19919514 
3955.663 19792810 19611194 19407016 19220708 19091656 19044256 19082252 
3959.038 19187500 19324354 19454224 19543120 19573376 19544428 19472460 
3962.414 19379898 19290372 19221016 19177004 19153570 19139564 19121830 
3965.789 19091604 19048352 18999240 18957430 18940064 18959112 19020178 
3969.164 19118092 19237980 19357372 19452984 19505246 19502820 19447026 
3972.539 19350092 19231840 19116100 19023364 18967892 18953950 18975158 
3975.915 19018214 19065676 19101560 19118000 19114720 19102512 19097230 
3979.290 19116072 19169986 19262848 19385752 19523360 19657546 19772426 
3982.665 19859172 19913640 19937144 19930078 19889488 19811496 19690616 
3986.040 19528976 19336992 19134302 18946542 18795754 18694102 18640922 
3989.416 18620196 18612424 18598636 18571348 18536434 18507662 18501340 
3992.791 18526704 18580294 18647536 18708916 18747428 18757856 18747272 
3996.166 18732938 18733592 18763830 18827012 18916862 19019994 19123292 
3999.541 19218044 19300630 19372114 
##END=
