##TITLE=Bambu-Lab_PETG_Lime-Green_Filament_r2_ATR-Corrected
##JCAMP-DX=5.01  $$ Nicolet v. 1
##DATATYPE=INFRARED SPECTRUM
##ORIGIN=Curtin University
##OWNER=Nicolet
##LONGDATE=2024/07/03
##TIME=14:43:35
##SPECTROMETER/DATA SYSTEM=Nicolet iS50
##DATA PROCESSING=
Ratio against background
%Transmittance->Absorbance
ATR Correction
Truncated
ElementMultiply or ElementDivide
##COMMENTS=
Number of sample scans: 32
Collection length: 47.29 sec
Sample gain: 1.0
Background collected on: Wed Jul 03 14:39:01 2024 (GMT+08:00);
Number of background scans: 32
Background gain: 1.0
Sample spacing:  1.000
Number of scan points: 16672
Resolution points: 8192
Number of FFT points: 65536
Apodization: N-B strong;
Phase correction: Mertz;
Laser frequency: 15798.3 cm-1
Number of rejected sample scans: 0
Number of rejected background scans: 0
Bench serial number: AUP1200105;
##RESOLUTION=4.000
##XUNITS=1/CM
##YUNITS=ABSORBANCE
##FIRSTX=400.163452
##LASTX=4000.187744
##FIRSTY=0.033861
##MAXX=4000.187744
##MINX=400.163452
##MAXY=1.483233
##MINY=-0.023238
##XFACTOR=1.000000
##YFACTOR=1.000000E-008
##NPOINTS=7468
##DELTAX=0.482125
##ZPD=8192
##XYDATA=(X++(Y..Y))
400.163 3386086 3447391 3474846 3468144 3436391 3395199 3363362 3358382 
404.020 3391969 3466722 3575104 3700828 3822929 3921271 3982181 4002232 
407.877 3988926 3957693 3926812 3911550 3920043 3951739 3998746 4049439 
411.734 4092617 4120969 4132380 4129311 4116643 4099428 4081419 4064944 
415.591 4051539 4042958 4041652 4050405 4071275 4104552 4148025 4197396 
419.448 4247246 4292581 4329934 4357948 4376873 4387878 4392140 4390583 
423.305 4384095 4373985 4362291 4351493 4343859 4340549 4341195 4344192 
427.162 4347705 4350877 4354547 4361043 4372955 4391352 4414494 4437494 
431.019 4453478 4455785 4440482 4407581 4362160 4312062 4265634 4229342 
434.876 4206160 4195276 4193002 4194322 4194411 4189662 4178214 4159944 
438.733 4136425 4110690 4086998 4070003 4063576 4069208 4084601 4103230 
442.590 4115339 4110424 4080627 4023849 3945278 3856635 3773282 3710030 
446.447 3677343 3678911 3711459 3766410 3832827 3900344 3961170 4010852 
450.304 4047653 4071511 4082974 4082854 4072350 4053489 4029285 4003402 
454.161 3979372 3959635 3945002 3934672 3926887 3919954 3913083 3906795 
458.017 3902725 3902852 3908558 3920026 3935925 3953826 3970842 3984526 
461.874 3993519 3997882 3998999 3999007 4000375 4004924 4013309 4024795 
465.731 4037335 4048111 4054324 4054042 4046828 4033988 4018287 4003275 
469.588 3992506 3988821 3994046 4008998 4033775 4068092 4111320 4162514 
473.445 4220003 4281214 4342632 4400212 4450093 4489439 4517163 4534279 
477.302 4543615 4549143 4554941 4564254 4578884 4599049 4623617 4650828 
481.159 4678824 4706377 4733124 4759613 4787003 4816629 4849489 4885935 
485.016 4925564 4967416 5010374 5053630 5097072 5141351 5187715 5237601 
488.873 5292177 5352018 5417024 5486617 5560051 5636715 5716266 5798615 
492.730 5883694 5971337 6061228 6153033 6246625 6342157 6439914 6539923 
496.587 6641368 6742142 6838699 6926417 7000328 7056004 7090342 7101843 
500.444 7090486 7057218 7003536 6931139 6842068 6738940 6625176 6504883 
504.301 6382358 6261310 6144147 6031609 5923019 5816953 5712265 5608836 
508.158 5507895 5411707 5322891 5243500 5174485 5115536 5065397 5022487 
512.015 4985374 4953092 4925044 4900724 4879406 4860110 4841824 4823940 
515.871 4806628 4790866 4778119 4769556 4765324 4764044 4762907 4758370 
519.728 4747232 4727765 4700413 4667727 4633654 4602299 4576605 4557563 
523.585 4544060 4533486 4522886 4510002 4494090 4475991 4457503 4440482 
527.442 4425887 4413302 4401042 4386853 4368911 4346632 4321035 4294426 
531.299 4269586 4248742 4232765 4220958 4211393 4201828 4190603 4177347 
535.156 4163035 4149535 4138782 4131988 4129196 4129315 4130649 4131558 
539.013 4131075 4129072 4126131 4123071 4120506 4118586 4117047 4115456 
542.870 4113528 4111239 4108678 4105797 4102050 4096382 4087394 4073868 
546.727 4055309 4032245 4006226 3979297 3953414 3929804 3908666 3889326 
550.584 3870738 3852129 3833433 3815429 3799470 3786932 3778632 3774486 
554.441 3773456 3773864 3773827 3771674 3766202 3756762 3743157 3725441 
558.298 3703799 3678498 3649878 3618417 3584717 3549474 3513416 3477239 
562.155 3441590 3407075 3374246 3343658 3315753 3290835 3268995 3250086 
566.012 3233680 3219165 3205783 3192672 3178956 3163863 3146881 3127901 
569.869 3107472 3086736 3067393 3051254 3039851 3033870 3032976 3035800 
573.725 3040301 3044381 3046463 3045907 3043037 3038871 3034557 3030879 
577.582 3027917 3025084 3021420 3016089 3008804 3000113 2991252 2983855 
581.439 2979428 2978910 2982412 2989184 2997935 3007264 3016140 3024276 
585.296 3032304 3041674 3054322 3072204 3096761 3128562 3167095 3210894 
589.153 3257869 3305827 3352955 3398275 3441779 3484451 3527990 3574420 
593.010 3625693 3683192 3747438 3817821 3892521 3968623 4042357 4109576 
596.867 4166298 4209236 4236232 4246403 4240043 4218306 4182782 4135133 
600.724 4076944 4009765 3935292 3855589 3773217 3691157 3612472 3540033 
604.581 3476100 3422153 3378882 3346174 3323342 3309138 3301885 3299465 
608.438 3299565 3299873 3298556 3294585 3288055 3280103 3272584 3267449 
612.295 3266175 3269265 3276205 3285736 3296420 3307198 3317722 3328408 
616.152 3340038 3353329 3368486 3385024 3401966 3418234 3433089 3446419 
620.009 3458760 3471074 3484386 3499522 3517057 3537387 3560919 3588104 
623.866 3619367 3654790 3693919 3735787 3779452 3824828 3873626 3929869 
627.723 3999586 4089408 4204391 4345460 4507501 4678673 4841644 4976604 
631.579 5065447 5095986 5064987 4978919 4852340 4704347 4554381 4418513 
635.436 4307107 4224274 4168776 4135916 4119677 4114537 4116445 4123102 
639.293 4133580 4147684 4165373 4186414 4210334 4236531 4264416 4293464 
643.150 4323132 4352716 4381283 4407662 4430699 4449526 4463832 4474049 
647.007 4481227 4486743 4491906 4497595 4504025 4510848 4517386 4523082 
650.864 4527815 4532097 4536998 4543845 4553822 4567601 4585159 4605842 
654.721 4628582 4652231 4675862 4698907 4721178 4742759 4763795 4784452 
658.578 4804878 4825313 4846225 4868347 4892682 4920248 4951760 4987287 
662.435 5025985 5066057 5105019 5140158 5169175 5190870 5205537 5215095 
666.292 5222769 5232465 5247944 5272035 5306123 5350008 5402196 5460419 
670.149 5522293 5585792 5649502 5712629 5774862 5836196 5896894 5957553 
674.006 6019218 6083423 6152062 6226936 6309291 6399186 6495177 6594328 
677.863 6692554 6785353 6868549 6938997 6994995 7036336 7064064 7080082 
681.720 7086675 7086237 7081009 7073057 7064263 7056345 7050837 7049045 
685.577 7051994 7060419 7074753 7095258 7122145 7155625 7196016 7243718 
689.433 7299038 7362100 7432669 7510098 7593422 7681630 7773992 7870451 
693.290 7971818 8079830 8196882 8325699 8468911 8628720 8806814 9004407 
697.147 9222375 9461357 9721675 10003065 10304331 10623046 10955443 11296663 
701.004 11641353 11984303 12321216 12649088 12966421 13272947 13569292 
704.379 13856439 14135404 14406943 14671552 14929534 15181270 15427469 
707.754 15669514 15909752 16151749 16400395 16661896 16943522 17253472 
711.129 17600414 17993448 18442102 18956686 19548682 20231190 21019136 
714.504 21929264 22979670 24189226 25576728 27160146 28955760 30977490 
717.878 33236096 35738392 38486012 41473956 44688152 48102076 51671624 
721.253 55328572 58972984 62466604 65631916 68262304 70149400 71125712 
724.628 71109264 70128696 68313800 65858132 62972836 59850760 56647276 
728.003 53475304 50408696 47489460 44735680 42149188 39721788 37440292 
731.378 35289748 33255612 31324372 29483638 27721968 26028746 24394416 
734.752 22811186 21273762 19780030 18331294 16931934 15588483 14308429 
738.127 13098910 11965761 10912933 9942441 9054659 8248760 7523033 6875147 
741.984 6302022 5799659 5363035 4986122 4662113 4383830 4144211 3936692 
745.841 3755593 3596192 3454782 3328585 3215596 3114409 3023989 2943454 
749.698 2871902 2808306 2751594 2700725 2654926 2613712 2576939 2544555 
753.555 2516405 2491994 2470476 2450824 2432177 2414129 2396941 2381442 
757.412 2368680 2359517 2354156 2352018 2351864 2352156 2351603 2349519 
761.269 2346058 2342114 2339064 2338385 2341347 2348831 2361225 2378546 
765.126 2400494 2426593 2456274 2488940 2524093 2561329 2600384 2641089 
768.983 2683284 2726740 2771098 2815867 2860520 2904601 2947801 2990013 
772.840 3031239 3071377 3110181 3147097 3181398 3212313 3239268 3262113 
776.697 3281305 3297910 3313568 3330356 3350562 3376483 3410200 3453355 
780.554 3507055 3571805 3647633 3734257 3831403 3938966 4057133 4186328 
784.410 4327051 4479646 4644238 4820769 5009218 5209846 5423337 5650665 
788.267 5892664 6149343 6419091 6698043 6979684 7254913 7512383 7739317 
792.124 7922474 8049322 8109323 8095260 8004436 7839572 7609153 7327031 
795.981 7011229 6681937 6359332 6061280 5801685 5589424 5428157 5316839 
799.838 5250694 5222476 5223758 5246056 5281716 5324426 5369475 5413630 
803.695 5454895 5492075 5524444 5551516 5572973 5588777 5599337 5605611 
807.552 5609069 5611403 5614139 5618204 5623633 5629590 5634641 5637297 
811.409 5636557 5632299 5625464 5617792 5611422 5608287 5609725 5616106 
815.266 5626898 5640865 5656377 5671797 5685745 5697286 5705974 5711846 
819.123 5715343 5717252 5718596 5720525 5724171 5730498 5740079 5753053 
822.980 5769073 5787459 5807417 5828384 5850247 5873488 5899069 5928176 
826.837 5961810 6000441 6043807 6090985 6140703 6191753 6243459 6295904 
830.694 6349917 6406738 6467611 6533287 6603778 6678368 6755795 6834746 
834.551 6914231 6993821 7073711 7154517 7236934 7321390 7407818 7495557 
838.408 7583507 7670381 7754928 7836238 7913755 7987265 8056724 8122124 
842.264 8183348 8240097 8291971 8338591 8379703 8415251 8445416 8470494 
846.121 8490814 8506607 8517978 8524992 8527816 8526893 8523045 8517506 
849.978 8511773 8507365 8505557 8507126 8512335 8520888 8532177 8545488 
853.835 8560282 8576314 8593792 8613449 8636494 8664629 8699923 8744656 
857.692 8801052 8871080 8956202 9057354 9175061 9309734 9462114 9633612 
861.549 9826507 10043854 10289221 10566182 10877939 11227009 11615203 
864.924 12043688 12513201 13024057 13575982 14167610 14795859 15455246 
868.299 16137318 16830490 17520108 18188964 18817986 19387256 19877164 
871.674 20269702 20549960 20707564 20737852 20642386 20428756 20109438 
875.048 19700026 19217290 18677442 18095100 17482820 16851366 16210201 
878.423 15567982 14932817 14312187 13712689 13139780 12597637 12089334 
881.798 11617184 11183046 10788497 10434666 10121846 9849020 9613560 9411321 
885.655 9237168 9085824 8952736 8834680 8729971 8638116 8559261 8493507 
889.512 8440462 8399159 8368160 8345885 8330801 8321532 8316817 8315380 
893.369 8315934 8317230 8318291 8318519 8317729 8315912 8312899 8307999 
897.226 8299898 8286798 8266833 8238560 8201215 8154696 8099270 8034972 
901.083 7961235 7876811 7780088 7669693 7545234 7407659 7259338 7103596 
904.940 6944127 6784275 6626722 6473442 6325947 6185577 6053775 5931919 
908.797 5821170 5721986 5634007 5555973 5486113 5422611 5364126 5310138 
912.654 5260963 5217464 5180704 5151389 5129640 5114849 5105936 5101567 
916.510 5100635 5102496 5107152 5115199 5127597 5145347 5169189 5199299 
920.367 5235196 5275777 5319454 5364426 5408879 5451262 5490434 5525813 
924.224 5557460 5586087 5613022 5639977 5668727 5700729 5736672 5776215 
928.081 5818071 5860248 5900700 5937879 5971328 6001730 6030793 6060695 
931.938 6093454 6130467 6172276 6218698 6269204 6323328 6380979 6442547 
935.795 6508789 6580578 6658710 6743822 6836412 6936884 7045743 7163546 
939.652 7290868 7428226 7576015 7734471 7903757 8083996 8275223 8477146 
943.509 8689021 8909374 9135970 9365962 9596279 9824067 10047144 10264225 
947.366 10474875 10679289 10877965 11071469 11260350 11445198 11626898 
950.741 11806672 11986042 12166547 12349310 12534511 12721106 12906606 
954.116 13087216 13258100 13413838 13548799 13657716 13736056 13780558 
957.490 13789542 13763407 13704681 13618064 13510053 13388349 13261160 
960.865 13136451 13021223 12921073 12839837 12779529 12740433 12721339 
964.240 12719880 12732932 12756965 12788457 12824041 12860778 12896143 
967.615 12928021 12954585 12974198 12985300 12986282 12975566 12951629 
970.990 12913142 12859161 12789229 12703526 12602763 12488168 12361239 
974.364 12223690 12077257 11923835 11765468 11604503 11443591 11285667 
977.739 11133663 10990238 10857470 10736624 10628121 10531556 10445966 
981.114 10370045 10302337 10241472 10186251 10135742 10089362 10046862 
984.489 10008308 9973948 9943993 9918404 9896707 9877932 9860749 9843765 
988.346 9825739 9806076 9784887 9763031 9741950 9723404 9709115 9700658 
992.203 9699218 9705625 9720375 9743771 9776046 9817531 9868724 9930441 
996.060 10003687 10089576 10189053 10302651 10430230 10570973 10723504 
999.435 10886232 11057827 11237632 11425979 11624259 11834841 12060768 
1002.809 12305507 12572725 12866196 13189824 13547710 13944252 14384075 
1006.184 14872052 15413326 16013402 16678602 17416642 18237508 19154330 
1009.559 20184022 21347382 22668358 24172128 25881940 27814726 29975498 
1012.934 32351038 34903352 37563856 40230148 42767228 45016112 46811012 
1016.309 48003944 48491408 48234476 47264788 45674748 43596736 41179144 
1019.683 38566724 35887680 33247426 30727092 28384936 26258892 24369642 
1023.058 22723738 21316610 20135244 19160918 18371446 17743176 17252596 
1026.433 16877402 16597380 16394788 16254464 16163874 16112871 16093419 
1029.809 16099203 16125391 16168204 16224810 16293125 16371681 16459560 
1033.184 16556184 16661201 16774285 16894940 17022438 17155784 17293734 
1036.559 17434896 17577812 17721028 17863112 18002676 18138314 18268562 
1039.934 18391894 18506600 18610864 18702726 18780082 18840742 18882622 
1043.310 18903838 18902990 18879392 18833290 18765906 18679364 18576382 
1046.685 18459908 18332658 18196928 18054466 17906782 17755530 17602940 
1050.060 17451968 17306250 17169676 17045772 16937122 16845078 16769829 
1053.435 16710833 16667417 16639429 16627446 16632900 16657677 16703793 
1056.811 16772904 16866190 16984222 17127044 17294252 17485054 17698268 
1060.186 17932410 18185822 18457052 18745094 19049742 19371640 19712082 
1063.561 20072580 20454474 20858600 21285280 21734576 22206738 22702520 
1066.936 23223348 23771172 24348172 24956484 25598124 26275176 26990300 
1070.312 27747124 28550426 29406046 30320340 31299546 32349154 33473700 
1073.687 34676756 35961180 37329340 38783088 40323388 41949712 43659444 
1077.062 45447456 47306008 49225032 51192604 53195196 55217904 57244528 
1080.437 59258044 61241080 63177584 65054332 66862584 68598744 70264352 
1083.813 71864512 73406032 74895840 76339728 77742088 79106352 80435488 
1087.188 81732264 82998984 84236800 85445024 86620632 87758008 88849224 
1090.563 89884184 90851032 91736344 92525864 93205168 93760848 94181592 
1093.938 94458720 94586136 94559720 94376280 94032944 93527272 92857840 
1097.313 92025144 91032640 89886784 88597160 87175552 85635488 83991792 
1100.689 82260048 80456208 78596088 76694784 74766400 72824176 70881288 
1104.064 68952096 67053272 65204676 63429248 61752136 60199040 58794464 
1107.439 57559972 56512748 55664760 55022164 54584944 54346580 54293824 
1110.814 54406600 54658264 55016428 55444480 55903488 56354684 56761704 
1114.190 57092572 57321088 57427664 57399564 57230832 56921696 56477584 
1117.565 55907984 55224816 54441148 53570056 52623952 51614456 50552540 
1120.940 49448800 48313512 47156692 45987804 44815536 43647668 42490964 
1124.315 41351340 40233880 39143036 38082476 37055084 36062800 35106660 
1127.691 34186832 33302694 32453058 31636242 30850210 30092534 29360488 
1131.066 28651104 27961510 27289134 26632014 25989004 25359852 24744964 
1134.441 24145166 23561242 22993692 22442484 21907022 21386292 20879072 
1137.816 20384186 19900664 19427908 18965676 18514002 18073130 17643302 
1141.192 17224714 16817384 16421276 16036235 15662299 15299653 14948778 
1144.567 14610404 14285333 13974236 13677441 13394786 13125649 12869009 
1147.942 12623677 12388477 12162375 11944535 11734188 11530610 11332911 
1151.317 11140166 10951388 10765781 10582814 10402305 10224415 10049562 
1154.693 9878285 9711191 9548922 9392212 9241967 9099313 8965518 8841915 
1158.550 8729674 8629625 8542081 8466908 8403545 8351244 8309359 8277639 
1162.407 8256417 8246777 8250500 8269949 8307870 8366998 8449781 8558025 
1166.265 8692618 8853312 9038600 9245580 9469941 9706023 9946971 10185089 
1170.122 10412277 10620641 10803119 10953928 11068913 11145603 11183061 
1173.498 11181594 11142485 11067681 10959721 10821590 10656761 10469048 
1176.873 10262547 10041442 9809883 9571894 9331320 9091882 8857148 8630506 
1180.730 8415042 8213410 8027620 7859052 7708473 7576274 7462687 7367924 
1184.588 7292337 7236337 7200228 7184092 7187672 7210324 7251144 7309045 
1188.445 7382847 7471324 7573164 7686878 7810818 7943190 8082218 8226271 
1192.302 8374119 8525055 8678868 8835834 8996484 9161458 9331306 9506445 
1196.160 9687034 9873123 10064685 10261691 10464254 10672534 10886820 
1199.535 11107423 11334715 11569027 11810688 12060043 12317387 12583017 
1202.910 12857136 13139927 13431503 13732000 14041653 14360838 14690147 
1206.286 15030333 15382203 15746506 16123861 16514671 16919326 17338244 
1209.661 17772108 18221950 18689156 19175314 19682084 20210930 20763090 
1213.036 21339516 21940968 22568142 23221722 23902344 24610438 25346100 
1216.411 26108766 26897052 27708700 28540552 29388792 30249282 31118268 
1219.787 31993028 32872828 33759616 34658532 35578000 36529188 37525204 
1223.162 38579920 39706768 40917836 42223288 43631256 45147984 46778208 
1226.537 48525680 50393396 52383904 54499192 56740684 59108884 61603104 
1229.912 64221072 66958588 69809408 72765360 75816296 78950312 82153528 
1233.288 85409680 88699200 91998544 95279864 98511408 101658984 104687856 
1236.663 107564664 110258648 112741992 114989448 116978184 118688312 
1239.556 120104448 121217880 122027744 122541416 122772968 122740856 
1242.449 122465680 121969224 121274088 120404352 119385912 118245760 
1245.342 117011008 115707136 114356992 112980640 111595616 110217824 
1248.235 108862056 107541848 106268824 105052104 103897680 102808824 
1251.128 101787112 100833728 99950600 99140872 98408456 97756928 97187672 
1254.503 96698504 96282728 95928872 95621256 95341080 95067832 94780704 
1257.879 94459696 94086840 93646688 93126824 92518160 91815088 91015328 
1261.254 90120000 89133384 88062760 86917768 85709688 84450552 83152256 
1264.629 81825936 80481728 79128672 77775184 76428952 75097256 73786424 
1268.004 72501672 71246704 70023568 68832672 67673224 66543544 65441620 
1271.380 64365320 63312708 62282068 61271960 60281168 59308664 58353476 
1274.755 57414424 56490208 55579228 54679692 53789872 52908128 52033192 
1278.130 51164164 50300284 49440952 48585732 47734384 46887212 46045260 
1281.505 45210432 44385280 43572552 42774648 41993168 41228748 40481208 
1284.881 39750016 39034804 38335668 37653272 36988500 36342136 35714276 
1288.256 35104236 34510296 33929968 33360008 32796678 32235768 31672716 
1291.631 31102890 30521960 29926420 29314044 28684318 28038382 27378870 
1295.006 26709458 26034390 25358194 24685438 24020788 23368908 22734512 
1298.382 22122064 21535628 20978538 20453262 19961152 19502520 19076476 
1301.757 18681008 18312932 17968098 17641528 17328024 17022614 16721107 
1305.132 16420598 16119507 15817629 15515675 15215012 14917365 14624558 
1308.507 14338624 14061631 13795798 13543181 13305457 13083591 12877673 
1311.883 12686703 12508793 12341376 12181474 12026041 11872154 11717231 
1315.258 11559156 11396427 11228201 11054342 10875379 10692284 10506210 
1318.633 10318152 10128807 9938371 9746786 9553810 9359424 9163918 8968127 
1322.490 8773333 8581182 8393592 8212633 8040470 7879269 7731232 7598479 
1326.348 7482955 7386389 7310218 7255857 7224720 7218561 7239641 7290829 
1330.205 7375400 7496668 7657365 7858994 8101219 8381498 8694954 9034517 
1334.063 9391230 9754774 10113942 10457256 10773471 11052241 11284637 
1337.438 11463629 11584391 11644526 11643973 11584958 11471641 11309807 
1340.813 11106310 10868675 10604545 10321376 10026098 9724937 9423430 
1344.188 9126309 8837501 8560101 8296380 8047836 7815169 7598570 7397744 
1348.046 7212204 7041449 6885060 6742856 6614869 6501177 6401849 6316675 
1351.903 6245108 6186201 6138674 6101140 6072334 6051285 6037476 6030858 
1355.761 6031660 6040342 6057349 6083079 6117923 6162283 6216927 6282960 
1359.618 6361983 6456057 6567524 6698805 6852111 7029115 7230671 7456552 
1363.476 7705290 7974083 8258857 8554404 8854689 9153128 9443118 9718417 
1367.333 9973548 10204048 10406736 10579597 10721861 10833733 10916332 
1370.708 10971363 11000979 11007483 10993120 10959917 10909631 10843798 
1374.083 10763901 10671421 10567966 10455190 10334680 10207844 10076029 
1377.459 9940606 9803317 9666485 9533139 9406863 9291413 9190217 9105852 
1381.316 9039845 8992679 8963893 8952574 8957579 8977719 9011694 9058016 
1385.174 9114800 9179793 9250493 9324413 9399442 9473928 9546792 9617382 
1389.031 9685171 9749708 9810498 9867167 9919649 9968417 10014528 10059631 
1392.888 10105773 10155311 10210733 10274725 10350188 10440269 10548380 
1396.264 10678140 10833248 11017360 11234101 11487060 11779937 12116677 
1399.639 12501621 12939693 13436316 13997519 14629602 15338676 16129705 
1403.014 17005152 17963106 18995320 20085156 21206274 22322166 23387278 
1406.389 24349494 25154108 25748942 26089718 26145080 25900478 25360020 
1409.765 24546296 23497704 22264194 20901806 19467216 18013018 16584291 
1413.140 15216640 13935782 12757954 11691301 10737318 9892540 9150007 
1416.515 8500656 7934413 7441151 7011460 6637119 6311218 6028111 5783109 
1420.373 5572168 5391513 5237657 5107387 4998001 4907497 4834593 4778573 
1424.230 4739078 4715828 4708358 4716053 4738227 4774204 4823553 4886017 
1428.087 4961506 5050015 5151540 5266123 5393798 5534638 5688606 5855300 
1431.945 6033872 6222773 6419922 6622981 6829626 7037954 7246539 7454333 
1435.802 7660466 7863905 8063315 8257148 8443909 8622513 8792686 8955063 
1439.660 9111351 9264170 9416877 9573397 9737902 9914529 10106938 10317873 
1443.517 10548735 10799272 11067566 11350293 11643121 11941277 12239973 
1446.892 12534519 12820311 13092537 13345999 13574937 13773160 13934402 
1450.268 14052869 14123955 14144820 14114954 14036334 13913202 13751468 
1453.643 13557889 13339271 13101949 12851666 12593558 12332554 12073263 
1457.018 11819952 11576165 11344360 11125690 10920194 10726965 10544733 
1460.393 10372128 10207846 10050689 9899422 9752614 9608735 9466252 9323866 
1464.251 9180683 9036294 8890510 8743161 8593915 8442152 8287251 8128918 
1468.108 7967617 7804642 7641995 7481827 7325726 7174117 7025882 6878534 
1471.966 6728767 6573356 6409964 6237843 6058008 5872973 5686182 5501335 
1475.823 5321739 5149829 4987001 4833505 4688782 4551700 4420894 4295177 
1479.680 4173647 4055840 3941684 3831365 3725150 3623321 3525998 3433241 
1483.538 3345006 3261306 3182157 3107651 3037849 2972743 2912278 2856364 
1487.395 2804935 2758026 2715776 2678412 2646154 2619171 2597502 2581125 
1491.253 2570093 2564691 2565500 2573456 2589783 2615858 2653045 2702618 
1495.110 2765761 2843711 2937970 3050568 3184400 3343485 3533129 3759840 
1498.968 4030772 4352899 4731389 5167720 5657626 6189384 6742968 7290613 
1502.825 7798818 8231742 8555616 8743449 8779216 8660553 8399393 8020045 
1506.682 7555221 7040898 6511218 5994755 5512335 5076790 4694023 4364485 
1510.540 4085074 3850504 3654613 3491163 3354475 3239758 3143233 3062091 
1514.397 2994347 2938540 2893431 2857918 2830819 2810910 2797011 2788078 
1518.255 2783291 2782085 2784088 2789099 2796931 2807369 2820072 2834568 
1522.112 2850297 2866603 2882806 2898274 2912313 2924362 2933890 2940529 
1525.969 2944059 2944513 2942085 2937063 2929746 2920292 2908712 2894839 
1529.827 2878435 2859326 2837457 2813067 2786522 2758368 2729050 2698939 
1533.684 2668362 2637558 2606886 2576892 2548309 2521956 2498643 2478905 
1537.542 2462925 2450528 2441297 2434811 2430760 2429135 2430049 2433568 
1541.399 2439457 2446933 2454748 2461402 2465407 2465784 2462234 2455262 
1545.257 2445917 2435537 2425349 2416223 2408522 2402342 2397504 2393885 
1549.114 2391503 2390460 2390842 2392613 2395561 2399310 2403498 2407907 
1552.971 2412580 2417853 2424143 2431846 2441077 2451639 2463043 2474733 
1556.829 2486234 2497422 2508490 2519908 2532284 2546095 2561635 2578905 
1560.686 2597764 2617982 2639402 2662031 2686037 2711769 2739651 2770291 
1564.544 2804382 2842678 2885922 2934694 2989398 3050199 3117167 3190538 
1568.401 3270934 3359651 3458583 3570081 3696518 3839838 4001200 4180898 
1572.259 4378383 4592526 4821772 5063940 5315970 5573307 5829403 6075541 
1576.116 6301246 6495164 6646375 6745674 6786548 6765746 6683368 6542789 
1579.973 6350322 6114708 5846503 5557156 5258086 4959734 4670920 4398475 
1583.831 4147252 3920296 3719219 3544328 3394965 3269643 3166121 3081719 
1587.688 3013515 2958650 2914449 2878632 2849123 2824149 2801973 2781097 
1591.546 2760280 2738787 2716630 2694521 2673783 2656024 2642600 2634380 
1595.403 2631481 2633347 2639093 2647816 2658915 2672343 2688500 2708058 
1599.260 2731737 2759983 2792831 2829840 2870162 2912749 2956533 3000702 
1603.118 3044952 3089521 3135278 3183506 3235577 3292713 3355561 3424126 
1606.975 3497755 3575373 3655820 3738002 3821070 3904414 3987344 4068987 
1610.833 4148055 4222843 4291233 4350900 4399412 4434413 4453694 4455356 
1614.690 4438069 4401441 4346292 4274894 4190819 4098623 4003165 3908972 
1618.548 3819784 3738266 3666101 3604051 3552253 3510319 3477433 3452534 
1622.405 3434357 3421745 3413762 3409761 3409361 3412221 3417857 3425498 
1626.262 3434076 3442513 3449969 3456111 3461169 3465849 3471053 3477525 
1630.120 3485679 3495558 3507034 3519858 3533840 3548865 3564740 3581052 
1633.977 3597239 3612682 3626961 3640047 3652411 3664865 3678177 3692796 
1637.835 3708570 3724869 3740838 3755758 3769424 3782205 3794944 3808655 
1641.692 3824178 3842003 3862162 3884374 3908186 3933111 3958704 3984533 
1645.550 4010275 4035710 4060955 4086407 4112818 4140994 4171581 4204724 
1649.407 4240004 4276498 4313152 4349164 4384364 4419333 4455292 4493730 
1653.264 4536009 4582954 4634789 4691213 4751707 4815669 4882699 4952573 
1657.122 5025390 5101545 5181727 5267045 5358831 5458482 5567182 5685485 
1660.979 5813291 5949681 6093239 6242321 6395542 6551950 6711181 6873412 
1664.837 7039179 7209237 7384264 7564825 7751043 7942597 8138559 8337446 
1668.694 8537598 8737450 8936104 9133577 9330932 9529972 9732829 9941413 
1672.552 10157163 10380773 10612341 10851435 11097197 11348452 11603655 
1675.927 11860997 12118758 12375588 12630963 12885278 13139839 13396274 
1679.302 13656040 13919824 14187440 14458086 14730826 15005207 15281604 
1682.677 15561080 15845084 16134870 16431201 16734412 17044762 17363120 
1686.052 17691154 18031540 18387388 18761836 19157592 19576896 20021806 
1689.428 20494748 20998780 21537770 22115934 22737382 23405850 24124742 
1692.803 24897652 25728962 26624098 27589292 28630618 29753166 30960426 
1696.178 32254898 33639744 35120956 36708780 38418052 40266508 42271956 
1699.553 44449128 46807520 49351420 52082164 55001676 58115696 61434804 
1702.929 64972888 68743552 72755840 77010960 81501072 86209616 91112648 
1706.304 96179112 101369336 106632576 111904672 117108416 122157536 
1709.197 126963080 131440344 135512304 139110848 142175680 144655632 
1712.090 146513504 147732912 148323280 148318464 147768928 146731024 
1714.983 145258512 143399936 141201744 138713104 135988528 133085680 
1717.876 130059576 126955952 123807880 120636640 117455968 114277528 
1720.769 111114160 107980264 104889656 101852464 98873328 95951680 93084192 
1724.145 90267712 87501824 84789112 82134088 79540952 77011760 74545768 
1727.520 72140128 69791368 67496752 65254880 63065296 60927348 58839132 
1730.895 56796980 54795920 52830816 50897388 48993428 47118808 45275012 
1734.270 43464212 41688288 39948220 38243964 36574916 34940444 33340454 
1737.646 31775668 30247610 28758368 27310380 25906082 24547714 23237412 
1741.021 21977120 20768732 19614126 18515022 17472854 16488637 15562713 
1744.396 14694729 13883576 13127428 12423894 11770127 11163177 10600129 
1747.771 10078448 9595979 9150887 8741477 8365755 8021253 7704988 7413606 
1751.629 7143834 6892991 6659240 6441636 6239801 6053447 5881939 5724073 
1755.486 5578047 5441772 5313201 5190717 5073209 4960220 4851661 4747763 
1759.344 4648871 4555353 4467410 4385101 4308213 4236305 4168797 4105202 
1763.201 4045328 3989328 3937635 3890649 3848469 3810507 3775636 3742328 
1767.058 3709067 3674820 3639156 3602281 3564685 3526780 3488745 3450494 
1770.916 3411959 3373412 3335592 3299616 3266615 3237348 3211809 3189310 
1774.773 3168748 3149037 3129474 3109886 3090502 3071516 3052941 3034409 
1778.631 3015290 2995118 2973671 2951323 2928707 2906520 2885149 2864709 
1782.488 2844932 2825511 2806377 2787637 2769565 2752308 2735824 2719751 
1786.345 2703698 2687406 2671041 2655057 2640091 2626444 2613999 2602133 
1790.203 2590047 2577030 2562867 2547890 2532686 2517704 2502981 2488068 
1794.060 2472291 2455355 2437586 2420123 2404496 2392062 2383311 2377657 
1797.918 2373469 2368712 2361704 2351517 2338395 2323203 2307126 2291051 
1801.775 2275358 2260058 2245074 2230587 2217190 2205620 2196641 2190450 
1805.633 2186716 2184605 2183028 2181031 2177924 2173313 2167043 2159106 
1809.490 2149669 2139179 2128377 2118292 2109923 2103763 2099531 2096067 
1813.347 2091732 2085216 2076129 2065662 2056481 2051945 2055053 2067264 
1817.205 2087748 2113468 2139953 2162657 2178186 2185301 2184777 2179093 
1821.062 2171322 2164249 2159753 2158444 2159946 2163088 2166442 2168792 
1824.920 2169421 2168229 2165749 2162776 2160007 2157584 2154831 2150308 
1828.777 2142116 2128486 2108301 2081580 2049340 2013431 1975976 1938961 
1832.635 1903947 1872132 1844435 1821552 1803929 1791456 1783244 1777542 
1836.492 1772011 1764187 1752278 1735634 1714815 1691326 1667073 1643575 
1840.349 1621806 1602036 1584240 1568479 1555115 1544653 1537393 1533038 
1844.207 1530374 1527510 1522570 1514130 1501886 1486657 1470071 1453834 
1848.064 1439132 1426233 1414546 1402878 1390090 1375364 1358587 1340077 
1851.922 1320476 1300302 1279923 1259413 1238737 1217898 1197024 1176405 
1855.779 1156499 1137934 1121423 1107626 1097375 1091331 1090079 1093902 
1859.636 1102711 1115831 1131935 1148983 1164466 1175533 1179839 1175779 
1863.494 1163298 1143791 1120025 1095233 1072233 1052560 1036045 1021227 
1867.351 1006174 989593 971772 954748 941616 935247 936987 945743 958138 
1871.691 969498 975523 973753 964488 950604 936520 926526 923371 927349 
1876.031 936326 946461 953694 954757 948355 935244 918081 900667 886862 
1880.370 879758 880935 890001 904917 922385 938894 951197 957111 955859 
1884.710 947777 934062 916388 896806 877592 861361 850882 848552 855723 
1889.049 871957 894816 920162 943317 960462 969870 972388 970935 969190 
1893.389 970231 975303 983644 993253 1001883 1008166 1012124 1014602 1016718 
1897.729 1018772 1020228 1019850 1016669 1010740 1003432 996694 992325 
1901.586 990823 991087 990994 988303 982094 973425 964670 958937 958171 
1905.926 962432 969654 976707 980804 980949 978350 976236 978288 987300 
1910.265 1004019 1026715 1051706 1074497 1090751 1097293 1092649 1077309 
1914.123 1053189 1023798 993401 966531 946738 935840 933564 937480 944047 
1918.462 949980 953287 953996 953309 952686 952236 950054 942506 925836 
1922.802 897967 860526 819170 782517 759987 758697 781373 825468 883852 
1927.141 947064 1005565 1051909 1081735 1094037 1090256 1073789 1048943 
1930.999 1020744 994301 974362 964416 965752 976822 993150 1008081 1014529 
1935.338 1006994 983490 946667 903725 864908 841450 842302 872485 931169 
1939.678 1012582 1107158 1204437 1295573 1375147 1441461 1495543 1538886 
1943.535 1571789 1592149 1596536 1581375 1545982 1493876 1433235 1374524 
1947.393 1327922 1299849 1291111 1296657 1307963 1315740 1313322 1297822 
1951.250 1270220 1233651 1191222 1144222 1091529 1030331 957615 871558 
1955.108 772817 664602 552576 444163 347872 272376 225910 214346 240541 
1959.447 302479 393493 501882 613762 714315 791164 835082 842065 812983 
1963.787 753795 674524 587664 505842 439467 393763 367842 355077 346674 
1968.126 335714 322138 313822 325774 374072 469497 610426 780688 951650 
1972.466 1089922 1166107 1164927 1088681 958905 810185 682660 611424 619969 
1976.806 713970 881894 1096762 1324259 1531090 1692983 1799137 1852780 
1980.663 1866944 1859410 1845426 1833852 1824589 1810451 1780647 1726852 
1984.521 1646414 1545126 1433969 1326129 1231569 1153853 1090545 1035292 
1988.378 982386 930234 882209 845991 829870 839714 875840 933321 1003008 
1992.718 1073833 1134713 1176586 1193020 1181255 1142951 1084765 1017877 
1996.575 956212 912333 893614 898712 916902 930571 921522 876625 793227 
2000.915 679416 551525 427832 322740 242987 187791 152148 131970 125949 
2005.254 136406 165483 211101 263233 305750 321525 300609 244810 169817 
2009.594 100417 62358 73960 140990 254660 395911 540034 663937 749742 787746 
2014.416 775591 717563 622233 502191 371374 244905 135693 52804 -40 -25045 
2019.237 -28890 -20093 -7422 3146 7748 5586 -2961 -16101 -32034 -48393 
2024.059 -64563 -80831 -100690 -130190 -175935 -243535 -333397 -439059 
2027.917 -547082 -639360 -698140 -710366 -671892 -587321 -468942 -331885 
2031.774 -191324 -58641 58916 157985 238886 304594 360066 412130 467280 
2036.114 530735 603866 684233 764936 838162 896854 937463 959541 965296 
2040.453 957179 936224 901653 852453 789341 716761 642445 575580 523735 
2044.793 490546 474902 474203 486721 515935 569335 656132 780582 936361 
2049.132 1104865 1259046 1371742 1425276 1416794 1359354 1276927 1197432 
2052.990 1144135 1130456 1156040 1208692 1268347 1314356 1331422 1312878 
2056.847 1261367 1186657 1102434 1023170 961326 925524 918963 939077 977501 
2061.187 1021886 1058095 1074093 1062718 1024197 965879 900526 842908 806225 
2065.526 799080 824312 878751 954743 1041589 1127671 1201588 1254543 1281253 
2069.866 1282087 1262738 1233903 1208513 1198325 1210057 1243442 1290922 
2073.723 1340500 1379554 1399672 1399020 1382939 1361128 1344032 1338546 
2077.581 1346011 1361987 1378860 1388713 1386691 1372185 1349040 1323414 
2081.438 1301931 1288986 1286107 1291536 1301330 1310184 1313143 1306424 
2085.296 1288322 1259260 1222362 1182317 1144547 1113708 1092451 1080048 
2089.153 1073110 1066198 1054148 1033693 1005261 972587 942109 920556 913056 
2093.493 921569 944947 979466 1020556 1064135 1107515 1148937 1187111 
2097.350 1220169 1246073 1262853 1270145 1269745 1265734 1263294 1267028 
2101.208 1279038 1298011 1319725 1338428 1349165 1349368 1339476 1322300 
2105.065 1301292 1279210 1257004 1234404 1211021 1187973 1168358 1157298 
2108.922 1159827 1179339 1215333 1263096 1314510 1360053 1391232 1402415 
2112.780 1391732 1360727 1313355 1254929 1190886 1126453 1066142 1013585 
2116.637 970750 937829 912381 889953 864800 831721 787370 731783 668222 
2120.977 602695 542183 493113 459791 444303 445867 461922 487934 518504 
2125.316 547058 567115 572744 559836 526641 474409 406367 326933 239695 
2129.656 147278 50659 -49091 -149392 -244334 -325298 -381836 -404829 -389921 
2133.996 -339450 -262819 -174433 -89161 -19317 29011 55325 63536 59305 47820 
2138.817 32355 14595 -4898 -25857 -48516 -73688 -102792 -137194 -177622 
2143.157 -221847 -265087 -300091 -320045 -320981 -305473 -281797 -263062 
2147.014 -262319 -289201 -345397 -425658 -519566 -616288 -708252 -793958 
2150.872 -876687 -963091 -1058379 -1165241 -1282077 -1405391 -1531336 
2154.247 -1658614 -1787702 -1920260 -2053851 -2179676 -2278894 -2323798 
2157.622 -2282766 -2130909 -1859485 -1486086 -1053032 -618576 -239774 39559 
2161.480 198546 239767 185044 67695 -75332 -210925 -315312 -376205 -391222 
2165.819 -365136 -304884 -219028 -116168 -7699 91537 162271 184348 140599 
2170.159 22997 -163551 -399824 -655799 -896704 -1091035 -1217456 -1268571 
2174.016 -1251240 -1183161 -1087024 -985596 -896712 -832016 -796139 -788639 
2177.874 -804713 -836609 -873266 -901729 -906943 -874561 -792685 -655547 
2181.731 -464804 -231667 24634 278662 503163 673161 771056 789088 731632 
2186.071 613179 456895 288638 133415 9692 -72546 -112956 -118647 -101547 
2190.410 -73647 -44370 -17641 7458 35940 74018 126957 196284 279392 369331 
2195.232 456311 529523 579964 601761 593813 559499 506240 443443 381304 
2199.572 328729 292528 277002 284266 313948 364037 429978 504877 579568 
2203.911 643703 687170 702773 687934 646503 587514 524073 469443 434143 
2208.251 423038 435495 465249 504224 544720 582023 615271 646355 678141 
2212.591 712314 747571 780209 804750 817445 817246 807844 796034 790350 
2216.930 797580 821069 858994 905756 953481 995151 1026211 1045938 1055813 
2221.270 1058661 1056353 1049347 1036116 1014892 984837 947469 906254 866354 
2225.609 832925 809674 798097 797220 803949 814426 824461 830724 831001 
2229.949 825122 814882 804288 798796 804255 824895 862215 913666 973082 
2234.289 1032232 1083326 1120959 1144321 1156564 1163976 1173544 1191065 
2238.146 1219432 1258382 1304786 1353586 1398622 1433443 1451860 1449120 
2242.003 1422918 1374729 1310355 1239589 1174270 1125546 1100870 1102123 
2245.861 1125089 1161303 1200734 1234888 1258537 1270307 1271410 1264043 
2249.718 1249877 1230008 1205589 1179271 1155613 1141009 1141692 1161530 
2253.576 1199806 1250828 1304919 1351388 1381398 1390889 1381102 1357988 
2257.433 1329752 1304591 1288188 1283095 1288382 1300644 1315007 1326699 
2261.291 1331774 1328442 1317094 1300790 1284306 1273570 1273940 1289027 
2265.148 1319524 1363309 1415715 1470862 1522737 1566219 1597577 1614671 
2269.005 1616619 1604382 1580447 1549157 1516228 1488101 1470476 1467052 
2272.863 1478897 1504170 1539185 1579923 1623323 1668102 1714354 1762727 
2276.720 1812950 1863195 1910018 1949260 1977458 1993300 1997937 1994652 
2280.578 1987912 1981917 1979251 1981073 1986808 1995469 2006012 2018011 
2284.435 2031338 2045846 2060756 2074423 2084476 2088459 2084527 2072055 
2288.292 2051956 2026535 1998851 1972045 1948507 1929616 1915341 1904722 
2292.150 1896043 1887454 1877329 1864552 1848411 1828859 1806120 1780992 
2296.007 1754404 1727835 1702764 1680770 1662867 1649480 1640039 1633366 
2299.865 1627768 1621881 1614900 1607118 1599573 1593785 1591142 1592460 
2303.722 1597749 1606477 1617692 1630575 1644598 1659499 1674960 1690538 
2307.580 1705440 1718609 1729060 1736099 1739529 1739807 1737755 1734527 
2311.437 1731242 1729125 1729275 1732629 1739807 1750864 1765235 1781832 
2315.294 1799265 1816467 1832865 1848804 1865049 1882726 1902825 1926123 
2319.152 1953548 1986534 2027229 2077965 2139963 2211734 2287717 2357887 
2323.009 2409483 2429648 2409079 2344639 2240653 2107902 1961237 1816304 
2326.867 1686200 1579266 1498269 1440987 1402121 1375536 1356167 1340737 
2330.724 1327822 1317063 1308390 1301561 1296280 1292539 1290785 1291883 
2334.582 1296701 1305440 1317327 1330710 1343488 1353934 1361136 1365170 
2338.439 1366763 1366628 1365103 1361943 1356621 1348946 1339493 1329784 
2342.296 1321834 1317616 1318257 1323775 1332908 1343918 1355021 1364893 
2346.154 1373044 1379623 1385046 1389746 1394109 1398347 1402714 1407445 
2350.011 1412550 1417956 1422970 1426596 1427821 1425932 1420928 1413637 
2353.869 1405522 1398091 1392572 1389487 1388712 1389661 1391758 1394584 
2357.726 1397981 1401712 1405232 1407468 1406852 1401844 1391229 1374704 
2361.583 1352933 1327440 1300207 1273192 1247996 1225848 1207564 1193834 
2365.441 1185292 1182433 1185419 1193990 1207097 1223267 1240591 1257216 
2369.298 1271634 1282831 1290567 1295093 1297218 1298015 1298621 1300023 
2373.156 1302923 1307553 1313721 1321001 1328841 1336837 1344932 1353183 
2377.013 1361692 1370382 1378732 1385992 1391265 1393953 1394043 1392071 
2380.871 1389035 1386038 1383799 1382696 1382663 1383527 1385176 1387682 
2384.728 1391230 1395780 1400933 1405632 1408585 1408661 1405305 1398908 
2388.585 1390640 1382217 1375203 1370610 1368688 1368956 1370581 1372744 
2392.443 1374820 1376471 1377536 1377950 1377568 1376463 1374971 1373695 
2396.300 1373384 1374530 1377116 1380428 1383097 1383673 1381019 1374851 
2400.158 1365620 1354274 1341676 1328204 1313543 1297275 1279181 1260229 
2404.015 1242578 1229445 1224016 1228390 1242808 1265175 1291625 1317776 
2407.873 1339880 1355886 1365884 1371649 1375531 1379577 1384483 1389390 
2411.730 1392235 1390707 1383071 1369009 1349904 1328575 1308368 1292394 
2415.587 1282581 1279312 1281432 1286770 1292970 1298103 1301282 1302580 
2419.445 1302702 1302491 1302336 1302051 1300889 1297948 1292722 1285202 
2423.302 1276006 1266148 1256329 1246831 1237347 1227192 1215848 1203304 
2427.160 1190457 1178825 1170225 1166137 1167207 1173079 1182487 1193733 
2431.017 1204984 1214790 1222122 1226327 1226880 1223314 1215374 1203002 
2434.875 1186653 1167404 1146911 1127197 1110089 1097122 1089064 1085860 
2438.732 1086907 1091123 1097186 1103873 1109917 1114338 1116332 1115530 
2442.589 1112119 1107039 1101891 1098745 1099666 1106144 1118456 1135409 
2446.447 1154462 1172287 1185596 1192153 1191501 1185074 1175936 1167699 
2450.304 1163554 1165342 1173011 1184921 1198391 1210651 1219660 1224505 
2454.162 1225338 1222996 1218348 1212012 1203963 1193910 1181533 1166766 
2458.019 1149986 1132041 1114026 1097012 1081929 1069410 1059729 1053027 
2461.876 1049098 1047466 1047449 1048256 1049145 1049762 1050298 1051518 
2465.734 1054454 1060115 1068692 1079461 1090558 1099544 1103908 1102098 
2469.591 1093874 1080727 1065510 1051795 1042830 1040685 1045710 1056322 
2473.449 1069564 1081844 1089913 1091700 1086933 1077102 1064749 1053122 
2477.306 1044931 1041661 1043423 1048908 1055848 1061745 1064399 1062315 
2481.164 1054901 1042419 1025883 1006976 987858 970936 958519 952385 953043 
2485.503 959717 970208 981502 990598 995590 996249 994245 992432 994006 
2489.843 1001367 1015302 1034919 1058005 1081848 1104136 1123333 1138851 
2493.700 1150678 1159102 1164364 1166753 1166711 1165081 1162948 1161249 
2497.558 1160344 1159640 1157479 1151853 1141112 1124943 1104763 1083574 
2501.415 1065109 1052993 1049387 1054923 1068686 1089025 1114179 1142761 
2505.272 1173602 1205202 1235404 1260996 1278392 1284657 1278632 1261966 
2509.130 1239050 1216113 1199486 1193939 1201041 1218907 1242827 1266703 
2512.987 1284847 1293427 1291375 1280276 1263619 1245838 1231179 1222992 
2516.845 1223227 1232494 1249799 1273275 1300024 1326782 1350344 1367968 
2520.702 1377938 1379733 1374099 1362846 1348383 1333281 1319741 1309464 
2524.560 1303408 1301812 1304262 1310075 1318246 1327946 1338549 1349852 
2528.417 1361933 1375054 1389115 1403633 1417377 1428690 1435700 1437019 
2532.274 1432354 1422698 1410300 1398155 1389101 1385207 1387197 1394446 
2536.132 1405230 1417500 1429393 1439647 1447571 1452960 1455503 1454680 
2539.989 1449814 1440248 1425656 1406796 1385288 1363435 1343915 1329013 
2543.847 1320181 1317692 1320724 1327682 1336675 1346134 1354922 1362535 
2547.704 1369031 1374786 1380142 1385466 1390827 1396138 1401476 1406869 
2551.562 1412657 1419390 1427711 1438143 1450825 1465323 1480386 1494169 
2555.419 1504372 1508913 1506261 1496207 1479950 1460091 1440109 1423651 
2559.276 1413794 1412179 1418828 1432252 1450050 1469552 1488642 1506099 
2563.134 1521628 1535623 1548514 1560308 1570565 1578387 1582882 1583568 
2566.991 1580683 1575216 1568445 1561611 1555560 1550483 1546379 1543155 
2570.849 1541035 1540780 1543220 1549031 1558198 1569929 1582850 1595630 
2574.706 1607524 1618957 1631166 1645814 1664048 1685794 1709381 1731941 
2578.563 1750339 1762150 1766543 1764607 1758805 1752028 1746621 1743568 
2582.421 1742260 1741073 1737947 1731437 1721109 1707908 1693669 1680817 
2586.278 1671633 1667726 1669985 1678285 1691586 1708053 1725383 1741187 
2590.136 1753304 1760475 1762415 1759961 1754723 1748532 1742890 1738527 
2593.993 1735220 1732199 1728444 1723377 1717252 1711143 1706691 1705575 
2597.851 1708968 1717116 1729177 1743569 1758178 1771079 1780914 1787154 
2601.708 1790306 1791390 1791819 1792668 1794489 1797110 1799801 1801687 
2605.565 1802231 1801695 1801108 1802090 1806251 1814539 1826775 1841538 
2609.423 1856518 1869282 1877928 1881705 1881129 1877649 1873279 1869726 
2613.280 1868187 1869166 1872575 1878028 1885053 1893251 1902123 1911061 
2617.138 1919341 1926028 1930379 1932006 1931064 1928250 1924712 1921710 
2620.995 1920492 1922029 1926897 1935337 1947202 1961902 1978511 1995633 
2624.853 2011754 2025386 2035482 2041641 2044328 2044544 2043590 2042652 
2628.710 2042309 2042577 2042881 2042439 2040640 2037305 2032734 2027603 
2632.567 2022709 2018622 2015547 2013322 2011425 2009217 2006189 2002122 
2636.425 1997021 1991288 1985402 1980064 1975882 1973530 1973392 1975799 
2640.282 1980770 1988120 1997299 2007505 2017787 2027102 2034675 2040003 
2644.140 2043157 2044699 2045446 2046274 2047860 2050179 2052758 2054650 
2647.997 2054837 2052674 2048179 2042109 2035751 2030571 2027615 2027215 
2651.854 2028907 2031503 2033527 2033638 2031036 2025525 2017622 2008230 
2655.712 1998469 1989367 1981687 1975858 1971926 1969480 1967794 1965740 
2659.569 1962108 1955804 1946037 1932573 1915834 1896734 1876517 1856431 
2663.427 1837445 1820095 1804419 1790137 1776838 1764129 1751864 1740269 
2667.284 1729890 1721635 1716437 1715114 1717964 1724631 1733913 1743945 
2671.142 1752561 1757811 1758398 1754310 1746598 1737228 1728477 1722250 
2674.999 1719592 1720388 1723515 1727281 1729960 1730235 1727521 1722050 
2678.856 1714677 1706652 1699292 1693705 1690603 1690231 1692203 1695717 
2682.714 1699621 1702785 1704355 1704011 1702015 1699126 1696289 1694237 
2686.571 1693249 1693147 1693324 1693230 1692467 1691189 1689910 1689182 
2690.429 1689422 1690512 1691846 1692583 1691999 1689895 1686811 1683836 
2694.286 1682398 1683569 1687875 1694846 1703224 1711344 1717562 1720808 
2698.144 1720852 1718202 1714063 1709722 1706242 1704132 1703310 1703187 
2702.001 1703010 1702160 1700510 1698460 1696781 1696420 1698178 1702345 
2705.858 1708707 1716599 1725150 1733413 1740723 1746725 1751208 1754126 
2709.716 1755413 1755014 1753130 1750095 1746668 1743677 1742008 1742089 
2713.573 1743887 1746733 1749572 1751380 1751563 1750148 1747874 1745735 
2717.431 1744739 1745478 1747844 1751308 1755039 1758433 1761205 1763558 
2721.288 1765939 1768814 1772387 1776437 1780452 1783891 1786369 1787932 
2725.146 1789074 1790463 1792889 1796893 1802660 1809897 1818100 1826400 
2729.003 1833940 1839977 1843737 1844835 1843093 1838823 1832841 1826343 
2732.860 1820909 1818113 1819243 1825010 1835288 1849096 1864825 1880497 
2736.718 1894269 1904721 1911222 1914085 1914229 1913136 1912302 1912979 
2740.575 1915881 1921054 1927909 1935552 1942902 1949036 1953269 1955312 
2744.433 1955296 1953596 1950888 1947966 1945653 1944710 1945708 1948899 
2748.290 1954156 1961007 1968741 1976533 1983836 1990338 1996136 2001585 
2752.147 2007054 2012627 2018045 2022555 2025164 2024999 2021640 2015355 
2756.005 2007248 1998907 1992068 1988097 1987590 1990149 1994753 1999806 
2759.862 2003949 2006298 2006844 2006329 2006010 2007216 2010955 2017590 
2763.720 2026817 2037733 2049101 2059664 2068347 2074386 2077509 2077768 
2767.577 2075546 2071578 2066731 2061949 2058061 2055740 2055313 2056754 
2771.435 2059812 2064178 2069461 2075420 2081811 2088485 2095086 2101166 
2775.292 2106172 2109767 2111893 2113000 2113947 2115831 2119477 2125270 
2779.149 2132808 2141005 2148531 2154080 2156996 2157323 2155923 2154026 
2783.007 2152907 2153355 2155380 2158477 2161697 2164119 2165293 2165320 
2786.864 2164952 2165251 2167347 2172057 2179582 2189547 2201051 2213039 
2790.722 2224515 2234931 2244296 2253203 2262491 2273112 2285671 2300131 
2794.579 2315910 2331885 2346772 2359550 2369716 2377571 2383992 2390359 
2798.437 2397948 2407659 2419749 2433689 2448478 2462809 2475499 2485816 
2802.294 2493503 2498946 2502940 2506415 2510365 2515549 2522405 2531190 
2806.151 2541783 2554050 2567567 2581899 2596502 2610703 2623845 2635424 
2810.009 2645143 2653200 2660147 2666972 2674761 2684507 2696676 2711128 
2813.866 2727112 2743437 2758911 2772579 2784077 2793717 2802331 2810900 
2817.724 2820418 2831555 2844484 2859120 2875217 2892497 2910924 2930739 
2821.581 2952181 2975628 3001127 3028509 3057279 3086917 3116968 3147437 
2825.438 3178895 3212399 3249318 3290955 3338047 3390529 3447310 3506604 
2829.296 3566361 3624797 3680979 3735078 3788320 3842685 3900348 3963250 
2833.153 4032772 4109714 4194501 4287300 4388307 4497820 4616068 4743406 
2837.011 4880128 5026722 5183933 5353171 5536399 5735906 5954155 6193056 
2840.868 6453770 6736662 7041218 7366653 7712181 8077436 8462654 8868557 
2844.726 9295914 9745346 10216613 10707977 11215841 11734097 12254027 
2848.101 12764291 13251683 13702150 14102371 14441323 14711581 14909983 
2851.476 15037568 15098806 15100257 15049425 14953658 14819525 14652786 
2854.851 14458558 14241657 14006791 13758816 13502620 13242848 12983815 
2858.227 12729177 12481810 12243423 12014718 11795399 11584366 11380120 
2861.602 11181386 10987225 10797703 10613486 10435942 10266645 10106963 
2864.977 9957799 9819466 9691586 9573387 9463513 9360552 9262846 9168997 
2868.834 9077860 8989018 8902713 8819973 8742310 8671302 8608219 8553720 
2872.692 8507654 8469372 8438048 8412997 8393972 8381087 8374830 8375807 
2876.549 8384427 8401144 8426283 8460361 8504002 8557734 8622000 8696632 
2880.407 8780859 8873396 8972648 9077345 9186593 9300267 9418601 9542014 
2884.264 9670365 9802885 9937938 10073412 10207106 10337356 10463156 
2887.639 10584612 10702438 10817700 10931388 11044063 11155714 11265778 
2891.015 11373289 11477278 11576803 11671351 11760742 11845075 11924700 
2894.390 11999979 12071240 12138694 12202451 12262781 12320074 12375178 
2897.765 12429196 12483740 12540448 12600890 12666374 12737755 12815487 
2901.140 12899873 12991060 13089362 13195220 13309214 13431770 13563134 
2904.516 13703054 13850987 14006302 14168446 14337489 14514264 14700246 
2907.891 14897557 15108344 15334600 15577564 15837853 16115683 16411294 
2911.266 16725229 17058912 17414382 17793920 18199084 18629984 19084438 
2914.641 19557742 20042820 20531098 21013328 21480682 21925398 22341238 
2918.017 22723198 23067274 23370156 23628934 23841246 24005568 24121554 
2921.392 24190298 24214422 24197710 24144738 24060438 23949352 23815728 
2924.767 23663242 23495098 23314346 23123630 22925582 22722470 22516002 
2928.142 22307480 22097576 21886670 21674954 21462776 21250796 21040034 
2931.518 20831952 20627982 20429536 20237588 20052512 19874040 19701196 
2934.893 19532522 19366154 19200260 19033358 18864564 18694028 18522662 
2938.268 18352250 18184710 18021862 17864574 17712728 17565012 17419386 
2941.643 17273598 17125780 16975094 16821674 16666637 16511434 16357614 
2945.019 16205938 16056603 15908954 15762129 15615152 15467586 15319553 
2948.394 15171842 15025535 14881712 14741056 14603592 14468543 14334537 
2951.769 14199935 14063312 13923886 13781813 13638112 13494629 13353002 
2955.144 13214657 13079999 12948528 12818994 12689885 12559941 12428457 
2958.520 12295224 12160571 12024640 11887465 11748764 11608130 11465430 
2961.895 11320982 11175612 11030312 10886005 10742939 10600905 10459249 
2965.270 10317422 10175601 10034595 9895959 9761216 9631298 9506015 9384105 
2969.127 9263466 9142175 9018925 8893760 8767720 8642640 8520249 8401722 
2972.985 8287248 8176239 8067654 7960298 7853188 7745695 7637357 7527937 
2976.842 7417345 7305821 7193920 7082717 6973378 6866918 6763789 6663704 
2980.700 6565535 6468024 6370057 6271469 6173145 6076780 5984526 5898175 
2984.557 5818628 5745671 5677960 5613580 5550462 5486868 5421656 5354362 
2988.415 5285081 5214351 5143143 5072580 5003948 4938554 4877390 4821080 
2992.272 4769694 4722640 4678991 4637636 4597400 4557401 4517042 4476087 
2996.129 4434639 4392995 4351763 4311598 4273116 4236727 4202502 4170000 
2999.987 4138325 4106525 4073431 4038437 4001246 3962250 3922052 3881517 
3003.844 3841443 3802485 3764920 3728993 3694694 3661919 3630504 3600193 
3007.702 3570606 3541253 3511579 3481011 3448926 3414801 3378239 3339187 
3011.559 3297976 3255507 3213273 3173126 3136947 3106021 3080708 3060063 
3015.417 3042022 3024081 3003702 2979139 2950001 2917077 2882200 2847473 
3019.274 2814820 2785424 2759817 2737897 2719354 2703763 2690723 2679837 
3023.131 2670278 2661001 2650660 2637862 2621554 2601286 2577436 2551006 
3026.989 2523347 2495888 2469797 2445941 2424791 2406602 2391394 2379129 
3030.846 2369436 2361816 2355402 2349343 2342894 2335778 2328282 2321285 
3034.704 2315934 2313314 2313865 2317345 2322679 2328302 2332748 2335106 
3038.561 2335354 2334413 2333737 2334948 2339256 2347062 2358175 2371979 
3042.418 2388027 2406249 2427343 2452321 2482295 2517910 2558976 2604452 
3046.276 2652718 2702128 2751355 2799750 2847424 2895037 2943271 2992591 
3050.133 3042782 3093235 3142459 3188787 3230119 3264573 3290377 3306609 
3053.991 3313232 3311358 3303237 3291865 3280262 3270857 3264843 3262099 
3057.848 3261263 3260479 3257919 3252668 3244558 3234358 3223313 3212817 
3061.706 3203961 3197741 3195053 3196762 3203577 3215729 3232702 3252805 
3065.563 3273270 3290943 3302740 3306644 3302122 3290138 3272868 3252855 
3069.420 3232484 3213299 3196120 3181178 3168391 3157737 3149301 3143229 
3073.278 3139530 3138084 3138441 3140008 3142242 3144748 3147255 3149773 
3077.135 3152438 3155489 3159367 3164572 3171743 3181225 3193000 3206263 
3080.993 3219312 3229877 3235382 3233618 3223211 3203969 3176940 3144070 
3084.850 3107882 3071002 3035679 3003690 2976101 2953131 2934372 2918736 
3088.708 2904697 2890759 2875700 2858922 2840656 2821634 2802870 2785357 
3092.565 2769725 2756285 2745176 2736659 2731278 2729862 2733050 2740919 
3096.422 2752706 2766803 2781093 2793608 2803298 2810223 2815620 2821355 
3100.280 2829272 2840225 2854068 2869407 2884144 2896208 2903875 2906365 
3104.137 2903706 2896485 2885751 2872409 2857160 2840374 2822008 2801842 
3107.995 2779517 2754887 2728162 2700163 2672234 2646205 2623830 2606306 
3111.852 2593887 2585838 2580268 2574843 2567156 2555493 2539126 2518424 
3115.709 2494690 2469828 2445994 2425194 2409155 2398833 2394524 2395672 
3119.567 2400935 2408429 2416148 2422405 2426159 2427324 2426614 2425314 
3123.424 2424750 2426052 2429799 2436003 2444317 2453963 2464024 2473319 
3127.282 2480559 2484414 2483805 2478339 2468448 2455566 2441848 2429658 
3131.139 2420907 2416496 2416160 2418465 2421469 2423152 2422034 2417375 
3134.997 2409003 2397415 2383245 2367263 2350285 2333303 2317460 2303962 
3138.854 2293824 2287682 2285410 2286184 2288535 2290728 2291058 2288234 
3142.711 2281586 2271273 2258151 2243735 2229866 2218409 2210731 2207553 
3146.569 2208654 2212955 2218933 2225040 2230183 2233982 2236785 2239313 
3150.426 2242149 2245516 2248949 2251597 2252408 2250629 2245971 2238688 
3154.284 2229236 2218327 2206586 2194843 2184086 2175557 2170576 2170142 
3158.141 2174502 2182703 2192596 2201419 2206479 2206049 2199809 2189054 
3161.999 2176136 2163705 2153996 2148278 2146944 2149688 2155970 2165130 
3165.856 2176500 2189152 2201735 2212574 2220046 2223041 2221469 2216525 
3169.713 2210203 2204733 2201706 2201720 2204073 2207484 2210458 2212161 
3173.571 2212594 2212427 2212507 2213335 2214750 2216049 2216396 2215374 
3177.428 2213453 2211906 2212402 2216484 2224816 2236974 2251354 2265825 
3181.286 2277997 2286048 2288838 2286055 2278049 2265633 2250020 2232656 
3185.143 2215171 2199516 2187558 2181068 2181162 2188101 2201170 2218570 
3189.000 2237738 2255938 2270717 2280452 2284612 2284033 2280518 2276315 
3192.858 2273551 2273582 2276647 2281918 2287546 2291540 2292101 2288442 
3196.715 2280658 2270040 2258451 2248011 2240542 2237153 2238136 2242934 
3200.573 2250352 2258883 2266943 2273496 2278098 2281117 2283585 2286950 
3204.430 2292335 2300442 2310851 2322420 2333290 2341756 2346614 2347713 
3208.288 2345904 2342818 2340240 2339596 2341332 2345091 2349620 2353523 
3212.145 2355413 2354640 2351302 2346187 2340637 2336114 2333789 2334345 
3216.002 2337697 2343162 2349540 2355659 2360610 2364065 2366480 2368820 
3219.860 2372061 2376963 2383560 2391093 2398357 2404135 2407580 2408755 
3223.717 2408366 2407704 2407847 2409381 2412144 2415332 2417760 2418534 
3227.575 2417253 2414252 2410477 2407300 2406092 2407986 2413812 2423854 
3231.432 2437832 2454900 2473501 2491640 2507180 2518353 2524162 2524832 
3235.290 2521640 2516613 2511847 2508771 2507682 2507782 2507282 2504401 
3239.147 2497749 2486889 2472564 2456401 2440595 2427463 2418928 2416534 
3243.004 2420905 2432001 2448723 2469235 2490983 2511339 2527904 2539329 
3246.862 2545490 2547522 2547396 2547215 2548427 2551457 2555410 2558563 
3250.719 2559030 2555374 2547185 2535188 2521082 2507072 2495023 2486428 
3254.577 2481759 2480777 2482582 2486167 2490664 2495711 2501485 2508557 
3258.434 2517643 2529238 2543289 2559006 2574993 2589644 2601648 2610245 
3262.292 2615706 2619154 2622151 2626229 2632324 2640614 2650438 2660762 
3266.149 2670528 2679128 2686506 2693015 2699106 2704990 2710434 2714853 
3270.006 2717385 2717465 2714917 2710235 2704148 2697773 2691904 2687140 
3273.864 2683700 2681685 2681184 2682596 2686486 2693419 2703751 2717208 
3277.721 2732806 2748987 2763822 2775705 2783559 2787393 2788013 2786771 
3281.579 2785118 2783864 2782976 2781621 2778446 2772342 2762919 2751041 
3285.436 2738651 2728366 2722761 2723739 2731820 2746201 2764942 2785712 
3289.293 2806169 2824622 2840114 2852420 2861737 2868421 2872781 2875016 
3293.151 2875304 2873843 2870934 2867145 2863220 2859941 2858086 2858416 
3297.008 2861252 2866619 2873906 2882008 2889411 2894507 2895978 2893155 
3300.866 2886313 2876679 2866106 2856836 2850791 2849364 2852951 2860973 
3304.723 2871990 2883985 2894708 2902138 2904910 2902482 2895357 2885010 
3308.581 2873520 2863012 2855118 2850679 2849427 2850245 2851656 2852262 
3312.438 2851333 2849140 2846587 2845288 2846733 2852019 2861510 2874635 
3316.295 2889895 2905227 2918176 2926498 2928572 2923982 2913678 2900084 
3320.153 2886443 2876256 2872015 2874789 2883684 2896188 2909110 2919611 
3324.010 2926160 2928978 2929741 2930896 2934548 2941767 2952105 2964100 
3327.868 2975739 2985356 2992060 2996097 2998254 2999691 3001342 3003749 
3331.725 3006956 3010750 3014917 3019221 3023391 3027201 3030278 3032297 
3335.583 3032994 3032440 3030936 3029195 3027826 3027360 3027922 3029432 
3339.440 3031553 3034138 3037119 3040620 3044778 3049537 3054455 3058821 
3343.297 3061819 3062735 3061276 3057587 3052153 3045586 3038406 3030873 
3347.155 3022908 3014442 3005284 2995683 2985852 2976382 2967827 2960686 
3351.012 2955084 2950931 2947729 2944651 2940824 2935272 2927497 2917429 
3354.870 2905602 2893341 2882223 2874063 2870199 2871202 2876719 2885553 
3358.727 2895786 2905397 2912469 2915749 2914611 2909258 2900314 2889106 
3362.584 2877033 2865718 2856571 2850707 2848763 2850558 2855253 2861178 
3366.442 2866274 2868300 2865342 2856490 2841958 2823463 2803873 2786908 
3370.299 2776222 2774707 2783414 2801472 2825950 2852706 2877195 2895698 
3374.157 2905964 2907737 2902152 2891331 2877507 2862402 2847136 2832266 
3378.014 2818396 2806270 2796846 2791220 2789826 2792359 2797586 2803500 
3381.872 2808172 2810263 2809475 2806642 2803305 2801134 2801384 2804355 
3385.729 2809488 2815514 2820856 2824267 2824897 2822508 2817576 2811030 
3389.586 2804081 2798058 2794094 2793048 2795243 2800772 2809384 2820692 
3393.444 2834398 2850059 2867068 2884403 2900542 2913657 2921978 2924678 
3397.301 2922004 2915909 2909501 2906296 2909270 2919838 2937639 2960492 
3401.159 2985240 3008793 3028662 3043706 3053851 3059810 3062615 3063383 
3405.016 3063195 3063341 3065133 3070027 3079128 3092855 3110692 3131395 
3408.874 3153204 3174652 3194862 3213950 3232525 3251535 3271465 3292120 
3412.731 3312714 3332206 3349832 3365475 3379745 3393582 3408095 3423876 
3416.588 3440983 3459000 3477176 3494825 3511333 3526374 3539772 3551644 
3420.446 3562371 3572822 3584148 3597743 3614596 3634941 3657747 3680877 
3424.303 3701597 3717696 3727936 3733069 3735340 3737961 3743739 3754130 
3428.161 3768636 3785025 3799891 3810275 3814122 3811207 3802787 3791098 
3432.018 3778661 3767459 3758620 3752663 3749596 3749177 3751046 3754770 
3435.875 3759570 3764348 3767667 3768149 3764577 3756391 3743599 3726703 
3439.733 3706359 3683161 3657391 3629071 3598272 3565275 3530840 3496344 
3443.590 3463296 3433140 3406871 3384509 3365320 3347740 3330110 3310808 
3447.448 3288934 3264371 3237670 3209868 3182064 3155261 3130241 3107670 
3451.305 3088131 3072499 3061464 3055703 3055266 3059477 3066632 3074514 
3455.163 3080668 3083108 3080604 3073085 3061099 3045661 3027591 3007518 
3459.020 2985677 2962290 2937942 2913825 2891412 2872292 2857295 2846365 
3462.877 2838191 2830728 2821650 2809378 2793278 2774241 2753985 2734626 
3466.735 2718000 2705197 2696285 2690800 2687851 2686751 2687124 2689101 
3470.592 2692869 2698711 2706463 2715670 2725383 2734585 2742030 2746654 
3474.450 2747493 2743934 2735662 2722978 2706716 2688492 2670312 2654476 
3478.307 2642986 2637300 2637689 2643323 2652373 2662552 2671514 2677672 
3482.165 2680239 2679659 2676846 2673234 2669915 2667465 2665906 2664900 
3486.022 2663917 2662722 2661409 2660483 2660569 2662113 2665104 2669191 
3489.879 2673737 2678002 2681562 2684441 2687060 2690117 2694164 2699401 
3493.737 2705347 2711177 2715618 2717502 2716191 2711789 2705193 2697876 
3497.594 2691549 2687708 2687052 2689405 2693717 2698432 2701826 2702847 
3501.452 2701118 2697285 2692590 2688696 2687105 2688893 2694533 2703958 
3505.309 2716507 2731224 2746716 2761420 2773727 2782133 2785889 2784970 
3509.167 2780616 2774722 2769454 2766566 2766744 2769553 2773594 2777377 
3513.024 2779797 2780878 2781473 2782981 2786304 2791597 2797888 2803778 
3516.881 2807960 2810173 2811235 2812890 2816815 2823840 2833291 2843387 
3520.739 2851762 2856717 2857905 2856655 2855417 2856557 2861468 2870235 
3524.596 2881253 2892561 2902313 2909783 2915396 2920416 2926200 2933569 
3528.454 2942646 2952714 2962797 2971978 2979611 2985243 2988525 2989125 
3532.311 2986741 2981610 2974474 2966846 2960363 2956409 2955463 2956810 
3536.168 2958789 2959515 2957554 2952556 2945179 2936749 2928461 2920864 
3540.026 2913623 2906022 2897344 2887624 2877662 2868894 2862635 2859676 
3543.883 2860113 2863446 2869159 2877149 2887799 2901564 2918341 2937040 
3547.741 2955267 2970050 2978556 2979273 2972364 2959769 2944367 2929262 
3551.598 2916900 2908769 2905349 2906896 2913157 2923824 2937915 2953596 
3555.456 2968094 2978021 2980382 2973326 2956920 2933280 2905660 2877846 
3559.313 2853032 2833357 2819709 2812294 2810716 2814365 2822042 2831848 
3563.170 2840901 2845759 2843318 2831770 2811210 2784009 2753990 2725341 
3567.028 2701210 2682945 2669970 2660323 2651794 2642792 2632646 2621681 
3570.885 2610532 2599646 2588926 2577963 2566011 2552624 2537598 2520873 
3574.743 2502435 2482274 2460412 2437441 2414696 2394366 2378885 2370394 
3578.600 2369654 2375644 2385646 2396074 2403384 2405214 2400922 2391519 
3582.458 2379078 2365778 2353391 2343052 2335109 2329515 2326175 2324848 
3586.315 2325125 2326486 2328006 2328862 2328559 2327062 2324876 2322617 
3590.172 2320707 2318966 2316645 2313031 2307713 2301282 2295272 2291750 
3594.030 2292432 2297925 2307251 2317957 2327035 2331786 2330756 2324233 
3597.887 2313898 2302278 2291660 2283629 2278744 2276556 2276134 2276524 
3601.745 2276974 2277291 2277559 2278288 2280022 2283490 2289067 2296815 
3605.602 2306178 2316065 2324864 2330997 2333141 2331074 2325440 2318069 
3609.459 2311254 2307424 2308242 2314779 2326819 2343296 2362476 2382186 
3613.317 2400093 2414249 2423279 2426959 2426224 2423093 2419997 2419188 
3617.174 2421871 2427708 2434874 2440848 2443292 2441218 2435209 2427554 
3621.032 2421030 2418124 2420042 2426361 2435400 2445198 2454352 2462595 
3624.889 2470864 2480637 2493391 2509665 2528765 2549033 2568161 2583911 
3628.747 2594361 2598532 2596004 2587289 2573412 2556060 2537201 2518952 
3632.604 2503144 2491027 2482712 2477647 2474355 2471307 2467328 2461745 
3636.461 2454521 2445840 2435883 2424737 2412243 2398754 2384982 2372346 
3640.319 2362486 2356788 2355765 2358771 2364057 2369515 2373333 2374872 
3644.176 2374562 2373797 2374086 2376387 2380576 2385466 2389412 2390808 
3648.034 2388707 2382923 2373911 2362246 2348063 2331385 2311931 2289798 
3651.891 2265933 2241917 2220096 2202702 2191368 2186600 2187871 2193562 
3655.749 2201712 2210416 2217968 2223298 2225496 2223909 2218007 2207494 
3659.606 2192540 2173982 2153294 2132518 2113866 2099095 2089314 2084634 
3663.463 2084183 2086646 2090377 2094073 2096945 2098500 2098764 2097575 
3667.321 2094551 2089040 2080338 2067928 2052005 2033777 2015313 1999271 
3671.178 1988227 1983956 1986902 1996157 2009655 2024709 2038537 2048928 
3675.036 2054390 2054400 2049303 2040109 2028248 2015459 2003544 1993922 
3678.893 1987519 1984557 1984188 1984855 1984745 1982313 1976731 1968183 
3682.750 1957571 1946290 1935451 1925586 1916448 1907394 1897795 1887366 
3686.608 1876441 1865835 1856438 1849066 1843967 1841154 1840418 1841772 
3690.465 1845352 1851370 1859592 1869067 1878247 1884905 1887169 1883936 
3694.323 1875426 1863261 1849769 1837562 1828401 1823102 1821208 1821520 
3698.180 1822662 1823619 1824154 1824628 1825795 1828637 1833688 1840985 
3702.038 1849947 1859495 1868152 1874342 1876609 1874085 1866604 1854750 
3705.895 1839778 1823200 1806458 1790397 1775376 1761483 1748793 1738138 
3709.752 1730860 1728836 1733559 1745430 1763087 1783672 1802983 1817052 
3713.610 1822975 1820038 1809583 1794558 1778460 1764413 1754447 1749172 
3717.467 1748229 1750684 1755544 1761938 1769006 1775889 1781578 1785075 
3721.325 1785779 1783804 1780145 1776559 1774919 1776670 1782203 1790631 
3725.182 1800173 1808732 1814683 1817328 1817251 1815837 1814836 1815507 
3729.040 1818379 1822875 1827685 1831421 1833120 1832645 1830943 1829779 
3732.897 1831204 1836882 1847492 1862298 1879475 1896257 1909801 1917839 
3736.754 1919377 1914713 1905224 1892901 1879636 1866883 1855318 1845367 
3740.612 1837270 1831602 1829306 1831435 1838881 1851887 1869602 1890359 
3744.469 1911866 1931873 1948850 1962001 1971349 1977270 1980289 1980594 
3748.327 1978234 1973447 1966534 1958614 1950780 1944139 1939433 1936488 
3752.184 1934636 1932985 1930918 1928624 1927046 1927508 1931268 1938567 
3756.042 1948488 1959016 1967532 1971753 1970393 1963765 1953366 1941504 
3759.899 1930268 1920973 1913718 1907672 1901574 1894654 1886813 1879058 
3763.756 1872878 1869940 1871176 1876778 1885828 1897089 1909162 1921113 
3767.614 1932549 1943332 1953247 1961674 1967410 1969053 1965499 1956697 
3771.471 1943783 1929236 1916078 1907192 1904160 1907224 1914793 1924199 
3775.329 1932621 1937766 1938596 1935425 1929493 1922508 1916066 1911295 
3779.186 1908853 1908754 1910949 1915096 1920550 1926512 1931626 1934497 
3783.043 1933869 1929156 1920839 1910504 1900637 1893901 1892531 1897340 
3786.901 1907545 1920851 1933857 1942955 1945121 1938699 1923637 1901547 
3790.758 1875567 1849560 1827525 1812958 1807929 1812885 1826371 1845314 
3794.616 1865599 1883157 1894603 1898279 1894474 1885413 1874402 1865146 
3798.473 1860546 1862284 1870134 1882366 1896144 1908334 1916144 1917891 
3802.331 1913431 1904051 1892196 1880797 1872699 1869851 1873007 1881228 
3806.188 1892576 1904336 1913842 1919406 1920555 1918168 1914070 1910303 
3810.045 1908681 1910021 1914375 1920941 1928621 1936481 1943807 1950228 
3813.903 1955703 1959992 1962951 1964286 1963972 1962147 1959478 1956756 
3817.760 1954763 1954038 1954553 1955991 1957761 1959430 1960779 1961667 
3821.618 1961979 1961265 1958834 1953724 1945216 1933578 1920106 1907131 
3825.475 1897577 1893892 1897183 1906682 1919814 1932924 1942459 1945976 
3829.333 1943102 1935297 1925412 1916525 1911091 1910176 1913550 1919982 
3833.190 1927919 1936206 1944148 1951552 1958380 1964386 1969006 1971505 
3837.047 1971289 1968256 1963009 1956667 1950505 1945653 1942615 1941391 
3840.905 1941455 1942149 1942805 1942997 1942533 1941256 1939129 1936177 
3844.762 1932451 1928298 1924312 1921228 1919677 1919995 1922002 1925158 
3848.620 1928585 1931510 1933455 1934342 1934326 1933768 1932900 1931851 
3852.477 1930531 1929055 1927566 1926567 1926472 1927398 1929073 1930503 
3856.334 1930512 1927987 1922346 1914131 1904621 1895782 1889334 1886453 
3860.192 1887232 1890598 1894923 1898511 1900339 1900189 1898898 1897595 
3864.049 1897417 1898936 1901970 1905640 1908987 1911181 1911990 1911904 
3867.907 1911857 1912770 1915329 1919626 1925079 1930806 1935963 1940019 
3871.764 1943102 1945823 1949038 1953539 1959612 1966907 1974504 1981102 
3875.622 1985532 1987078 1985649 1981776 1976277 1970114 1963988 1958121 
3879.479 1952526 1947125 1941995 1937580 1934543 1933625 1935193 1938895 
3883.336 1943782 1948332 1950891 1950156 1945606 1937617 1927412 1916685 
3887.194 1907075 1899874 1895771 1894873 1896723 1900764 1906122 1912082 
3891.051 1917951 1923053 1926904 1929269 1930082 1929708 1928616 1927380 
3894.909 1926574 1926565 1927417 1928817 1930153 1930705 1929559 1925840 
3898.766 1919141 1909527 1897820 1885602 1875093 1868699 1868355 1875135 
3902.624 1888702 1907362 1928382 1948494 1964779 1975309 1979389 1977630 
3906.481 1971615 1963386 1954945 1948153 1944333 1944285 1948403 1956479 
3910.338 1967834 1981290 1995262 2008097 2018248 2024780 2027221 2025542 
3914.196 2020306 2011906 2000983 1988104 1974093 1959857 1946878 1936484 
3918.053 1929764 1927099 1928098 1931461 1935626 1939017 1940846 1941058 
3921.911 1940443 1940208 1941301 1944248 1948734 1953932 1958802 1962410 
3925.768 1964428 1964893 1964252 1962993 1961562 1960157 1958739 1957281 
3929.625 1955835 1954640 1953997 1954316 1955939 1959144 1964075 1970776 
3933.483 1979165 1989125 2000421 2012696 2025477 2038222 2050390 2061360 
3937.340 2070591 2077461 2081374 2081642 2077815 2069626 2057222 2041353 
3941.198 2023156 2004164 1986148 1970771 1959423 1953173 1952593 1957551 
3945.055 1967190 1979966 1993725 2005809 2013715 2015615 2010594 1999126 
3948.913 1982957 1964748 1947423 1933629 1925062 1922557 1925664 1933382 
3952.770 1944147 1956664 1969915 1983407 1996997 2010817 2024588 2037554 
3956.627 2048229 2054635 2054593 2046655 2030740 2008690 1984130 1961770 
3960.485 1946256 1940706 1945947 1959924 1978701 1997377 2012048 2020704 
3964.342 2023820 2023761 2023608 2025781 2031027 2038216 2044928 2048608 
3968.200 2047514 2041349 2031364 2019568 2007996 1998005 1990155 1984194 
3972.057 1979816 1977087 1976461 1978632 1984239 1993245 2004878 2017781 
3975.915 2030434 2041584 2050565 2057428 2062425 2065904 2068062 2068900 
3979.772 2068256 2066358 2063565 2060598 2058164 2056651 2056072 2055827 
3983.629 2055195 2053506 2050482 2046334 2041585 2037115 2033619 2031486 
3987.487 2031063 2032165 2034790 2038526 2043106 2048008 2052643 2056343 
3991.344 2058639 2059250 2058521 2057083 2055805 2055491 2056650 2059228 
3995.202 2062758 2066491 2069607 2071559 2072170 2071563 2070365 2069207 
3999.059 2068947 2070215 2073496 2078910 
##END=
