##TITLE=eSUN_PLA+_White_Filament_r5_ATR-Corrected
##JCAMP-DX=5.01  $$ Nicolet v. 1
##DATATYPE=INFRARED SPECTRUM
##ORIGIN=Curtin University
##OWNER=Nicolet
##LONGDATE=2024/07/11
##TIME=10:12:07
##SPECTROMETER/DATA SYSTEM=Nicolet iS50
##DATA PROCESSING=
Ratio against background
%Transmittance->Absorbance
ATR Correction
Truncated
ElementMultiply or ElementDivide
##COMMENTS=
Number of sample scans: 32
Collection length: 47.28 sec
Sample gain: 1.0
Background collected on: Thu Jul 11 10:09:29 2024 (GMT+08:00);
Number of background scans: 32
Background gain: 1.0
Sample spacing:  1.000
Number of scan points: 16672
Resolution points: 8192
Number of FFT points: 65536
Apodization: N-B strong;
Phase correction: Mertz;
Laser frequency: 15798.3 cm-1
Number of rejected sample scans: 0
Number of rejected background scans: 0
Bench serial number: AUP1200105;
##RESOLUTION=4.000
##XUNITS=1/CM
##YUNITS=ABSORBANCE
##FIRSTX=400.163452
##LASTX=4000.187744
##FIRSTY=0.057397
##MAXX=4000.187744
##MINX=400.163452
##MAXY=1.025163
##MINY=-0.053890
##XFACTOR=1.000000
##YFACTOR=1.000000E-008
##NPOINTS=7468
##DELTAX=0.482125
##ZPD=8192
##XYDATA=(X++(Y..Y))
400.163 5739746 5732335 5726785 5716547 5694050 5653470 5591286 5507707 
404.020 5406912 5296522 5185786 5083547 4996058 4925791 4871106 4827038 
407.877 4786414 4741665 4686185 4615831 4529876 4431343 4326594 4223941 
411.734 4131325 4054232 3993812 3946563 3905449 3862264 3810078 3745721 
415.591 3670324 3588634 3506904 3430439 3361803 3300443 3243364 3187193 
419.448 3129951 3072370 3017834 2971351 2937508 2918839 2914501 2920351 
423.305 2929793 2935622 2931808 2915213 2886231 2848591 2808044 2770656 
427.162 2740961 2720845 2709276 2703059 2698267 2691896 2682895 2672514 
431.019 2663424 2658422 2658918 2663858 2670333 2673946 2670450 2657316 
434.876 2634541 2604689 2572130 2541872 2518261 2504233 2500847 2507465 
438.733 2522043 2541667 2563006 2582796 2598276 2607643 2610250 2606875 
442.590 2599362 2590374 2582668 2578568 2579433 2585629 2596378 2610137 
446.447 2624704 2637554 2646014 2647676 2640664 2624152 2598576 2565794 
450.304 2528868 2491597 2457871 2431053 2413407 2405977 2408499 2419755 
454.161 2437712 2459874 2483392 2505311 2522822 2533644 2536288 2530375 
458.017 2516593 2496559 2472478 2446795 2421897 2399953 2382685 2371340 
461.874 2366432 2367575 2373387 2381224 2388524 2392433 2390675 2382192 
465.731 2367321 2347649 2325590 2303779 2284501 2269364 2259075 2253538 
469.588 2251990 2253253 2255901 2258479 2259603 2258163 2253343 2244744 
473.445 2232229 2215927 2196058 2172985 2147185 2119482 2091058 2063553 
477.302 2038842 2018683 2004344 1996178 1993489 1994664 1997461 1999624 
481.159 1999395 1995925 1989403 1980920 1971951 1963843 1957211 1951657 
485.016 1945749 1937521 1925124 1907567 1885278 1860131 1834976 1812843 
488.873 1795974 1785232 1779980 1778562 1779096 1780384 1782255 1785547 
492.730 1791376 1800328 1811787 1823565 1833005 1837259 1834420 1824201 
496.587 1808005 1788496 1768765 1751561 1738720 1730964 1727978 1728748 
500.444 1731713 1735096 1737006 1735738 1730003 1719316 1704086 1685731 
504.301 1666309 1648143 1633344 1623467 1619365 1621224 1628518 1640111 
508.158 1654135 1668070 1679039 1684368 1682330 1672886 1657830 1640428 
512.015 1624338 1612286 1605051 1601174 1597625 1591180 1579941 1564391 
515.871 1547339 1532860 1524535 1523802 1529124 1536305 1539939 1535375 
519.728 1520360 1495931 1465991 1436027 1411354 1395606 1389863 1392756 
523.585 1401096 1410958 1418677 1421392 1417865 1408069 1393092 1374863 
527.442 1355666 1337708 1322669 1311438 1304039 1299883 1298136 1298201 
531.299 1299898 1303507 1309390 1317545 1327282 1337185 1345418 1350333 
535.156 1351034 1347797 1342046 1335926 1331707 1331152 1334979 1342849 
539.013 1353437 1364841 1375026 1382181 1385005 1382833 1375681 1364196 
542.870 1349553 1333242 1316940 1302183 1290179 1281628 1276589 1274445 
546.727 1274027 1273827 1272313 1268346 1261546 1252550 1242927 1234871 
550.584 1230543 1231416 1237722 1248307 1260933 1273003 1282328 1287893 
554.441 1289995 1290028 1289879 1291127 1294781 1300869 1308716 1317349 
558.298 1325870 1333575 1339953 1344483 1346589 1345741 1341738 1334980 
562.155 1326619 1318361 1311975 1308764 1309148 1312628 1318185 1324825 
566.012 1332137 1340503 1350795 1363860 1379787 1397528 1414952 1429392 
569.869 1438450 1440781 1436569 1427479 1416201 1405724 1398626 1396554 
573.725 1400019 1408430 1420443 1434292 1448156 1460582 1470709 1478476 
577.582 1484521 1490008 1496171 1503920 1513505 1524440 1535675 1546021 
581.439 1554563 1560945 1565466 1568860 1572017 1575700 1580343 1586124 
585.296 1593043 1601008 1609843 1619149 1628234 1636126 1641743 1644316 
589.153 1643808 1641143 1638139 1637078 1640017 1648180 1661541 1678868 
593.010 1698070 1716895 1733466 1746678 1756251 1762504 1766085 1767688 
596.867 1767993 1767713 1767634 1768628 1771481 1776640 1783936 1792564 
600.724 1801200 1808382 1812994 1814687 1814038 1812446 1811748 1813777 
604.581 1819847 1830438 1845143 1862770 1881643 1900018 1916430 1930100 
608.438 1941091 1950347 1959464 1970320 1984523 2002980 2025557 2051134 
612.295 2077933 2104066 2128171 2149793 2169470 2188522 2208425 2230327 
616.152 2254641 2280913 2308191 2335342 2361590 2386725 2411081 2435290 
620.009 2459901 2485090 2510555 2535657 2559637 2581940 2602378 2621137 
623.866 2638654 2655424 2671854 2688223 2704684 2721382 2738454 2756057 
627.723 2774226 2792797 2811390 2829443 2846432 2862051 2876402 2890040 
631.579 2903859 2918849 2935836 2955204 2976775 2999831 3023252 3045751 
635.436 3066176 3083718 3098105 3109617 3119036 3127440 3135951 3145500 
639.293 3156684 3169686 3184416 3200644 3218167 3236923 3256933 3278188 
643.150 3300472 3323268 3345804 3367222 3386831 3404339 3419869 3433954 
647.007 3447225 3460189 3473089 3485910 3498553 3511108 3523973 3537854 
650.864 3553523 3571494 3591739 3613596 3635959 3657626 3677770 3696247 
654.721 3713586 3730761 3748722 3767931 3788155 3808473 3827643 3844602 
658.578 3858895 3870881 3881637 3892582 3904963 3919454 3935913 3953549 
662.435 3971269 3988100 4003672 4018295 4032933 4048832 4067054 4088119 
666.292 4111796 4137184 4162993 4187911 4210969 4231702 4250106 4266509 
670.149 4281276 4294739 4307119 4318671 4329783 4341051 4353173 4366764 
674.006 4382124 4399068 4417040 4435299 4453285 4470897 4488510 4506847 
677.863 4526573 4547911 4570463 4593328 4615341 4635672 4654153 4671387 
681.720 4688502 4706676 4726626 4748311 4770888 4793061 4813580 4831690 
685.577 4847447 4861671 4875733 4891188 4909399 4931358 4957498 4987811 
689.433 5021848 5058838 5097854 5137982 5178564 5219439 5261138 5304853 
693.290 5352273 5405186 5465104 5532876 5608493 5691088 5779059 5870190 
697.147 5961795 6050697 6133319 6205803 6264325 6305594 6327416 6329153 
701.004 6311896 6278271 6232042 6177378 6118287 6058225 5999839 5945007 
704.861 5894902 5850097 5810587 5775897 5745154 5717344 5691568 5667335 
708.718 5644646 5623886 5605465 5589339 5574517 5558975 5539797 5513711 
712.575 5477755 5429962 5369765 5298028 5216648 5127986 5034251 4937048 
716.432 4837144 4734644 4629293 4520866 4409526 4295959 4181356 4067221 
720.289 3955123 3846454 3742265 3643238 3549728 3461913 3379917 3303944 
724.146 3234310 3171392 3115650 3067477 3027190 2995053 2971320 2956337 
728.003 2950652 2955031 2970482 2998118 3038985 3093907 3163259 3246907 
731.860 3344179 3453929 3574695 3704779 3842389 3985623 4132446 4280705 
735.717 4428171 4572681 4712374 4845976 4972972 5093644 5208854 5319775 
739.574 5427450 5532530 5635132 5735023 5831822 5925280 6015461 6102762 
743.431 6187756 6271047 6353140 6434452 6515465 6596791 6679266 6763792 
747.287 6851186 6941885 7035912 7132946 7232552 7334479 7438709 7545410 
751.144 7654480 7765131 7875542 7982866 8083579 8174084 8251317 8313177 
755.001 8358525 8386853 8397830 8390900 8365252 8320047 8254925 8170453 
758.858 8068321 7951173 7822165 7684348 7540162 7391282 7238654 7082834 
762.715 6924382 6764114 6603203 6443073 6285152 6130732 5980789 5835964 
766.572 5696683 5563120 5435360 5313324 5196771 5085294 4978254 4874968 
770.429 4774748 4677076 4581757 4488915 4399100 4313076 4231571 4155033 
774.286 4083341 4015722 3950751 3886608 3821474 3753940 3683310 3609757 
778.143 3534173 3457944 3382525 3309196 3238859 3171995 3108739 3048896 
782.000 2992057 2937537 2884461 2831773 2778474 2723788 2667343 2609352 
785.857 2550458 2491613 2433879 2378161 2325240 2275712 2230120 2188956 
789.714 2152578 2121073 2094061 2070657 2049566 2029428 2009163 1988321 
793.571 1967162 1946569 1927721 1911641 1898907 1889527 1882932 1878248 
797.428 1874491 1870808 1866572 1861476 1855578 1849328 1843477 1839047 
801.285 1837061 1838192 1842557 1849444 1857563 1865186 1870628 1872740 
805.141 1871110 1866080 1858549 1849553 1840015 1830546 1821494 1813053 
808.998 1805414 1798810 1793451 1789454 1786731 1785078 1784229 1784099 
812.855 1784778 1786506 1789459 1793511 1798132 1802402 1805294 1805979 
816.712 1804176 1800164 1794717 1788801 1783147 1778093 1773522 1768993 
820.569 1764033 1758344 1751934 1745024 1737973 1731091 1724565 1718510 
824.426 1713034 1708301 1704585 1702131 1701097 1701400 1702663 1704210 
828.283 1705263 1705006 1702800 1698340 1691781 1683770 1675391 1668065 
832.140 1663301 1662438 1666384 1675468 1689595 1708310 1731082 1757530 
835.997 1787497 1820947 1857840 1897997 1941116 1986954 2035622 2087780 
839.854 2144617 2207568 2277755 2355455 2439869 2529111 2620773 2712533 
843.711 2802752 2890635 2976028 3058786 3138190 3212606 3279590 3336535 
847.568 3381567 3414267 3436118 3450304 3461200 3473489 3491466 3518606 
851.425 3557452 3609757 3676832 3759747 3859473 3976938 4112921 4268011 
855.282 4442489 4636163 4848267 5077201 5320469 5574736 5836067 6100376 
859.139 6363884 6623518 6876953 7122592 7359116 7585351 7800050 8002007 
862.995 8190299 8364433 8524518 8670981 8804347 8924855 9032386 9126577 
866.852 9207275 9274914 9330902 9377560 9417737 9454156 9488682 9521846 
870.709 9552579 9578440 9595950 9601097 9589736 9557965 9502252 9419610 
874.566 9307811 9165439 8992093 8788390 8555943 8297162 8015146 7713569 
878.423 7396717 7069573 6737866 6407926 6086275 5779024 5491206 5226179 
882.280 4985407 4768609 4574300 4400450 4245221 4107366 3986382 3882379 
886.137 3795713 3726567 3674694 3639203 3618643 3611079 3614401 3626466 
889.994 3645325 3669210 3696498 3725608 3754880 3782552 3806827 3826148 
893.851 3839443 3846313 3847215 3843199 3835743 3826284 3815956 3805419 
897.708 3794980 3784801 3775216 3766902 3760823 3758018 3759302 3764956 
901.565 3774685 3787754 3803229 3820361 3838762 3858407 3879428 3901823 
905.422 3925228 3948786 3971323 3991538 4008355 4021130 4029731 4034532 
909.279 4036191 4035547 4033494 4030795 4028159 4026128 4025013 4024837 
913.136 4025258 4025585 4024850 4021896 4015565 4004896 3989294 3968636 
916.993 3943462 3914916 3884725 3854922 3827477 3803863 3784638 3769256 
920.849 3756166 3743189 3728197 3709681 3687222 3661575 3634340 3607454 
924.706 3582525 3560415 3541132 3523926 3507861 3492090 3476198 3460308 
928.563 3444894 3430549 3417835 3407101 3398523 3392195 3388175 3386558 
932.420 3387343 3390425 3395500 3402095 3409670 3417730 3425922 3434088 
936.277 3442252 3450548 3459193 3468432 3478567 3489983 3503097 3518329 
940.134 3536036 3556392 3579465 3605171 3633447 3664266 3697729 3733984 
943.991 3773155 3815226 3860025 3907301 3956812 4008584 4062888 4120256 
947.848 4181334 4246614 4316282 4390140 4467674 4548308 4631552 4717098 
951.705 4804781 4894311 4984960 5075275 5163118 5245797 5320542 5385005 
955.562 5437681 5478046 5506448 5523621 5530241 5526511 5512123 5486446 
959.419 5449069 5400412 5342116 5277105 5209296 5142865 5081509 5027747 
963.276 4982623 4945796 4915954 4891431 4870750 4852896 4837298 4823602 
967.133 4811351 4799735 4787569 4773481 4756120 4734497 4708067 4676759 
970.990 4640890 4600990 4557816 4512290 4465589 4419156 4374579 4333467 
974.847 4297157 4266566 4242082 4223610 4210735 4202845 4199325 4199589 
978.703 4203036 4209114 4217355 4227536 4239783 4254683 4273216 4296496 
982.560 4325453 4360467 4401177 4446522 4494990 4545062 4595563 4646002 
986.417 4696596 4748115 4801663 4858336 4918882 4983671 5052620 5125224 
990.274 5200708 5278060 5356326 5434660 5512541 5589867 5666966 5744534 
994.131 5823407 5904391 5987989 6074317 6163168 6254074 6346548 6440298 
997.988 6535338 6632042 6731107 6833435 6940014 7051700 7169091 7292501 
1001.845 7421889 7556989 7697478 7843183 7994209 8151038 8314460 8485328 
1005.702 8664419 8852147 9048621 9253671 9467117 9688949 9919523 10159559 
1009.559 10410010 10671912 10946240 11233860 11535588 11852273 12184821 
1012.934 12534161 12901019 13285691 13687921 14106856 14541224 14989555 
1016.309 15450408 15922444 16404435 16895048 17392734 17895774 18402266 
1019.683 18910472 19419028 19926950 20433478 20937838 21438936 21935284 
1023.058 22425248 22907506 23381568 23848206 24309514 24768770 25229850 
1026.433 25696700 26172912 26661550 27165124 27685762 28225398 28785778 
1029.809 29368430 29974530 30604830 31259558 31938398 32640416 33363994 
1033.184 34106560 34864556 35633300 36407156 37179764 37944488 38694684 
1036.559 39423908 40126072 40795332 41426128 42013232 42551996 43038452 
1039.934 43469520 43842868 44156956 44410804 44604048 44737048 44811212 
1043.310 44829004 44793900 44710092 44581920 44413440 44208332 43969908 
1046.685 43701608 43407436 43092248 42761688 42421800 42078508 41737048 
1050.060 41401636 41075424 40760704 40459208 40172276 39901088 39646672 
1053.435 39409864 39191504 38992508 38814104 38657956 38526196 38421472 
1056.811 38346700 38304912 38299284 38333152 38410048 38533956 38709264 
1060.186 38940636 39232712 39589724 40014932 40510216 41075708 41709728 
1063.561 42408712 43167652 43980516 44840940 45742840 46680912 47650900 
1066.936 48649584 49674340 50722916 51792956 52881884 53987152 55106460 
1070.312 56238020 57380736 58533852 59696596 60867716 62045176 63226168 
1073.687 64407396 65585184 66755640 67914352 69055816 70173056 71257464 
1077.062 72299112 73287520 74212544 75065360 75838624 76526416 77123760 
1080.437 77626112 78028824 78327336 78517120 78594304 78556024 78401056 
1083.813 78130504 77748224 77261128 76679032 76013728 75277720 74482840 
1087.188 73639272 72755080 71836712 70889616 69919184 68931000 67930776 
1090.563 66923732 65913992 64904356 63896428 62891324 61890320 60895328 
1093.938 59908916 58933712 57971780 57024068 56090064 55168284 54256664 
1097.313 53353320 52456992 51567216 50684284 49808892 48941920 48084072 
1100.689 47235912 46397676 45569464 44751404 43943912 43147872 42365012 
1104.064 41597824 40849404 40123000 39421512 38747056 38100908 37483732 
1107.439 36896308 36339952 35817064 35331024 34885724 34484700 34130392 
1110.814 33823636 33563560 33347992 33174046 33038574 32938570 32871228 
1114.190 32833910 32824048 32839238 32877458 32937378 33018488 33121002 
1117.565 33245742 33393550 33565100 33760840 33980940 34225588 34494920 
1120.940 34788840 35106412 35445280 35801160 36167728 36537080 36900260 
1124.315 37248232 37572272 37864356 38116924 38322852 38475376 38568504 
1127.691 38597676 38560432 38456880 38289560 38062908 37782244 37452884 
1131.066 37079320 36664968 36212100 35722084 35195612 34632920 34033956 
1134.441 33398604 32726858 32019178 31276720 30501508 29696474 28865242 
1137.816 28012026 27141326 26257822 25366274 24471452 23578084 22690844 
1141.192 21814284 20952826 20110734 19292272 18501488 17742172 17017716 
1144.567 16330852 15683545 15076964 14511575 13987359 13504048 13061279 
1147.942 12658501 12294949 11969345 11679844 11424073 11199436 11003470 
1151.317 10834169 10690209 10570779 10475315 10403109 10352948 10323145 
1154.693 10311736 10316841 10337174 10372250 10422421 10488716 10572456 
1158.068 10675021 10797643 10941460 11107572 11297182 11511711 11752800 
1161.443 12022353 12322578 12656091 13026102 13436490 13891807 14397237 
1164.818 14958279 15580676 16270231 17032818 17874446 18801320 19819734 
1168.194 20935852 22155340 23483010 24922580 26476554 28146222 29931524 
1171.569 31830728 33839692 35950996 38152952 40429124 42758192 45114492 
1174.944 47469028 49790528 52046196 54202384 56224836 58079272 59732564 
1178.319 61154304 62319000 63208036 63811356 64128400 64167948 63947456 
1181.695 63491444 62829612 61994404 61018652 59933556 58767276 57544376 
1185.070 56285916 55010064 53732628 52467436 51226360 50018992 48852368 
1188.445 47730884 46656624 45630100 44650932 43718692 42833280 41994936 
1191.820 41204052 40460816 39764872 39115332 38510824 37949744 37430396 
1195.196 36951060 36510028 36105384 35735024 35396704 35088132 34807124 
1198.571 34551872 34320736 34112336 33925312 33758272 33609772 33478242 
1201.946 33362180 33260012 33170074 33090440 33018672 32951962 32887136 
1205.321 32820926 32750272 32672616 32585984 32488936 32380330 32259038 
1208.697 32123780 31973028 31805030 31618020 31410388 31180954 30929180 
1212.072 30655196 30359852 30044544 29711026 29361204 28996846 28619546 
1215.447 28230684 27831564 27423486 27007852 26586098 26159644 25729718 
1218.822 25297352 24863430 24428848 23994736 23562572 23134118 22711242 
1222.198 22295610 21888326 21489968 21100438 20719326 20346198 19980792 
1225.573 19623216 19273824 18933070 18601274 18278608 17964930 17659972 
1228.948 17363494 17075432 16795916 16525325 16264164 16013016 15772383 
1232.323 15542616 15323849 15115879 14918146 14729764 14549649 14376770 
1235.698 14210412 14050317 13896792 13750547 13612334 13482535 13360846 
1239.074 13246094 13136487 13029973 12924853 12820189 12716164 12613890 
1242.449 12515134 12421801 12335379 12256655 12185559 12121388 12063076 
1245.824 12009586 11960185 11914653 11873257 11836611 11805476 11780471 
1249.199 11761893 11749694 11743437 11742442 11746117 11754017 11766072 
1252.575 11782553 11803960 11830837 11863573 11902251 11946633 11996238 
1255.950 12050495 12108735 12170424 12234966 12301806 12370294 12439743 
1259.325 12509392 12578514 12646459 12712616 12776393 12837239 12894556 
1262.700 12947826 12996556 13040408 13079041 13112056 13138826 13158351 
1266.076 13169362 13170455 13160415 13138446 13104421 13058828 13002586 
1269.451 12936729 12862067 12778968 12687384 12586850 12476838 12356883 
1272.826 12226737 12086430 11936260 11776659 11608206 11431527 11247317 
1276.201 11056227 10858942 10656031 10447995 10235359 10018682 9798755 
1279.577 9576668 9353817 9131775 8912221 8696635 8486263 8281981 8084465 
1283.434 7894325 7712248 7539194 7376346 7225086 7086833 6962912 6854439 
1287.292 6762301 6687103 6629184 6588614 6565060 6557772 6565544 6586732 
1291.149 6619460 6661720 6711628 6767545 6828119 6892274 6959082 7027726 
1295.006 7097317 7166904 7235522 7302161 7365991 7426246 7482343 7533794 
1298.864 7580174 7621134 7656388 7685874 7709805 7728846 7744024 7756660 
1302.721 7768004 7778968 7789811 7800096 7808755 7814520 7816309 7813667 
1306.579 7806908 7797033 7785398 7773269 7761515 7750375 7739568 7728564 
1310.436 7716927 7704447 7691305 7677842 7664450 7651338 7638589 7626201 
1314.293 7614268 7603150 7593429 7585805 7580851 7578742 7579159 7581410 
1318.151 7584535 7587728 7590502 7592872 7595315 7598575 7603448 7610561 
1322.008 7620280 7632658 7647437 7664257 7682705 7702467 7723423 7745709 
1325.866 7769749 7796168 7825771 7859302 7897433 7940648 7989193 8043217 
1329.723 8102753 8167848 8238491 8314572 8395845 8481903 8572178 8666162 
1333.581 8763517 8864167 8968336 9076492 9189074 9306410 9428518 9555100 
1337.438 9685609 9819417 9955917 10094692 10235542 10378584 10524178 
1340.813 10672956 10825732 10983452 11146966 11316981 11493948 11677941 
1344.188 11868786 12066118 12269494 12478480 12692645 12911490 13134401 
1347.564 13360645 13589370 13819788 14051235 14283270 14515607 14747895 
1350.939 14979509 15209369 15435837 15656780 15869816 16072530 16262752 
1354.314 16438752 16599275 16743575 16871334 16982568 17077574 17156894 
1357.689 17221274 17271670 17309274 17335534 17352106 17360848 17363550 
1361.065 17361820 17356824 17349166 17338840 17325344 17307828 17285418 
1364.440 17257200 17222368 17180006 17128844 17067024 16992102 16901044 
1367.815 16790698 16658378 16502422 16322815 16121687 15903433 15674807 
1371.190 15444659 15223564 15023342 14856267 14734335 14668293 14666620 
1374.566 14734687 14873989 15081975 15352084 15674327 16036162 16423376 
1377.941 16821154 17214910 17591104 17937732 18244614 18503426 18707574 
1381.316 18852080 18933342 18949222 18899000 18783500 18605096 18367642 
1384.691 18076312 17737370 17357902 16945442 16507603 16051534 15583511 
1388.067 15108556 14630336 14151269 13672906 13196290 12722328 12252137 
1391.442 11786973 11328407 10878263 10438684 10012197 9601780 9210687 
1394.817 8842242 8499458 8184572 7898818 7642271 7414049 7212499 7035564 
1398.675 6881103 6747053 6631564 6532929 6449523 6379716 6321864 6274304 
1402.532 6235459 6203948 6178638 6158772 6143828 6133532 6127744 6126297 
1406.389 6129022 6135648 6145912 6159495 6176113 6195415 6217065 6240648 
1410.247 6265687 6291780 6318543 6345757 6373430 6401723 6430927 6461325 
1414.104 6493144 6526446 6561049 6596562 6632414 6667894 6702362 6735281 
1417.962 6766443 6796048 6824665 6853185 6882574 6913700 6947069 6982728 
1421.819 7020393 7059507 7099508 7140056 7181055 7222709 7265492 7309961 
1425.677 7356731 7406450 7459744 7517267 7579666 7647516 7721198 7800904 
1429.534 7886588 7978069 8075151 8177752 8286057 8400583 8522280 8652480 
1433.391 8793023 8946179 9114635 9301335 9509264 9741163 9999432 10285956 
1437.249 10602341 10949991 11330432 11745154 12195482 12682039 13204300 
1440.624 13760172 14345872 14956059 15584204 16223070 16864972 17502250 
1443.999 18127404 18733348 19313746 19863144 20377174 20852422 21286346 
1447.375 21677134 22023590 22325226 22582168 22795220 22965432 23093910 
1450.750 23181386 23228116 23233986 23198798 23122566 23005686 22848830 
1454.125 22652706 22417848 22144548 21833040 21483848 21097996 20677296 
1457.500 20224014 19740720 19230012 18694532 18137148 17561206 16970760 
1460.875 16370344 15764749 15158424 14555341 13958815 13371727 12796737 
1464.251 12236527 11693722 11170670 10669263 10190792 9736083 9305680 
1467.626 8900145 8520099 8166101 7838415 7536686 7259785 7005857 6772553 
1471.483 6557278 6357535 6171135 5996228 5831420 5675794 5528988 5391051 
1475.341 5262417 5143643 5035163 4936867 4848157 4767894 4694623 4626960 
1479.198 4563819 4504541 4448760 4396248 4346692 4299522 4254024 4209490 
1483.056 4165388 4121609 4078434 4036429 3996319 3958780 3924309 3893187 
1486.913 3865520 3841171 3819798 3800970 3784049 3768404 3753400 3738563 
1490.771 3723640 3708482 3693029 3677035 3660041 3641261 3619764 3594591 
1494.628 3565060 3530951 3492593 3450866 3407045 3362557 3318782 3276873 
1498.485 3237583 3201251 3167863 3136989 3107989 3080139 3052790 3025513 
1502.343 2998168 2970952 2944267 2918644 2894547 2872261 2851875 2833311 
1506.200 2816278 2800436 2785479 2771141 2757204 2743578 2730196 2717032 
1510.058 2704061 2691256 2678575 2665951 2653373 2640822 2628347 2616023 
1513.915 2603861 2591760 2579487 2566665 2552945 2538064 2522076 2505366 
1517.772 2488628 2472683 2458210 2445569 2434636 2424863 2415435 2405558 
1521.630 2394656 2382589 2369554 2356037 2342493 2329236 2316350 2303698 
1525.487 2291057 2278253 2265302 2252344 2239659 2227575 2216344 2206077 
1529.345 2196784 2188350 2180562 2173204 2165931 2158392 2150168 2140822 
1533.202 2130060 2117824 2104349 2090250 2076386 2063644 2052723 2043970 
1537.060 2037176 2031681 2026424 2020328 2012495 2002445 1990203 1976295 
1540.917 1961465 1946614 1932477 1919590 1908303 1898720 1890789 1884369 
1544.774 1879120 1874667 1870523 1866218 1861378 1855740 1849134 1841548 
1548.632 1832936 1823254 1812491 1800805 1788512 1776234 1764764 1754988 
1552.489 1747557 1742745 1740355 1739754 1740093 1740527 1740437 1739512 
1556.347 1737574 1734551 1730286 1724579 1717270 1708526 1698867 1689261 
1560.204 1680790 1674450 1670705 1669465 1670060 1671520 1672864 1673370 
1564.062 1672637 1670629 1667445 1663308 1658370 1652882 1647173 1641736 
1567.919 1637180 1633985 1632405 1632283 1633030 1633947 1634364 1634039 
1571.776 1633201 1632433 1632437 1633749 1636428 1640151 1644186 1647838 
1575.634 1650551 1652228 1653113 1653806 1654960 1657163 1660730 1665755 
1579.491 1671996 1679083 1686330 1693024 1698466 1702100 1703709 1703460 
1583.349 1701876 1699726 1697796 1696676 1696702 1697886 1700024 1702879 
1587.206 1706194 1709824 1713553 1717154 1720288 1722608 1723882 1724161 
1591.063 1723846 1723584 1724128 1726100 1729756 1735016 1741482 1748716 
1594.921 1756410 1764570 1773386 1783131 1793979 1805824 1818254 1830654 
1598.778 1842395 1853001 1862183 1869907 1876235 1881307 1885205 1888080 
1602.636 1890088 1891612 1893071 1894940 1897553 1900948 1904865 1908762 
1606.493 1912021 1914253 1915424 1915966 1916655 1918435 1922025 1927760 
1610.351 1935429 1944311 1953473 1961955 1969184 1975033 1979873 1984430 
1614.208 1989502 1995716 2003410 2012496 2022636 2033291 2043914 2054158 
1618.065 2063752 2072557 2080413 2087145 2092583 2096502 2098897 2099920 
1621.923 2099963 2099540 2099161 2099137 2099544 2100134 2100452 2099966 
1625.780 2098303 2095317 2091191 2086413 2081566 2077299 2073969 2071709 
1629.638 2070215 2069003 2067518 2065303 2062296 2058786 2055462 2053140 
1633.495 2052543 2054040 2057567 2062597 2068298 2073768 2078232 2081161 
1637.353 2082243 2081387 2078579 2073942 2067774 2060692 2053579 2047474 
1641.210 2043370 2041826 2042739 2045366 2048421 2050535 2050660 2048418 
1645.067 2044234 2039072 2034142 2030455 2028518 2028253 2029149 2030507 
1648.925 2031748 2032482 2032643 2032326 2031783 2031324 2031371 2032448 
1652.782 2035103 2039805 2046680 2055415 2065193 2074916 2083387 2089783 
1656.640 2093827 2095941 2097042 2098336 2100922 2105460 2112136 2120639 
1660.497 2130446 2140962 2151791 2162708 2173694 2184733 2195769 2206669 
1664.354 2217219 2227298 2236872 2246127 2255440 2265198 2275891 2287766 
1668.212 2300864 2314937 2329454 2343798 2357325 2369648 2380682 2390709 
1672.069 2400406 2410561 2421932 2435088 2450216 2467036 2484937 2503163 
1675.927 2520914 2537707 2553380 2568171 2582650 2597527 2613504 2631119 
1679.784 2650538 2671576 2693783 2716557 2739419 2762058 2784531 2807144 
1683.642 2830408 2854749 2880422 2907477 2935707 2964924 2995029 3026193 
1687.499 3058706 3092900 3128928 3166569 3205303 3244311 3282775 3320108 
1691.356 3356119 3391075 3425672 3460809 3497476 3536654 3579238 3626028 
1695.214 3677614 3734381 3796317 3863053 3933853 4007764 4083935 4161833 
1699.071 4241238 4322489 4406162 4493022 4583731 4678700 4778148 4882128 
1702.929 4990828 5104558 5223855 5349421 5481897 5621731 5768988 5923462 
1706.786 6084702 6252360 6426395 6607227 6795858 6993638 7202011 7422100 
1710.644 7654433 7898683 8153764 8418015 8689708 8967316 9249991 9537555 
1714.501 9830478 10129458 10435176 10747961 11067678 11393783 11725543 
1717.876 12062313 12403753 12749988 13101575 13459486 13824953 14199376 
1721.251 14584184 14980976 15391424 15817413 16261224 16725487 17213282 
1724.627 17727970 18273016 18851960 19468298 20125728 20828298 21580658 
1728.002 22388132 23256398 24191230 25198016 26281470 27445946 28696006 
1731.377 30037346 31477186 33024186 34687388 36474656 38390776 40436504 
1734.752 42608728 44902024 47310640 49830408 52458864 55193972 58031552 
1738.128 60962468 63970692 67033412 70122768 73208608 76261208 79252448 
1741.503 82155616 84944560 87592944 90074816 92366144 94446648 96300976 
1744.878 97918752 99293408 100421536 101302552 101939584 102340136 102516296 
1748.253 102483024 102255976 101848856 101272272 100534368 99642544 98605280 
1751.629 97433320 96138512 94732216 93223288 91617552 89918440 88129184 
1755.004 86254928 84304224 82288880 80222664 78119584 75992416 73852248 
1758.379 71708888 69571672 67449960 65353460 63291604 61272944 59304672 
1761.754 57392620 55541404 53754856 52036148 50387652 48810628 47304820 
1765.130 45868480 44498676 43192028 41945232 40755684 39621320 38540192 
1768.505 37510040 36527604 35588592 34687928 33820252 32980502 32164308 
1771.880 31368252 30589532 29825822 29074824 28334236 27601492 26874110 
1775.255 26149646 25425890 24700954 23973246 23241686 22505718 21765548 
1778.631 21022258 20277756 19534696 18796056 18064844 17343650 16634566 
1782.006 15939061 15258375 14593779 13946874 13319625 12714234 12132770 
1785.381 11576927 11047730 10545672 10070720 9622720 9201356 8806187 8436476 
1789.239 8091006 7768090 7465670 7181802 6914913 6664027 6428835 6209472 
1793.096 6006095 5818679 5646662 5488914 5343857 5209464 5083516 4963853 
1796.953 4848559 4736329 4626797 4520543 4419009 4323767 4236191 4156543 
1800.811 4084051 4016918 3953116 3891107 3830516 3771997 3717025 3666829 
1804.668 3621800 3581025 3542584 3504153 3464058 3421685 3377675 3333355 
1808.526 3290055 3248380 3208011 3167878 3126841 3084143 3039780 2994372 
1812.383 2948624 2902959 2857285 2811289 2765066 2719524 2676754 2639664 
1816.240 2611149 2593117 2585698 2587000 2593531 2601125 2606001 2605451 
1820.098 2598096 2583663 2562655 2535959 2504677 2470034 2433450 2396248 
1823.955 2359567 2324035 2289751 2256442 2224012 2192780 2163807 2138444 
1827.813 2117883 2102336 2090628 2080272 2068057 2051165 2028050 1999045 
1831.670 1966203 1932654 1901540 1875036 1853998 1837619 1824108 1811102 
1835.528 1796305 1777965 1755084 1727514 1695935 1661646 1626491 1592383 
1839.385 1561069 1533727 1510848 1492202 1477185 1465035 1455056 1446546 
1843.242 1438723 1430411 1420087 1406231 1387830 1364982 1339223 1313435 
1847.100 1291168 1275612 1268611 1269981 1277731 1288525 1298809 1305809 
1850.957 1308206 1306283 1301422 1295480 1289953 1285391 1281319 1276190 
1854.815 1267981 1254742 1235305 1209662 1179382 1147406 1117661 1094139 
1858.672 1080086 1077089 1084630 1100367 1120602 1141303 1159003 1171471 
1862.530 1177891 1178653 1174924 1168004 1159169 1149189 1138635 1127789 
1866.387 1116801 1105940 1095633 1086513 1079529 1075704 1075699 1079310 
1870.244 1085108 1090238 1091116 1084389 1068301 1043735 1014500 986481 
1874.102 965915 957371 961961 976873 996345 1013508 1022956 1022601 1014239 
1878.441 1002527 993136 990284 995260 1005877 1017543 1024917 1023822 
1882.299 1012472 991734 964386 934141 904347 877597 855475 839010 828864 
1886.638 825439 828555 837094 848571 859239 864632 860747 844952 816890 
1890.978 778911 735525 692613 656149 630925 619663 622407 636644 658023 
1895.318 681476 702242 717192 725236 727475 726632 725814 727776 733769 
1899.657 743393 754846 765549 773074 775782 773205 765951 755416 743159 
1903.997 730725 719108 708780 699523 690275 679228 664285 643216 614755 
1908.336 579298 539490 500088 467201 446667 442700 456329 485192 524024 
1912.676 566194 605321 636672 657842 668469 669481 662158 647576 626521 
1917.016 600048 569930 538567 508946 483523 463510 448449 436702 426154 
1921.355 415250 403695 392322 382231 373864 366256 357185 344287 326288 
1925.695 304095 280924 261134 248327 243553 244639 246981 245396 236789 
1930.034 221625 203976 189892 184571 190096 204231 221578 235739 242205 
1934.374 239964 231499 221045 212252 206298 201827 196241 188561 180911 
1938.714 179211 191259 223428 277494 348541 425747 495257 544002 563327 
1943.053 550726 509236 445409 366573 279276 189060 101330 22632 -39410 
1947.393 -77390 -86546 -67341 -26501 24610 73096 108938 128460 135517 139436 
1952.215 150738 176225 215245 259301 294312 305563 283440 226625 143408 
1956.554 48963 -38863 -105613 -143722 -154633 -147512 -135506 -131649 
1960.412 -144015 -174529 -218796 -268609 -315075 -351319 -373920 -383242 
1964.269 -382378 -375686 -368057 -363206 -364158 -372467 -388397 -411548 
1968.126 -440853 -474528 -511443 -550441 -590238 -629329 -665298 -694474 
1971.984 -712587 -714615 -696624 -655368 -589042 -496484 -377147 -232080 
1975.841 -64772 116293 296121 455165 572505 633475 635459 590353 521541 
1980.181 456491 418049 417056 449564 498546 539164 547534 507999 417718 
1984.521 286483 132492 -23751 -164986 -280157 -365054 -419942 -447358 
1988.378 -450173 -430758 -391536 -335178 -264214 -181014 -86094 20638 138442 
1992.718 263445 386380 493265 568245 598968 581149 521396 434970 341091 
1997.057 255650 185385 126400 66631 -8000 -105825 -226007 -357726 -484642 
2001.397 -591138 -667941 -714740 -738399 -748981 -755342 -761653 -767755 
2005.254 -771311 -770232 -764613 -755094 -741265 -719325 -683269 -628194 
2009.112 -554929 -472706 -398620 -352544 -349775 -395338 -481183 -589062 
2012.969 -696543 -785512 -847807 -886564 -912803 -939595 -975917 -1022913 
2016.826 -1073701 -1117510 -1144011 -1147340 -1127463 -1090448 -1045530 
2020.202 -1003141 -972365 -958576 -963369 -982297 -1007008 -1027020 -1033447 
2024.059 -1023008 -1001264 -981606 -981740 -1016452 -1091011 -1196348 
2027.434 -1310320 -1404019 -1450919 -1436060 -1361176 -1242940 -1105976 
2030.810 -974735 -864892 -780410 -715413 -659856 -605254 -549467 -496111 
2034.667 -453034 -427364 -423015 -439556 -472654 -516963 -566354 -616098 
2038.524 -662377 -702154 -733876 -757246 -773337 -784077 -789947 -789087 
2042.382 -776489 -744931 -688380 -604860 -499349 -383179 -270930 -174885 
2046.239 -100804 -45314 2360 54570 119093 193427 264392 312233 318142 271789 
2051.061 175378 42989 -102685 -236572 -336270 -387169 -385322 -337287 
2054.918 -258088 -166220 -78809 -7528 43530 76704 98861 117763 139493 166043 
2059.740 195446 222770 242756 252126 250610 241522 230101 221212 217919 
2064.080 220075 225105 229067 228469 221351 208088 190751 172565 156880 
2068.419 147045 145740 154881 175302 205933 243997 284994 323851 356456 
2072.759 380964 398107 410360 420252 428472 432938 429487 414189 385881 
2077.099 348069 308674 278104 265411 275179 305456 348852 395404 435946 
2081.438 465108 481975 488496 487263 478854 461684 432857 391129 338818 
2085.778 282644 231933 195091 176024 171934 173679 169094 147222 102732 
2090.117 37583 -39494 -116181 -180453 -223741 -242526 -237602 -212132 
2093.975 -169624 -112695 -43197 36726 123593 211920 294866 365723 419285 
2098.314 453150 467050 462837 442947 409890 366283 315314 261389 210319 
2102.654 168551 142024 134259 145308 171151 204625 236840 259606 267161 
2106.994 257820 234103 201945 169232 143842 131717 135808 155406 186888 
2111.333 224538 262248 294663 317971 330087 330612 320058 299772 271559 
2115.673 237909 201529 165035 130351 97709 65498 30524 -10685 -60296 -117515 
2120.495 -178090 -235176 -281385 -311688 -325733 -328414 -329050 -338477 
2124.352 -365640 -414901 -484936 -569637 -660594 -750190 -833697 -910062 
2128.209 -980879 -1048823 -1115235 -1179658 -1239735 -1292665 -1336465 
2131.585 -1371247 -1399115 -1423384 -1447072 -1471892 -1497678 -1522584 
2134.960 -1544211 -1560597 -1570650 -1574143 -1572041 -1565927 -1558069 
2138.335 -1551725 -1550694 -1558732 -1577926 -1607879 -1644805 -1682896 
2141.710 -1715813 -1739789 -1756010 -1770821 -1794136 -1835999 -1902044 
2145.086 -1991993 -2098086 -2209466 -2315458 -2410516 -2495373 -2576619 
2148.461 -2661638 -2754761 -2852959 -2946316 -3021449 -3066713 -3079140 
2151.836 -3067184 -3050942 -3058171 -3117548 -3251110 -3469040 -3766048 
2155.211 -4120798 -4500073 -4861054 -5157647 -5345189 -5389028 -5271927 
2158.587 -5002957 -4618475 -4175533 -3735789 -3348814 -3038890 -2805256 
2161.962 -2627390 -2475708 -2322096 -2148211 -1949041 -1734003 -1522037 
2165.337 -1336405 -1198024 -1119951 -1104436 -1142138 -1214350 -1297947 
2168.712 -1369788 -1413078 -1421514 -1400382 -1365108 -1336962 -1335592 
2172.088 -1373501 -1450987 -1556748 -1670583 -1770427 -1839338 -1870894 
2175.463 -1870679 -1854723 -1842229 -1850184 -1886991 -1950601 -2030022 
2178.838 -2107711 -2164857 -2185374 -2158691 -2082035 -1960229 -1805919 
2182.213 -1636258 -1470268 -1324835 -1211185 -1132849 -1085597 -1059894 
2185.589 -1043814 -1026155 -999452 -960156 -908989 -848763 -783624 -718203 
2189.446 -657448 -606512 -570965 -555114 -561459 -588225 -629869 -677313 
2193.303 -720600 -751217 -764466 -759902 -741155 -713652 -682546 -651105 
2197.161 -620638 -590625 -559879 -527227 -492099 -453831 -411524 -363995 
2201.018 -310009 -248833 -181103 -108805 -34962 36991 103913 163112 212138 
2205.358 248806 270728 275985 263427 234111 190579 137383 79733 22942 -28607 
2210.180 -70880 -100679 -114891 -111146 -89250 -51829 -5638 39509 73053 
2214.519 86610 77154 48355 9199 -28782 -55117 -64057 -54957 -31496 1007 
2219.341 38258 77911 119077 161016 200970 234804 257782 268051 268013 265315 
2224.163 270317 292567 336269 398526 469314 535214 584156 609620 612040 
2228.502 598606 579023 562177 553173 552877 559048 568568 579149 589945 
2232.842 600493 609893 615864 615445 606354 589063 567483 548566 539809 
2237.182 547036 571455 609449 653215 693419 721806 733724 728856 711015 
2241.521 686693 663324 647699 644456 655206 678402 708850 738803 759233 
2245.861 762058 742264 699586 639108 570460 505418 455047 427094 424431 
2250.200 444749 482014 528435 576842 621959 661743 696719 729532 763221 
2254.540 800190 840805 883203 923435 956656 978511 986615 981347 965687 
2258.880 944173 921348 900233 881721 864836 848341 832053 818148 810930 
2263.219 815715 836597 874438 925866 983695 1038995 1083418 1111875 1123613 
2267.559 1121892 1112843 1102772 1096857 1097569 1104867 1116879 1131454 
2271.416 1146821 1162936 1180950 1203053 1231058 1265552 1304846 1345111 
2275.274 1380868 1406610 1418544 1416128 1402683 1384458 1368763 1361612 
2279.131 1365682 1379565 1398489 1416765 1430068 1437395 1441350 1447049 
2282.989 1459483 1481514 1512226 1547426 1581115 1607880 1624670 1631550 
2286.846 1631278 1627808 1624792 1624479 1627620 1633776 1642118 1651914 
2290.703 1662426 1672641 1680753 1684506 1681438 1670016 1650293 1624446 
2294.561 1596177 1569774 1548711 1534706 1527340 1524655 1523893 1522728 
2298.418 1519846 1515247 1509563 1503822 1498667 1494176 1489992 1485668 
2302.276 1480908 1475883 1471081 1467284 1465197 1465364 1467941 1472683 
2306.133 1478930 1485778 1492381 1498102 1502847 1507152 1512033 1518657 
2309.990 1527747 1539391 1552674 1566252 1578678 1589009 1597266 1604297 
2313.848 1611384 1619661 1629679 1641331 1654012 1667120 1680478 1694428 
2317.705 1709596 1726812 1746891 1770938 1800627 1838415 1887058 1948485 
2321.563 2022066 2102903 2181415 2244303 2277401 2269195 2213986 2113993 
2325.420 1978846 1823734 1666149 1522080 1403072 1314374 1254792 1218342 
2329.278 1196671 1181947 1168561 1154126 1138897 1124680 1113514 1106813 
2333.135 1104948 1107286 1112660 1119654 1126918 1133356 1138145 1140823 
2336.992 1141348 1140064 1137612 1134768 1132212 1130431 1129606 1129815 
2340.850 1131091 1133348 1136453 1139912 1142855 1144150 1142579 1137513 
2344.707 1129011 1118253 1106995 1097251 1090475 1087083 1086300 1086507 
2348.565 1085873 1082918 1076949 1068169 1057221 1045012 1032303 1019637 
2352.422 1007700 997302 989617 985780 986541 991628 999561 1007845 1013578 
2356.762 1014361 1008953 997808 982714 966332 951065 938445 928686 920676 
2361.101 912584 902287 888190 869558 846674 820786 793979 768810 747803 
2365.441 733234 726365 727555 735751 749000 764714 780437 794254 805206 
2369.781 813244 818872 822799 825540 827348 828300 828508 828391 828647 
2374.120 830076 833338 838616 845500 853156 860387 866224 869808 870787 
2378.460 869175 865369 860139 854509 849768 847220 847813 851931 858901 
2382.799 867258 875062 880369 882013 879928 875292 869857 865505 863519 
2387.139 864140 866739 870154 873179 875239 876334 877141 878716 882145 
2391.479 888372 897976 911254 927931 947058 967077 985746 1000692 1009877 
2395.818 1012373 1008672 1000520 990457 980896 973402 968118 964109 959961 
2400.158 954593 947946 940879 934958 931652 931639 934870 940490 947823 
2404.497 956632 967383 980931 997825 1017652 1038932 1059297 1076548 1089308 
2408.837 1097704 1103216 1107899 1113318 1119749 1125949 1129380 1127360 
2412.694 1117833 1100272 1075652 1046085 1014292 982779 953702 928837 909630 
2417.034 897574 894037 899896 915222 938885 968622 1001220 1033234 1061511 
2421.374 1083872 1099177 1107336 1109057 1105448 1097577 1086230 1072015 
2425.231 1055248 1036423 1016401 996562 978837 965320 957686 956503 960852 
2429.571 968264 975331 978662 975962 967000 953491 938612 925932 917975 
2433.910 915480 917281 920945 923928 924575 922852 920217 919014 921445 
2438.250 928798 941087 957126 975057 992859 1008900 1022222 1032536 1040257 
2442.589 1046380 1052325 1059630 1069516 1082408 1097394 1112282 1124000 
2446.447 1129530 1127081 1116732 1100914 1083575 1069118 1061033 1060725 
2450.304 1067437 1078629 1091042 1102041 1110139 1115276 1118354 1120299 
2454.162 1121505 1121487 1119233 1113656 1104361 1091939 1078008 1064674 
2458.019 1054108 1047808 1046236 1048828 1054145 1060230 1065074 1067078 
2461.876 1065359 1060080 1052170 1043253 1035239 1029481 1026624 1026223 
2465.734 1026992 1027375 1026000 1022321 1016834 1010618 1005094 1001054 
2469.591 998748 997505 996444 994945 993320 992712 994915 1001469 1012956 
2473.931 1028577 1046120 1062330 1074316 1079870 1078555 1071405 1060547 
2477.788 1048367 1036790 1026867 1018758 1012039 1006289 1001441 997959 
2481.646 996477 997476 1000882 1006109 1011985 1017499 1022009 1025790 
2485.503 1029830 1035444 1043871 1055622 1070533 1087508 1105018 1121412 
2489.361 1135139 1144821 1149212 1147366 1138637 1123149 1102167 1078154 
2493.218 1054612 1035228 1023082 1019608 1024178 1034460 1047101 1058855 
2497.075 1067681 1072876 1075148 1075866 1076157 1076791 1077693 1078847 
2500.933 1080293 1082854 1087600 1095565 1107135 1121627 1137476 1152646 
2504.790 1165525 1175264 1181986 1186351 1189275 1191150 1192236 1192683 
2508.648 1193131 1194806 1199214 1207542 1219558 1233246 1245072 1250892 
2512.505 1247604 1234420 1213384 1189010 1166576 1150850 1144139 1146338 
2516.363 1155051 1167088 1179696 1191315 1201589 1210848 1219013 1225359 
2520.220 1228329 1226351 1218587 1205802 1190039 1174434 1162103 1155126 
2524.077 1154222 1158712 1167042 1177582 1188991 1200541 1211935 1222954 
2527.935 1233343 1242507 1249778 1254382 1255672 1253139 1246253 1234862 
2531.792 1219006 1199245 1177011 1154238 1133252 1116239 1104364 1097608 
2535.650 1094669 1093477 1091911 1088578 1083249 1076814 1071023 1067574 
2539.507 1067674 1071565 1078449 1087215 1096248 1104554 1111673 1117620 
2543.365 1122982 1128508 1134717 1142037 1150425 1159558 1168866 1177590 
2547.222 1184927 1190194 1193022 1193350 1191621 1188704 1185649 1183883 
2551.079 1184568 1188637 1196435 1207877 1222224 1238452 1255279 1271421 
2554.937 1285850 1297768 1306538 1311970 1313992 1312791 1308862 1303088 
2558.794 1296600 1290591 1286106 1283663 1283106 1283657 1284208 1283805 
2562.652 1282088 1279435 1276935 1275894 1277166 1280819 1286073 1291432 
2566.509 1295502 1297467 1297547 1296990 1297518 1300620 1306902 1315900 
2570.366 1326126 1335581 1342634 1346560 1347649 1347177 1346756 1347665 
2574.224 1350498 1354792 1359537 1363445 1365679 1366349 1366614 1368477 
2578.081 1374198 1385388 1402371 1423864 1446927 1467743 1482548 1488735 
2581.939 1485711 1474900 1459421 1443080 1429207 1419839 1415325 1414670 
2585.796 1416331 1419033 1422405 1427054 1434128 1444671 1458850 1475756 
2589.654 1493619 1510213 1523665 1532869 1537637 1538593 1536554 1532250 
2593.511 1525968 1517592 1506932 1494029 1479512 1464651 1451285 1441497 
2597.368 1437258 1439914 1449939 1466754 1488613 1512867 1536515 1556578 
2601.226 1570830 1578176 1578940 1574659 1567666 1560487 1555309 1553331 
2605.083 1554765 1558868 1564217 1569252 1572555 1573319 1571481 1567732 
2608.941 1563324 1559817 1558659 1560832 1566646 1575761 1587283 1600119 
2612.798 1613296 1626152 1638295 1649521 1659494 1667722 1673632 1676764 
2616.656 1677117 1675455 1673115 1671856 1673027 1677262 1683975 1691624 
2620.513 1697998 1701069 1699478 1693177 1683233 1671733 1661042 1653409 
2624.370 1650431 1652781 1660304 1671944 1686203 1701211 1715308 1727166 
2628.228 1736182 1742505 1746840 1750284 1753906 1758369 1763800 1769843 
2632.085 1775898 1781344 1785879 1789405 1791967 1793634 1794281 1793696 
2635.943 1791585 1787884 1782886 1777187 1771431 1766313 1762099 1758949 
2639.800 1756828 1755754 1756013 1758048 1762306 1768887 1777345 1786706 
2643.657 1795618 1802699 1806954 1808049 1806241 1802313 1797315 1792147 
2647.515 1787510 1783844 1781273 1779654 1778551 1777475 1775649 1772529 
2651.372 1767829 1761790 1755132 1748937 1744203 1741538 1740775 1741073 
2655.230 1741175 1739794 1736152 1730141 1722171 1712813 1702497 1691104 
2659.087 1678100 1662768 1644688 1624102 1601955 1579644 1558644 1539919 
2662.945 1523757 1509727 1496847 1484117 1470721 1456391 1441218 1425621 
2666.802 1410065 1395096 1381205 1368993 1359015 1351842 1347836 1346969 
2670.659 1348761 1352264 1356395 1360187 1362977 1364638 1365449 1365947 
2674.517 1366722 1368116 1370130 1372449 1374473 1375465 1374663 1371526 
2678.374 1365838 1357813 1348097 1337795 1328173 1320390 1315263 1313154 
2682.232 1313777 1316485 1320399 1324692 1328735 1332185 1334909 1336876 
2686.089 1338097 1338617 1338506 1337926 1337031 1335929 1334627 1332947 
2689.947 1330599 1327303 1322978 1317876 1312511 1307514 1303400 1300312 
2693.804 1297991 1295940 1293644 1290914 1288075 1285848 1285121 1286570 
2697.661 1290316 1295770 1301815 1307058 1310330 1310872 1308762 1304697 
2701.519 1299799 1295306 1292260 1291304 1292585 1295678 1299786 1303915 
2705.376 1306957 1308123 1306870 1303203 1297531 1290505 1282888 1275495 
2709.234 1268899 1263453 1259321 1256522 1254857 1253964 1253351 1252366 
2713.091 1250572 1247750 1244273 1240904 1238806 1238990 1241911 1247243 
2716.948 1253705 1259597 1263379 1264077 1261952 1258296 1255022 1254042 
2720.806 1256514 1262442 1270696 1279509 1286977 1291701 1293207 1291730 
2724.663 1288180 1283561 1278695 1274201 1270317 1267227 1265158 1264450 
2728.521 1265441 1268379 1273274 1279862 1287678 1296065 1304382 1312052 
2732.378 1318582 1323429 1326218 1326653 1324496 1319809 1312940 1304411 
2736.236 1295053 1285767 1277413 1270826 1266594 1265193 1266636 1270694 
2740.093 1276653 1283458 1289927 1294937 1297773 1298222 1296769 1294397 
2743.950 1292308 1291524 1292587 1295417 1299213 1302946 1305521 1306247 
2747.808 1304957 1302103 1298510 1295027 1292270 1290314 1288707 1286601 
2751.665 1283168 1277854 1270768 1262620 1254792 1248751 1245899 1247058 
2755.523 1252286 1260846 1271469 1282539 1292589 1300473 1305625 1308025 
2759.380 1308152 1306790 1304790 1302863 1301500 1300849 1300669 1300591 
2763.238 1300105 1298823 1296680 1293841 1290806 1288151 1286440 1285997 
2767.095 1286814 1288540 1290628 1292438 1293386 1293083 1291499 1288820 
2770.952 1285611 1282670 1280851 1280990 1283711 1289088 1296707 1305611 
2774.810 1314537 1322063 1327202 1329469 1329105 1326870 1323834 1321077 
2778.667 1319333 1318966 1319940 1321994 1324775 1328051 1331543 1334942 
2782.525 1337858 1339824 1340289 1338964 1335941 1331628 1326988 1322991 
2786.382 1320719 1320770 1323351 1328277 1334989 1342834 1351308 1360020 
2790.240 1368791 1377490 1385960 1394067 1401411 1407672 1412484 1415602 
2794.097 1417045 1417102 1416410 1415680 1415755 1417284 1420603 1425603 
2797.954 1431786 1438328 1444366 1449167 1452298 1453713 1453691 1452701 
2801.812 1451307 1449941 1448987 1448729 1449326 1450958 1453709 1457692 
2805.669 1462910 1469363 1476957 1485570 1494988 1504870 1514748 1523951 
2809.527 1531866 1537937 1542048 1544633 1546520 1548908 1552987 1559501 
2813.384 1568587 1579660 1591700 1603444 1613954 1622625 1629352 1634407 
2817.241 1638111 1640766 1642533 1643694 1644562 1645753 1647994 1651998 
2821.099 1658268 1666777 1677062 1688412 1700024 1711413 1722436 1733389 
2824.956 1744621 1756380 1768571 1780892 1792770 1803751 1813643 1822588 
2828.814 1831079 1839812 1849567 1860935 1874517 1890619 1909311 1930204 
2832.671 1952624 1975514 1997423 2017376 2034571 2049165 2062124 2074896 
2836.529 2089070 2105813 2125538 2147808 2171688 2196125 2220404 2244504 
2840.386 2268817 2294074 2320687 2348667 2377489 2406432 2434921 2462964 
2844.243 2491244 2521051 2553809 2590756 2632580 2679194 2729938 2783548 
2848.101 2838444 2892677 2943772 2989091 3025568 3050316 3061173 3056935 
2851.958 3037987 3005913 2963392 2913562 2859275 2802992 2746387 2690687 
2855.816 2636928 2586081 2539210 2497199 2460684 2429738 2403841 2382150 
2859.673 2363604 2347459 2333184 2320731 2310246 2301989 2296039 2292388 
2863.531 2290966 2291855 2295121 2301125 2310246 2322794 2338842 2358236 
2867.388 2380719 2405877 2433345 2462767 2493864 2526405 2560247 2595517 
2871.245 2632557 2672021 2714846 2761866 2813532 2869689 2929214 2990357 
2875.103 3051072 3109375 3163931 3214148 3260195 3302563 3341687 3377554 
2878.960 3409641 3436969 3458476 3473517 3481998 3484505 3482094 3475902 
2882.818 3466948 3455753 3442709 3427883 3411493 3394079 3376346 3359396 
2886.675 3344142 3331301 3321149 3313391 3307439 3302439 3297632 3292423 
2890.532 3286719 3280779 3275229 3270995 3268934 3269754 3273822 3281119 
2894.390 3291125 3303026 3315887 3328891 3341506 3353634 3365659 3378319 
2898.247 3392562 3409329 3429280 3452738 3479515 3508975 3540102 3571711 
2902.105 3602637 3631916 3658983 3683619 3706087 3726891 3746673 3766069 
2905.962 3785701 3806117 3827724 3851089 3876800 3905646 3938454 3975976 
2909.820 4018945 4067698 4122304 4182573 4248028 4318021 4391980 4469277 
2913.677 4549386 4631665 4715418 4799773 4883499 4965336 5043904 5117796 
2917.534 5185811 5246872 5300188 5345178 5381339 5408464 5426544 5436096 
2921.392 5438004 5433769 5425125 5414024 5402224 5390844 5380492 5371128 
2925.249 5362409 5354062 5346166 5339402 5334992 5334455 5339006 5349366 
2929.107 5365238 5385572 5408680 5432976 5457495 5482412 5509148 5540250 
2932.964 5578781 5627624 5688993 5763726 5851515 5951100 6060810 6179267 
2936.822 6305682 6440019 6582513 6733502 6892517 7058161 7228027 7398958 
2940.679 7567586 7730752 7885729 8030364 8162857 8281403 8384076 8468945 
2944.536 8534111 8578166 8600330 8600684 8579886 8539125 8479853 8403694 
2948.394 8312481 8208514 8094501 7973429 7848392 7721952 7595816 7470647 
2952.251 7346254 7221975 7097135 6971831 6846868 6723763 6604458 6490696 
2956.109 6383812 6284516 6192810 6108315 6030338 5957971 5890169 5825878 
2959.966 5764020 5703588 5644037 5585212 5527357 5471148 5417129 5365683 
2963.823 5316759 5270068 5225190 5181961 5140583 5101638 5065964 5034173 
2967.681 5006429 4982288 4960681 4940346 4920070 4899127 4877422 4855541 
2971.538 4834598 4815981 4801123 4791208 4787097 4789050 4797047 4810459 
2975.396 4828532 4850338 4875248 4903048 4933989 4968802 5008444 5053971 
2979.253 5106161 5165456 5231860 5305293 5385454 5472323 5566055 5667111 
2983.111 5776191 5894139 6021592 6159165 6307070 6465024 6632392 6807963 
2986.968 6990362 7177887 7368947 7561952 7755418 7947661 8136854 8320674 
2990.825 8496316 8660816 8811080 8944659 9059741 9155625 9232461 9291185 
2994.683 9333152 9359850 9372631 9372541 9360210 9336035 9299941 9251665 
2998.540 9190802 9117065 9030501 8931723 8821918 8702755 8576101 8443527 
3002.398 8305979 8163745 8016303 7863103 7703670 7538255 7367994 7194873 
3006.255 7021276 6849590 6681705 6518718 6360899 6207860 6058776 5912968 
3010.113 5769913 5629492 5492038 5358107 5228291 5103108 4982684 4866955 
3013.970 4755393 4647182 4541509 4437510 4334523 4232244 4130726 4030471 
3017.827 3932497 3837985 3748348 3664825 3588361 3519215 3456938 3400228 
3021.685 3347141 3295464 3243042 3188346 3130701 3070418 3008758 2947559 
3025.542 2888778 2834030 2784460 2740239 2700892 2665445 2632514 2600820 
3029.400 2569297 2537291 2504587 2471512 2438639 2406799 2376683 2348745 
3033.257 2323053 2299077 2275834 2252209 2227099 2199918 2170772 2140651 
3037.115 2111172 2084328 2061949 2045036 2033551 2026234 2020848 2014755 
3040.972 2005500 1991567 1972924 1950821 1927631 1906237 1889270 1878315 
3044.829 1873793 1874642 1878879 1883968 1887420 1887442 1883029 1874046 
3048.687 1861086 1845174 1827485 1809199 1791402 1775015 1760961 1749948 
3052.544 1742539 1739083 1739429 1743098 1749146 1756417 1763721 1770217 
3056.402 1775268 1778679 1780510 1780862 1779798 1777172 1772778 1766482 
3060.259 1758459 1749170 1739498 1730348 1722397 1715977 1710912 1706626 
3064.116 1702422 1697918 1693166 1688690 1685427 1684179 1685545 1689608 
3067.974 1695844 1703370 1711290 1718718 1725006 1729801 1732731 1733622 
3071.831 1732214 1728155 1721279 1711461 1698930 1684105 1667750 1650835 
3075.689 1634691 1620669 1610089 1603975 1602813 1606418 1613835 1623762 
3079.546 1634737 1645582 1655553 1664545 1672590 1679800 1685958 1690524 
3083.404 1692754 1692150 1688823 1683602 1677809 1673030 1670361 1670115 
3087.261 1671743 1673931 1675166 1674060 1669916 1662590 1652640 1640800 
3091.118 1627942 1614915 1602404 1591093 1581448 1573782 1568043 1563848 
3094.976 1560668 1557850 1555042 1552181 1549527 1547236 1545203 1542931 
3098.833 1539577 1534499 1527425 1518956 1510424 1503344 1498901 1497347 
3102.691 1497870 1498893 1499033 1497529 1494901 1492699 1492817 1496565 
3106.548 1503833 1513061 1521532 1526423 1525972 1519990 1509890 1498184 
3110.406 1487424 1479151 1473752 1470406 1467840 1465012 1461851 1459063 
3114.263 1457996 1459651 1464311 1471143 1478322 1483708 1485431 1482465 
3118.120 1474934 1464080 1451813 1440358 1431857 1427815 1429112 1435792 
3121.978 1447064 1461404 1476598 1490290 1500179 1504483 1502380 1494184 
3125.835 1481316 1466120 1451278 1439469 1432727 1432036 1437212 1447095 
3129.693 1459706 1472815 1484639 1493751 1499877 1503266 1504820 1505492 
3133.550 1505944 1506564 1507017 1506912 1505674 1503132 1499391 1494925 
3137.407 1490288 1486051 1482369 1479117 1475874 1472241 1468019 1463290 
3141.265 1458823 1455417 1454051 1455285 1459108 1464796 1471128 1476682 
3145.122 1480280 1481349 1480143 1477620 1475000 1473424 1473301 1474275 
3148.980 1475208 1474685 1471493 1464997 1455577 1444340 1433027 1423452 
3152.837 1417221 1415516 1418953 1427639 1441155 1458501 1478074 1497720 
3156.695 1515142 1528076 1535028 1535675 1530893 1522628 1513408 1505435 
3160.552 1500234 1498335 1499347 1502371 1506467 1510977 1515680 1520458 
3164.409 1525078 1529043 1531450 1531195 1527546 1520320 1510101 1498287 
3168.267 1486673 1477221 1471322 1469763 1472449 1478513 1486501 1494779 
3172.124 1501870 1506795 1509277 1509730 1509056 1508317 1508217 1508946 
3175.982 1509973 1510298 1508803 1504796 1498201 1489859 1480983 1473105 
3179.839 1467387 1464383 1463944 1465349 1467659 1469949 1471663 1472569 
3183.697 1472877 1473132 1474038 1476383 1480821 1487660 1496722 1507164 
3187.554 1517727 1526917 1533418 1536620 1536713 1534733 1532304 1530996 
3191.411 1531933 1535458 1541240 1548276 1555283 1561189 1565150 1566692 
3195.269 1565751 1562689 1558191 1553371 1549513 1548022 1549820 1555251 
3199.126 1563750 1573924 1583995 1592203 1597324 1598895 1597075 1592572 
3202.984 1586178 1578623 1570583 1563024 1557053 1554066 1555438 1561741 
3206.841 1572474 1585715 1598467 1607449 1609970 1604899 1592985 1576646 
3210.698 1559315 1544380 1534327 1530296 1531990 1538344 1547693 1558726 
3214.556 1570462 1582257 1593625 1604125 1613184 1620272 1625023 1627510 
3218.413 1628261 1628181 1628155 1628874 1630381 1632126 1633018 1631848 
3222.271 1627879 1620994 1612053 1602560 1594102 1587997 1584452 1582668 
3226.128 1580926 1577432 1570910 1561250 1549717 1538442 1529878 1525823 
3229.986 1526970 1532630 1541192 1550764 1559570 1566550 1571160 1573268 
3233.843 1573015 1570465 1565919 1559942 1553486 1547798 1543952 1542295 
3237.700 1542373 1542939 1542561 1540458 1536857 1533211 1531594 1533863 
3241.558 1540530 1550533 1561333 1569811 1573587 1571756 1565283 1556482 
3245.415 1548222 1542581 1540483 1541451 1544095 1546838 1548482 1548440 
3249.273 1546699 1543456 1539167 1534300 1529682 1526511 1526160 1529796 
3253.130 1537704 1548918 1561225 1571869 1578350 1579424 1575480 1568447 
3256.988 1560867 1555042 1552260 1552599 1555351 1559773 1565541 1572970 
3260.845 1582631 1594623 1607952 1620664 1630099 1634092 1631675 1623766 
3264.702 1612868 1602340 1595081 1592898 1595771 1602214 1609731 1615707 
3268.560 1618126 1615834 1608732 1597749 1584517 1571393 1560851 1555119 
3272.417 1555590 1562155 1573274 1585999 1597115 1604066 1605794 1603232 
3276.275 1598813 1595480 1595441 1599343 1605917 1612624 1616641 1616054 
3280.132 1610620 1601679 1591591 1582733 1576621 1573554 1572729 1572795 
3283.990 1572487 1571112 1568690 1565751 1562899 1560717 1559449 1559171 
3287.847 1559851 1561380 1563592 1566025 1568083 1569062 1568444 1566259 
3291.704 1563181 1560410 1559282 1560669 1564571 1569909 1574763 1577256 
3295.562 1576074 1571093 1563561 1555573 1549306 1546230 1546456 1548859 
3299.419 1551373 1551887 1549008 1542678 1534048 1525183 1518152 1514558 
3303.277 1514879 1518673 1524858 1532252 1540102 1548054 1556241 1564808 
3307.134 1573587 1582005 1589029 1593727 1595489 1594435 1591208 1586782 
3310.991 1582100 1577605 1573119 1568256 1562514 1556027 1549528 1544370 
3314.849 1542053 1543798 1549953 1560196 1573265 1587806 1602419 1616159 
3318.706 1628315 1638306 1645341 1648662 1647399 1641194 1630580 1617237 
3322.564 1603546 1592268 1585529 1584145 1587337 1592847 1597667 1599013 
3326.421 1595244 1586404 1574073 1560903 1549727 1542516 1540041 1541602 
3330.279 1545517 1549812 1552925 1554344 1554602 1554928 1556704 1560670 
3334.136 1566534 1573015 1578180 1580162 1577888 1571456 1562194 1552215 
3337.993 1543709 1538287 1536664 1538597 1543293 1549869 1557790 1566978 
3341.851 1577580 1589563 1602322 1614672 1624864 1631059 1632135 1627685 
3345.708 1618560 1606384 1593241 1581093 1571375 1564975 1562138 1562554 
3349.566 1565763 1571060 1577705 1584733 1591158 1596069 1598645 1598448 
3353.423 1595320 1589573 1581678 1572388 1562478 1552769 1544113 1537299 
3357.281 1533147 1532209 1534802 1540746 1549313 1559234 1568966 1576833 
3361.138 1581427 1581868 1578030 1570689 1561329 1551855 1544283 1540043 
3364.995 1539802 1543279 1549237 1556098 1562308 1566840 1569444 1570503 
3368.853 1570728 1570569 1570038 1568536 1565272 1559592 1551539 1542073 
3372.710 1532774 1525426 1521364 1520825 1522940 1525960 1527726 1526656 
3376.568 1521945 1514147 1504730 1495708 1489023 1486159 1487695 1493530 
3380.425 1502636 1513681 1524979 1534910 1542150 1545972 1546317 1544011 
3384.282 1540458 1537391 1536272 1538101 1542741 1549345 1556348 1562105 
3388.140 1565334 1565579 1562965 1558329 1552637 1546648 1540885 1535540 
3391.997 1530694 1526675 1523984 1523360 1525508 1530634 1538443 1548041 
3395.855 1557879 1566448 1572608 1575698 1576001 1574222 1571407 1568636 
3399.712 1566570 1565529 1565420 1565927 1566582 1566827 1566149 1564023 
3403.570 1560096 1554266 1546939 1539042 1532055 1527608 1527277 1531987 
3407.427 1541695 1555399 1571243 1587036 1600619 1610393 1615361 1615132 
3411.284 1609842 1599991 1586378 1570181 1553077 1537079 1524336 1516699 
3415.142 1515198 1519825 1529394 1541962 1555370 1567650 1577451 1583992 
3418.999 1586815 1585538 1579715 1568863 1552945 1532696 1509855 1486989 
3422.857 1466914 1452069 1443637 1441389 1444044 1449667 1456542 1463843 
3426.714 1471605 1480654 1491920 1505851 1522198 1539814 1557092 1572401 
3430.572 1584362 1592041 1595023 1593155 1586621 1576026 1562338 1547198 
3434.429 1532630 1520669 1513064 1510689 1513397 1520074 1529146 1539062 
3438.286 1548704 1557763 1566283 1574518 1582272 1588946 1593306 1594094 
3442.144 1590398 1582102 1570034 1556039 1542283 1530911 1523445 1520533 
3446.001 1521761 1526034 1531705 1537193 1541332 1543753 1544904 1545986 
3449.859 1548569 1554122 1563547 1576799 1592692 1609204 1623836 1634496 
3453.716 1639721 1639395 1634544 1627180 1619572 1613849 1611319 1612412 
3457.573 1616597 1622717 1629430 1635357 1639560 1641527 1641223 1639121 
3461.431 1636045 1633108 1631456 1632252 1636296 1643821 1654424 1666992 
3465.288 1680181 1692468 1702959 1711386 1718502 1725539 1733997 1744876 
3469.146 1758491 1774030 1789959 1804485 1815980 1823694 1827592 1828498 
3473.003 1827436 1825301 1822642 1819493 1815772 1811735 1808035 1805932 
3476.861 1806952 1812379 1822870 1838089 1856906 1877634 1898534 1918228 
3480.718 1935815 1950780 1962935 1972253 1978956 1983662 1987655 1992866 
3484.575 2001494 2015402 2035344 2060292 2087593 2113454 2134006 2146726 
3488.433 2151242 2149511 2145435 2143433 2147036 2157973 2175743 2197886 
3492.290 2221306 2243280 2262255 2278383 2292882 2307352 2323015 2339954 
3496.148 2357393 2373886 2387983 2398931 2406762 2412299 2416754 2421269 
3500.005 2426551 2432872 2440114 2448137 2456621 2465439 2474165 2482091 
3503.863 2488085 2490812 2489065 2482337 2471073 2456903 2442187 2429558 
3507.720 2421178 2418133 2420308 2426535 2434832 2443320 2450416 2455163 
3511.577 2457084 2455931 2451408 2443134 2430577 2413546 2392490 2368712 
3515.435 2344245 2321501 2302635 2288827 2279926 2274418 2269879 2263599 
3519.292 2253566 2238988 2220679 2200616 2181485 2165770 2154835 2148786 
3523.150 2146274 2145041 2142919 2138203 2130584 2120796 2110580 2101723 
3527.007 2095649 2092594 2091731 2091128 2088569 2082015 2070184 2052981 
3530.865 2031258 2006794 1981722 1958439 1938826 1924439 1916106 1913937 
3534.722 1917341 1925145 1935787 1947549 1958839 1968376 1975246 1978839 
3538.579 1978705 1974271 1965038 1950516 1930730 1906534 1879805 1853370 
3542.437 1830555 1814471 1807318 1809560 1820168 1836603 1855647 1874331 
3546.294 1890285 1902487 1910658 1915309 1916926 1915687 1911542 1904348 
3550.152 1894366 1882417 1870155 1859690 1852987 1851487 1855587 1864465 
3554.009 1876565 1889731 1901934 1911531 1917349 1918801 1915506 1907281 
3557.866 1894389 1877329 1857164 1835445 1813949 1794337 1777955 1765425 
3561.724 1756939 1752379 1751661 1755062 1763014 1775734 1792844 1812971 
3565.581 1833465 1851157 1862948 1866908 1862949 1852960 1840480 1829637 
3569.439 1824116 1826110 1835609 1850882 1868485 1884428 1894962 1897207 
3573.296 1889757 1872850 1848150 1818738 1788329 1760805 1739474 1726599 
3577.154 1722745 1727160 1737679 1751737 1766365 1779306 1788749 1793610 
3581.011 1793239 1787395 1776315 1760768 1742325 1723351 1706655 1695034 
3584.868 1690628 1694217 1704979 1720777 1738408 1754507 1766176 1771488 
3588.726 1769718 1761380 1747772 1731059 1713441 1697132 1683947 1674718 
3592.583 1669252 1666287 1663839 1659742 1652153 1640531 1625475 1608767 
3596.441 1592779 1579834 1571342 1567699 1568054 1570709 1573810 1575539 
3600.298 1574883 1571695 1566531 1560834 1556270 1554453 1556506 1562671 
3604.156 1572397 1584236 1596466 1607530 1616520 1623220 1628062 1631504 
3608.013 1633775 1634272 1631904 1625537 1614612 1599794 1582882 1566620 
3611.870 1553825 1546635 1546176 1552452 1564825 1582741 1605891 1634194 
3615.728 1667316 1703991 1741701 1776849 1805624 1824940 1833589 1832414 
3619.585 1824068 1812068 1799606 1788827 1780583 1774569 1770181 1767078 
3623.443 1765140 1764598 1765537 1767703 1770271 1772729 1774763 1776907 
3627.300 1780145 1785536 1793494 1803437 1813723 1822540 1828477 1831397 
3631.157 1832578 1833989 1837751 1845021 1855630 1868375 1881757 1894766 
3635.015 1907561 1921261 1937174 1956008 1977057 1998029 2015799 2027397 
3638.872 2031464 2028496 2021106 2012957 2007677 2007748 2013965 2025354 
3642.730 2039974 2055529 2070123 2082752 2093171 2101758 2109282 2116564 
3646.587 2124521 2133816 2144914 2157915 2172403 2187300 2201210 2212819 
3650.445 2221280 2226394 2229031 2230590 2232602 2236334 2242055 2249214 
3654.302 2256376 2261734 2263654 2261213 2254360 2244126 2232183 2220802 
3658.159 2211938 2207178 2207149 2211608 2219412 2228769 2237797 2244809 
3662.017 2248809 2249658 2247899 2244588 2240932 2237730 2235253 2233109 
3665.874 2230434 2226022 2218923 2208483 2194617 2177939 2159385 2140274 
3669.732 2122023 2105913 2092807 2083260 2077113 2073688 2071717 2069412 
3673.589 2064973 2056489 2042775 2023484 1999345 1972120 1944239 1918218 
3677.447 1896090 1878879 1866486 1857876 1851312 1845166 1837908 1828761 
3681.304 1817577 1804577 1790107 1774721 1758802 1742856 1727401 1713251 
3685.161 1701172 1691928 1686065 1683607 1684259 1687332 1691924 1696999 
3689.019 1701470 1704200 1703929 1699592 1690347 1676132 1657811 1637362 
3692.876 1617516 1601152 1590632 1587119 1590145 1597846 1607404 1615840 
3696.734 1621024 1621941 1619058 1613960 1608885 1605901 1606383 1610715 
3700.591 1618121 1626779 1634375 1638726 1638246 1632374 1622051 1609122 
3704.448 1596402 1586556 1581940 1583473 1591057 1603259 1617946 1632811 
3708.306 1645721 1655283 1660477 1661190 1657705 1650778 1641539 1631355 
3712.163 1621777 1613936 1608505 1605197 1602882 1599784 1594199 1584920 
3716.021 1572134 1557231 1542736 1531584 1526125 1527703 1535961 1549199 
3719.878 1564905 1580230 1593034 1602118 1607432 1609920 1611050 1612293 
3723.736 1614907 1619515 1626032 1633810 1641653 1648188 1652069 1652170 
3727.593 1647955 1639446 1627516 1613463 1599096 1586261 1576581 1571168 
3731.450 1570634 1574957 1583814 1596658 1612830 1631593 1652089 1673055 
3735.308 1692641 1708831 1719611 1723549 1720430 1711466 1699133 1686372 
3739.165 1675887 1669093 1665828 1664415 1662175 1656942 1647624 1634910 
3743.023 1621342 1610252 1604847 1607096 1617202 1633479 1653259 1673736 
3746.880 1692791 1709081 1722138 1731748 1737657 1739526 1736836 1729550 
3750.738 1718205 1704133 1689318 1675794 1665282 1658788 1656513 1657982 
3754.595 1662355 1668614 1675704 1682634 1688257 1691480 1691369 1687435 
3758.452 1679889 1669485 1657657 1645902 1635719 1628100 1623791 1622954 
3762.310 1625290 1630094 1636008 1641218 1643393 1640479 1631289 1616377 
3766.167 1598149 1580787 1569043 1566988 1576415 1596234 1622493 1649632 
3770.025 1672026 1685820 1689809 1685506 1676214 1665430 1655844 1648314 
3773.882 1642463 1637128 1631564 1626113 1622038 1621158 1624436 1631570 
3777.740 1640488 1647968 1650619 1646302 1634597 1617325 1597786 1579623 
3781.597 1565821 1557735 1555277 1557006 1561089 1566060 1571044 1575967 
3785.454 1581144 1586766 1592567 1597964 1601994 1603909 1603454 1600793 
3789.312 1596750 1592009 1587266 1582802 1578666 1574821 1571456 1569094 
3793.169 1568456 1570292 1574984 1582496 1592142 1602896 1613603 1623182 
3797.027 1630795 1635628 1636928 1633756 1625624 1612152 1594203 1573760 
3800.884 1553899 1538154 1529805 1530750 1541066 1559006 1581481 1605085 
3804.741 1627056 1645546 1660057 1670853 1678632 1683967 1687150 1688167 
3808.599 1687080 1684106 1679717 1674421 1668486 1661886 1654188 1644894 
3812.456 1633863 1621554 1609282 1598806 1591965 1590226 1594090 1603240 
3816.314 1616504 1632224 1648792 1664561 1678125 1688306 1694119 1694882 
3820.171 1690506 1681601 1669422 1655654 1641948 1629569 1619146 1610728 
3824.029 1604113 1599108 1595790 1594264 1594567 1596381 1598797 1600765 
3827.886 1601415 1600631 1599219 1598869 1601594 1608779 1620785 1636397 
3831.743 1653463 1669509 1682597 1692174 1698892 1704252 1709755 1716093 
3835.601 1722652 1727748 1729224 1725395 1715849 1701676 1685394 1669944 
3839.458 1657884 1650652 1647994 1648445 1649565 1648897 1644759 1636479 
3843.316 1624739 1611017 1597176 1584786 1574645 1566739 1560491 1555052 
3847.173 1550049 1545689 1542846 1542602 1545794 1552527 1561966 1572476 
3851.031 1582295 1590029 1595214 1598313 1600498 1602980 1606481 1610872 
3854.888 1615420 1619142 1621370 1622012 1621427 1620159 1618284 1615375 
3858.745 1610479 1602650 1591605 1578235 1564488 1552817 1545418 1543222 
3862.603 1545313 1549291 1552030 1550828 1544444 1533871 1521772 1512061 
3866.460 1508398 1513033 1526139 1545818 1568429 1589858 1606285 1615366 
3870.318 1616616 1611418 1602282 1592290 1583811 1578231 1575513 1574570 
3874.175 1573871 1572202 1569157 1565373 1562069 1560629 1561705 1564960 
3878.032 1569071 1572340 1573275 1571498 1567697 1563752 1561689 1562856 
3881.890 1567594 1574748 1582267 1587944 1590090 1588195 1582988 1576168 
3885.747 1569918 1566279 1566655 1571672 1581150 1594025 1608517 1622688 
3889.605 1634522 1642598 1646628 1647600 1647635 1649415 1655154 1665610 
3893.462 1679625 1694415 1706185 1711676 1709215 1699218 1684146 1667391 
3897.320 1652145 1640183 1631296 1624038 1616413 1607130 1596423 1586028 
3901.177 1578317 1575342 1577703 1584123 1591733 1597191 1597741 1592480 
3905.034 1582660 1571231 1561904 1557877 1560813 1570348 1584276 1599268 
3908.892 1611807 1619028 1619319 1612718 1600451 1584677 1567958 1552768 
3912.749 1541290 1534977 1534604 1540158 1550806 1565030 1580686 1595444 
3916.607 1607037 1613759 1614705 1609989 1600594 1588143 1574406 1561151 
3920.464 1549965 1541949 1538075 1539064 1545495 1557515 1574499 1595123 
3924.322 1617146 1637785 1654243 1664559 1667863 1664823 1657302 1647848 
3928.179 1639075 1632863 1629922 1629965 1631808 1633822 1634378 1632185 
3932.036 1626545 1617432 1605450 1591992 1578980 1568687 1563380 1564782 
3935.894 1573371 1588411 1607657 1627896 1645641 1658082 1663516 1662046 
3939.751 1655330 1646135 1637530 1632181 1631616 1635771 1643330 1651630 
3943.609 1657729 1658856 1653199 1640521 1622101 1600602 1579445 1562072 
3947.466 1551138 1547988 1552414 1562902 1577090 1592379 1606590 1618018 
3951.323 1625801 1629713 1630098 1627427 1622681 1616888 1611214 1606861 
3955.181 1604663 1605030 1607713 1611878 1616310 1619750 1621403 1620873 
3959.038 1618501 1615017 1611333 1608483 1607103 1607669 1610409 1615309 
3962.896 1622212 1630602 1639749 1648661 1656156 1661345 1663762 1663766 
3966.753 1662389 1661105 1661333 1663884 1668547 1674061 1678462 1679768 
3970.611 1676797 1669534 1659387 1648800 1640416 1636350 1637611 1643738 
3974.468 1653098 1663430 1672662 1679130 1682207 1681786 1678383 1672572 
3978.325 1664976 1656340 1647370 1639196 1632978 1629741 1629952 1633478 
3982.183 1639217 1645596 1651085 1654403 1655229 1653990 1651884 1650271 
3986.040 1650444 1653191 1658805 1666916 1676776 1687013 1696065 1702010 
3989.898 1703310 1698883 1688860 1674897 1659810 1647244 1640445 1641431 
3993.755 1650259 1664781 1681646 1697019 1707946 1713153 1713293 1710383 
3997.613 1706964 1705217 1706319 1710098 1715496 1721124 1725628 
##END=
