##TITLE=eSUN_PLA+_White_Filament_r7_ATR-Corrected
##JCAMP-DX=5.01  $$ Nicolet v. 1
##DATATYPE=INFRARED SPECTRUM
##ORIGIN=Curtin University
##OWNER=Nicolet
##LONGDATE=2024/07/11
##TIME=10:38:46
##SPECTROMETER/DATA SYSTEM=Nicolet iS50
##DATA PROCESSING=
Ratio against background
%Transmittance->Absorbance
ATR Correction
Truncated
ElementMultiply or ElementDivide
##COMMENTS=
Number of sample scans: 32
Collection length: 47.27 sec
Sample gain: 1.0
Background collected on: Thu Jul 11 10:30:10 2024 (GMT+08:00);
Number of background scans: 32
Background gain: 1.0
Sample spacing:  1.000
Number of scan points: 16672
Resolution points: 8192
Number of FFT points: 65536
Apodization: N-B strong;
Phase correction: Mertz;
Laser frequency: 15798.3 cm-1
Number of rejected sample scans: 0
Number of rejected background scans: 0
Bench serial number: AUP1200105;
##RESOLUTION=4.000
##XUNITS=1/CM
##YUNITS=ABSORBANCE
##FIRSTX=400.163452
##LASTX=4000.187744
##FIRSTY=0.067373
##MAXX=4000.187744
##MINX=400.163452
##MAXY=1.036174
##MINY=-0.033716
##XFACTOR=1.000000
##YFACTOR=1.000000E-008
##NPOINTS=7468
##DELTAX=0.482125
##ZPD=8192
##XYDATA=(X++(Y..Y))
400.163 6737293 6675752 6592269 6488157 6365675 6228834 6081756 5928818 
404.020 5774988 5626452 5490357 5373846 5282419 5218426 5180200 5162339 
407.877 5157263 5157015 5154967 5146586 5129169 5101017 5060673 5006519 
411.734 4937351 4853306 4757154 4654580 4553938 4464642 4395010 4349794 
415.591 4328635 4325425 4329524 4328130 4309394 4265365 4194088 4100012 
419.448 3992523 3883263 3783092 3699519 3635814 3591289 3562680 3545713 
423.305 3536358 3531090 3526842 3520393 3508354 3487537 3456092 3414557 
427.162 3366357 3317245 3273843 3241377 3222090 3214551 3214300 3215631 
431.019 3213899 3207162 3196936 3187119 3182755 3187461 3202163 3224596 
434.876 3250202 3273614 3290441 3298488 3298175 3292098 3283881 3276831 
438.733 3272966 3272260 3272852 3271645 3265457 3252229 3231960 3207064 
442.590 3181911 3161740 3151060 3152195 3164472 3184338 3206373 3224931 
446.447 3235794 3237197 3230191 3217943 3204624 3194138 3189174 3190803 
450.304 3198593 3210966 3225697 3240140 3251522 3257194 3255083 3244174 
454.161 3225091 3200120 3172974 3147912 3128769 3117931 3115922 3121414 
458.017 3131717 3143551 3153754 3159651 3159335 3151700 3136438 3114214 
461.874 3086652 3056244 3026038 2998601 2976338 2959926 2948559 2940269 
465.731 2932760 2924214 2914029 2902854 2892281 2884018 2879122 2877395 
469.588 2877330 2876445 2872057 2861969 2845122 2821836 2793715 2763202 
473.445 2733028 2705624 2682751 2665302 2653429 2646795 2644890 2647180 
477.302 2653182 2662137 2672835 2683397 2691423 2694384 2690338 2678487 
481.159 2659518 2635363 2608657 2581817 2556388 2532831 2510758 2489556 
485.016 2469149 2450230 2434199 2422481 2415904 2414118 2415650 2418391 
488.873 2420341 2420237 2417914 2414006 2409518 2405263 2401603 2398461 
492.730 2395625 2392923 2390303 2387347 2383572 2377666 2367928 2352861 
496.587 2331966 2306258 2278371 2251935 2230614 2217078 2212337 2215574 
500.444 2224656 2236823 2249392 2260160 2267502 2270270 2267738 2259668 
504.301 2246539 2229684 2211283 2193885 2179921 2171114 2168263 2171366 
508.158 2180007 2193717 2212136 2234638 2259887 2285459 2307933 2323575 
512.015 2329439 2324363 2309478 2287861 2263488 2239860 2218999 2201088 
515.871 2185100 2169771 2154739 2140868 2129995 2123908 2123358 2127445 
519.728 2133825 2139552 2142239 2140891 2136156 2129867 2124147 2120612 
523.585 2119971 2122050 2126267 2131782 2138128 2144534 2149754 2151974 
527.442 2149114 2139504 2122733 2100120 2074607 2049960 2029609 2015525 
531.299 2007708 2004317 2002573 1999775 1994241 1985615 1974652 1962596 
535.156 1950610 1939327 1928952 1919419 1910775 1903338 1897648 1894313 
539.013 1893855 1896579 1902630 1911995 1924428 1939308 1955420 1970929 
542.870 1983636 1991407 1992895 1987942 1977752 1964555 1950956 1939153 
546.727 1930516 1925409 1923581 1924631 1928442 1935289 1945559 1959314 
550.584 1975903 1993828 2011100 2025657 2036031 2041659 2042916 2040754 
554.441 2036335 2030622 2024297 2017751 2011583 2006463 2003193 2002457 
558.298 2004547 2009060 2014938 2020718 2024994 2026948 2026671 2025174 
562.155 2024158 2025452 2030438 2039586 2052254 2066863 2081315 2093561 
566.012 2102211 2106780 2107779 2106377 2103965 2101735 2100410 2100247 
569.869 2101306 2103781 2108140 2115059 2125022 2137885 2152494 2166769 
573.725 2178166 2184540 2184984 2180350 2173244 2167284 2166066 2172023 
577.582 2185761 2205889 2229655 2253747 2275344 2292649 2305195 2313500 
581.439 2318670 2321900 2324219 2326336 2328816 2332072 2336444 2342044 
585.296 2348723 2355916 2362831 2368619 2372733 2375153 2376485 2377855 
589.153 2380604 2385919 2394554 2406596 2421461 2438084 2455167 2471453 
593.010 2485958 2498100 2507670 2514748 2519628 2522722 2524539 2525717 
596.867 2527019 2529296 2533372 2539813 2548792 2559959 2572548 2585610 
600.724 2598368 2610493 2622219 2634257 2647444 2662390 2679183 2697308 
604.581 2715860 2733793 2750318 2764953 2777602 2788361 2797426 2805022 
608.438 2811588 2817900 2825134 2834767 2848145 2866040 2888331 2913953 
612.295 2941328 2968917 2995929 3022497 3049619 3078510 3109905 3143450 
616.152 3177661 3210288 3239094 3262594 3280531 3293834 3304175 3313329 
620.009 3322671 3332937 3344379 3357007 3370926 3386381 3403663 3422822 
623.866 3443606 3465421 3487596 3509607 3531256 3552566 3573534 3593804 
627.723 3612581 3628798 3641567 3650707 3657061 3662463 3669195 3679255 
631.579 3693616 3711865 3732290 3752450 3769965 3783246 3791946 3796974 
635.436 3800206 3803922 3810359 3821242 3837550 3859420 3886176 3916383 
639.293 3948127 3979259 4007827 4032379 4052274 4067677 4079435 4088783 
643.150 4097040 4105355 4114623 4125454 4138257 4153204 4170188 4188750 
647.007 4208142 4227403 4245665 4262416 4277656 4291937 4306113 4321017 
650.864 4337153 4354534 4372785 4391308 4409583 4427346 4444606 4461506 
654.721 4478213 4494797 4511275 4527727 4544434 4561882 4580695 4601353 
658.578 4624004 4648313 4673560 4698745 4722925 4745381 4765701 4783792 
662.435 4799811 4814134 4827406 4840545 4854718 4871160 4890832 4914069 
666.292 4940363 4968297 4995936 5021232 5042615 5059319 5071437 5079721 
670.149 5085211 5088922 5091716 5094356 5097668 5102629 5110268 5121421 
674.006 5136338 5154442 5174366 5194200 5212055 5226569 5237277 5244634 
677.863 5249838 5254367 5259635 5266682 5276073 5288002 5302433 5319199 
681.720 5338069 5358798 5381212 5405200 5430806 5458216 5487591 5518857 
685.577 5551481 5584339 5615800 5644072 5667738 5686231 5700178 5711378 
689.433 5722409 5736034 5754534 5779212 5810289 5847092 5888554 5933808 
693.290 5982616 6035550 6093886 6159115 6232341 6313696 6401872 6494011 
697.147 6585930 6672621 6749059 6810894 6855139 6880441 6887139 6876856 
701.004 6852060 6815490 6769763 6717109 6659411 6598289 6535283 6471953 
704.861 6409923 6350802 6296076 6246928 6204163 6168098 6138607 6115136 
708.718 6096811 6082493 6070818 6060210 6048748 6034258 6014327 5986538 
712.575 5948819 5899799 5839130 5767575 5686836 5599111 5506552 5410796 
716.432 5312701 5212394 5109593 5004001 4895697 4785226 4673589 4561954 
720.289 4451477 4343154 4237872 4136471 4039860 3948990 3864653 3787272 
724.146 3716780 3652675 3594323 3541384 3494202 3453941 3422429 3401713 
728.003 3393535 3398867 3417766 3449434 3492618 3546008 3608493 3679304 
731.860 3757961 3844176 3937726 4038385 4145957 4260232 4380873 4507244 
735.717 4638299 4772461 4907819 5042356 5174346 5302629 5426709 5546600 
739.574 5662577 5774816 5883284 5987665 6087699 6183370 6275149 6363972 
743.431 6451155 6538003 6625594 6714470 6804640 6895651 6986823 7077530 
747.287 7167534 7257187 7347560 7440395 7537776 7641636 7753134 7872116 
751.144 7996756 8123657 8248380 8366205 8473020 8565971 8643612 8705756 
755.001 8752896 8785569 8803897 8807433 8795255 8766224 8719341 8653957 
758.858 8569893 8467577 8348103 8213332 8065880 7908987 7746138 7580569 
762.715 7414795 7250311 7087636 6926679 6767266 6609583 6454422 6303009 
766.572 6156670 6016371 5882477 5754737 5632565 5515398 5402924 5295105 
770.429 5191982 5093333 4998493 4906326 4815633 4725436 4635405 4545926 
774.286 4457938 4372517 4290483 4212092 4137065 4064782 3994612 3926176 
778.143 3859400 3794461 3731493 3670495 3611185 3553110 3495779 3438748 
782.000 3381728 3324463 3266728 3208225 3148710 3088106 3026665 2965021 
785.857 2904172 2845228 2789221 2736899 2688672 2644655 2604837 2569172 
789.714 2537652 2510153 2486354 2465573 2446765 2428713 2410254 2390586 
793.571 2369516 2347487 2325502 2304794 2286566 2271702 2260590 2253147 
797.428 2248913 2247201 2247370 2248767 2250896 2253266 2255357 2256520 
801.285 2256068 2253366 2248078 2240263 2230710 2220636 2211525 2204745 
805.141 2201142 2200829 2203150 2206867 2210575 2213067 2213613 2212009 
808.998 2208504 2203571 2197721 2191423 2185050 2178952 2173465 2168893 
812.855 2165332 2162631 2160369 2157946 2154848 2150861 2146237 2141624 
816.712 2137911 2135842 2135802 2137660 2140827 2144492 2147882 2150436 
820.569 2151888 2152150 2151185 2148843 2144830 2138730 2130176 2118959 
824.426 2105169 2089223 2071901 2054235 2037503 2022970 2011774 2004607 
828.283 2001582 2002126 2005164 2009367 2013679 2017620 2021531 2026403 
832.140 2033556 2044060 2058358 2076067 2096241 2117725 2139704 2162169 
835.997 2185918 2212361 2243084 2279273 2321451 2369341 2422147 2478811 
839.854 2538483 2600719 2665522 2733252 2804394 2879282 2957945 3040007 
843.711 3124631 3210593 3296313 3379974 3459605 3533309 3599380 3656532 
847.568 3704152 3742345 3772109 3795278 3814382 3832428 3852601 3877995 
851.425 3911512 3955765 4013302 4086729 4178820 4292382 4429845 4592667 
855.282 4780757 4992139 5223055 5468513 5723196 5982318 6242192 6500405 
859.139 6755372 7005746 7249862 7485522 7710265 7921928 8119318 8302434 
862.995 8472405 8630802 8778894 8917059 9044543 9159857 9261426 9348278 
866.852 9420574 9479628 9527645 9567139 9600516 9629701 9655954 9679846 
870.709 9701151 9718774 9730621 9733648 9724160 9698226 9652212 9583256 
874.566 9489338 9369223 9222024 9047011 8843633 8611820 8352628 8068803 
878.423 7765064 7447880 7124778 6803371 6490371 6190913 5908303 5644257 
882.280 5399362 5173700 4967287 4780347 4613362 4467007 4341913 4238498 
886.137 4156819 4096370 4055969 4033699 4026959 4032609 4047318 4067836 
889.994 4091387 4115866 4139974 4163094 4185142 4206381 4227157 4247688 
893.851 4267994 4287662 4305956 4321733 4333781 4340986 4342667 4338831 
897.708 4330245 4318353 4305014 4292153 4281443 4274138 4270949 4272203 
901.565 4277921 4287867 4301587 4318299 4336871 4355819 4373514 4388470 
905.422 4399682 4406895 4410766 4412645 4414382 4417765 4424160 4434150 
909.279 4447425 4462825 4478598 4492760 4503491 4509457 4510057 4505475 
913.136 4496630 4484877 4471722 4458435 4445773 4433832 4422073 4409556 
916.993 4395254 4378453 4358941 4337131 4313893 4290243 4266977 4244379 
920.849 4222092 4199313 4175119 4148896 4120759 4091610 4063059 4036981 
924.706 4015079 3998350 3986921 3979951 3976027 3973433 3970551 3966170 
928.563 3959595 3950653 3939689 3927411 3914849 3903196 3893642 3887148 
932.420 3884212 3884754 3888157 3893441 3899653 3906194 3913014 3920617 
936.277 3929771 3941249 3955414 3972121 3990836 4010839 4031606 4052982 
940.134 4075220 4098818 4124312 4152076 4182274 4214973 4250345 4288766 
943.991 4330807 4377104 4428090 4483756 4543622 4606827 4672352 4739285 
947.848 4807088 4875593 4944958 5015605 5088019 5162720 5240198 5320814 
951.705 5404643 5491298 5579776 5668325 5754672 5836248 5910572 5975616 
955.562 6029999 6072931 6104089 6123384 6130866 6126748 6111629 6086628 
959.419 6053573 6014829 5973081 5931021 5891007 5854885 5823960 5799045 
963.276 5780542 5768442 5762304 5761147 5763530 5767651 5771672 5774011 
967.133 5773689 5770340 5764230 5755898 5745893 5734510 5721660 5706989 
970.990 5690054 5670576 5648641 5624755 5599771 5574824 5551055 5529499 
974.847 5510961 5496028 5485071 5478375 5476231 5478982 5486967 5500393 
978.703 5519166 5542781 5570269 5600331 5631715 5663513 5695490 5728180 
982.560 5762726 5800483 5842498 5889138 5939855 5993361 6048040 6102402 
986.417 6155620 6207710 6259532 6312569 6368356 6428264 6493125 6563025 
990.274 6637320 6714743 6793638 6872203 6948924 7022875 7093902 7162674 
994.131 7230480 7298846 7369105 7442049 7517744 7595736 7675279 7755821 
997.988 7837171 7919653 8003937 8090811 8180997 8275057 8373496 8476871 
1001.845 8585913 8701533 8824571 8955608 9094711 9241422 9394927 9554350 
1005.702 9719098 9889068 10064741 10246945 10436669 10634936 10842663 
1009.077 11060787 11290372 11532731 11789355 12061749 12351163 12658347 
1012.452 12983383 13325743 13684377 14058012 14445423 14845613 15257908 
1015.826 15682025 16117954 16565800 17025584 17496980 17979116 18470542 
1019.201 18969128 19472416 19977822 20482962 20985810 21484854 21979042 
1022.576 22467784 22950874 23428658 23901972 24372246 24841446 25311786 
1025.951 25785592 26265058 26752272 27249390 27758858 28283528 28826726 
1029.326 29391786 29981678 30598360 31242492 31913344 32609078 33327076 
1032.702 34064400 34817748 35583492 36357364 37134228 37908072 38672240 
1036.077 39419816 40144000 40838332 41496748 42113604 42683620 43202180 
1039.452 43665548 44071216 44417972 44705712 44934852 45105736 45218252 
1042.827 45271864 45266036 45201068 45078852 44903272 44680096 44416432 
1046.203 44119752 43797016 43454096 43095540 42724968 42345548 41960620 
1049.578 41574100 41190444 40814388 40450384 40101892 39771100 39458688 
1052.953 39164220 38886572 38624728 38378344 38147956 37935088 37741984 
1056.328 37571292 37425796 37308364 37222052 37170448 37157716 37188704 
1059.704 37268696 37402948 37596320 37852944 38176016 38567916 39030244 
1063.079 39563992 40169408 40845880 41591700 42404048 43279144 44212756 
1066.454 45200708 46239304 47325436 48456384 49629156 50840056 52084352 
1069.829 53356664 54651464 55964040 57291096 58630956 59983212 61347884 
1073.205 62724544 64111524 65505432 66901100 68291688 69669000 71023848 
1076.580 72346592 73627544 74857488 76028016 77131448 78160192 79106144 
1079.955 79960016 80711216 81348528 81861592 82242240 82485808 82591280 
1083.330 82560928 82399344 82112328 81706688 81190064 80571136 79859880 
1086.706 79067320 78204952 77284120 76315584 75309312 74274472 73219464 
1090.081 72151880 71078088 70003000 68929896 67860600 66796096 65737028 
1093.456 64684324 63639140 62602712 61575896 60558932 59551464 58553004 
1096.831 57563548 56583972 55616088 54662172 53724284 52803344 51898968 
1100.207 51009632 50133264 49268096 48413412 47569768 46738792 45922520 
1103.582 45122996 44341812 43580140 42839128 42120236 41425600 40757968 
1106.957 40120504 39516376 38948260 38418208 37927680 37477620 37068740 
1110.332 36701560 36376360 36092824 35850028 35646132 35478500 35344012 
1113.708 35239480 35162036 35109412 35079932 35072468 35086264 35120760 
1117.083 35175528 35250448 35345700 35462016 35600604 35763000 35950740 
1120.458 36164880 36405580 36671508 36959632 37264992 37580952 37899408 
1123.833 38211408 38507768 38779588 39018840 39218552 39373024 39477740 
1127.208 39529448 39526168 39467132 39352800 39184664 38964964 38696192 
1130.584 38380708 38020296 37616108 37168604 36677764 36143488 35565872 
1133.959 34945436 34283420 33581640 32842514 32069000 31264374 30432218 
1137.334 29576418 28701144 27810862 26910314 26004398 25098124 24196366 
1140.709 23303888 22425234 21564796 20726746 19915190 19133956 18386448 
1144.085 17675536 17003356 16371292 15780021 15229657 14719878 14250150 
1147.460 13819724 13427718 13073140 12754883 12471719 12222386 12005606 
1150.835 11820055 11664313 11536787 11435618 11358718 11303774 11268528 
1154.210 11250889 11249225 11262459 11290070 11332089 11388873 11461061 
1157.586 11549398 11654801 11778306 11921049 12084311 12269408 12477695 
1160.961 12710553 12969521 13256499 13573965 13925092 14313801 14744607 
1164.336 15222317 15751870 16338088 16985718 17699628 18484912 19347168 
1167.711 20292316 21326506 22455648 23685094 25019444 26462328 28016498 
1171.087 29683692 31464404 33357274 35358308 37459920 39650476 41913740 
1174.462 44229052 46571692 48913364 51222528 53464784 55603332 57599892 
1177.837 59416272 61016540 62369568 63451380 64246768 64750320 64966352 
1181.212 64908236 64597220 64060684 63330080 62438524 61418616 60300660 
1184.588 59111488 57874332 56609000 55332548 54059796 52803736 51575308 
1187.963 50383376 49234460 48132748 47080504 46078436 45126412 44223880 
1191.338 43370272 42565028 41807588 41097356 40433548 39815248 39241464 
1194.713 38711072 38222784 37775028 37365756 36992396 36651908 36340936 
1198.089 36056228 35795000 35555188 35335656 35136016 34956364 34796868 
1201.464 34657240 34536380 34432240 34341748 34261168 34186400 34113584 
1204.839 34039368 33961104 33876780 33784808 33683632 33571492 33446314 
1208.214 33305824 33147756 32970354 32772512 32553818 32314532 32055188 
1211.590 31776478 31479030 31163340 30829894 30479244 30112114 29729444 
1214.965 29332364 28922204 28500534 28069278 27630640 27187120 26741320 
1218.340 26295682 25852224 25412344 24976834 24545934 24119658 23697934 
1221.715 23280894 22868876 22462392 22061986 21668130 21281246 20901648 
1225.091 20529682 20165762 19810458 19464340 19127960 18801788 18486012 
1228.466 18180598 17885340 17599870 17323816 17056890 16798866 16549839 
1231.841 16310094 16080146 15860559 15651846 15454099 15266898 15089157 
1235.216 14919297 14755505 14596200 14440347 14287859 14139405 13996270 
1238.592 13859831 13731092 13610423 13497443 13391171 13290434 13194121 
1241.967 13101546 13012375 12926662 12844612 12766469 12692380 12622410 
1245.342 12556608 12495001 12437616 12384554 12335855 12291586 12251817 
1248.717 12216736 12186558 12161557 12142000 12128070 12119847 12117354 
1252.093 12120546 12129498 12144347 12165247 12192272 12225221 12263688 
1255.468 12306974 12354336 12405165 12459093 12515996 12575887 12638621 
1258.843 12703766 12770426 12837355 12903166 12966533 13026521 13082504 
1262.218 13134229 13181557 13224213 13261688 13293208 13317743 13334231 
1265.594 13341698 13339542 13327572 13306099 13275833 13237803 13192987 
1268.969 13142172 13085562 13022730 12952618 12873769 12784684 12684217 
1272.344 12571816 12447619 12312334 12166981 12012662 11850247 11680411 
1275.719 11503673 11320478 11131342 10936891 10737801 10534729 10328279 
1279.094 10119075 9907802 9695373 9482940 9271879 9063672 8859760 8661458 
1282.952 8469942 8286372 8111950 7948009 7795884 7656818 7531748 7421199 
1286.809 7325315 7244023 7177201 7124912 7087324 7064640 7056851 7063517 
1290.667 7083739 7116204 7159441 7211984 7272504 7339845 7412760 7489879 
1294.524 7569594 7650088 7729593 7806542 7879723 7948360 8011933 8070160 
1298.382 8122787 8169774 8211234 8247657 8279893 8309005 8335991 8361528 
1302.239 8385712 8408100 8427908 8444363 8457033 8466091 8472238 8476488 
1306.096 8479874 8483080 8486331 8489386 8491716 8492707 8491846 8488889 
1309.954 8483765 8476598 8467603 8457066 8445267 8432543 8419270 8405791 
1313.811 8392394 8379367 8366851 8355010 8344041 8334205 8325847 8319309 
1317.669 8314926 8312911 8313232 8315676 8319796 8325016 8330758 8336599 
1321.526 8342325 8348099 8354463 8362289 8372606 8386410 8404429 8426969 
1325.384 8453903 8484754 8518927 8555979 8595783 8638707 8685493 8737104 
1329.241 8794539 8858602 8929652 9007730 9092414 9183067 9278801 9378725 
1333.098 9481948 9587745 9695567 9805121 9916435 10029848 10145997 10265684 
1336.956 10389740 10518829 10653319 10793182 10937981 11087041 11239583 
1340.331 11394978 11552870 11713353 11876814 12043808 12214901 12390523 
1343.706 12570891 12756144 12946339 13141701 13342491 13549013 13761362 
1347.082 13979287 14202075 14428522 14657292 14886969 15116368 15344556 
1350.457 15570769 15794173 16013668 16227697 16434263 16631150 16816182 
1353.832 16987598 17144168 17285374 17411240 17522198 17618802 17701676 
1357.207 17771336 17828344 17873284 17906984 17930506 17945094 17952130 
1360.583 17952984 17948892 17940920 17929914 17916576 17901356 17884376 
1363.958 17865330 17843316 17816714 17783120 17739548 17682618 17608884 
1367.333 17515150 17398886 17258480 17093570 16905308 16696703 16472813 
1370.708 16240960 16010572 15792860 15600200 15445301 15340152 15294978 
1374.083 15317412 15411638 15578035 15812992 16109213 16456094 16840512 
1377.459 17247642 17661884 18067918 18451512 18800336 19104256 19355444 
1380.834 19548030 19677832 19741990 19738918 19668404 19531738 19331778 
1384.209 19072952 18760960 18402402 18004362 17574038 17118410 16643915 
1387.584 16156287 15660332 15159956 14658190 14157422 13659544 13166204 
1390.960 12678987 12199519 11729589 11271208 10826786 10399074 9991096 
1394.335 9605896 9246299 8914392 8611415 8337493 8091826 7872881 7678688 
1398.192 7507126 7356146 7223896 7108728 7009223 6924091 6852138 6792219 
1402.050 6743190 6703915 6673244 6650057 6633288 6622115 6615894 6614340 
1405.907 6617362 6625168 6637961 6655837 6678629 6705738 6736193 6768756 
1409.765 6802186 6835510 6868244 6900512 6932972 6966521 7002002 7039926 
1413.622 7080279 7122595 7166086 7209944 7253530 7296454 7338528 7379701 
1417.479 7419917 7459081 7497155 7534302 7570938 7607732 7645496 7684895 
1421.337 7726323 7769701 7814642 7860565 7907015 7953846 8001303 8050056 
1425.194 8100929 8154744 8212144 8273478 8338776 8407897 8480600 8556692 
1429.052 8636160 8719273 8806555 8898748 8996668 9101139 9212755 9332060 
1432.909 9459609 9596304 9743693 9904210 10081108 10278311 10499873 10749502 
1436.767 11030150 11343906 11692080 12075491 12494694 12950082 13441561 
1440.142 13968295 14528285 15118183 15733247 16367581 17014382 17666172 
1443.517 18315120 18953284 19572966 20167162 20729842 21256236 21742742 
1446.892 22186736 22586394 22940528 23248596 23510790 23727980 23901562 
1450.268 24032958 24123236 24172788 24181346 24148210 24072658 23954312 
1453.643 23793152 23589496 23343724 23056202 22727340 22357904 21949438 
1457.018 21504354 21025990 20518226 19985192 19430822 18858906 18272950 
1460.393 17676360 17072452 16464376 15855160 15247729 14644969 14050001 
1463.769 13466139 12896825 12345437 11814781 11306937 10823150 10363957 
1467.144 9929514 9519821 9134912 8774782 8439320 8128140 7840482 7575273 
1471.001 7331159 7106581 6899833 6709071 6532443 6368171 6214872 6071606 
1474.859 5937901 5813687 5698857 5593044 5495411 5404705 5319495 5238583 
1478.716 5161270 5087440 5017407 4951614 4890261 4833146 4779763 4729419 
1482.573 4681525 4635737 4591949 4550067 4509976 4471339 4433819 4397183 
1486.431 4361635 4327723 4296325 4268218 4243825 4222989 4205022 4188948 
1490.288 4173892 4159217 4144753 4130408 4115941 4100752 4083705 4063424 
1494.146 4038661 4008683 3973612 3934426 3892702 3850232 3808557 3768666 
1498.003 3730918 3695161 3660960 3627896 3595658 3564219 3533788 3504771 
1501.861 3477673 3452958 3430928 3411705 3395031 3380418 3367111 3354288 
1505.718 3341252 3327534 3313000 3297825 3282408 3267199 3252635 3238995 
1509.575 3226399 3214775 3203861 3193182 3182188 3170279 3157018 3142315 
1513.433 3126460 3110084 3094047 3079104 3065616 3053422 3041796 3029707 
1517.290 3016127 3000415 2982550 2963140 2943252 2924103 2906732 2891776 
1521.148 2879409 2869331 2861040 2853971 2847641 2841718 2835897 2829940 
1525.005 2823526 2816318 2808024 2798480 2787702 2775885 2763375 2750453 
1528.863 2737336 2724092 2710646 2696951 2683076 2669332 2656211 2644368 
1532.720 2634447 2626784 2621362 2617745 2615183 2612873 2610159 2606644 
1536.577 2602253 2597134 2591492 2585371 2578753 2571453 2563348 2554492 
1540.435 2545165 2535795 2526814 2518495 2510714 2503050 2494815 2485305 
1544.292 2474050 2460969 2446437 2431230 2416352 2402800 2391389 2382575 
1548.150 2376329 2372206 2369366 2366732 2363239 2358004 2350536 2340845 
1552.007 2329419 2317055 2304729 2293351 2283654 2276090 2270839 2267876 
1555.865 2266932 2267539 2268951 2270208 2270185 2267855 2262544 2254168 
1559.722 2243385 2231341 2219456 2208977 2200685 2194767 2190851 2188328 
1563.579 2186548 2185097 2183801 2182734 2181998 2181641 2181519 2181403 
1567.437 2180975 2180031 2178469 2176300 2173538 2170227 2166398 2162136 
1571.294 2157727 2153654 2150611 2149345 2150450 2154155 2160209 2167887 
1575.152 2176131 2183863 2190230 2194810 2197764 2199607 2201073 2202848 
1579.009 2205384 2208765 2212818 2217160 2221429 2225360 2228935 2232317 
1582.866 2235738 2239367 2243177 2246962 2250342 2252948 2254584 2255383 
1586.724 2255743 2256298 2257679 2260441 2264826 2270781 2278051 2286213 
1590.581 2294860 2303551 2311887 2319542 2326198 2331717 2336213 2340071 
1594.439 2344014 2348823 2355171 2363356 2373133 2383826 2394511 2404364 
1598.296 2413033 2420749 2428294 2436651 2446644 2458677 2472412 2487070 
1602.154 2501536 2514828 2526336 2535972 2544077 2551238 2557990 2564724 
1606.011 2571534 2578376 2585139 2591762 2598368 2605071 2612055 2619342 
1609.868 2626866 2634461 2641974 2649396 2656933 2664941 2673849 2683961 
1613.726 2695358 2707736 2720569 2733148 2744879 2755450 2764913 2773690 
1617.583 2782396 2791603 2801665 2812566 2824021 2835535 2846597 2856857 
1621.441 2866111 2874352 2881679 2888210 2894067 2899355 2904169 2908605 
1625.298 2912751 2916546 2919865 2922410 2923832 2923889 2922580 2920295 
1629.156 2917700 2915599 2914728 2915522 2918034 2921995 2926905 2932285 
1633.013 2937787 2943207 2948528 2953705 2958705 2963436 2967819 2971882 
1636.870 2975681 2979273 2982572 2985251 2986741 2986305 2983444 2977963 
1640.728 2970309 2961357 2952271 2944162 2937732 2933194 2930235 2928280 
1644.585 2926698 2925012 2923012 2920675 2918161 2915719 2913622 2912279 
1648.443 2912090 2913488 2916662 2921501 2927475 2933686 2939189 2943218 
1652.300 2945514 2946396 2946662 2947150 2948421 2950479 2952831 2954742 
1656.157 2955643 2955359 2954326 2953320 2953240 2954741 2958034 2962875 
1660.015 2968785 2975191 2981785 2988376 2994966 3001611 3008219 3014705 
1663.872 3021017 3027269 3033742 3040801 3048699 3057425 3066525 3075371 
1667.730 3083208 3089538 3094245 3097685 3100404 3103090 3106181 3109915 
1671.587 3114333 3119476 3125582 3132971 3142048 3153014 3165708 3179500 
1675.445 3193505 3206749 3218597 3228879 3237901 3246392 3255169 3264963 
1679.302 3276305 3289548 3304873 3322424 3342273 3364385 3388466 3413939 
1683.159 3439967 3465613 3490061 3512788 3533724 3553247 3571905 3590337 
1687.017 3609094 3628618 3649179 3671092 3694606 3719977 3747385 3776875 
1690.874 3808393 3841807 3876991 3913889 3952489 3992799 4034646 4077756 
1694.732 4121703 4166133 4211019 4256972 4305177 4357365 4415332 4480549 
1698.589 4553741 4634639 4722006 4813984 4908540 5004068 5099831 5195990 
1702.447 5293586 5394135 5499286 5610555 5729120 5855810 5991145 6135301 
1706.304 6288292 6449955 6619996 6798180 6984401 7178862 7382095 7595037 
1710.161 7818769 8054343 8302431 8563168 8836016 9119790 9412908 9713733 
1714.019 10020838 10333259 10650670 10973382 11302067 11637570 11980513 
1717.394 12331013 12688524 13051853 13419539 13790305 14163537 14539659 
1720.769 14920275 15307955 15705840 16117167 16544984 16991988 17460734 
1724.145 17953874 18474374 19025684 19611592 20236058 20902960 21616136 
1727.520 22379416 23196946 24073178 25013092 26021984 27105448 28269514 
1730.895 29520798 30866932 32316592 33879016 35562952 37375064 39318392 
1734.270 41391796 43590476 45908020 48338576 50878768 53527836 56285888 
1737.646 59150856 62115056 65162880 68270360 71407064 74539240 77633176 
1741.021 80657360 83583040 86383624 89033904 91509976 93789952 95854904 
1744.396 97689608 99282584 100625888 101715160 102550528 103137552 103487816 
1747.771 103617416 103544584 103285816 102853128 102253344 101489568 
1750.664 100564528 99483520 98256184 96895752 95416744 93832400 92152944 
1754.040 90385648 88536248 86610856 84617344 82565680 80467576 78335280 
1757.415 76180928 74016128 71852168 69700024 67570040 65471744 63412972 
1760.790 61399756 59436424 57526540 55673564 53881508 52154796 50497704 
1764.165 48913368 47403024 45965876 44599416 43300188 42064508 40889044 
1767.541 39770716 38706464 37692752 36725352 35799420 34909932 34052208 
1770.916 33222154 32416538 31632674 30868164 30120408 29386482 28663194 
1774.291 27947224 27235422 26524988 25813594 25099402 24381024 23657490 
1777.666 22928304 22193572 21454104 20711422 19967774 19225974 18489226 
1781.042 17760720 17043380 16339776 15651985 14981806 14330919 13700987 
1784.417 13093701 12510626 11952963 11421385 10916028 10436581 9982663 
1787.792 9553938 9150438 8772364 8419879 8092943 7790801 7512261 7255451 
1791.649 7018171 6798005 6592559 6399689 6217524 6044699 5880395 5724497 
1795.507 5577348 5439603 5311766 5193791 5084838 4983246 4887057 4794402 
1799.364 4704204 4616468 4532186 4452846 4379820 4313536 4253389 4197562 
1803.222 4143749 4089655 4033777 3975633 3915849 3855733 3796832 3740513 
1807.079 3687700 3638759 3593674 3552109 3513558 3477331 3442643 3408573 
1810.937 3374086 3338218 3300182 3259510 3216103 3170383 3123284 3076226 
1814.794 3031077 2989992 2955164 2928465 2910909 2902418 2901476 2905476 
1818.651 2911017 2914772 2914018 2907126 2893735 2874402 2850326 2822779 
1822.509 2792775 2760996 2727783 2693346 2658012 2622357 2587175 2553445 
1826.366 2522010 2493364 2467562 2444027 2421648 2399152 2375413 2349865 
1830.224 2322725 2295019 2268319 2244230 2223856 2207372 2193916 2181767 
1834.081 2168776 2152989 2133144 2108853 2080705 2049892 2017913 1986243 
1837.938 1956123 1928382 1903463 1881335 1861521 1843131 1824873 1805562 
1841.796 1784254 1760850 1736100 1711681 1689790 1672485 1661253 1656332 
1845.653 1656621 1659914 1663358 1664074 1659927 1649953 1634730 1616289 
1849.511 1597799 1582585 1573525 1571815 1576603 1584961 1592479 1594502 
1853.368 1587602 1570476 1544720 1514012 1483293 1456828 1437138 1424317 
1857.226 1416238 1409822 1402420 1392864 1381965 1371982 1365681 1364981 
1861.083 1370001 1378869 1388220 1394160 1393611 1384983 1368726 1347043 
1864.940 1323188 1300734 1282766 1271318 1267167 1269901 1278232 1290304 
1868.798 1304333 1318712 1332345 1344469 1354546 1361969 1365870 1365250 
1872.655 1359274 1347640 1331043 1311240 1290777 1272503 1258876 1251215 
1876.513 1249484 1252218 1256930 1260538 1260053 1252885 1237317 1212736 
1880.370 1179894 1141032 1099818 1060917 1029307 1009276 1003540 1012548 
1884.228 1034598 1066375 1103763 1142835 1180582 1215048 1244980 1269526 
1888.085 1287661 1298014 1299363 1290873 1272648 1245883 1212774 1176139 
1891.942 1139026 1104159 1074113 1051007 1036601 1031990 1037593 1052676 
1895.800 1075367 1102717 1131065 1156484 1175381 1184675 1182328 1167271 
1899.657 1139841 1101987 1057624 1012332 972888 946012 936810 947449 976217 
1903.997 1017806 1064436 1107648 1140253 1157766 1158942 1145314 1119965 
1907.854 1086680 1048834 1009110 969781 932806 899982 872771 851844 836594 
1912.194 825260 815203 803906 789865 773304 756296 742522 735877 739623 
1916.533 754873 780403 812568 846212 875826 896943 907037 906088 896256 
1920.873 880934 863632 847026 832158 818469 804512 788768 770728 751293 
1925.213 732470 716635 705602 699773 697997 698307 698430 697020 693740 
1929.552 689104 683809 678144 671522 663143 652728 641457 632164 628907 
1933.892 635843 655622 688536 732487 783636 837725 891356 942394 989505 
1938.231 1031282 1065392 1088473 1096699 1087295 1059536 1015570 959956 
1942.089 898317 836140 777415 724495 678835 641343 612936 594014 584053 
1946.428 580262 578276 572955 560811 542016 521539 508165 511716 539437 
1950.768 593095 667388 751373 831727 896410 938100 954315 946615 917771 
1955.108 869626 802365 715546 611006 495442 381809 287674 232114 229717 
1959.447 286512 396650 543539 703834 852904 969561 1039995 1057994 1024474 
1963.787 945332 830218 691646 544030 403704 287087 208103 175290 189138 
1968.126 241627 316992 396020 460613 497805 501999 474379 419956 344152 
1972.466 250306 140179 16099 -113427 -230812 -308182 -313122 -216779 -5840 
1976.806 309996 694579 1092541 1443155 1697893 1832595 1850452 1776338 
1980.663 1644365 1487831 1331126 1188139 1064041 959367 874093 808834 764805 
1985.003 741206 734114 736170 739509 738473 733246 730448 740260 772720 
1989.342 832948 918117 1018123 1118492 1205579 1270564 1311548 1332171 
1993.200 1339321 1339055 1335292 1329253 1321486 1313293 1307117 1305190 
1997.057 1307467 1308750 1298623 1263649 1192064 1077853 924035 742588 
2000.915 551078 367323 204674 68864 -40502 -126869 -191937 -233366 -243670 
2005.254 -214386 -140000 -23248 123886 282515 431883 554469 640091 685722 
2009.594 693919 670030 620248 551788 473317 396433 335696 304724 313707 
2013.933 364866 451212 557764 665769 757706 822226 855231 859768 842260 
2018.273 809992 768436 721759 673635 629984 598906 590607 613679 672110 
2022.613 762170 872368 984804 1080109 1140730 1155943 1122294 1044009 930749 
2026.952 794803 648635 503187 366380 243766 139244 56067 -1695 -29082 -19986 
2031.774 31079 126596 264209 434212 620873 803923 962500 1078157 1139299 
2036.114 1141933 1090993 998111 881067 760737 659572 597507 589737 642160 
2040.453 750312 898318 1062131 1214635 1331430 1396925 1407496 1371007 
2044.311 1303374 1223822 1150366 1096710 1071858 1080656 1124766 1201619 
2048.168 1303761 1416652 1520478 1594117 1621272 1596036 1526016 1430063 
2052.025 1333527 1260382 1226742 1235722 1276974 1329995 1372154 1385831 
2055.883 1364387 1311854 1239764 1161144 1085593 1017507 957617 905817 
2059.740 864531 839759 839211 868186 925717 1002664 1083371 1149785 1187085 
2064.080 1188312 1155864 1100005 1035169 975276 930677 906499 903292 917761 
2068.419 944329 975852 1004509 1022734 1024888 1009180 978987 942485 910489 
2072.759 892811 894587 914456 945242 977094 1001825 1016537 1024454 1033189 
2077.099 1050520 1080283 1120260 1162471 1196386 1212967 1207927 1182719 
2080.956 1143086 1096095 1047613 1000573 955906 914023 876748 848003 832777 
2085.296 835013 855832 892190 937841 985123 1027065 1059097 1078479 1083757 
2089.635 1073036 1043710 992885 919703 827053 722542 617713 525789 458536 
2093.975 423763 423951 456892 517541 599708 697230 803214 909699 1006630 
2098.314 1083120 1129409 1140070 1116138 1065738 1001733 938673 888718 
2102.172 858973 850914 861949 887732 924266 968943 1019860 1074415 1128081 
2106.511 1174689 1207781 1222868 1219219 1200640 1174462 1149165 1131781 
2110.369 1125775 1130366 1141432 1152922 1158983 1155320 1139646 1112064 
2114.226 1074478 1030349 984069 940361 903027 874384 853858 838142 821748 
2118.566 798411 763224 713986 651996 581663 509069 440483 380980 333783 
2122.906 300235 279837 270146 267003 264027 253241 226168 175979 99789 91 
2127.727 -115253 -234670 -346230 -440774 -514342 -568408 -607678 -636893 
2131.585 -657958 -668255 -661917 -632690 -577823 -501116 -413081 -329222 
2135.442 -265583 -233932 -239238 -279140 -345688 -428316 -516797 -602947 
2139.300 -681541 -749191 -804534 -847669 -880199 -904975 -926396 -948405 
2143.157 -973842 -1002486 -1031107 -1053922 -1064798 -1059239 -1036493 
2146.532 -1000160 -958022 -919566 -894478 -889948 -909673 -952831 -1014388 
2150.390 -1086299 -1159946 -1227962 -1288084 -1345172 -1412025 -1507282 
2153.765 -1651217 -1858966 -2132846 -2457036 -2796292 -3099560 -3308754 
2157.140 -3371613 -3255158 -2957632 -2513195 -1984669 -1447140 -966714 
2160.515 -585385 -316790 -153109 -75361 -63471 -99422 -169009 -258247 
2164.373 -352091 -433882 -487580 -502600 -476807 -418167 -344041 -276862 
2168.230 -238524 -244640 -302153 -408169 -551963 -717966 -888839 -1047469 
2172.088 -1178551 -1269123 -1309042 -1292626 -1220208 -1099673 -946775 
2175.463 -782515 -629277 -505513 -421421 -377672 -366708 -376143 -393158 
2179.320 -407150 -411354 -402051 -377509 -337425 -282980 -217674 -148337 
2183.178 -84274 -34063 -2156 13825 23865 42110 81750 148825 238581 335982 
2188.000 420928 475645 492028 474900 441008 412215 407793 436726 494963 
2192.339 567414 634854 680712 697518 687953 662758 635267 615752 608351 
2196.679 610067 613622 611295 597372 570194 531970 487028 440908 398876 
2201.018 365855 346153 342816 356397 383908 418602 450969 471763 474906 
2205.358 460559 435093 409850 396275 402016 427890 467700 511170 548803 
2209.698 575817 594369 612550 640188 684199 743863 810560 869437 904735 
2214.037 905339 869436 805611 730329 662821 619703 610125 634304 684510 
2218.377 749052 816837 880864 939820 996966 1057561 1124974 1198514 1271993 
2222.716 1335636 1378842 1394022 1379298 1339881 1286529 1233101 1192798 
2226.574 1174468 1181034 1208824 1249742 1293740 1331271 1355384 1362578 
2230.431 1352485 1326794 1288205 1239599 1184094 1124907 1066231 1013056 
2234.289 971386 947404 946270 970818 1020783 1091762 1175802 1262181 1339381 
2238.628 1397221 1428844 1431877 1409043 1366906 1314120 1259301 1209100 
2242.486 1167129 1134211 1109197 1090962 1079278 1075411 1081870 1101426 
2246.343 1135601 1183801 1242988 1308250 1373569 1432978 1481273 1514780 
2250.200 1531220 1529927 1511702 1479278 1436817 1390209 1345972 1310521 
2254.058 1288740 1283264 1293788 1317625 1350322 1386895 1422624 1453659 
2257.915 1477206 1491249 1494759 1487911 1472220 1450931 1428810 1411518 
2261.773 1404239 1410447 1430789 1463124 1502983 1545124 1584959 1619692 
2265.630 1648619 1672512 1692554 1709505 1722544 1730007 1729885 1720973 
2269.488 1703848 1681180 1657291 1637453 1626561 1628230 1643862 1672392 
2273.345 1710492 1753000 1793940 1827605 1849850 1859085 1856997 1848121 
2277.202 1838803 1835587 1843219 1863671 1895489 1934946 1977395 2019363 
2281.060 2059437 2098639 2138917 2182003 2227453 2272362 2311803 2340495 
2284.917 2354772 2353981 2340675 2319966 2297422 2277612 2262574 2251836 
2288.775 2243173 2233754 2221463 2205652 2186960 2166618 2145783 2124912 
2292.632 2103580 2081040 2056526 2030029 2002210 1974642 1949250 1927941 
2296.490 1912336 1903515 1901850 1906890 1917343 1931038 1945309 1957411 
2300.347 1965244 1967795 1965570 1960375 1954531 1950443 1949397 1951611 
2304.204 1956239 1961834 1967143 1971583 1975299 1978892 1983087 1988251 
2308.062 1994314 2000918 2007721 2014682 2022123 2030481 2040031 2050586 
2311.919 2061444 2071681 2080429 2087444 2093201 2098837 2105766 2115268 
2315.777 2128051 2144023 2162420 2182027 2201646 2220720 2239702 2260613 
2319.634 2286772 2322333 2370995 2434367 2510311 2591893 2667717 2723837 
2323.491 2746668 2726486 2659922 2551164 2411115 2255025 2099458 1959001 
2327.349 1843674 1757763 1699893 1664839 1645463 1635275 1629446 1625420 
2331.206 1622021 1618753 1614871 1609339 1601049 1589559 1575489 1560614 
2335.064 1547416 1538174 1534374 1536270 1542876 1552434 1562894 1572484 
2338.921 1579908 1584304 1585229 1582508 1576288 1567119 1555946 1544203 
2342.779 1533457 1525142 1520167 1518666 1519949 1522659 1525149 1525637 
2346.636 1522762 1515702 1504480 1489876 1473570 1457829 1445084 1437508 
2350.493 1436499 1442102 1453122 1467229 1481502 1493149 1500140 1501516 
2354.351 1497660 1489860 1479904 1469580 1460195 1452273 1445480 1438828 
2358.208 1430691 1419557 1404029 1383513 1358483 1330399 1301630 1274790 
2362.066 1252231 1235405 1224421 1218070 1214221 1210497 1204750 1195829 
2365.923 1183615 1169034 1153719 1139527 1128177 1120926 1118608 1121335 
2369.781 1128763 1140022 1153804 1168666 1183067 1195783 1205952 1213341 
2373.638 1218282 1221459 1223753 1226056 1228926 1232760 1237616 1243311 
2377.495 1249575 1255905 1261864 1267034 1271026 1273663 1274966 1275177 
2381.353 1274788 1274455 1275049 1277489 1282616 1291000 1302652 1316830 
2385.210 1332073 1346395 1357640 1364244 1365665 1362703 1357254 1351892 
2389.068 1348893 1349727 1354539 1362380 1371621 1380721 1388670 1395208 
2392.925 1400511 1404869 1408215 1410163 1410189 1408229 1404956 1401819 
2396.782 1400708 1403019 1409131 1418041 1427542 1435083 1438652 1437602 
2400.640 1432722 1425896 1419270 1414424 1411771 1410763 1410432 1410070 
2404.497 1409706 1410401 1413584 1420364 1430897 1444063 1457576 1468733 
2408.355 1475161 1475602 1470255 1460744 1449683 1440004 1434193 1433719 
2412.212 1438705 1447769 1458533 1468150 1474114 1475000 1471042 1463991 
2416.070 1456434 1451237 1450162 1453416 1459563 1466118 1470271 1470157 
2419.927 1465109 1455903 1444230 1432026 1420948 1412177 1406576 1404977 
2423.784 1408414 1417861 1433737 1455430 1480813 1506667 1529186 1545181 
2427.642 1552924 1552473 1545367 1533971 1520302 1505665 1490551 1475098 
2431.499 1459886 1446451 1437146 1434580 1440495 1455005 1476025 1499856 
2435.357 1521958 1538422 1546811 1546724 1539623 1528160 1515194 1503076 
2439.214 1493316 1486332 1481649 1478342 1475148 1470920 1464819 1456657 
2443.072 1447057 1437519 1430095 1427061 1430167 1440197 1456558 1477317 
2446.929 1499634 1520492 1537214 1548035 1552374 1550695 1544371 1535310 
2450.786 1525545 1516989 1510927 1508060 1507862 1509213 1510408 1509765 
2454.644 1506218 1499840 1491685 1483660 1477770 1475353 1476798 1481192 
2458.501 1486843 1491761 1494408 1494032 1490869 1485895 1480423 1475643 
2462.359 1472392 1471075 1471760 1474184 1478056 1482850 1488118 1493495 
2466.216 1498626 1503635 1508580 1513858 1519644 1525831 1531979 1537259 
2470.073 1540963 1542609 1542287 1540602 1538319 1535877 1533192 1529385 
2473.931 1523132 1513093 1498603 1480034 1458918 1437622 1418776 1404798 
2477.788 1397303 1397009 1403612 1416028 1432479 1450813 1468482 1482977 
2481.646 1492294 1495260 1492081 1484430 1475100 1467543 1464708 1468539 
2485.503 1479159 1495204 1514073 1533069 1549952 1563808 1575020 1585106 
2489.361 1595935 1608962 1624533 1641520 1657376 1668621 1671660 1663940 
2493.218 1644752 1615664 1580518 1544657 1513673 1492142 1482445 1484341 
2497.075 1495431 1512031 1530386 1547826 1563211 1576804 1589605 1602464 
2500.933 1615615 1628351 1639630 1648582 1655113 1659921 1664326 1669550 
2504.790 1675989 1682879 1688574 1690923 1688254 1679931 1666780 1650816 
2508.648 1634738 1621180 1612149 1608644 1610684 1617469 1627755 1640055 
2512.505 1652954 1665123 1675463 1683101 1687518 1688595 1686667 1682470 
2516.363 1677112 1671819 1667769 1666031 1667010 1670711 1676455 1682939 
2520.220 1688730 1692327 1692838 1690098 1684685 1677784 1670771 1664672 
2524.077 1660125 1657096 1655307 1654408 1654392 1655473 1658033 1662090 
2527.935 1667211 1672258 1675683 1676121 1672713 1665720 1656426 1646807 
2531.792 1639006 1634754 1634937 1639601 1648068 1659488 1672959 1687785 
2535.650 1703275 1718628 1732673 1744044 1751269 1753251 1749619 1741174 
2539.507 1729581 1717250 1706659 1699587 1696789 1697649 1700504 1703034 
2543.365 1703023 1699074 1691008 1679865 1667657 1656696 1648995 1645684 
2547.222 1646998 1652348 1660733 1671189 1683064 1696008 1709808 1724086 
2551.079 1738209 1751282 1762437 1771251 1777792 1782606 1786348 1789352 
2554.937 1791264 1790965 1786992 1778085 1763942 1745424 1724672 1704570 
2558.794 1688010 1677257 1673458 1676606 1685932 1700095 1717575 1736944 
2562.652 1756556 1774721 1789606 1799491 1803301 1800954 1793656 1783781 
2566.509 1774439 1768629 1768598 1775249 1788025 1805158 1824040 1842325 
2570.366 1858100 1870643 1880091 1887524 1894335 1901696 1910265 1919948 
2574.224 1929922 1939024 1946184 1950847 1953323 1954618 1956279 1959825 
2578.081 1966112 1975148 1985989 1997096 2006676 2013345 2016437 2016056 
2581.939 2012906 2007898 2001922 1995534 1989066 1982753 1977003 1972561 
2585.796 1970399 1971621 1976987 1986630 1999960 2015540 2031459 2045771 
2589.654 2056908 2064266 2068016 2069170 2069144 2069136 2069827 2071078 
2593.511 2072084 2071796 2069291 2064483 2058036 2051586 2046956 2045864 
2597.368 2049276 2057090 2068282 2081145 2093691 2104153 2111153 2114011 
2601.226 2112559 2107225 2099025 2089408 2080254 2073435 2070620 2072682 
2605.083 2079290 2089066 2099603 2108174 2112488 2111321 2104915 2094880 
2608.941 2083857 2074802 2070342 2072169 2080815 2095591 2114782 2136055 
2612.798 2156864 2174956 2188714 2197507 2201798 2202982 2203140 2204360 
2616.656 2208461 2216188 2227272 2240447 2253700 2264896 2272201 2274461 
2620.513 2271541 2264190 2253922 2242667 2232455 2224898 2220991 2220930 
2624.370 2224255 2230038 2237357 2245753 2255298 2266595 2280349 2296854 
2628.228 2315446 2334520 2351709 2364601 2371440 2371768 2366667 2358466 
2632.085 2349979 2343767 2341445 2343504 2349384 2358083 2368443 2379690 
2635.943 2391379 2403287 2415121 2426317 2435982 2443375 2447787 2449127 
2639.800 2447770 2444490 2440209 2435765 2431605 2428061 2425178 2422946 
2643.657 2421366 2420349 2419654 2418931 2417699 2415373 2411649 2406580 
2647.515 2400560 2394234 2388354 2383449 2379652 2376706 2374100 2371196 
2651.372 2367574 2363207 2358228 2353050 2347978 2343146 2338348 2333118 
2655.230 2326908 2319341 2310253 2299905 2288864 2277819 2267274 2257472 
2659.087 2248224 2239009 2229055 2217670 2204322 2188777 2171100 2151513 
2662.945 2130369 2108024 2084832 2061276 2037986 2015771 1995583 1978320 
2666.802 1964739 1955162 1949511 1947337 1947923 1950470 1954267 1958561 
2670.659 1962766 1966289 1968571 1969124 1967678 1964322 1959406 1953668 
2674.517 1947983 1943107 1939554 1937515 1936836 1937068 1937777 1938532 
2678.374 1939080 1939329 1939245 1938836 1938128 1937113 1935746 1933980 
2682.232 1931761 1929081 1925912 1922290 1918341 1914254 1910213 1906476 
2686.089 1903137 1900221 1897558 1894849 1891849 1888395 1884514 1880515 
2689.947 1876912 1874350 1873453 1874741 1878439 1884405 1892123 1900660 
2693.804 1908902 1915632 1919813 1920974 1919202 1915296 1910516 1906389 
2697.661 1904141 1904481 1907311 1911906 1916875 1920746 1922198 1920440 
2701.519 1915342 1907458 1897898 1888179 1879778 1873933 1871372 1872061 
2705.376 1875263 1879778 1884323 1887812 1889880 1890819 1891492 1892805 
2709.234 1895395 1899281 1903890 1908272 1911570 1913343 1913747 1913403 
2713.091 1912893 1912639 1912513 1912066 1910816 1908576 1905787 1903217 
2716.948 1901789 1901999 1903636 1905841 1907405 1907423 1905719 1902943 
2720.806 1900403 1899393 1900674 1904035 1908351 1912155 1914062 1913520 
2724.663 1910740 1906756 1902780 1899758 1898184 1898015 1898837 1900284 
2728.521 1902099 1904153 1906217 1908061 1909308 1909692 1909265 1908627 
2732.378 1908817 1910884 1915473 1922374 1930420 1937787 1942587 1943455 
2736.236 1940157 1933587 1925494 1917924 1912610 1910513 1911780 1915927 
2740.093 1922039 1929179 1936478 1943318 1949145 1953616 1956519 1957907 
2743.950 1958048 1957274 1956046 1954540 1952803 1950657 1948003 1944977 
2747.808 1942005 1939820 1939151 1940509 1943841 1948664 1954082 1959067 
2751.665 1962858 1964898 1965048 1963370 1959949 1955107 1949132 1942775 
2755.523 1937000 1933042 1931998 1934564 1940593 1949096 1958541 1967134 
2759.380 1973482 1976690 1976803 1974349 1970155 1965021 1959530 1954076 
2763.238 1948992 1944837 1942254 1941969 1944505 1949808 1957255 1965600 
2767.095 1973314 1978822 1981115 1979707 1974951 1967776 1959481 1951547 
2770.952 1945177 1941233 1940124 1941721 1945439 1950474 1955904 1961065 
2774.810 1965536 1969336 1972688 1976032 1979723 1983930 1988606 1993565 
2778.667 1998441 2002907 2006644 2009427 2011153 2011811 2011625 2010943 
2782.525 2010355 2010365 2011351 2013284 2015772 2018035 2019219 2018762 
2786.382 2016642 2013386 2010147 2008082 2008204 2010947 2016171 2023277 
2790.240 2031514 2040289 2049304 2058652 2068502 2079034 2090181 2101692 
2794.097 2113283 2124643 2135518 2145785 2155141 2163152 2169138 2172484 
2797.954 2172727 2170043 2165329 2159980 2155735 2154075 2155901 2161345 
2801.812 2169891 2180662 2192751 2205612 2219083 2233166 2247890 2263074 
2805.669 2278228 2292602 2305495 2316383 2325068 2331707 2336565 2339993 
2809.527 2342273 2343767 2344890 2346261 2348638 2352783 2359000 2367101 
2813.384 2376156 2384748 2391412 2395180 2396047 2394982 2393984 2395184 
2817.241 2400467 2410818 2425887 2444422 2464376 2483863 2501309 2516092 
2821.099 2528344 2538759 2548166 2557290 2566590 2576266 2586472 2597418 
2824.956 2609592 2623549 2639771 2658479 2679454 2701992 2725048 2747541 
2828.814 2768618 2787845 2805316 2821528 2837298 2853429 2870614 2889152 
2832.671 2909208 2930754 2953840 2978534 3005128 3033738 3064378 3096586 
2836.529 3129382 3161513 3191618 3218631 3242203 3262793 3281644 3300456 
2840.386 3320852 3344073 3370788 3401041 3434806 3472156 3513601 3560203 
2844.243 3613048 3672942 3739958 3813130 3890629 3970055 4049001 4125233 
2848.101 4196901 4262282 4319578 4366600 4401041 4420626 4424055 4411380 
2851.958 4384351 4346177 4300958 4252726 4204663 4158599 4115009 4073454 
2855.816 4033130 3993402 3954242 3916027 3879493 3845174 3813353 3783981 
2859.673 3756706 3731215 3707449 3685680 3666556 3650796 3639281 3632549 
2863.531 3631031 3634740 3643414 3656460 3673258 3693007 3715153 3739365 
2867.388 3765655 3794282 3825609 3859934 3897262 3937291 3979487 4023282 
2871.245 4068248 4114294 4161682 4210708 4261680 4314541 4368892 4423895 
2875.103 4478595 4532061 4583610 4632824 4679617 4724058 4766259 4806179 
2878.960 4843547 4877683 4907603 4932098 4949873 4959859 4961533 4955081 
2882.818 4941651 4923130 4901845 4880098 4859758 4841930 4827078 4815006 
2886.675 4805434 4798027 4792676 4789281 4787684 4787370 4787452 4787107 
2890.532 4785697 4783372 4780994 4780228 4782977 4790744 4804251 4823114 
2894.390 4846011 4871054 4896437 4920827 4943593 4964830 4985011 5004871 
2898.247 5024999 5045968 5068185 5092054 5117857 5145734 5175381 5206143 
2902.105 5236895 5266488 5293932 5318822 5341465 5362795 5384033 5406448 
2905.962 5430873 5457622 5486700 5517796 5550771 5585719 5622965 5663045 
2909.820 5706510 5753898 5805752 5862602 5925077 5993906 6069657 6152530 
2913.677 6241973 6336704 6434687 6533384 6630226 6722872 6809598 6889195 
2917.534 6960891 7024280 7079090 7125284 7163058 7192916 7215611 7232056 
2921.392 7242985 7248845 7249763 7245678 7236713 7223478 7207133 7189349 
2925.249 7171931 7156211 7142959 7132024 7122890 7114912 7108041 7102839 
2929.107 7100601 7102756 7110360 7123741 7142434 7165533 7192325 7222944 
2932.964 7258559 7301387 7354109 7419142 7498067 7591123 7697664 7816130 
2936.822 7944755 8081874 8226016 8375798 8529864 8686560 8844069 9000472 
2940.679 9153860 9302363 9444180 9577192 9699063 9806959 9898064 9969728 
2944.536 10020224 10048681 10055426 10041435 10008206 9957086 9889404 
2947.912 9806217 9708839 9598943 9478659 9350460 9216835 9079918 8941272 
2951.769 8801895 8662541 8523935 8387221 8253804 8125189 8002632 7886620 
2955.626 7776867 7672413 7571961 7474413 7379263 7286695 7197483 7112667 
2959.484 7033059 6959034 6890420 6826663 6766765 6709873 6655159 6602096 
2963.341 6550254 6499349 6449304 6400221 6352444 6306433 6262768 6222001 
2967.199 6184286 6149521 6117229 6086759 6057452 6028915 6001047 5973989 
2971.056 5948236 5924152 5902125 5882487 5865586 5852094 5842817 5838855 
2974.914 5841494 5851599 5869643 5895239 5927343 5964495 6005079 6047993 
2978.771 6092798 6139980 6190747 6246771 6309886 6381654 6463130 6554928 
2982.628 6657213 6769763 6892265 7024376 7165742 7316097 7475105 7642385 
2986.486 7817425 7999427 8187148 8378871 8572514 8765571 8955523 9139924 
2990.343 9316849 9484635 9642150 9788381 9922291 10042749 10148472 10238290 
2994.201 10311204 10366773 10405061 10426510 10431717 10421154 10394940 
2997.576 10352891 10294586 10219850 10128893 10022850 9903443 9773157 
3000.951 9634709 9490719 9343275 9193712 9042303 8888798 8732254 8571865 
3004.809 8407219 8238625 8067360 7895484 7725365 7559252 7398684 7244231 
3008.666 7095477 6951160 6809752 6670101 6531270 6393098 6256024 6120464 
3012.523 5987070 5856184 5728079 5602967 5481166 5363144 5249550 5140913 
3016.381 5037734 4940260 4848763 4763334 4683989 4610612 4542857 4479887 
3020.238 4420499 4363096 4306154 4248518 4189770 4130122 4070554 4012204 
3024.096 3956019 3902318 3850841 3800730 3751046 3701035 3650542 3599981 
3027.953 3550269 3502477 3457694 3416643 3379608 3346589 3317243 3291107 
3031.811 3267667 3246365 3226821 3208539 3191099 3174264 3157640 3141076 
3035.668 3124396 3107639 3090880 3074314 3058073 3042128 3026417 3010600 
3039.525 2994532 2978131 2961728 2946063 2931971 2920184 2910816 2903249 
3043.383 2896009 2887449 2875959 2860981 2842990 2823810 2805720 2791080 
3047.240 2781324 2776743 2776347 2778519 2781373 2783391 2783769 2782217 
3051.098 2778950 2774290 2768729 2762898 2757685 2754391 2754268 2758330 
3054.955 2766703 2778582 2792100 2805003 2815242 2821739 2824575 2824761 
3058.813 2823664 2822390 2821240 2819717 2816919 2812308 2806058 2799288 
3062.670 2793615 2790572 2790784 2793617 2797385 2799838 2799199 2794629 
3066.527 2786747 2777245 2768270 2761814 2758875 2759599 2763220 2768680 
3070.385 2775004 2781601 2788241 2794862 2801319 2807155 2811578 2813798 
3074.242 2813147 2809499 2803343 2795759 2788174 2782147 2778982 2779386 
3078.100 2783549 2791005 2800682 2811279 2821287 2829369 2834358 2835531 
3081.957 2832491 2825289 2814391 2800769 2785641 2770594 2757254 2747063 
3085.814 2740897 2738956 2740532 2744333 2748562 2751571 2752262 2750236 
3089.672 2746079 2740969 2736307 2733442 2733146 2735486 2739866 2745229 
3093.529 2750229 2753786 2755157 2754330 2751744 2748467 2745597 2743972 
3097.387 2743886 2744994 2746427 2747127 2746192 2743432 2739362 2735060 
3101.244 2731909 2731002 2732717 2736740 2742275 2748420 2754547 2760613 
3105.102 2766890 2773800 2781301 2788877 2795269 2799308 2800079 2797580 
3108.959 2792703 2787173 2782662 2780527 2781115 2783945 2788029 2792451 
3112.816 2796800 2801340 2806861 2814122 2823378 2834174 2845303 2855233 
3116.674 2862541 2866180 2865853 2861759 2854350 2844343 2832561 2820142 
3120.531 2808365 2799119 2794103 2794662 2801218 2812848 2827641 2842990 
3124.389 2856400 2866368 2872341 2874932 2875185 2874232 2872495 2869900 
3128.246 2866076 2860780 2854551 2848595 2844586 2844049 2847909 2856040 
3132.104 2867533 2881035 2895389 2909993 2924699 2939591 2954298 2967620 
3135.961 2977676 2982276 2979834 2970051 2954411 2935771 2917905 2904199 
3139.818 2897058 2897237 2903868 2915223 2929176 2944028 2958621 2972495 
3143.676 2985512 2997619 3008771 3018906 3028010 3036275 3043893 3051087 
3147.533 3057719 3063339 3067349 3069185 3068673 3066400 3063411 3061072 
3151.391 3060334 3061549 3064122 3066663 3067591 3065635 3060279 3052154 
3155.248 3042776 3034207 3028535 3027329 3031460 3040940 3054938 3071991 
3159.105 3090229 3107629 3122381 3133034 3138859 3140002 3137330 3132266 
3162.963 3126471 3121405 3118149 3117133 3118531 3122203 3128098 3136301 
3166.820 3147008 3160297 3176040 3193604 3212036 3230250 3247062 3261537 
3170.678 3273027 3281208 3285871 3286974 3284588 3279058 3271050 3261672 
3174.535 3252346 3244526 3239385 3237507 3238688 3242079 3246558 3250964 
3178.393 3254832 3258183 3261708 3266313 3272720 3281160 3291220 3302094 
3182.250 3312724 3322569 3331564 3340313 3349811 3361031 3374494 3390040 
3186.107 3406921 3424112 3440586 3455896 3469957 3483231 3496154 3508897 
3189.965 3521135 3532043 3540744 3546540 3549225 3549261 3547605 3545352 
3193.822 3543585 3542948 3543798 3546233 3550146 3555418 3561779 3568663 
3197.680 3575191 3580341 3583295 3583780 3582286 3580334 3579840 3582654 
3201.537 3589800 3601173 3615426 3630348 3643662 3653713 3659822 3662400 
3205.395 3662439 3661060 3659080 3656729 3653929 3650595 3646986 3643944 
3209.252 3642701 3644580 3650511 3660690 3674456 3690523 3707316 3723395 
3213.109 3737829 3750431 3761540 3772061 3782903 3794789 3807949 3822057 
3216.967 3836147 3849126 3859961 3868137 3873716 3877443 3880240 3882927 
3220.824 3885780 3888545 3890609 3891388 3890851 3889742 3889258 3890741 
3224.682 3894849 3901244 3908618 3915006 3918977 3919980 3918983 3918028 
3228.539 3919482 3924986 3934782 3947631 3961178 3973110 3981931 3987538 
3232.396 3991174 3994733 3999892 4007522 4017228 4027818 4037762 4045834 
3236.254 4051359 4054313 4055082 4054174 4052116 4049595 4047745 4048127 
3240.111 4052751 4063322 4080971 4105483 4135093 4166866 4197138 4222454 
3243.969 4240115 4248833 4248555 4240665 4227342 4211547 4196290 4184278 
3247.826 4177561 4176984 4182006 4190921 4201194 4210426 4217053 4220798 
3251.684 4222634 4224315 4227473 4232797 4239778 4246761 4251736 4253366 
3255.541 4251483 4247389 4243504 4242497 4246362 4255911 4270549 4288653 
3259.398 4308267 4327678 4345883 4362703 4378437 4393764 4409176 4424928 
3263.256 4440887 4456618 4471417 4484492 4495114 4502735 4507310 4509271 
3267.113 4509736 4510122 4511950 4516383 4523836 4533977 4545618 4557253 
3270.971 4567427 4575129 4580103 4582681 4583781 4584424 4585647 4588161 
3274.828 4592377 4598466 4606307 4615675 4626066 4636999 4647756 4657564 
3278.686 4665601 4671024 4673239 4671881 4667077 4659495 4650249 4640912 
3282.543 4633111 4628229 4627145 4629914 4635845 4643653 4651915 4659222 
3286.400 4664562 4667509 4667957 4666177 4662550 4657515 4651702 4645830 
3290.258 4640801 4637652 4637239 4640138 4646248 4655054 4665532 4676486 
3294.115 4686723 4695495 4702263 4706867 4709226 4709418 4707623 4704010 
3297.973 4698996 4693223 4687540 4682781 4679703 4678749 4680020 4683314 
3301.830 4688158 4693975 4700348 4706824 4713212 4719466 4725563 4731618 
3305.688 4737571 4743334 4748533 4752702 4755185 4755379 4753013 4748278 
3309.545 4741977 4735493 4730516 4728654 4731066 4737969 4748776 4761834 
3313.402 4775009 4786147 4793552 4796453 4795038 4790511 4784563 4778897 
3317.260 4774786 4772651 4772162 4772481 4772594 4771946 4770558 4768976 
3321.117 4768168 4768837 4771145 4774637 4778231 4780916 4781941 4781393 
3324.975 4780026 4779022 4779486 4781865 4785852 4790488 4794544 4797131 
3328.832 4798111 4798065 4798179 4799648 4803378 4809653 4818178 4828429 
3332.689 4839871 4852184 4865405 4879418 4893813 4907632 4919396 4927529 
3336.547 4930780 4928610 4921498 4910847 4898377 4885833 4874272 4863876 
3340.404 4854106 4843981 4832524 4819405 4804934 4790333 4777160 4767007 
3344.262 4760825 4758924 4760697 4764900 4770089 4774947 4778500 4780289 
3348.119 4780152 4778031 4773880 4767469 4758912 4748723 4738350 4729969 
3351.977 4726198 4729333 4740675 4759688 4783865 4809132 4830734 4844380 
3355.834 4847421 4839415 4822198 4799197 4774549 4751921 4733693 4720646 
3359.691 4712092 4706306 4701393 4695846 4688985 4681169 4673477 4667452 
3363.549 4664554 4665729 4670945 4679303 4688919 4697618 4703036 4703468 
3367.406 4698047 4687047 4671805 4654418 4637200 4622376 4611340 4604658 
3371.264 4601882 4601664 4602357 4602288 4600305 4596061 4590108 4583623 
3375.121 4578255 4575494 4576298 4581002 4589172 4599826 4611755 4623675 
3378.979 4634468 4643103 4648771 4650798 4648640 4642087 4631347 4617008 
3382.836 4599960 4581117 4561264 4540993 4520567 4500302 4480622 4462339 
3386.693 4446400 4433883 4425410 4421009 4419971 4421156 4423243 4425168 
3390.551 4426342 4426705 4426490 4426007 4425397 4424775 4424013 4423251 
3394.408 4422663 4422445 4422540 4422553 4421662 4418916 4413813 4406448 
3398.266 4397770 4389345 4382648 4378570 4376766 4376028 4374513 4370803 
3402.123 4364410 4356367 4348705 4343851 4343596 4348555 4357711 4368891 
3405.980 4379424 4386950 4389978 4387971 4381253 4370648 4357099 4341662 
3409.838 4325385 4309350 4294719 4282494 4273244 4267006 4263210 4261008 
3413.695 4259736 4259138 4259646 4262007 4266859 4274218 4283046 4291353 
3417.553 4296610 4296493 4289638 4276042 4257127 4235423 4213750 4194873 
3421.410 4180540 4171485 4167316 4166958 4168839 4171480 4173654 4174628 
3425.268 4174176 4172627 4170483 4168373 4166951 4166778 4168146 4171198 
3429.125 4175768 4181299 4186925 4191359 4193200 4191204 4184729 4174124 
3432.982 4160768 4146978 4135219 4127669 4125078 4126862 4130707 4133627 
3436.840 4132557 4125327 4111352 4091626 4068512 4044846 4023495 4006637 
3440.697 3995466 3990183 3990133 3994136 4000599 4007756 4013837 4017353 
3444.555 4017060 4012440 4003715 3991998 3978882 3966516 3956890 3951579 
3448.412 3951205 3955324 3962261 3969434 3973827 3972833 3964863 3950129 
3452.270 3930542 3909485 3890855 3878129 3873057 3875395 3883066 3892832 
3456.127 3901389 3906564 3907603 3905432 3901838 3898842 3897950 3899835 
3459.984 3904379 3911160 3919484 3928882 3938719 3948265 3956364 3961840 
3463.842 3963581 3961258 3955445 3947556 3939465 3932787 3928371 3926217 
3467.699 3925395 3925033 3924387 3923482 3922717 3922495 3922674 3922476 
3471.557 3920589 3915891 3908111 3898227 3888435 3881333 3879037 3882328 
3475.414 3890452 3901273 3912275 3921566 3928140 3932233 3934552 3935701 
3479.271 3935595 3933443 3928449 3920306 3909806 3899162 3891072 3887999 
3483.129 3891154 3899971 3912487 3926025 3938359 3948553 3957184 3965914 
3486.986 3976768 3991067 4009061 4029791 4051611 4072703 4091652 4107747 
3490.844 4120674 4130585 4137671 4142273 4145021 4147033 4149628 4154127 
3494.701 4161328 4171008 4181905 4191983 4199183 4202275 4201152 4197036 
3498.559 4191668 4186717 4182955 4180111 4177229 4173239 4167756 4161545 
3502.416 4155953 4152637 4152492 4155247 4159482 4163253 4164923 4163968 
3506.273 4161043 4157567 4154903 4153552 4152629 4150345 4144488 4133813 
3510.131 4118418 4099949 4080952 4063934 4050272 4039918 4031377 4022632 
3513.988 4011948 3998501 3982637 3965538 3948473 3932170 3916617 3901110 
3517.846 3884799 3867277 3848784 3830324 3813261 3798705 3787267 3778698 
3521.703 3772159 3766277 3759902 3751887 3741490 3728171 3711512 3691427 
3525.561 3668002 3641895 3614206 3586693 3561260 3539843 3523830 3513771 
3529.418 3509274 3508832 3510245 3511048 3508918 3502201 3490467 3474444 
3533.275 3455940 3437397 3421126 3408900 3401018 3396728 3394065 3390682 
3537.133 3384483 3374233 3359836 3342284 3323172 3304333 3287264 3272900 
3540.990 3261458 3252614 3245602 3239403 3232938 3225347 3216121 3205552 
3544.848 3194608 3185041 3178806 3177475 3181482 3189629 3198991 3205715 
3548.705 3205803 3196394 3176837 3148947 3116708 3085308 3059798 3043697 
3552.563 3038323 3042626 3053654 3067484 3080215 3088959 3091999 3089172 
3556.420 3081393 3070366 3057991 3046022 3035769 3027920 3022450 3018698 
3560.277 3015607 3011937 3006582 2999144 2989888 2979835 2970515 2963418 
3564.135 2959751 2959706 2962598 2967021 2971300 2974015 2974598 2973289 
3567.992 2971016 2968850 2967383 2966385 2964749 2960990 2953732 2942590 
3571.850 2928406 2913122 2899151 2888626 2882418 2880008 2879540 2878722 
3575.707 2875562 2869118 2859848 2849309 2839263 2830989 2824633 2819230 
3579.564 2813076 2804578 2792962 2778686 2763394 2749318 2738598 2732564 
3583.422 2731240 2733541 2737619 2741360 2742889 2741057 2735392 2726205 
3587.279 2714356 2701054 2687530 2674864 2663562 2653685 2644375 2634493 
3591.137 2622554 2607501 2589131 2568241 2546791 2527263 2512064 2502792 
3594.994 2499703 2501551 2506075 2510613 2513033 2512255 2508618 2503697 
3598.852 2499441 2497521 2498644 2502191 2506187 2508098 2505524 2496983 
3602.709 2482290 2462781 2440843 2419243 2400428 2386171 2377030 2372969 
3606.566 2373177 2376891 2383410 2392286 2403155 2415533 2428681 2441529 
3610.424 2453009 2462196 2468493 2471983 2473152 2472716 2471587 2470372 
3614.281 2469546 2469303 2469754 2471155 2473553 2477109 2481725 2487073 
3618.139 2492641 2497955 2502808 2507296 2512042 2517825 2525341 2534663 
3621.996 2545319 2555916 2564686 2569945 2570507 2566089 2557458 2546225 
3625.854 2534270 2523411 2514894 2509441 2507149 2507788 2511236 2517434 
3629.711 2526518 2538599 2553532 2570672 2589017 2607210 2623745 2637434 
3633.568 2647394 2653292 2655260 2653641 2648885 2641690 2632681 2622775 
3637.426 2613112 2605150 2600226 2599676 2604262 2614096 2628618 2646825 
3641.283 2667529 2689579 2712288 2735214 2758138 2780666 2802158 2821507 
3645.141 2837188 2847807 2852464 2851180 2845000 2836123 2827110 2820827 
3648.998 2819279 2823554 2833504 2848039 2865362 2883578 2900816 2915754 
3652.855 2927369 2935092 2938821 2938938 2936279 2932102 2927998 2925212 
3656.713 2924525 2925638 2927296 2927472 2924264 2916340 2903560 2886925 
3660.570 2868262 2849572 2832164 2816555 2802154 2788419 2774939 2762483 
3664.428 2752705 2747581 2748598 2755731 2766921 2778497 2785972 2785510 
3668.285 2774968 2754579 2726891 2695899 2665894 2640252 2620801 2607642 
3672.143 2599526 2594438 2590053 2584381 2575826 2563284 2546473 2525959 
3676.000 2503364 2481175 2462174 2448801 2442155 2441832 2445568 2450221 
3679.857 2452350 2449600 2441228 2428396 2413296 2398688 2386320 2376934 
3683.715 2369738 2363198 2355974 2347572 2338549 2330366 2324425 2321382 
3687.572 2320521 2319683 2315995 2306972 2291488 2270285 2246065 2222463 
3691.430 2202988 2189982 2183980 2183720 2186734 2190245 2191958 2190569 
3695.287 2185617 2177325 2165842 2151352 2133719 2113390 2091320 2069657 
3699.145 2051083 2038750 2034893 2040547 2054835 2075438 2098957 2122050 
3703.002 2142007 2157246 2167253 2172200 2172632 2169119 2162283 2152957 
3706.859 2142135 2131298 2121741 2114536 2109781 2106793 2104053 2100042 
3710.717 2093602 2084744 2074401 2064517 2057136 2053927 2055739 2062249 
3714.574 2072403 2084741 2097594 2109567 2119534 2126684 2130592 2131155 
3718.432 2128635 2123805 2117588 2111144 2105399 2101101 2098375 2097223 
3722.289 2097495 2099078 2102025 2106459 2112145 2118507 2124258 2127898 
3726.146 2128123 2124245 2116813 2107440 2098440 2092229 2090234 2092783 
3730.004 2098624 2105545 2111377 2114543 2115017 2114300 2114761 2118932 
3733.861 2128430 2143210 2161431 2180034 2195558 2205290 2208059 2204503 
3737.719 2196729 2187509 2179418 2174011 2171679 2171721 2172893 2173951 
3741.576 2174219 2173444 2171726 2169316 2166164 2162018 2156413 2149197 
3745.434 2140609 2131353 2122498 2114998 2109548 2106234 2104643 2104222 
3749.291 2104291 2104574 2104996 2105695 2106695 2107646 2107942 2106651 
3753.148 2102979 2096573 2087683 2077179 2066357 2056567 2049043 2044529 
3757.006 2043254 2045168 2049855 2057104 2066563 2078357 2092377 2108547 
3760.863 2126363 2144791 2162355 2177323 2188089 2193651 2193995 2190181 
3764.721 2184217 2178428 2174775 2174308 2176723 2180771 2184516 2186491 
3768.578 2186050 2183786 2181141 2180028 2181624 2186106 2192223 2197874 
3772.436 2200701 2199070 2192508 2181980 2169434 2157204 2147074 2139997 
3776.293 2135618 2132620 2129394 2124404 2116813 2106760 2095259 2083960 
3780.150 2074687 2069003 2067846 2071497 2079375 2090505 2103581 2117283 
3784.008 2130367 2141842 2150970 2157242 2160478 2160957 2159197 2156320 
3787.865 2153339 2151146 2150034 2149557 2148456 2145409 2139434 2130621 
3791.723 2120355 2111118 2105748 2106347 2113438 2125498 2139306 2150686 
3795.580 2156043 2153284 2142433 2125640 2106284 2087958 2073516 2064423 
3799.438 2060887 2062130 2066880 2074079 2082696 2092068 2101533 2110464 
3803.295 2118160 2124173 2128183 2130227 2130459 2129081 2125928 2120665 
3807.152 2112923 2102650 2090381 2077522 2066117 2058392 2056160 2060242 
3811.010 2070232 2084458 2100518 2115880 2128559 2137493 2142614 2144601 
3814.867 2144500 2143119 2140880 2137808 2133620 2128125 2121539 2114542 
3818.725 2108120 2103273 2100629 2100035 2100762 2101553 2101151 2098941 
3822.582 2095050 2090505 2086778 2085528 2087728 2093715 2103054 2114668 
3826.439 2127325 2139743 2150918 2160041 2166494 2169710 2169482 2165924 
3830.297 2159730 2152005 2144085 2137243 2132085 2128598 2126177 2124039 
3834.154 2121655 2119078 2116887 2115892 2116673 2119295 2123037 2126858 
3838.012 2129740 2131180 2131319 2130710 2129844 2128617 2126344 2121675 
3841.869 2113716 2102095 2087893 2073173 2060565 2052210 2049218 2051190 
3845.727 2056491 2063122 2069200 2073950 2077450 2080628 2084465 2089646 
3849.584 2096223 2103797 2111721 2119467 2126608 2132923 2137922 2140879 
3853.441 2140811 2136953 2129072 2117917 2105156 2093091 2083934 2079485 
3857.299 2080521 2086916 2097648 2111387 2126607 2141948 2156194 2168163 
3861.156 2176625 2180655 2179488 2173214 2162529 2148990 2134580 2121555 
3865.014 2111692 2106145 2105111 2107851 2113044 2118861 2123602 2126139 
3868.871 2125949 2123423 2119675 2116070 2113632 2112727 2112769 2112305 
3872.729 2109748 2103773 2094055 2081476 2067776 2054958 2044725 2037765 
3876.586 2033962 2032408 2032180 2032797 2034389 2037439 2042518 2049617 
3880.443 2058083 2066722 2074243 2079956 2083613 2085735 2086867 2087295 
3884.301 2086668 2084125 2078767 2070436 2059797 2048594 2039007 2032911 
3888.158 2031455 2034432 2041035 2050106 2060797 2072705 2086000 2100579 
3892.016 2115750 2129855 2140686 2146072 2144770 2136960 2124340 2109757 
3895.873 2096178 2086230 2081325 2082066 2088102 2098796 2113024 2129297 
3899.730 2145484 2158928 2166643 2166230 2156717 2139295 2117196 2094911 
3903.588 2076970 2066516 2064283 2068925 2077407 2086742 2094888 2101502 
3907.445 2107503 2114475 2123219 2133448 2143535 2151225 2154744 2153396 
3911.303 2148136 2140841 2133781 2128491 2125314 2123330 2120913 2116565 
3915.160 2109365 2099617 2088368 2077276 2067968 2061837 2059700 2061938 
3919.018 2068421 2078508 2090899 2103846 2115363 2123490 2127014 2125723 
3922.875 2120431 2112900 2104959 2098176 2092997 2089107 2085387 2080929 
3926.732 2075113 2068230 2061147 2055011 2050824 2048849 2048745 2049826 
3930.590 2051027 2051766 2051741 2050872 2049475 2047775 2046087 2044597 
3934.447 2043633 2043633 2044926 2047856 2052423 2058496 2065600 2073446 
3938.305 2081757 2090559 2099957 2110033 2120508 2130655 2139523 2146172 
3942.162 2149940 2150864 2149685 2147685 2146201 2146305 2148222 2151423 
3946.020 2154506 2155828 2153814 2147535 2136963 2123104 2107707 2092877 
3949.877 2080575 2071940 2067185 2065450 2065225 2065039 2063899 2061937 
3953.734 2060121 2060332 2064323 2073129 2086528 2103208 2120796 2136970 
3957.592 2149883 2158830 2164007 2166462 2167350 2167455 2167107 2166215 
3961.449 2164711 2162781 2161170 2160888 2162760 2167026 2173009 2179020 
3965.307 2182864 2182464 2176621 2165413 2150291 2133994 2119585 2109926 
3969.164 2106987 2111304 2121974 2136949 2153407 2168565 2180223 2187179 
3973.021 2189310 2187483 2183215 2178186 2173595 2170244 2168200 2167089 
3976.879 2166498 2166107 2165875 2166191 2167442 2169747 2172747 2175481 
3980.736 2176532 2174525 2168777 2159661 2149060 2140048 2136231 2140579 
3984.594 2154472 2176966 2204658 2232453 2255042 2268269 2270511 2263222 
3988.451 2250108 2236082 2225266 2220005 2219938 2222618 2224641 2223195 
3992.309 2217019 2206849 2194922 2183972 2176356 2173134 2174334 2179208 
3996.166 2186885 2196764 2208524 2221708 2235367 2247728 2256777 2260634 
4000.023 2258503 2251108 
##END=
