##TITLE=eSUN_PETG_Black_Filament_r2_ATR-Corrected
##JCAMP-DX=5.01  $$ Nicolet v. 1
##DATATYPE=INFRARED SPECTRUM
##ORIGIN=Curtin University
##OWNER=Nicolet
##LONGDATE=2024/07/10
##TIME=15:10:15
##SPECTROMETER/DATA SYSTEM=Nicolet iS50
##DATA PROCESSING=
Ratio against background
%Transmittance->Absorbance
ATR Correction
Truncated
ElementMultiply or ElementDivide
##COMMENTS=
Number of sample scans: 32
Collection length: 47.29 sec
Sample gain: 1.0
Background collected on: Wed Jul 10 15:09:07 2024 (GMT+08:00);
Number of background scans: 32
Background gain: 1.0
Sample spacing:  1.000
Number of scan points: 16672
Resolution points: 8192
Number of FFT points: 65536
Apodization: N-B strong;
Phase correction: Mertz;
Laser frequency: 15798.3 cm-1
Number of rejected sample scans: 0
Number of rejected background scans: 0
Bench serial number: AUP1200105;
##RESOLUTION=4.000
##XUNITS=1/CM
##YUNITS=ABSORBANCE
##FIRSTX=400.163452
##LASTX=4000.187744
##FIRSTY=0.050348
##MAXX=4000.187744
##MINX=400.163452
##MAXY=1.588269
##MINY=-0.016821
##XFACTOR=1.000000
##YFACTOR=1.000000E-008
##NPOINTS=7468
##DELTAX=0.482125
##ZPD=8192
##XYDATA=(X++(Y..Y))
400.163 5034786 5089517 5114446 5097052 5035918 4939935 4825395 4710771 
404.020 4611215 4535108 4483758 4453585 4439942 4440055 4454117 4483700 
407.877 4528969 4585790 4644930 4693940 4720950 4718992 4688785 4638701 
411.734 4581865 4531810 4498282 4485074 4490293 4508623 4534229 4562746 
415.591 4591829 4620348 4647026 4669808 4686231 4694918 4697123 4697233 
419.448 4701733 4716942 4746541 4790306 4844476 4903553 4962758 5019622 
423.305 5074151 5127348 5178925 5225680 5261549 5279684 5275741 5250659 
427.162 5211665 5170566 5140016 5129163 5140371 5168408 5202306 5229151 
431.019 5238423 5225006 5189983 5139103 5080622 5022140 4969083 4924220 
434.876 4888303 4861107 4842186 4831184 4827767 4831230 4840345 4853429 
438.733 4868486 4883431 4895935 4903460 4903270 4892918 4871031 4838315 
442.590 4798039 4755820 4718389 4691740 4679403 4681375 4694353 4712917 
446.447 4731447 4745847 4754409 4757728 4757613 4755807 4752956 4748416 
450.304 4740766 4728824 4712495 4693054 4672849 4654409 4639642 4629243 
454.161 4622776 4619063 4616814 4615080 4613301 4611242 4608689 4605438 
458.017 4601510 4597491 4594907 4596146 4603985 4620687 4647012 4681472 
461.874 4720238 4757851 4788441 4807415 4812718 4805468 4789832 4771944 
465.731 4758350 4754377 4762742 4782945 4811546 4843196 4872169 4893853 
469.588 4905884 4908526 4904225 4896753 4890010 4887127 4889981 4899158 
473.445 4914358 4934868 4959897 4988684 5020428 5054113 5088471 5122113 
477.302 5153882 5183185 5210232 5235988 5261976 5289773 5320683 5355410 
481.159 5393962 5435768 5479838 5524948 5569894 5613618 5655448 5695209 
485.016 5733374 5771033 5809745 5851258 5897073 5948259 6005236 6067862 
488.873 6135688 6208306 6285573 6367808 6455769 6550486 6652997 6764021 
492.730 6883649 7011126 7144718 7281762 7418941 7552736 7680001 7798375 
496.587 7906595 8004311 8091588 8168247 8233209 8284153 8317753 8330294 
500.444 8318629 8281044 8217719 8130736 8023666 7900730 7766162 7623593 
504.301 7475789 7324612 7171195 7016141 6859804 6702652 6545595 6390277 
508.158 6239155 6095299 5961821 5841114 5734190 5640340 5557399 5482387 
512.015 5412591 5346390 5283734 5225990 5175341 5133871 5102863 5082419 
515.871 5071467 5068062 5069729 5073743 5077182 5077044 5070497 5055360 
519.728 5030689 4997318 4957954 4916685 4878024 4845626 4821288 4804537 
523.585 4792930 4783093 4771881 4757383 4739291 4718683 4697272 4676542 
527.442 4657104 4638530 4619554 4598624 4574424 4546314 4514411 4479554 
531.299 4443102 4406696 4371985 4340414 4313047 4290390 4272387 4258546 
535.156 4248154 4240531 4235154 4231626 4229401 4227489 4224230 4217427 
539.013 4204789 4184663 4156701 4122313 4084533 4047363 4014816 3989831 
542.870 3973599 3965321 3962634 3962406 3961695 3958520 3952333 3943875 
546.727 3934768 3926872 3921535 3919151 3918927 3919062 3917216 3911112 
550.584 3899179 3880948 3857188 3829657 3800596 3772124 3745810 3722335 
554.441 3701584 3682888 3665325 3647972 3629878 3610143 3587851 3562110 
558.298 3532309 3498446 3461390 3422947 3385626 3352055 3324303 3303294 
562.155 3288541 3278339 3270316 3262184 3252437 3240680 3227636 3214720 
566.012 3203415 3194788 3189031 3185559 3183218 3180804 3177500 3173156 
569.869 3168333 3164038 3161317 3160855 3162674 3166107 3169953 3172866 
573.725 3173716 3171928 3167547 3161165 3153701 3146149 3139331 3133810 
577.582 3129860 3127565 3126802 3127374 3129044 3131610 3134950 3139140 
581.439 3144408 3151019 3159164 3168706 3179127 3189597 3199298 3207750 
585.296 3215241 3222904 3232599 3246440 3266209 3292854 3326348 3365749 
589.153 3409766 3457291 3507916 3562115 3621155 3686677 3760110 3842170 
593.010 3932473 4029417 4130207 4231211 4328382 4417814 4496255 4561488 
596.867 4612345 4648490 4669878 4676191 4666476 4639279 4593243 4527976 
600.724 4444906 4347673 4241747 4133474 4028687 3931528 3843787 3765092 
604.581 3693737 3627887 3566533 3509995 3459729 3417639 3385229 3362999 
608.438 3350260 3345358 3346178 3350627 3356939 3363811 3370346 3376012 
612.295 3380686 3384626 3388504 3393191 3399449 3407599 3417334 3427761 
616.152 3437801 3446671 3454324 3461524 3469642 3480083 3493749 3510684 
620.009 3530093 3550731 3571415 3591547 3611271 3631444 3653252 3677852 
623.866 3706095 3738488 3775350 3817171 3865044 3921007 3988258 4071030 
627.723 4173965 4301053 4453955 4630283 4822158 5015789 5192591 5332015 
631.579 5415749 5432052 5378915 5264824 5106896 4926849 4746284 4582621 
635.436 4446730 4342539 4268459 4219629 4190298 4175452 4171478 4175932 
639.293 4186971 4202824 4221585 4241479 4261220 4280277 4298814 4317398 
643.150 4336535 4356384 4376676 4396907 4416595 4435456 4453423 4470419 
647.007 4486184 4500160 4511646 4520090 4525376 4528117 4529491 4531017 
650.864 4534113 4539769 4548376 4559787 4573625 4589492 4607219 4626853 
654.721 4648524 4672282 4697870 4724716 4751940 4778529 4803552 4826309 
658.578 4846496 4864255 4880168 4895182 4910456 4927164 4946378 4968838 
662.435 4994958 5024793 5058117 5094525 5133504 5174466 5216795 5259837 
666.292 5303002 5345858 5388242 5430386 5472934 5516818 5563095 5612709 
670.149 5666255 5723925 5785456 5850370 5918139 5988539 6061828 6138900 
674.006 6221181 6310345 6407945 6514860 6630893 6754486 6882781 7011956 
677.863 7137714 7255961 7363233 7456998 7535684 7598512 7645342 7676564 
681.720 7693197 7697060 7690829 7677994 7662552 7648479 7639238 7637405 
685.577 7644495 7661170 7687498 7723351 7768538 7822894 7886185 7957982 
689.433 8037647 8124423 8217566 8316568 8421211 8531578 8647953 8770834 
693.290 8900817 9038849 9186225 9344739 9516586 9704223 9910130 10136503 
697.147 10385166 10657395 10953856 11274377 11617757 11981427 12361344 
700.522 12752174 13147810 13542256 13930629 14309910 14679244 15039602 
703.897 15393014 15741502 16086255 16427176 16762984 17091778 17411742 
707.272 17721930 18022748 18316280 18606364 18898586 19200166 19519790 
710.647 19867554 20254528 20692540 21193874 21771294 22438000 23207818 
714.021 24095208 25115036 26281920 27609252 29107938 30785132 32643240 
717.396 34679284 36884876 39246684 41747092 44365168 47077008 49855444 
720.771 52668488 55476188 58226020 60847212 63246304 65306460 66894764 
724.146 67880784 68164016 67701744 66524052 64727980 62453248 59852052 
727.521 57064252 54203804 51355124 48575740 45901208 43350440 40929788 
730.896 38636608 36461996 34393500 32417378 30520726 28692762 26925388 
734.270 25213072 23552312 21941172 20379110 18867268 17408816 16009128 
737.645 14675397 13415723 12237829 11147751 10149039 9242528 8426590 7697835 
741.502 7051781 6483243 5986548 5555530 5183648 4864167 4590583 4357078 
745.359 4158826 3991912 3853066 3739081 3646389 3570961 3508531 3455191 
749.216 3408003 3365381 3327101 3293905 3266845 3246701 3233634 3227146 
753.073 3226373 3230414 3238596 3250518 3265889 3284313 3305172 3327559 
756.930 3350521 3373295 3395554 3417509 3439838 3463518 3489598 3518941 
760.787 3552163 3589500 3630875 3675891 3723949 3774337 3826390 3879679 
764.644 3934131 3990079 4048230 4109415 4174371 4243496 4316710 4393472 
768.501 4472934 4554143 4636274 4718646 4800763 4882131 4962164 5040047 
772.358 5114851 5185601 5251551 5312311 5368007 5419227 5466851 5511880 
776.214 5555265 5597820 5640293 5683531 5728606 5776909 5830033 5889564 
780.071 5956769 6032332 6116315 6208371 6308047 6415269 6530603 6655240 
783.928 6790739 6938588 7099744 7274469 7462521 7663537 7877591 8105425 
787.785 8348354 8607572 8883176 9173112 9472359 9772675 10062816 10329344 
791.642 10557602 10732912 10841709 10872802 10818602 10676516 10450108 
795.017 10149762 9792425 9400247 8998126 8610687 8259239 7959494 7720357 
798.874 7543903 7426380 7359843 7334060 7338202 7362271 7398007 7439311 
802.731 7482292 7524996 7566906 7608237 7649320 7690080 7729749 7767056 
806.588 7800561 7829246 7852944 7872528 7889706 7906555 7924873 7945686 
810.445 7969066 7994247 8020004 8045180 8069014 8091291 8112249 8132330 
814.302 8151911 8171169 8190041 8208377 8226096 8243304 8260301 8277552 
818.159 8295492 8314477 8334689 8356177 8378920 8402900 8428156 8454801 
822.016 8482886 8512411 8543175 8574840 8606989 8639289 8671743 8704788 
825.872 8739381 8776908 8818996 8867152 8922514 8985632 9056383 9134126 
829.729 9217839 9306446 9399046 9495054 9594278 9696876 9803239 9913741 
833.586 10028510 10147124 10268457 10390666 10511388 10628179 10739227 
836.961 10843785 10942536 11037509 11131421 11226818 11325070 11425823 
840.336 11526930 11625002 11716511 11798860 11871184 11934449 11990965 
843.711 12043373 12093653 12142482 12189148 12232023 12269387 12300102 
847.086 12323923 12341432 12353534 12360936 12363979 12362644 12357096 
850.460 12348111 12337402 12327475 12321091 12320491 12326806 12339742 
853.835 12357934 12379543 12403177 12428409 12456176 12488443 12527691 
857.210 12576176 12635517 12706405 12788925 12882845 12988196 13105606 
860.585 13236415 13382752 13547276 13733037 13943335 14181542 14451100 
863.960 14755358 15097474 15480217 15905914 16376255 16892172 17453662 
867.335 18059300 18705740 19386818 20092866 20810080 21520460 22202270 
870.709 22831332 23382904 23833832 24164898 24362590 24420314 24338544 
874.084 24124204 23789270 23349052 22820578 22221130 21567424 20875014 
877.459 20158134 19429674 18701210 17983166 17284692 16613634 15976368 
880.834 15377702 14820798 14307249 13837370 13410547 13025694 12681566 
884.209 12376998 12110824 11881747 11688054 11527399 11396776 11292575 
887.583 11210924 11147916 11100024 11064243 11038207 11020160 11008834 
890.958 11003374 11003236 11008085 11017779 11032269 11051542 11075475 
894.333 11103778 11135805 11170585 11206782 11242728 11276487 11306012 
897.708 11329239 11344215 11349145 11342454 11322779 11288942 11239988 
901.083 11175223 11094327 10997500 10885590 10760202 10623677 10478935 
904.458 10329348 10178373 10029304 9885076 9748071 9620026 9501999 9394481 
908.314 9297450 9210537 9133191 9064876 9005184 8953946 8911198 8877093 
912.171 8851819 8835424 8827748 8828408 8836798 8852213 8873958 8901376 
916.028 8933942 8971273 9013052 9059021 9108863 9162164 9218362 9276740 
919.885 9336500 9396846 9457091 9516735 9575488 9633256 9690087 9746087 
923.742 9801442 9856456 9911567 9967396 10024667 10083951 10145487 10208968 
927.599 10273428 10337501 10399772 10459259 10515841 10570374 10624546 
930.974 10680391 10739730 10803760 10872826 10946730 11025082 11107841 
934.349 11195613 11289646 11391497 11502574 11623652 11754783 11895404 
937.724 12044771 12202501 12368970 12545429 12733775 12936129 13154364 
941.098 13389695 13642518 13912396 14198203 14498256 14810348 15131751 
944.473 15459244 15789190 16117805 16441488 16757333 17063336 17358612 
947.848 17643214 17917928 18183904 18442484 18695108 18943254 19188418 
951.223 19431928 19674566 19916132 20154918 20387446 20608484 20811390 
954.598 20988698 21132908 21237216 21296132 21306032 21265570 21175932 
957.972 21041186 20868342 20667062 20449154 20227606 20015294 19823742 
961.347 19661974 19535784 19447542 19396524 19379672 19392488 19429930 
964.722 19486978 19558906 19641226 19729472 19818948 19904642 19981348 
968.097 20044010 20088026 20109696 20106388 20076572 20019756 19936176 
971.472 19826610 19692186 19534254 19354420 19154656 18937298 18705260 
974.847 18462002 18211416 17957682 17704878 17456714 17216170 16985474 
978.221 16766225 16559683 16367242 16190645 16032036 15893497 15776524 
981.596 15681411 15606764 15549608 15505885 15471262 15442006 15415634 
984.971 15390980 15368037 15347174 15328662 15312174 15296850 15281585 
988.346 15265408 15248026 15229917 15212253 15196590 15184522 15177453 
991.721 15176460 15182504 15196583 15219897 15253989 15300684 15361948 
995.095 15439662 15535448 15650350 15784696 15938048 16109227 16296506 
998.470 16498080 16712500 16939160 17178586 17432512 17703596 17995044 
1001.845 18309980 18651248 19021208 19421996 19855926 20325908 20835838 
1005.220 21390554 21995692 22657248 23381170 24173034 25037948 25980758 
1008.595 27006352 28120104 29328250 30637928 32056898 33592664 35250808 
1011.970 37032584 38931396 40928656 42989056 45056228 47050200 48868064 
1015.344 50390320 51493292 52067060 52034944 51368832 50094932 48288272 
1018.719 46058404 43531500 40834036 38080800 35368080 32771110 30344578 
1022.094 28124842 26132890 24377460 22857710 21565590 20487710 19606980 
1025.469 18903946 18358068 17948662 17655780 17460808 17346752 17298492 
1028.844 17302756 17348174 17425252 17526306 17645474 17778512 17922600 
1032.219 18076048 18237932 18407754 18585166 18769788 18961140 19158626 
1035.595 19361544 19569088 19780416 19994554 20210418 20426800 20642354 
1038.970 20855512 21064488 21267242 21461368 21644346 21813540 21966546 
1042.345 22101470 22217194 22313458 22390928 22450968 22495416 22526294 
1045.720 22545644 22555390 22557396 22553510 22545652 22535854 22526244 
1049.096 22518952 22516040 22519364 22530558 22551072 22582280 22625592 
1052.471 22682660 22755442 22846106 22956966 23090094 23247070 23428742 
1055.846 23635214 23866000 24120368 24397664 24697564 25020132 25365570 
1059.221 25734008 26125184 26538438 26972822 27427512 27902176 28397200 
1062.597 28913640 29452912 30016246 30604240 31216660 31852532 32510510 
1065.972 33189460 33888864 34609032 35351092 36116640 36907464 37725212 
1069.347 38571320 39447044 40353552 41291992 42263556 43269412 44310736 
1072.722 45388752 46504776 47660320 48856936 50096096 51378692 52704764 
1076.098 54073232 55481892 56927544 58406140 59912832 61441768 62985636 
1079.473 64535360 66080152 67608232 69107912 70569224 71984992 73351216 
1082.848 74666848 75932584 77149872 78320048 79444512 80525168 81565032 
1086.223 82568480 83540920 84488032 85414560 86323768 87217120 88094232 
1089.599 88952736 89788080 90592824 91356184 92064080 92700128 93247384 
1092.974 93690296 94016072 94214952 94279400 94202968 93979368 93602736 
1096.349 93068728 92375832 91526136 90525000 89379832 88098816 86690048 
1099.724 85162080 83524952 81791312 79976800 78099272 76177360 74229032 
1103.100 72270880 70318712 68388664 66498828 64670016 62925536 61290012 
1106.475 59787548 58439916 57265256 56277072 55483872 54888820 54489340 
1109.850 54276304 54233624 54337768 54558100 54858272 55198400 55537832 
1113.225 55838256 56066280 56195252 56206204 56087840 55836164 55453504 
1116.601 54947220 54328428 53610252 52806516 51930416 50994124 50008464 
1119.976 48983348 47928016 46851384 45761888 44667288 43574440 42489100 
1123.351 41415996 40359020 39321448 38306068 37315192 36350568 35413368 
1126.726 34504156 33623100 32770076 31944764 31146494 30374142 29625932 
1130.102 28899286 28191084 27498118 26817572 26147530 25487218 24836988 
1133.477 24197944 23571610 22959540 22363102 21783444 21221662 20678776 
1136.852 20155848 19653796 19173272 18714470 18277122 17860482 17463560 
1140.227 17085228 16724469 16380425 16052429 15740001 15442798 15160614 
1143.603 14893316 14640833 14403069 14179809 13970648 13774966 13591909 
1146.978 13420434 13259387 13107497 12963367 12825422 12691881 12560831 
1150.353 12430347 12298727 12164689 12027567 11887285 11744300 11599371 
1153.728 11453371 11307140 11161441 11016980 10874556 10735049 10599499 
1157.104 10469051 10344910 10228261 10120302 10022172 9935006 9859850 
1160.479 9797589 9748924 9714261 9693781 9687607 9696101 9720081 9761037 
1164.336 9821156 9903137 10009854 10143759 10306492 10498307 10717826 
1167.711 10961901 11225668 11502722 11785474 12065637 12334622 12584168 
1171.087 12806764 12996131 13147470 13257729 13325551 13351230 13336481 
1174.462 13284117 13197741 13081445 12939516 12776430 12596680 12404898 
1177.837 12205824 12004273 11804989 11612424 11430486 11262359 11110406 
1181.212 10976257 10860996 10765360 10689970 10635373 10602088 10590491 
1184.588 10600701 10632563 10685624 10759258 10852689 10965114 11095674 
1187.963 11243481 11407515 11586637 11779618 11985089 12201675 12427975 
1191.338 12662436 12903447 13149327 13398516 13649786 13902585 14157246 
1194.713 14414951 14677592 14947325 15226151 15515478 15815921 16127421 
1198.089 16449487 16781512 17123162 17474482 17835906 18208180 18592082 
1201.464 18988324 19397412 19819654 20255174 20704026 21166158 21641584 
1204.839 22130368 22632648 23148664 23678774 24223352 24782904 25357944 
1208.214 25949112 26557150 27182994 27827718 28492438 29178276 29886236 
1211.590 30617228 31372116 32151830 32957562 33790516 34651884 35542292 
1214.965 36461480 37407844 38378240 39367932 40370776 41379516 42386132 
1218.340 43382256 44359820 45311876 46233508 47122864 47981720 48815508 
1221.715 49632712 50443716 51259340 52089756 52943700 53828420 54750008 
1225.091 55713760 56724584 57786972 58904784 60081112 61318220 62617768 
1228.466 63981264 65410544 66907968 68476240 70118304 71836648 73633248 
1231.841 75509224 77464600 79497728 81604584 83777400 86003760 88266040 
1235.216 90541952 92805912 95031056 97190808 99260112 101215112 103032664 
1238.592 104689752 106163928 107434680 108485528 109305392 109889256 
1241.485 110237608 110355328 110250936 109936920 109430120 108752152 
1244.378 107928776 106987728 105956328 104859016 103716280 102545152 
1247.271 101360264 100175464 99004176 97859392 96752344 95691904 94684024 
1250.646 93732456 92840008 92009696 91244976 90549456 89925464 89372816 
1254.021 88887904 88463680 88090560 87757632 87453256 87165320 86880712 
1257.396 86584600 86260360 85890376 85457536 84947456 84349952 83660008 
1260.772 82877168 82004592 81047568 80012888 78908208 77742352 76525296 
1264.147 75268136 73982576 72680416 71372792 70070040 68781264 67514352 
1267.522 66275572 65069400 63898188 62762220 61659984 60589004 59546632 
1270.897 58530776 57540260 56574632 55633684 54716836 53822804 52949596 
1274.273 52094780 51255916 50430840 49617776 48815072 48021020 47233544 
1277.648 46450476 45669868 44890372 44111664 43334524 42560588 41791876 
1281.023 41030316 40277444 39534212 38801236 38078904 37367720 36668520 
1284.398 35982496 35311172 34656340 34019836 33403400 32808330 32235450 
1287.774 31684694 31155214 30645334 30152690 29674398 29207184 28747460 
1291.149 28291338 27834618 27372932 26901960 26417932 25918156 25401462 
1294.524 24868404 24321264 23763742 23200362 22636038 22075740 21524252 
1297.899 20986154 20465780 19967180 19493882 19048594 18632802 18246538 
1301.275 17888292 17555166 17243238 16948060 16665094 16390027 16119136 
1304.650 15849359 15578432 15304990 15028620 14749897 14470324 14192151 
1308.025 13918072 13651007 13393714 13148683 12917949 12703145 12505332 
1311.400 12324979 12161763 12014429 11880798 11757771 11641622 11528426 
1314.776 11414449 11296550 11172417 11040675 10900789 10753014 10598194 
1318.151 10437610 10272858 10105648 9937654 9770349 9604909 9442220 9282972 
1322.008 9127878 8977889 8834386 8699165 8574577 8463193 8367838 8291469 
1325.866 8237110 8208043 8207833 8240434 8310453 8422956 8583561 8798195 
1329.723 9072766 9412538 9821279 10300317 10847434 11456192 12115490 
1333.098 12809874 13520239 14224936 14901263 15526806 16080904 16545874 
1336.474 16908058 17158558 17293470 17313840 17225158 17036590 16760011 
1339.849 16409080 15998280 15542008 15053831 14545950 14028770 13510859 
1343.224 12999052 12498631 12013670 11547367 11102288 10680494 10283657 
1346.599 9913005 9569158 9252086 8961035 8694698 8451384 8229356 8027179 
1350.457 7843820 7678671 7531352 7401465 7288272 7190679 7107185 7036046 
1354.314 6975570 6924308 6881135 6845374 6816626 6794779 6779861 6772142 
1358.172 6772043 6780335 6798090 6826725 6868016 6923910 6996472 7087625 
1362.029 7198940 7331297 7484737 7658212 7849584 8055702 8272558 8495584 
1365.886 8719941 8940861 9153919 9355375 9542327 9712747 9865534 10000275 
1369.744 10117124 10216550 10299291 10366252 10418453 10457086 10483350 
1373.119 10498311 10502724 10496846 10480365 10452553 10412423 10359199 
1376.494 10292625 10213323 10122953 10024228 9920679 9816346 9715378 9621653 
1380.352 9538483 9468456 9413344 9374271 9351675 9345510 9355313 9380312 
1384.209 9419405 9471215 9534021 9605817 9684353 9767228 9852098 9936859 
1388.067 10019793 10099671 10175702 10247537 10315172 10378885 10439275 
1391.442 10497335 10554407 10612307 10673232 10739716 10814661 10901167 
1394.817 11002634 11122660 11265092 11433949 11633371 11867601 12140991 
1398.192 12458002 12823364 13242152 13719888 14262480 14875928 15565909 
1401.568 16336912 17191290 18127978 19141062 20218416 21340368 22478914 
1404.943 23597696 24653088 25596524 26378160 26951290 27277100 27328840 
1408.318 27094782 26579476 25803112 24799364 23611792 22289690 20883728 
1411.693 19442162 18007928 16616708 15295990 14065154 12935992 11913675 
1415.069 10998093 10184999 9467379 8836560 8283162 7797878 7372033 6997968 
1418.926 6669125 6380199 6126827 5905574 5713602 5548513 5408216 5290868 
1422.783 5194800 5118433 5060228 5018609 4991922 4978610 4977197 4986618 
1426.641 5006263 5036054 5076406 5128031 5191741 5268249 5358078 5461340 
1430.498 5577818 5706799 5847072 5996942 6154447 6317544 6484493 6654093 
1434.356 6825813 6999577 7175503 7353376 7532392 7711019 7887266 8059176 
1438.213 8225375 8385559 8540712 8693144 8846236 9004177 9171524 9352810 
1442.071 9552035 9772253 10015062 10280408 10566475 10869906 11186375 
1445.446 11511092 11839247 12166356 12488045 12799850 13096780 13373184 
1448.821 13622773 13839038 14015685 14147317 14229873 14261229 14241438 
1452.196 14172925 14060260 13909735 13728581 13524188 13303542 13072948 
1455.572 12837851 12603013 12372466 12149523 11936496 11734619 11543959 
1458.947 11363665 11192288 11028208 10869963 10716416 10566720 10420212 
1462.322 10276119 10133526 9991316 9848394 9703841 9557200 9408498 9258223 
1466.179 9107250 8956570 8807231 8660205 8516296 8376188 8240356 8109012 
1470.037 7982151 7859461 7740383 7624276 7510356 7397865 7286041 7174122 
1473.894 7061346 6946951 6830263 6710836 6588395 6463041 6335023 6204707 
1477.752 6072407 5938304 5802404 5664719 5525348 5384660 5243341 5102365 
1481.609 4962858 4825901 4692530 4563545 4439611 4321306 4209148 4103543 
1485.467 4004833 3913197 3828641 3751036 3680173 3615919 3558232 3507169 
1489.324 3462930 3425770 3395945 3373842 3359912 3354840 3359424 3374684 
1493.181 3401671 3441470 3495186 3563930 3648930 3751737 3874342 4019436 
1497.039 4190648 4392783 4632034 4915824 5252206 5648653 6110029 6636130 
1500.896 7219114 7841752 8476868 9088835 9636807 10079605 10381137 10515787 
1504.754 10472322 10255915 9887251 9399248 8831695 8225292 7616479 7033904 
1508.611 6497121 6017111 5597841 5238217 4933913 4678889 4466442 4289989 
1512.469 4143490 4021812 3920627 3836534 3766735 3709064 3661816 3623700 
1516.326 3593800 3571488 3556236 3547463 3544364 3545946 3551019 3558422 
1520.183 3567189 3576687 3586648 3597127 3608306 3620394 3633422 3647235 
1524.041 3661479 3675563 3688744 3700134 3708719 3713631 3714103 3709725 
1527.898 3700425 3686490 3668394 3646651 3621674 3593700 3562893 3529418 
1531.756 3493590 3456081 3417773 3379801 3343216 3308883 3277335 3248665 
1535.613 3222730 3199223 3177894 3158577 3141239 3125913 3112611 3101247 
1539.470 3091629 3083412 3076211 3069679 3063519 3057599 3051923 3046639 
1543.328 3041973 3038196 3035574 3034365 3034791 3037110 3041547 3048282 
1547.185 3057386 3068734 3081928 3096313 3111102 3125515 3138959 3151149 
1551.043 3162146 3172251 3181845 3191300 3200854 3210641 3220752 3231319 
1554.900 3242488 3254454 3267197 3280675 3294628 3308847 3323304 3338255 
1558.758 3354232 3371981 3392103 3414959 3440464 3468274 3497876 3528980 
1562.615 3561512 3595734 3632107 3671123 3713255 3758918 3808570 3862916 
1566.472 3922922 3989799 4064782 4149112 4243704 4349340 4466719 4596697 
1570.330 4740332 4898883 5073504 5264922 5473042 5696736 5933691 6180230 
1574.187 6431193 6679865 6917870 7135429 7322020 7467485 7563230 7603302 
1578.045 7584994 7508907 7378623 7200059 6980841 6729783 6456409 6170463 
1581.902 5881466 5598239 5328392 5077950 4851009 4649681 4474237 4323471 
1585.760 4195225 4086932 3996083 3920406 3857908 3806722 3764939 3730520 
1589.617 3701426 3675750 3651968 3629192 3607114 3586020 3566575 3549596 
1593.474 3535849 3525909 3520083 3518445 3520861 3527126 3537058 3550577 
1597.332 3567788 3588849 3613999 3643321 3676671 3713612 3753474 3795543 
1601.189 3839254 3884374 3931065 3979882 4031474 4086427 4145060 4207287 
1605.047 4272742 4340904 4411325 4483774 4558237 4634949 4714126 4795797 
1608.904 4879582 4964583 5049334 5131804 5209611 5280136 5340781 5389147 
1612.761 5423222 5441566 5443307 5428248 5396915 5350561 5291128 5221243 
1616.619 5143854 5062158 4979200 4897776 4820312 4748926 4685390 4631115 
1620.476 4586993 4553273 4529363 4514000 4505342 4501482 4500715 4501937 
1624.334 4504576 4508553 4513972 4520905 4529168 4538551 4548750 4559675 
1628.191 4571378 4584102 4597987 4613074 4629101 4645692 4662400 4678976 
1632.049 4695293 4711454 4727541 4743644 4759672 4775614 4791550 4807857 
1635.906 4825127 4844105 4865263 4888618 4913720 4939687 4965596 4990804 
1639.763 5015149 5039031 5063131 5088244 5114799 5142899 5172310 5202658 
1643.621 5233695 5265490 5298354 5332754 5369121 5407654 5448249 5490654 
1647.478 5534506 5579540 5625701 5673140 5722198 5773228 5826576 5882413 
1651.336 5940702 6001143 6063300 6126871 6191800 6258655 6328469 6402641 
1655.193 6482523 6569013 6662287 6761741 6866270 6974733 7086500 7201713 
1659.051 7321354 7446884 7579723 7720873 7870639 8028821 8194920 8368555 
1662.908 8549409 8737263 8931591 9131382 9335098 9540957 9747496 9953967 
1666.765 10160552 10368335 10578626 10792544 11010476 11232059 11456318 
1670.141 11682168 11908786 12135890 12363660 12592593 12823310 13056436 
1673.516 13292658 13532700 13777314 14027126 14282437 14543027 14808305 
1676.891 15077497 15350045 15625769 15904929 16187854 16474572 16764593 
1680.266 17056846 17350178 17643804 17937858 18233420 18532264 18836254 
1683.642 19146880 19464894 19790654 20124644 20468066 20823038 21192472 
1687.017 21579406 21986466 22415710 22868816 23347570 23854644 24393630 
1690.392 24968954 25585088 26245984 26955032 27715564 28531920 29410500 
1693.767 30359598 31388736 32506394 33718232 35025908 36428320 37924400 
1697.143 39517048 41215880 43038020 45005800 47142536 49467592 51993136 
1700.518 54723656 57659008 60799480 64150424 67723936 71536848 75605600 
1703.893 79940704 84542152 89398120 94485968 99774688 105226048 110793152 
1707.268 116417312 122025112 127529200 132833984 137844032 142472416 
1710.161 146643312 150290272 153351216 155768768 157496864 158512736 
1713.054 158826880 158483328 157549232 156098592 154198448 151904256 
1715.948 149263904 146326288 143147520 139790624 136318912 132787144 
1718.841 129234960 125686208 122152864 118641624 115159360 111715568 
1721.734 108321800 104989024 101725568 98536000 95422136 92384664 89424560 
1725.109 86543448 83742688 81022192 78379288 75809224 73306248 70865392 
1728.484 68483768 66161044 63898440 61697228 59557004 57474924 55445624 
1731.859 53462504 51519032 49610524 47734772 45892264 44085196 42316304 
1735.235 40587580 38899268 37249880 35636584 34056068 32505646 30983988 
1738.610 29491692 28031238 26606628 25222698 23884496 22596488 21362448 
1741.985 20185130 19066438 18007452 17008618 16069749 15190232 14369050 
1745.360 13604814 12895565 12238980 11632109 11071661 10554191 10076571 
1748.736 9636032 9230477 8858142 8517344 8206105 7921938 7661821 7422553 
1752.593 7201085 6994939 6802349 6622307 6454321 6298196 6153710 6020466 
1756.450 5897753 5784424 5678908 5579403 5484002 5391172 5299956 5210293 
1760.308 5122985 5039438 4961119 4889168 4823937 4764931 4711039 4660921 
1764.165 4613317 4567331 4522272 4477725 4433305 4388680 4343806 4299002 
1768.023 4255110 4213356 4175000 4140874 4111100 4084941 4060998 4037624 
1771.880 4013428 3987409 3959269 3929189 3897738 3865722 3834085 3803957 
1775.738 3776575 3753105 3734238 3720025 3709619 3701440 3693615 3684446 
1779.595 3672935 3658796 3642440 3624438 3605232 3584992 3563708 3541554 
1783.452 3519102 3497462 3477924 3461467 3448207 3437280 3426931 3415160 
1787.310 3400426 3382285 3361440 3339500 3318440 3299868 3284631 3272773 
1791.167 3263659 3256434 3250283 3244649 3239248 3233844 3228158 3221886 
1795.025 3214552 3205763 3195216 3182830 3168721 3153323 3137306 3121674 
1798.882 3107463 3095679 3086898 3081167 3077865 3075989 3074527 3072871 
1802.740 3071128 3069992 3070297 3072560 3076453 3080715 3083542 3083232 
1806.597 3078863 3070769 3060247 3049205 3039267 3031119 3024344 3017709 
1810.454 3009787 2999672 2987404 2973802 2960195 2947775 2937164 2928408 
1814.312 2921200 2915394 2911257 2909620 2911448 2917474 2927564 2940773 
1818.169 2955454 2969982 2983237 2995167 3006577 3018779 3032862 3049125 
1822.027 3066698 3083782 3097906 3106781 3108696 3103029 3090199 3071599 
1825.884 3049064 3024493 2999377 2974776 2951227 2928904 2907945 2888584 
1829.741 2871165 2856117 2843674 2833658 2825405 2817859 2809725 2799944 
1833.599 2787845 2773356 2756892 2739247 2721205 2703398 2686044 2669025 
1837.456 2651749 2633441 2613070 2589786 2562966 2532743 2500074 2466818 
1841.314 2435482 2408620 2388117 2374640 2367247 2363625 2360656 2355338 
1845.171 2345522 2330545 2311024 2288659 2265513 2243716 2224828 2209976 
1849.029 2199584 2193500 2190879 2190404 2190382 2189188 2185558 2179039 
1852.886 2169950 2159097 2147174 2134343 2119969 2103078 2082901 2059797 
1856.743 2035433 2012615 1994246 1982136 1976175 1974030 1972080 1966724 
1860.601 1955865 1939829 1921185 1903615 1890589 1884020 1883674 1887682 
1864.458 1893432 1898773 1902503 1904577 1905418 1905346 1903989 1900597 
1868.316 1894339 1884928 1872782 1859009 1844685 1830446 1816188 1801495 
1872.173 1786030 1770331 1755908 1744981 1739613 1740949 1748657 1761171 
1876.031 1776120 1791364 1805475 1817889 1828441 1837007 1842764 1844689 
1879.888 1841805 1834083 1822744 1810356 1800016 1794529 1795148 1801405 
1883.745 1810978 1820627 1826884 1827019 1819348 1803617 1780649 1752527 
1887.603 1722095 1692935 1668619 1652202 1645444 1648350 1659066 1674630 
1891.460 1691803 1708208 1722690 1735523 1747626 1759866 1772274 1784112 
1895.318 1794051 1801107 1804853 1805820 1804769 1802322 1798216 1791723 
1899.175 1781883 1768882 1754172 1741013 1733227 1734162 1745112 1764852 
1903.032 1789529 1814038 1833200 1843303 1842725 1831862 1812508 1787145 
1906.890 1758235 1728197 1699149 1673451 1653232 1640582 1636853 1642398 
1910.747 1656639 1678210 1705157 1735393 1766664 1796692 1822812 1842560 
1914.605 1853791 1855744 1849144 1836829 1822777 1811479 1806338 1809228 
1918.462 1819628 1835352 1853023 1869152 1880814 1885797 1882527 1870320 
1922.320 1849089 1819935 1785614 1750522 1720458 1701870 1699907 1717525 
1926.177 1754293 1806435 1867169 1928453 1982120 2021430 2041732 2041063 
1930.034 2019920 1981218 1929434 1870909 1812683 1762270 1726563 1711126 
1933.892 1718824 1749677 1800129 1863820 1932092 1995781 2046721 2079496 
1937.749 2092452 2088002 2071633 2050690 2031836 2019830 2015748 2017883 
1941.607 2022680 2026860 2029018 2031065 2037539 2054344 2086479 2135924 
1945.464 2200411 2273940 2347389 2411830 2460054 2489026 2500154 2499070 
1949.322 2492983 2488816 2490070 2495585 2499251 2491491 2462083 2403794 
1953.179 2314586 2199704 2069846 1939105 1820796 1724572 1654212 1608454 
1957.036 1582957 1573595 1577538 1594514 1624248 1664540 1708308 1744899 
1960.894 1761776 1750030 1707091 1640003 1562729 1492623 1444210 1425543 
1964.751 1435207 1465104 1503112 1538237 1562793 1573911 1571793 1558278 
1968.609 1534810 1503501 1466998 1430399 1400739 1385630 1389388 1411133 
1972.466 1443580 1474645 1490799 1482359 1446069 1387357 1317437 1251519 
1976.323 1203860 1186136 1204275 1259690 1348318 1461850 1588197 1714095 
1980.181 1825319 1910661 1962309 1978312 1962338 1922670 1870022 1816421 
1984.038 1771705 1744038 1738113 1755103 1791893 1840825 1888509 1919091 
1987.896 1917294 1873913 1790144 1680087 1567890 1482212 1445760 1468890 
1991.753 1544079 1648670 1751396 1823883 1848330 1823415 1762189 1686153 
1995.611 1615834 1564700 1535507 1522854 1517658 1513160 1507401 1503748 
1999.468 1506652 1518020 1533131 1541335 1527890 1479784 1389512 1259465 
2003.325 1101373 935057 784148 673028 621442 641519 733675 885762 1073562 
2007.665 1266108 1431551 1546031 1597858 1590450 1539552 1467873 1396774 
2011.522 1341480 1305904 1285299 1268958 1246238 1210232 1160147 1099081 
2015.380 1032732 964483 895519 824270 749722 672534 597087 530228 479458 
2019.719 448533 436766 436022 433219 412014 357989 262282 125992 -39494 
2024.059 -211386 -361790 -463068 -496370 -456945 -358270 -227069 -97455 60 
2028.399 48166 47397 14928 -22372 -39122 -19880 34734 110564 185948 241434 
2033.220 266171 262395 242802 226461 230875 268922 345583 459232 601916 
2037.560 762402 925549 1074769 1191788 1261387 1273986 1229704 1138931 
2041.417 1021965 903151 806193 748004 736055 768136 834860 923521 1022491 
2045.757 1123498 1223142 1321931 1423020 1529323 1642306 1759045 1872592 
2049.615 1972540 2047969 2090076 2095639 2067952 2017106 1956679 1901532 
2053.472 1862753 1845166 1845558 1855472 1864279 1864710 1855095 1840446 
2057.329 1828757 1827912 1840996 1865822 1895315 1921616 1939545 1949552 
2061.187 1957218 1971180 1998437 2041577 2096324 2153139 2199313 2223931 
2065.044 2220439 2189206 2136045 2071632 2007431 1953697 1916664 1898406 
2068.902 1896188 1904494 1916300 1926179 1931163 1932454 1934061 1941919 
2072.759 1960506 1991527 2032066 2075863 2114929 2142546 2155122 2153798 
2076.616 2143024 2129512 2119457 2117305 2124706 2141273 2164744 2192461 
2080.474 2221189 2248135 2270130 2285271 2292473 2292968 2289605 2286368 
2084.331 2286387 2290713 2296756 2299633 2293224 2273547 2240530 2199204 
2088.189 2157942 2126370 2111372 2115006 2133507 2158574 2180005 2188947 
2092.046 2180179 2153296 2112090 2063626 2015939 1977049 1952843 1946710 
2095.904 1958581 1985216 2020600 2057875 2090965 2116710 2135226 2150057 
2099.761 2165746 2185934 2210635 2236445 2257263 2267363 2263990 2249568 
2103.618 2230690 2216308 2213851 2226714 2253097 2287168 2321639 2351146 
2107.476 2373445 2389923 2403249 2415247 2425186 2429796 2424413 2405652 
2111.333 2372663 2328059 2276325 2222387 2169411 2118907 2070542 2024703 
2115.191 1983170 1949906 1929369 1925189 1937118 1960571 1986700 2005142 
2119.048 2006560 1986234 1944966 1889390 1829630 1776638 1738948 1720699 
2122.906 1720338 1731725 1745211 1750729 1739719 1708001 1655812 1588499 
2126.763 1514105 1441377 1376724 1323037 1278617 1239153 1199088 1154785 
2130.620 1105382 1053247 1002332 956790 918742 888363 864101 844930 830748 
2134.960 823563 825220 836359 854328 873308 885680 885222 868829 838894 
2139.300 800983 763014 731182 709532 698233 695630 699040 706394 714738 
2143.639 720546 717787 699398 658476 592425 504727 406551 312216 236001 
2147.979 184983 156471 137829 111932 63046 -16086 -122449 -243976 -365755 
2152.318 -476355 -573803 -666008 -768582 -895978 -1055672 -1240847 -1430235 
2156.176 -1589818 -1682095 -1672952 -1543157 -1294178 -951406 -557107 
2159.551 -159901 200651 502033 741859 930337 1084264 1216300 1333430 1433872 
2163.891 1510966 1555700 1563186 1532034 1467301 1376427 1267349 1145731 
2167.748 1015133 877914 739097 606543 492664 410946 373094 383533 438330 
2172.088 523058 617738 700710 754721 770021 747975 697622 634103 571534 
2176.427 520840 486194 466319 455030 446443 435504 421137 405562 394661 
2180.767 394262 411318 449815 512469 598702 706132 829159 959687 1086404 
2185.106 1196473 1276123 1315232 1309286 1263294 1190454 1110846 1045579 
2188.964 1011454 1015196 1052968 1110866 1171109 1217377 1240700 1240598 
2192.821 1224715 1203155 1185902 1178095 1180216 1189364 1202473 1217284 
2196.679 1233822 1252177 1271450 1288042 1297133 1293983 1277625 1251100 
2200.536 1222208 1199211 1188196 1189513 1198167 1205229 1202905 1187974 
2204.394 1164647 1142477 1134186 1150025 1194751 1266096 1356831 1457226 
2208.251 1559606 1658492 1751968 1838724 1916630 1980829 2025433 2044309 
2212.108 2034903 1999307 1945376 1884697 1830363 1793356 1780476 1792140 
2215.966 1823465 1864419 1903078 1927759 1930224 1907078 1861747 1803007 
2219.823 1743865 1697438 1674063 1678096 1707400 1753586 1805546 1852293 
2223.681 1886736 1906490 1914572 1916964 1920727 1931172 1951409 1980635 
2227.538 2016083 2052638 2084974 2107825 2117129 2110345 2087595 2051506 
2231.396 2007625 1963180 1926364 1904151 1901544 1919511 1955768 2004690 
2235.253 2059006 2110990 2154161 2184180 2199889 2202562 2196195 2185767 
2239.110 2176747 2172890 2176766 2188250 2205930 2227215 2250155 2273194 
2242.968 2296544 2320732 2346862 2375174 2405198 2434978 2462176 2484056 
2246.825 2498679 2504876 2503022 2494526 2481945 2467649 2453609 2440023 
2250.683 2425447 2406464 2379464 2341975 2295033 2243624 2197001 2165993 
2254.540 2160202 2184085 2235465 2305021 2379366 2444751 2491585 2516384 
2258.397 2522541 2517674 2510639 2508287 2513793 2526802 2545132 2566348 
2262.255 2589764 2615643 2644790 2676624 2708898 2737554 2758480 2769119 
2266.112 2769901 2763748 2755383 2749201 2747591 2750238 2754812 2758050 
2269.970 2757530 2751919 2741943 2728962 2714700 2700573 2687742 2677361 
2273.827 2671225 2671265 2679336 2696419 2721959 2753736 2788624 2823181 
2277.685 2855170 2883568 2909102 2933330 2958398 2986154 3018002 3054566 
2281.542 3095789 3140341 3185891 3228815 3264973 3290394 3302614 3301347 
2285.399 3288924 3269281 3247019 3225817 3207538 3191900 3177205 3161144 
2289.257 3142042 3119201 3093036 3064676 3035420 3006544 2979167 2954469 
2293.114 2933711 2917941 2907315 2900843 2896176 2889973 2879132 2861827 
2296.972 2838347 2811051 2783703 2760062 2742735 2732348 2727783 2726977 
2300.829 2727831 2728912 2729742 2730220 2730297 2729473 2727166 2722943 
2304.687 2717464 2712256 2709480 2711138 2717971 2729017 2741884 2753452 
2308.544 2761300 2764362 2763554 2761134 2759971 2762515 2770286 2783629 
2312.401 2802202 2825058 2851058 2878534 2905445 2929207 2947400 2958357 
2316.259 2962078 2960403 2956781 2955206 2959356 2971523 2992743 3023130 
2320.116 3062715 3111759 3170266 3236860 3307364 3374118 3426650 3453774 
2323.974 3446538 3400909 3319126 3209440 3084224 2957255 2840773 2743161 
2327.831 2667997 2614301 2578086 2554223 2538279 2527271 2519916 2515900 
2331.688 2515225 2517480 2522001 2527864 2534427 2541231 2548204 2555078 
2335.546 2561573 2566999 2570777 2572618 2572855 2572456 2572787 2574932 
2339.403 2579406 2585822 2592893 2598893 2602118 2601468 2596718 2588597 
2343.261 2578570 2568492 2560315 2555520 2555066 2559161 2567292 2578369 
2347.118 2591030 2603898 2615806 2626044 2634266 2640414 2644544 2646772 
2350.976 2647227 2646219 2644403 2642825 2642863 2645821 2652678 2663461 
2354.833 2677348 2692573 2706852 2718021 2724462 2725477 2721325 2713168 
2358.690 2702586 2691189 2680335 2670930 2663198 2656790 2651078 2645025 
2362.548 2637895 2629107 2618726 2607281 2595704 2585136 2576542 2570468 
2366.405 2567133 2566289 2567729 2571180 2576796 2584765 2595305 2608251 
2370.263 2623039 2638505 2653398 2666427 2676867 2684535 2689899 2693747 
2374.120 2696918 2699921 2702860 2705381 2706843 2706584 2704125 2699434 
2377.978 2692865 2685299 2677931 2672099 2669137 2669896 2674736 2683002 
2381.835 2693361 2703685 2711623 2715090 2712858 2704820 2692294 2677632 
2385.692 2663809 2653689 2649269 2651224 2658803 2669951 2681924 2691977 
2389.550 2698079 2699232 2695607 2688338 2678985 2668978 2659391 2650549 
2393.407 2642282 2633963 2625063 2615152 2604180 2592366 2580450 2569200 
2397.265 2559589 2552524 2548583 2547963 2550170 2554072 2558204 2560992 
2401.122 2561441 2559215 2555064 2550193 2546193 2544125 2544309 2546174 
2404.979 2548538 2549997 2549658 2547220 2543065 2537959 2532754 2528038 
2408.837 2524162 2521314 2519757 2520000 2522542 2527850 2535936 2546179 
2412.694 2557516 2568523 2577740 2584190 2587232 2586715 2582745 2575794 
2416.552 2566470 2555609 2544400 2533999 2525442 2519116 2514667 2511169 
2420.409 2507538 2503011 2497750 2492841 2489844 2489913 2493064 2497753 
2424.267 2501178 2500071 2492061 2476593 2455410 2431903 2410243 2393738 
2428.124 2384025 2380565 2381211 2383009 2383440 2381088 2376033 2369418 
2431.981 2363140 2358935 2358257 2361667 2369186 2380016 2392733 2405406 
2435.839 2415922 2422132 2422619 2416770 2405333 2389869 2372888 2356862 
2439.696 2344245 2336683 2335375 2340690 2352368 2369139 2388998 2408918 
2443.554 2425470 2435436 2436703 2428978 2414014 2395134 2376506 2361680 
2447.411 2352735 2349675 2350643 2352824 2353436 2350547 2343772 2334140 
2451.269 2323924 2315714 2312217 2315570 2327090 2346793 2373474 2404364 
2455.126 2435691 2462917 2481965 2489951 2486064 2471635 2450052 2425607 
2458.983 2402565 2384219 2372261 2366625 2366014 2368387 2371636 2373810 
2462.841 2373641 2370192 2363162 2352590 2339002 2323265 2306623 2290435 
2466.698 2276139 2264795 2257054 2253085 2252423 2254258 2257640 2261591 
2470.556 2265585 2269523 2273846 2279176 2285963 2294026 2302318 2308938 
2474.413 2311742 2308967 2300225 2286704 2271084 2256667 2246361 2241425 
2478.271 2241208 2243153 2243992 2240729 2231953 2218140 2201596 2185493 
2482.128 2173095 2166886 2168273 2177694 2194906 2219059 2248867 2282320 
2485.985 2316738 2349041 2376220 2396110 2407936 2412466 2411517 2407067 
2489.843 2400752 2393067 2383888 2372967 2360836 2349090 2340354 2337219 
2493.700 2341377 2352606 2368637 2385852 2400506 2409789 2412902 2410855 
2497.558 2405965 2400676 2396763 2394704 2394056 2393874 2393515 2393078 
2501.415 2393616 2396459 2403032 2413940 2428890 2446504 2464738 2480969 
2505.272 2493065 2499355 2499479 2494351 2485983 2477214 2470863 2468889 
2509.130 2472018 2479382 2489124 2498853 2506773 2511895 2514353 2514785 
2512.987 2514015 2512137 2508784 2503289 2495261 2485226 2474831 2466325 
2516.845 2462167 2463832 2472026 2485942 2504185 2525137 2547527 2570145 
2520.702 2592202 2612518 2629798 2642670 2650367 2653092 2652305 2650242 
2524.560 2649403 2651349 2656356 2663105 2669411 2672975 2672490 2667979 
2528.417 2660952 2653425 2647681 2645206 2646534 2651231 2658309 2666274 
2532.274 2673642 2678889 2680843 2678756 2672701 2664124 2655338 2649509 
2536.132 2649548 2657240 2672531 2693051 2715073 2734263 2747218 2752303 
2539.989 2750306 2743890 2736739 2732347 2733089 2739445 2750105 2762402 
2543.847 2773089 2779069 2778368 2770368 2756251 2738369 2720129 2704712 
2547.704 2694706 2691064 2693338 2699663 2707774 2715733 2722776 2729130 
2551.562 2736144 2745181 2757109 2771505 2786811 2800666 2810691 2815267 
2555.419 2813870 2807071 2796508 2784118 2771994 2761821 2754973 2752286 
2559.276 2754151 2760208 2769738 2781394 2793699 2805095 2814486 2821294 
2563.134 2825501 2827330 2827409 2826363 2824907 2824009 2824914 2828838 
2566.991 2836942 2849447 2865720 2883871 2901332 2915464 2924375 2927406 
2570.849 2925446 2920398 2914718 2910532 2909389 2911982 2918321 2928114 
2574.706 2940948 2956225 2973130 2990307 3006063 3018335 3025383 3026248 
2578.563 3021082 3011122 2998587 2985978 2975579 2969031 2967153 2969868 
2582.421 2976353 2985319 2995097 3003913 3010128 3012582 3010786 3005187 
2586.278 2997070 2988264 2980678 2976092 2975528 2979358 2987393 2998945 
2590.136 3013095 3028530 3043707 3056855 3066186 3070543 3069693 3064913 
2593.993 3058771 3054464 3054970 3061926 3074797 3090982 3106537 3117331 
2597.851 3120591 3115577 3104011 3089194 3075011 3064631 3059798 3060480 
2601.708 3065565 3073379 3082509 3092157 3102109 3112200 3122116 3131035 
2605.565 3137845 3141426 3141297 3137722 3131961 3125709 3120921 3119091 
2609.423 3121097 3126981 3136183 3147576 3159838 3171607 3181760 3189649 
2613.280 3195197 3199181 3202907 3207962 3215711 3226717 3240431 3255177 
2617.138 3268670 3278663 3283820 3284113 3280850 3276175 3272365 3270876 
2620.995 3272040 3275029 3278349 3280509 3280745 3279263 3277093 3275824 
2624.853 3276919 3281415 3289601 3301178 3315473 3331577 3348603 3365493 
2628.710 3381281 3394724 3404664 3410199 3410896 3406877 3398995 3388487 
2632.567 3376872 3365540 3355545 3347433 3341359 3336964 3333708 3330830 
2636.425 3327707 3323980 3319767 3315534 3312181 3310608 3311591 3315329 
2640.282 3321445 3329005 3336982 3344431 3350783 3355902 3359833 3362646 
2644.140 3364089 3363765 3361309 3356778 3350999 3345470 3341981 3341966 
2647.997 3345962 3353139 3361584 3368957 3373132 3373176 3369386 3363241 
2651.854 3356626 3351047 3347231 3344953 3343406 3341814 3339904 3338074 
2655.712 3337196 3338001 3340717 3344704 3348656 3351095 3350860 3347531 
2659.569 3341453 3333432 3324310 3314578 3304190 3292719 3279765 3265338 
2663.427 3250036 3234967 3221465 3210600 3202873 3198159 3195722 3194611 
2667.284 3193781 3192522 3190310 3187005 3182573 3177256 3171347 3165336 
2671.142 3159869 3155455 3152522 3151171 3151121 3151916 3153086 3154255 
2674.999 3155361 3156659 3158621 3161541 3165565 3170501 3175914 3181283 
2678.856 3186189 3190412 3193942 3196790 3199072 3200716 3201447 3200880 
2682.714 3198633 3194420 3188259 3180460 3171708 3163072 3155705 3150877 
2686.571 3149449 3151825 3157660 3166005 3175322 3184022 3190920 3195320 
2690.429 3197387 3197813 3197562 3197309 3197322 3197189 3196111 3193244 
2694.286 3188091 3180890 3172496 3164354 3157918 3154480 3154530 3157931 
2698.144 3163896 3171241 3178800 3185607 3191186 3195397 3198460 3200696 
2702.001 3202555 3204148 3205640 3207067 3208505 3210099 3212081 3214699 
2705.858 3217980 3221807 3225699 3228984 3231090 3231702 3231097 3229919 
2709.716 3229313 3230331 3233637 3239254 3246443 3253975 3260587 3265353 
2713.573 3267976 3268769 3268545 3268136 3268051 3268400 3268814 3268884 
2717.431 3268318 3267277 3266199 3265889 3267033 3270021 3274845 3281144 
2721.288 3288326 3295863 3303329 3310491 3317275 3323534 3329246 3334385 
2725.146 3339108 3343693 3348754 3354624 3361705 3369794 3378303 3386361 
2729.003 3392978 3397431 3399613 3399860 3399064 3398099 3397646 3398004 
2732.860 3398967 3400033 3400744 3400868 3400657 3400641 3401558 3403985 
2736.718 3408196 3414042 3421075 3428672 3436326 3443835 3451253 3458626 
2740.575 3466125 3473551 3480390 3485979 3489596 3490845 3489859 3487167 
2744.433 3483717 3480424 3478000 3476579 3475934 3475542 3475074 3474616 
2748.290 3474766 3476613 3481302 3489501 3501175 3515323 3530246 3544003 
2752.147 3555003 3562353 3566210 3567577 3567901 3568592 3570645 3574422 
2756.005 3579732 3586004 3592571 3598904 3604610 3609497 3613406 3616214 
2759.862 3617769 3618025 3617054 3615139 3612716 3610187 3607912 3606164 
2763.720 3604962 3604345 3604398 3605225 3607176 3610496 3615339 3621666 
2767.577 3629167 3637314 3645398 3652682 3658529 3662468 3664289 3663961 
2771.435 3661872 3658646 3655154 3652277 3650781 3650952 3652600 3655006 
2775.292 3657187 3658267 3657737 3655774 3653193 3651172 3650932 3653321 
2779.149 3658597 3666474 3676236 3687188 3698676 3710408 3722229 3733989 
2783.007 3745383 3755944 3765168 3772749 3778676 3783491 3788060 3793355 
2786.864 3800233 3808981 3819449 3831151 3843344 3855475 3867144 3878245 
2790.722 3888806 3898789 3908154 3916645 3924107 3930385 3935682 3940368 
2794.579 3945132 3950606 3957430 3966076 3976716 3989218 4003163 4017774 
2798.437 4032162 4045147 4055740 4063297 4067699 4069589 4070117 4070827 
2802.294 4073256 4078498 4086970 4098337 4111688 4125717 4139320 4151466 
2806.151 4161761 4170097 4176761 4182263 4187208 4192184 4197826 4204587 
2810.009 4212701 4222002 4232108 4242217 4251529 4259398 4265581 4270309 
2813.866 4274314 4278532 4283804 4290731 4299437 4309635 4320901 4332907 
2817.724 4345594 4359283 4374439 4391558 4410932 4432329 4455142 4478568 
2821.581 4501774 4524322 4546297 4568255 4591129 4615820 4642807 4672143 
2825.438 4703265 4735262 4767248 4798835 4830224 4862420 4896938 4935437 
2829.296 4979319 5029268 5085263 5146642 5212171 5280684 5351150 5422846 
2833.153 5495441 5568917 5643482 5719644 5798159 5880140 5967015 6060573 
2837.011 6162473 6274076 6396303 6529309 6672619 6825478 6986909 7156183 
2840.868 7332995 7517410 7709907 7911249 8122157 8343220 8574493 8815433 
2844.726 9064586 9319637 9577548 9834861 10088331 10335292 10574108 10804255 
2848.583 11025903 11239511 11445142 11641976 11828160 12001180 12158266 
2851.958 12297087 12416158 12515001 12594031 12653938 12695581 12719364 
2855.333 12725601 12714414 12686199 12641853 12582837 12511088 12428688 
2858.709 12337593 12239398 12135147 12025524 11910840 11791348 11667344 
2862.084 11539457 11408658 11276390 11144292 11014307 10888142 10767243 
2865.459 10652330 10543530 10440320 10342001 10247834 10157607 10071455 
2868.834 9990032 9914195 9844583 9781419 9724589 9673587 9627964 9587491 
2872.692 9552279 9522757 9499344 9482230 9471191 9465680 9465087 9469152 
2876.549 9478122 9492905 9514885 9545396 9585469 9635407 9694830 9762803 
2880.407 9838460 9920829 10009536 10104159 10204457 10309749 10418961 
2883.782 10530757 10643671 10756566 10868786 10980188 11090941 11201196 
2887.157 11310775 11419163 11525463 11628724 11728287 11823780 11915249 
2890.532 12002837 12086559 12166096 12240974 12310657 12374981 12434332 
2893.908 12489531 12541869 12592517 12642188 12691057 12738697 12784548 
2897.283 12828340 12870315 12911594 12953921 12999351 13049980 13107583 
2900.658 13173263 13247561 13330440 13421175 13518572 13621001 13726594 
2904.033 13833535 13940409 14046551 14152245 14258467 14366749 14478387 
2907.409 14594223 14714222 14837603 14963099 15089530 15216091 15342662 
2910.784 15469725 15597986 15728126 15860578 15995260 16131991 16270408 
2914.159 16410315 16551498 16693930 16837332 16981240 17124834 17267214 
2917.534 17407618 17545622 17681144 17814634 17946658 18077700 18208034 
2920.910 18337478 18465294 18590388 18711382 18826750 18935076 19035306 
2924.285 19126914 19210098 19285702 19355126 19419818 19481036 19539286 
2927.660 19594164 19644440 19688456 19724580 19751554 19769020 19777244 
2931.035 19777104 19769580 19755452 19735204 19708928 19676468 19637736 
2934.411 19592724 19541544 19484402 19421396 19352788 19278880 19200304 
2937.786 19117996 19033224 18947312 18861016 18774300 18686082 18594300 
2941.161 18496536 18390640 18275542 18151558 18020428 17884774 17747332 
2944.536 17609974 17473448 17336954 17198822 17057176 16910796 16759655 
2947.912 16605036 16449279 16294986 16144340 15998375 15857039 15719275 
2951.287 15583706 15449268 15315667 15183568 15054195 14928903 14808433 
2954.662 14692616 14580131 14468946 14356938 14242314 14124334 14003302 
2958.037 13880350 13756989 13634419 13513377 13393784 13275170 13157021 
2961.413 13039120 12922040 12806883 12695017 12587576 12485029 12386965 
2964.788 12291940 12198189 12103786 12007224 11907859 11805587 11701031 
2968.163 11594978 11488077 11380727 11273026 11164859 11056071 10946517 
2971.538 10836235 10725430 10614263 10503093 10392133 10281707 10172054 
2974.914 10063357 9955687 9848870 9742516 9635982 9528644 9419928 9309458 
2978.771 9197194 9083384 8968476 8853074 8737770 8623307 8510142 8398865 
2982.628 8289969 8183825 8080777 7980986 7884539 7791497 7702030 7616237 
2986.486 7534188 7455643 7380120 7306701 7234128 7161312 7087351 7012042 
2990.343 6935718 6859352 6784072 6710931 6640711 6573822 6510481 6450937 
2994.201 6395504 6344591 6298482 6257103 6219755 6185300 6152269 6119278 
2998.058 6085451 6050344 6014120 5976981 5938893 5899576 5858316 5814580 
3001.916 5768204 5719762 5670595 5622409 5576676 5534299 5495111 5458164 
3005.773 5422006 5385327 5347400 5308157 5268237 5228463 5189414 5151359 
3009.630 5113969 5076617 5038800 5000192 4961076 4922054 4884014 4847777 
3013.488 4813910 4782454 4753089 4724910 4696760 4667335 4635421 4600182 
3017.345 4561442 4519700 4476200 4432648 4390898 4352456 4318285 4288631 
3021.203 4263090 4240907 4221242 4203395 4186929 4171547 4156916 4142644 
3025.060 4128213 4112984 4096603 4078967 4060376 4041462 4022989 4005702 
3028.917 3989994 3975867 3963101 3951192 3939642 3928027 3916078 3903619 
3032.775 3890713 3877472 3864291 3851593 3840051 3830598 3824155 3821604 
3036.632 3823547 3830287 3841494 3856261 3873355 3891298 3908749 3924714 
3040.490 3938912 3951775 3964426 3978494 3995664 4017497 4045006 4078624 
3044.347 4118223 4163207 4212855 4266445 4323338 4383015 4445034 4508722 
3048.205 4573055 4636674 4697801 4754417 4804568 4846722 4880080 4904645 
3052.062 4921539 4932582 4939933 4945649 4951093 4956675 4961661 4964651 
3055.919 4963942 4958302 4947383 4931963 4913920 4895580 4879362 4866955 
3059.777 4859110 4855711 4855804 4858283 4862195 4866948 4872399 4878567 
3063.634 4885347 4892318 4898735 4903636 4906230 4906138 4903620 4899478 
3067.492 4894882 4890842 4888037 4886505 4885795 4884949 4883258 4880151 
3071.349 4875640 4870146 4864375 4859047 4854772 4851922 4850676 4851141 
3075.207 4853391 4857502 4863210 4869977 4876831 4882502 4885657 4885227 
3079.064 4880734 4872366 4860885 4847305 4832484 4816919 4800568 4782933 
3082.921 4763570 4742034 4718441 4693288 4667372 4641558 4616513 4592533 
3086.779 4569461 4546883 4524080 4500427 4475374 4448825 4421121 4393351 
3090.636 4366996 4343905 4325858 4313900 4308119 4307415 4309801 4313024 
3094.494 4315168 4315395 4314224 4313424 4315103 4321284 4332925 4349575 
3098.351 4369561 4390319 4409325 4424508 4434718 4439836 4440515 4437690 
3102.208 4432251 4425025 4416460 4406659 4395750 4383830 4371025 4357664 
3106.066 4344205 4330977 4318352 4306223 4294156 4281373 4266844 4249719 
3109.923 4229709 4207186 4183299 4159399 4136761 4115873 4096449 4077256 
3113.781 4057018 4034916 4011185 3987195 3965179 3947359 3935297 3929155 
3117.638 3927869 3929637 3932722 3936033 3939599 3944305 3951152 3960738 
3121.496 3972798 3985970 3998465 4008493 4014932 4017534 4016757 4013357 
3125.353 4008025 4001059 3992534 3982428 3970954 3958689 3946387 3934585 
3129.210 3923378 3912125 3899899 3885652 3868905 3850000 3830279 3811633 
3133.068 3795962 3784633 3778084 3775525 3775486 3775982 3775153 3771684 
3136.925 3764923 3755051 3742901 3729776 3717129 3706434 3698676 3694455 
3140.783 3693632 3695440 3698723 3701954 3703593 3702363 3697463 3688729 
3144.640 3676664 3662553 3648192 3635616 3626634 3622383 3622917 3627113 
3148.498 3632788 3637470 3638894 3635958 3628819 3618997 3608691 3600033 
3152.355 3594323 3591719 3591228 3591209 3590159 3587221 3582383 3576469 
3156.212 3570576 3565722 3562401 3560508 3559548 3558921 3558111 3556752 
3160.070 3554695 3551755 3547752 3542434 3535772 3527969 3519765 3512216 
3163.927 3506525 3503768 3504754 3509677 3518347 3530033 3543834 3558577 
3167.785 3572959 3585666 3595490 3601599 3603581 3601746 3597053 3590806 
3171.642 3584363 3578706 3574136 3570299 3566396 3561574 3555284 3547728 
3175.500 3539782 3532914 3528688 3528371 3532546 3540752 3551532 3562651 
3179.357 3571471 3575667 3573571 3564672 3549941 3531422 3511938 3494430 
3183.214 3481212 3473659 3472000 3475285 3481968 3490257 3498471 3505313 
3187.072 3509938 3511855 3510935 3507489 3502146 3495870 3489916 3485436 
3190.929 3483187 3483431 3485813 3489463 3493483 3497124 3500203 3502750 
3194.787 3505189 3507640 3509983 3511696 3512085 3510615 3507276 3502589 
3198.644 3497640 3493526 3491183 3490882 3492344 3494621 3496724 3497653 
3202.501 3496787 3493919 3489394 3483792 3478002 3472995 3469739 3469085 
3206.359 3471480 3477013 3485108 3494764 3504642 3513421 3520133 3524239 
3210.216 3525881 3525526 3524103 3522449 3521254 3520942 3521612 3522938 
3214.074 3524493 3525622 3525801 3524735 3522499 3519574 3516746 3514802 
3217.931 3514389 3515517 3517881 3520661 3523102 3524746 3525766 3526688 
3221.789 3528399 3531499 3536101 3541625 3546985 3550934 3552506 3551295 
3225.646 3547530 3541975 3535663 3529646 3524854 3522014 3521794 3524514 
3229.503 3530318 3538692 3548583 3558303 3565906 3569601 3568333 3561921 
3233.361 3551454 3538776 3526051 3515323 3508077 3504951 3505891 3510063 
3237.218 3516261 3522944 3528518 3531552 3531241 3527397 3520834 3512980 
3241.076 3505697 3500593 3498503 3499046 3500987 3502422 3501621 3497645 
3244.933 3490637 3481655 3472406 3464390 3458587 3455098 3453394 3452583 
3248.791 3451916 3450906 3449697 3448697 3448424 3449345 3451645 3455370 
3252.648 3460211 3465727 3471401 3476445 3480276 3482362 3482534 3481038 
3256.505 3478512 3475864 3473968 3473430 3474432 3476849 3480329 3484542 
3260.363 3489297 3494453 3499832 3505057 3509520 3512488 3513317 3511841 
3264.220 3508490 3504286 3500689 3499066 3500448 3505158 3512910 3522772 
3268.078 3533526 3543807 3552525 3558725 3562072 3562618 3560955 3558112 
3271.935 3555202 3553214 3552759 3553716 3555585 3557700 3559625 3561406 
3275.792 3563767 3567686 3573966 3582632 3592792 3602634 3610171 3613666 
3279.650 3612403 3606703 3597981 3587885 3577977 3569025 3561141 3553903 
3283.507 3546762 3539375 3531818 3524416 3517659 3512005 3507877 3505692 
3287.365 3506071 3509868 3517931 3530687 3547840 3568004 3588993 3608091 
3291.222 3622700 3631217 3633248 3629931 3623514 3616903 3612967 3613910 
3295.080 3620753 3633054 3649076 3665936 3680223 3688788 3689552 3681972 
3298.937 3667450 3648799 3629797 3614021 3604018 3600664 3603299 3609996 
3302.794 3618423 3626550 3633231 3638096 3641636 3644572 3647709 3651567 
3306.652 3656404 3662287 3668937 3675869 3682220 3686907 3688873 3687362 
3310.509 3682408 3674886 3666564 3659567 3655642 3655769 3659713 3666102 
3314.367 3673101 3678886 3682373 3683371 3682588 3681128 3680095 3680202 
3318.224 3681774 3684566 3688395 3693140 3698981 3706223 3715240 3726112 
3322.082 3738547 3751732 3764627 3775899 3784327 3788890 3789169 3785318 
3325.939 3778277 3769367 3760342 3752695 3747604 3745487 3746143 3748915 
3329.796 3753082 3758166 3764158 3771409 3780453 3791766 3805339 3820629 
3333.654 3836754 3852441 3866455 3877716 3885258 3888488 3887108 3881151 
3337.511 3871263 3858488 3844347 3830578 3818749 3810030 3804831 3802858 
3341.369 3803293 3805092 3807051 3808169 3807626 3804718 3799011 3790220 
3345.226 3778594 3764895 3750295 3736500 3724944 3716741 3712201 3710892 
3349.083 3711756 3713600 3715501 3716878 3717732 3718324 3718950 3719633 
3352.941 3720191 3720179 3719323 3717566 3715204 3712819 3711186 3711046 
3356.798 3712947 3717064 3723486 3731692 3740950 3750074 3757728 3762471 
3360.656 3763251 3759563 3751794 3741086 3729119 3717607 3707920 3700609 
3364.513 3695561 3692031 3689140 3686181 3683048 3679984 3677766 3677044 
3368.371 3678372 3681875 3687279 3693898 3700965 3707703 3713560 3718308 
3372.228 3722232 3725939 3730358 3736326 3744395 3754324 3765186 3775375 
3376.085 3782985 3786337 3784777 3778600 3769413 3759500 3751514 3747478 
3379.943 3748656 3755039 3765699 3778777 3792296 3804279 3813276 3818456 
3383.800 3819690 3817565 3813079 3807591 3802412 3798589 3796747 3796965 
3387.658 3799175 3803069 3808622 3815847 3824919 3835572 3847188 3858391 
3391.515 3867383 3872560 3873064 3869287 3863246 3857943 3856690 3861983 
3395.373 3874646 3893609 3916058 3938239 3956786 3969421 3975686 3976747 
3399.230 3975067 3973189 3973325 3976655 3983261 3992533 4003487 4015245 
3403.087 4027446 4040045 4053484 4068225 4084736 4103154 4123471 4145364 
3406.945 4168426 4192033 4215766 4239183 4262217 4285037 4308193 4332303 
3410.802 4357876 4385266 4414263 4444031 4473499 4501441 4526924 4549479 
3414.660 4569336 4587148 4603915 4620467 4637387 4654827 4672708 4690886 
3418.517 4709341 4728270 4748307 4769896 4793448 4818988 4846075 4873736 
3422.375 4900812 4926047 4948455 4967297 4982507 4994450 5004038 5012477 
3426.232 5020945 5030294 5040892 5052221 5063236 5072693 5079425 5083020 
3430.089 5083958 5083484 5083317 5084761 5088440 5093733 5098955 5101827 
3433.947 5100200 5092450 5078175 5057798 5032557 5003873 4973197 4941861 
3437.804 4911064 4882030 4856207 4834652 4818263 4806932 4799683 4794681 
3441.662 4789877 4783449 4774509 4763094 4750170 4736877 4724183 4712169 
3445.519 4700082 4686497 4669951 4649269 4624307 4595643 4564715 4533349 
3449.376 4503384 4476205 4452829 4433501 4417902 4405010 4393517 4382069 
3453.234 4369335 4354677 4338262 4320913 4304044 4289188 4277438 4269339 
3457.091 4264502 4261985 4260423 4258400 4254796 4248858 4240181 4228779 
3460.949 4214992 4199504 4183365 4167706 4153814 4142585 4134409 4128933 
3464.806 4125248 4122058 4118277 4113255 4107158 4100682 4095019 4091267 
3468.664 4090064 4091377 4094568 4098350 4101543 4103058 4102458 4099871 
3472.521 4096208 4092675 4090724 4091245 4094616 4100188 4106507 4111645 
3476.378 4113777 4111649 4105187 4095420 4084325 4074258 4067409 4065107 
3480.236 4067886 4075260 4086146 4099086 4112622 4125392 4136270 4144386 
3484.093 4149255 4151028 4150308 4148117 4145581 4143495 4141835 4139926 
3487.951 4136520 4130381 4120927 4108405 4094290 4080481 4069223 4062098 
3491.808 4060198 4063837 4073052 4087477 4106605 4129273 4153546 4176757 
3495.666 4195751 4208023 4212618 4210721 4205667 4201874 4203453 4212543 
3499.523 4228525 4248210 4267079 4280814 4287179 4286409 4281091 4274697 
3503.380 4270259 4269140 4271005 4274113 4276899 4278407 4278959 4279691 
3507.238 4281797 4285554 4290423 4295281 4299208 4302346 4305939 4311748 
3511.095 4321183 4334081 4348540 4361064 4368309 4368131 4360907 4349596 
3514.953 4338774 4333114 4335758 4347237 4365564 4387041 4407663 4424297 
3518.810 4435549 4441594 4443920 4444132 4443828 4444089 4445370 4447816 
3522.667 4451285 4455548 4460256 4465146 4470278 4476180 4484057 4495341 
3526.525 4511225 4531990 4556435 4581829 4604608 4621335 4630137 4631313 
3530.382 4627328 4622318 4620441 4624605 4635513 4651503 4669190 4684661 
3534.240 4694632 4697471 4693317 4683728 4671261 4658551 4647868 4640770 
3538.097 4637947 4639316 4644214 4651580 4660119 4668782 4676978 4684956 
3541.955 4693592 4703935 4716969 4732792 4750437 4767821 4782632 4792649 
3545.812 4796755 4795214 4789635 4782345 4775805 4771871 4771415 4774490 
3549.669 4780451 4788502 4797962 4808081 4818409 4828049 4835955 4841021 
3553.527 4842115 4838798 4831241 4820352 4807529 4794119 4781083 4768653 
3557.384 4756451 4743616 4729342 4713219 4695537 4677111 4659338 4643641 
3561.242 4631345 4623255 4619771 4620627 4625291 4632729 4641643 4650424 
3565.099 4657406 4660837 4659360 4652027 4638907 4620803 4599398 4576783 
3568.957 4555274 4536770 4522671 4513661 4509751 4510397 4514551 4520826 
3572.814 4527555 4532688 4534434 4531120 4522060 4507476 4488730 4467921 
3576.671 4447267 4428537 4412366 4398106 4384319 4369261 4351761 4331967 
3580.529 4311205 4291855 4276528 4267088 4264223 4267200 4274181 4282897 
3584.386 4291517 4298785 4304566 4309261 4313554 4317848 4322057 4325364 
3588.244 4326898 4325561 4321056 4313554 4304143 4294314 4285963 4280570 
3592.101 4279138 4281817 4288142 4296807 4306662 4316593 4326197 4335742 
3595.958 4345989 4357758 4371565 4387179 4403803 4420066 4434581 4446265 
3599.816 4454396 4458809 4459714 4457205 4451638 4443344 4433230 4422550 
3603.673 4413157 4406858 4405125 4408381 4416109 4426581 4437904 4448234 
3607.531 4456649 4463038 4468247 4473150 4478609 4484905 4492090 4500052 
3611.388 4509051 4519493 4531750 4545649 4559923 4572180 4579596 4579504 
3615.246 4570693 4553913 4532186 4510000 4492213 4482921 4484455 4496897 
3619.103 4518547 4546489 4577567 4608906 4638468 4664903 4687666 4706664 
3622.960 4722022 4734193 4743818 4751578 4758164 4763910 4768927 4772967 
3626.818 4775682 4776664 4775812 4773399 4770179 4767008 4765051 4765101 
3630.675 4767482 4771637 4776202 4778821 4777011 4768527 4752534 4729999 
3634.533 4704175 4679700 4661600 4653372 4656048 4667314 4682307 4694947 
3638.390 4700164 4695446 4681772 4663214 4645436 4633840 4631572 4638833 
3642.248 4652942 4669543 4684011 4692689 4693870 4687674 4675693 4660364 
3646.105 4644273 4629697 4618614 4611983 4609719 4610478 4611758 4610402 
3649.962 4603491 4589370 4568450 4543206 4517836 4496645 4483033 4478246 
3653.820 4481103 4488383 4496200 4500892 4500501 4494839 4485374 4474200 
3657.677 4463286 4453715 4445601 4438009 4430214 4421483 4412091 4402907 
3661.535 4395269 4390497 4389390 4391765 4396523 4401806 4405394 4405362 
3665.392 4400511 4390676 4376895 4360800 4344428 4329454 4316985 4307449 
3669.250 4300821 4296664 4294731 4294695 4296246 4298523 4300249 4299790 
3673.107 4295565 4286590 4273023 4256253 4238555 4222455 4209953 4201790 
3676.964 4197538 4195799 4195061 4194046 4192094 4188926 4184332 4177695 
3680.822 4168303 4155130 4137922 4117331 4095374 4074891 4059213 4051018 
3684.679 4052049 4062498 4081417 4106846 4136272 4166800 4195387 4218966 
3688.537 4234788 4241052 4237501 4225428 4207916 4188695 4171403 4158151 
3692.394 4149141 4142500 4135118 4124080 4107615 4086200 4062157 4039016 
3696.251 4020455 4009062 4005617 4008977 4016988 4026734 4035779 4042440 
3700.109 4046147 4047253 4046736 4045704 4045213 4045777 4047285 4048957 
3703.966 4049711 4048425 4044560 4038413 4031222 4024858 4021101 4021070 
3707.824 4024666 4030493 4036624 4041017 4042689 4042042 4040917 4041681 
3711.681 4046758 4057437 4073719 4093958 4115806 4136274 4152771 4162972 
3715.539 4165344 4159113 4144593 4123248 4097971 4072376 4050618 4035819 
3719.396 4029583 4031167 4037856 4045800 4051595 4053385 4051520 4048567 
3723.253 4047852 4052335 4063400 4080086 4099842 4119377 4135918 4148259 
3727.111 4156790 4162991 4168638 4174691 4181075 4186865 4190881 4192615 
3730.968 4192777 4193103 4195954 4203324 4216090 4233317 4252594 4270584 
3734.826 4284144 4290912 4290118 4282588 4270303 4255739 4241097 4227750 
3738.683 4216230 4206400 4198054 4191182 4186242 4184072 4185464 4190659 
3742.541 4199075 4209377 4219746 4228514 4234750 4238619 4240935 4242627 
3746.398 4244167 4244841 4243017 4236770 4224862 4207523 4186994 4166858 
3750.255 4151384 4143887 4145937 4156874 4174179 4194578 4215086 4233661 
3754.113 4249626 4262902 4273909 4282556 4288318 4290658 4289253 4284563 
3757.970 4277943 4271193 4266218 4264132 4265420 4269637 4275979 4283666 
3761.828 4292007 4300530 4308581 4315304 4319660 4320661 4317885 4311841 
3765.685 4303978 4296164 4290244 4287218 4286998 4288585 4290531 4291644 
3769.542 4291539 4290396 4288944 4287709 4286705 4285342 4282926 4279073 
3773.400 4274384 4270399 4269200 4272608 4281409 4294630 4309962 4324181 
3777.257 4334152 4337558 4333870 4323806 4309523 4293425 4277955 4264719 
3781.115 4254657 4247986 4244412 4243282 4244054 4246075 4248983 4252574 
3784.972 4256822 4261920 4268089 4275224 4283199 4291305 4298781 4304611 
3788.830 4308085 4308477 4305636 4299649 4291055 4280501 4269222 4258419 
3792.687 4249573 4243665 4241497 4242926 4247296 4253423 4260247 4267010 
3796.544 4273683 4280862 4289321 4299565 4311505 4324068 4335769 4344941 
3800.402 4350507 4352275 4350939 4347805 4344153 4340823 4338088 4335779 
3804.259 4333675 4331792 4330581 4330509 4332028 4334700 4337593 4339114 
3808.117 4337811 4332855 4324697 4314816 4305437 4298817 4296445 4298699 
3811.974 4304882 4313555 4323346 4333386 4343896 4355668 4370012 4387619 
3815.832 4408322 4430539 4451765 4469178 4480411 4484279 4481088 4472489 
3819.689 4460807 4448109 4435682 4423447 4410443 4395213 4377106 4356774 
3823.546 4336621 4320120 4311080 4312183 4324278 4345628 4372646 4400562 
3827.404 4424882 4442437 4451881 4453641 4449628 4442160 4433701 4426203 
3831.261 4421102 4419156 4420533 4424624 4430136 4434984 4436965 4433895 
3835.119 4424744 4409655 4390412 4369694 4350811 4336351 4327956 4325589 
3838.976 4328025 4333281 4339362 4344713 4348562 4351016 4352777 4355009 
3842.833 4358993 4365853 4376349 4390523 4407722 4426458 4444808 4460821 
3846.691 4472978 4480739 4484706 4486237 4487179 4489090 4492954 4498628 
3850.548 4505232 4511144 4514738 4514713 4510427 4502060 4490847 4478451 
3854.406 4467062 4458544 4454156 4453926 4456740 4460525 4462776 4461496 
3858.263 4455923 4446843 4436528 4427575 4422311 4421288 4423232 4425190 
3862.121 4423851 4416677 4403234 4385428 4367118 4352748 4346274 4349431 
3865.978 4361831 4380782 4402594 4423493 4440504 4452047 4457933 4459147 
3869.835 4457517 4455267 4454650 4457642 4465297 4477698 4493713 4511025 
3873.693 4526761 4538005 4542882 4540612 4532193 4519486 4505061 4491096 
3877.550 4479266 4470389 4464809 4462553 4463728 4468256 4475900 4485951 
3881.408 4497113 4507684 4515974 4520763 4521642 4518965 4513895 4507779 
3885.265 4501834 4496919 4493457 4491739 4491966 4494349 4499272 4507081 
3889.123 4517618 4530343 4544342 4558399 4571348 4582274 4590725 4596700 
3892.980 4600371 4602160 4602505 4601736 4600184 4598048 4595487 4592448 
3896.837 4588864 4584536 4579491 4573927 4568547 4564228 4562217 4563485 
3900.695 4568564 4577015 4587675 4598471 4607116 4611366 4609863 4602351 
3904.552 4589907 4574603 4559270 4546512 4538379 4535629 4537838 4543518 
3908.410 4550503 4556717 4560819 4562273 4561837 4560896 4561325 4564829 
3912.267 4572436 4584279 4599470 4616331 4632704 4646244 4654894 4657201 
3916.125 4652414 4640731 4623419 4602410 4580332 4559878 4543648 4533631 
3919.982 4530854 4535334 4546071 4561189 4578274 4594923 4609135 4619611 
3923.839 4626177 4629431 4630721 4631437 4632821 4635328 4638504 4641320 
3927.697 4642331 4640266 4634576 4625461 4614217 4602503 4592285 4585088 
3931.554 4581690 4582011 4585303 4590296 4595758 4600807 4604920 4608202 
3935.412 4611072 4613967 4617240 4620753 4624106 4626643 4627813 4627173 
3939.269 4624910 4621520 4617714 4614107 4611063 4608448 4605885 4602946 
3943.126 4599496 4595884 4592984 4591934 4593852 4599274 4608108 4619498 
3946.984 4632301 4645243 4657423 4668368 4678203 4687164 4695578 4703563 
3950.841 4710998 4717426 4722537 4725994 4727823 4728210 4727616 4726550 
3954.699 4725496 4724739 4724358 4724194 4723880 4722919 4721150 4718584 
3958.556 4715870 4713843 4713540 4715517 4719854 4725271 4730230 4732654 
3962.414 4731166 4725250 4715879 4704912 4694739 4687131 4683070 4682141 
3966.271 4682967 4683846 4683430 4681216 4677652 4673762 4670829 4669654 
3970.128 4670518 4673059 4676709 4680792 4685011 4689299 4693993 4699420 
3973.986 4705835 4713227 4721283 4729246 4736062 4740359 4740894 4736701 
3977.843 4727820 4715376 4701791 4690263 4684031 4685384 4695086 4711783 
3981.701 4732594 4753671 4771472 4783460 4788625 4787481 4781655 4773193 
3985.558 4764134 4756131 4750462 4748063 4749370 4754344 4762145 4771103 
3989.416 4778949 4783263 4782278 4775421 4763683 4749319 4735443 4724867 
3993.273 4719592 4720175 4725858 4734847 4745131 4754902 4763096 4769387 
3997.130 4774033 4777508 4780358 4782664 4784194 4784267 4782106 4776946 
##END=
