##TITLE=eSUN_ABS+_Black_Filament_r7_ATR-Corrected
##JCAMP-DX=5.01  $$ Nicolet v. 1
##DATATYPE=INFRARED SPECTRUM
##ORIGIN=Curtin University
##OWNER=Nicolet
##LONGDATE=2024/07/18
##TIME=11:05:29
##SPECTROMETER/DATA SYSTEM=Nicolet iS50
##DATA PROCESSING=
Ratio against background
%Transmittance->Absorbance
ATR Correction
Truncated
ElementMultiply or ElementDivide
##COMMENTS=
Number of sample scans: 32
Collection length: 47.29 sec
Sample gain: 1.0
Background collected on: Thu Jul 18 11:00:34 2024 (GMT+08:00);
Number of background scans: 32
Background gain: 1.0
Sample spacing:  1.000
Number of scan points: 16672
Resolution points: 8192
Number of FFT points: 65536
Apodization: N-B strong;
Phase correction: Mertz;
Laser frequency: 15798.3 cm-1
Number of rejected sample scans: 0
Number of rejected background scans: 0
Bench serial number: AUP1200105;
##RESOLUTION=4.000
##XUNITS=1/CM
##YUNITS=ABSORBANCE
##FIRSTX=400.163452
##LASTX=4000.187744
##FIRSTY=0.022705
##MAXX=4000.187744
##MINX=400.163452
##MAXY=0.371450
##MINY=-0.003106
##XFACTOR=1.000000
##YFACTOR=1.000000E-009
##NPOINTS=7468
##DELTAX=0.482125
##ZPD=8192
##XYDATA=(X++(Y..Y))
400.163 22705304 22821106 23142466 23568198 23971798 24233022 24269254 
403.538 24054152 23626992 23077056 22520640 22063524 21773596 21661372 
406.913 21682472 21754394 21786988 21710570 21498270 21169252 20779714 
410.288 20400244 20094054 19897976 19819842 19842136 19937270 20078180 
413.663 20246526 20428952 20613410 20781174 20909262 20975518 20971638 
417.038 20911738 20834970 20795684 20845578 21011020 21279322 21596842 
420.412 21886654 22073892 22113608 22007002 21802414 21577980 21416726 
423.787 21378798 21485718 21716470 22020658 22337108 22614598 22822610 
427.162 22954278 23017636 23024962 22983394 22893210 22749900 22552682 
430.537 22309818 22041158 21774052 21536592 21349114 21217706 21135386 
433.912 21085738 21049392 21010872 20962964 20908680 20858328 20826354 
437.286 20825218 20863024 20939470 21047564 21174188 21304582 21424812 
440.661 21525368 21602202 21657286 21695972 21725492 21752186 21780728 
444.036 21814060 21856200 21912726 21991910 22102750 22252334 22441122 
447.411 22661132 22893904 23114352 23294630 23410798 23447716 23402236 
450.786 23283242 23109194 22903760 22691866 22495124 22330150 22206796 
454.161 22128370 22092170 22092206 22120828 22172310 22243976 22336672 
457.535 22452258 22590450 22743632 22895928 23023100 23099572 23105924 
460.910 23039130 22916450 22775060 22662788 22625278 22691702 22864824 
464.285 23121192 23419438 23714072 23971316 24178370 24344686 24493396 
467.660 24647814 24818442 24997252 25159798 25276958 25327174 25307254 
471.035 25233564 25136274 25046126 24983084 24949910 24934670 24918938 
474.409 24889794 24846314 24800820 24771488 24772372 24804382 24853390 
477.784 24895200 24906746 24876976 24813514 24741032 24692548 24697206 
481.159 24769972 24906200 25084486 25273636 25442304 25566014 25631416 
484.534 25635182 25582598 25484114 25354878 25212870 25078340 24970418 
487.909 24904020 24885738 24912672 24973494 25052894 25136616 25215652 
491.284 25286566 25349984 25406632 25455318 25493186 25519156 25538382 
494.658 25563188 25611648 25700798 25838168 26016228 26212394 26396528 
498.033 26542332 26639492 26698436 26748834 26827282 26963410 27166032 
501.408 27418668 27683310 27913400 28069484 28132172 28107236 28022460 
504.783 27916540 27826734 27777784 27777636 27818114 27882230 27951966 
508.158 28016588 28076222 28142170 28231808 28363264 28547530 28784310 
511.532 29060894 29355410 29643562 29907646 30142782 30359988 30582842 
514.907 30840030 31155508 31540584 31990756 32489072 33013322 33545218 
518.282 34076044 34608276 35151440 35716092 36308320 36928540 37573320 
521.657 38240632 38932688 39656348 40418392 41219168 42047180 42879228 
525.032 43685124 44436912 45118164 45729296 46285412 46809352 47322368 
528.406 47837140 48354712 48868624 49369952 49852560 50314352 50755584 
531.781 51174504 51566268 51924420 52246844 52541680 52830532 53144412 
535.156 53515264 53963704 54491632 55080456 55699324 56317580 56917260 
538.531 57498772 58077836 58673920 59296876 59937424 60567372 61149148 
541.906 61650372 62058336 62386008 62668636 62952212 63277960 63670784 
545.281 64134420 64654520 65206744 65766328 66314200 66839532 67337984 
548.655 67809688 68257216 68685256 69101472 69515920 69938848 70377736 
552.030 70833504 71299384 71762640 72208384 72623344 72998424 73326824 
555.405 73601304 73810192 73936008 73959144 73865248 73651720 73332648 
558.780 72937000 72501096 72056872 71621800 71192112 70744408 70243032 
562.155 69651056 68940928 68100544 67133120 66053228 64879128 63627340 
565.529 62308576 60929044 59493524 58010388 56494780 54971036 53471236 
568.904 52032152 50690460 49477384 48414168 47509628 46759332 46148688 
572.279 45656956 45262976 44949928 44707004 44528720 44410084 44340880 
575.654 44301248 44260444 44181408 44028196 43776268 43419608 42974276 
579.029 42473944 41961276 41475548 41043124 40670968 40348600 40053580 
582.404 39761172 39452136 39118004 38760444 38388084 38010580 37635120 
585.778 37264184 36897436 36534084 36176376 35830052 35503320 35203780 
589.153 34935272 34696312 34480976 34280964 34089560 33903688 33724724 
592.528 33556312 33401952 33261572 33130888 33001426 32863374 32708618 
595.903 32532822 32336310 32122858 31897578 31665120 31428334 31188834 
599.278 30948176 30709616 30479060 30264986 30077334 29925972 29818500 
602.652 29759602 29750138 29787266 29864728 29973362 30102076 30238766 
606.027 30371694 30490694 30588432 30660496 30704698 30719994 30704926 
609.402 30658288 30579360 30470348 30338432 30196718 30062788 29955652 
612.777 29890626 29875240 29906872 29973924 30059818 30148852 30231704 
616.152 30308100 30385836 30476760 30590008 30727072 30878456 31024760 
619.527 31141072 31203446 31195214 31111548 30960128 30759314 30533564 
622.901 30308048 30103810 29934810 29806494 29716486 29656582 29615540 
626.276 29582226 29547796 29507060 29459078 29406046 29351760 29299778 
629.651 29252802 29211866 29177450 29150120 29131548 29123746 29128802 
633.026 29146688 29174724 29207298 29237506 29259960 29272380 29277398 
636.401 29281192 29290846 29310582 29338488 29366356 29381630 29371924 
639.775 29329800 29256978 29164596 29070814 28995496 28954662 28956156 
643.150 28998896 29074160 29170216 29276114 29384748 29493160 29601238 
646.525 29708546 29812404 29906960 29984650 30038570 30065228 30067070 
649.900 30052838 30035898 30032430 30057308 30121666 30230120 30380330 
653.275 30563114 30764690 30970074 31166592 31347268 31512972 31672054 
656.650 31838092 32025580 32246154 32504808 32799654 33122662 33463318 
660.024 33812368 34164184 34517944 34876192 35242996 35621388 36012200 
663.399 36414080 36824372 37240604 37661136 38085860 38515492 38951544 
666.774 39396068 39851436 40319944 40803176 41300112 41806128 42312412 
670.149 42807336 43279412 43720704 44130708 44517080 44893724 45277428 
673.524 45682444 46117492 46584488 47081188 47604244 48152812 48729304 
676.898 49338068 49981920 50659364 51364144 52088300 52827100 53584592 
680.273 54375488 55223632 56155916 57195104 58353820 59633316 61026128 
683.648 62523080 64119584 65820888 67641912 69605056 71735760 74061368 
687.023 76611928 79426056 82557712 86081936 90098936 94733168 100131248 
690.398 106459048 113898720 122646608 132907584 144885440 158762480 
693.290 174670352 192650832 212610224 234271920 257137216 280464128 
696.183 303280288 324443360 342759744 357150272 366831168 371450368 
699.076 371133312 366418496 358110848 347112864 334278272 320320704 
701.969 305777760 291016704 276268320 261667376 247293184 233199072 
704.861 219429264 206025424 193027344 180470400 168383472 156789920 
707.754 145708784 135156192 125146776 115693528 106808840 98504760 90794640 
711.129 83693224 77216080 71376432 66180652 61622536 57680036 54314004 
714.504 51471640 49091928 47113492 45479800 44142184 43058728 42191404 
717.878 41502312 40953292 40506924 40131352 39804864 39518356 39273696 
721.253 39079748 38945896 38876940 38870940 38921064 39019296 39160692 
724.628 39345008 39575960 39857056 40188076 40562496 40968972 41394244 
728.003 41828552 42268144 42716680 43182532 43674796 44200348 44762836 
731.378 45364668 46010172 46708384 47473812 48323488 49271820 50325688 
734.752 51480124 52718840 54016948 55346272 56680508 57998756 59286808 
738.127 60536424 61744032 62909880 64038144 65138040 66224748 67319296 
741.502 68446864 69634800 70909088 72292192 73801096 75447216 77235648 
744.877 79165992 81232760 83425784 85732424 88139416 90635896 93215744 
748.252 95878944 98630544 101478960 104432776 107497784 110675944 113964552 
751.627 117356744 120841608 124403640 128021184 131664544 135294624 
754.519 138864224 142320032 145606272 148668096 151453664 153914832 
757.412 156005808 157683168 158907120 159644864 159875280 159594672 
760.305 158819248 157583824 155937408 153935216 151631360 149072576 
763.197 146296416 143332144 140204240 136936224 133553816 130084976 
766.090 126558896 123004048 119446024 115907008 112405752 108958792 
768.983 105580872 102285288 99083496 95984008 92992296 90110544 87337304 
772.358 84668328 82096208 79610408 77197240 74841424 72527976 70244888 
775.732 67986272 65753712 63557044 61412136 59337720 57352164 55469452 
779.107 53698604 52042368 50498528 49061328 47723364 46476092 45311624 
782.482 44222432 43201852 42243948 41343132 40494036 39691424 38930332 
785.857 38207128 37520584 36872660 36268416 35714412 35215948 34774228 
789.232 34383704 34032528 33704924 33385508 33064138 32738530 32414782 
792.606 32103878 31816524 31558522 31327792 31115474 30910028 30702760 
795.981 30492656 30288106 30104654 29960882 29872322 29847150 29885054 
799.356 29978562 30117002 30290636 30493162 30722090 30977500 31259440 
802.731 31566006 31893420 32236722 32592144 32959170 33341166 33745224 
806.106 34179816 34652008 35165788 35720408 36311072 36930420 37570468 
809.481 38224640 38888552 39559648 40236904 40918608 41601348 42279308 
812.855 42944044 43585888 44194324 44759160 45271576 45723480 46108472 
816.230 46421696 46661088 46828860 46933504 46990172 47020400 47049860 
819.605 47104516 47207076 47374304 47616140 47937272 48339948 48827148 
822.980 49404752 50081264 50866984 51769976 52793964 53936080 55185320 
826.355 56522896 57922412 59350856 60769500 62136556 63409888 64551288 
829.729 65530420 66327952 66936156 67356488 67596640 67665376 67570520 
833.104 67318800 66918084 66381836 65730848 64993328 64201856 63387260 
836.479 62574552 61778852 61006440 60258156 59533896 58836148 58171000 
839.854 57546576 56969416 56441020 55956988 55507268 55079768 54663120 
843.229 54248864 53831964 53409428 52978720 52535940 52076196 51593792 
846.604 51083320 50540076 49959440 49336576 48666172 47943536 47166872 
849.978 46339384 45470696 44575832 43671692 42772964 41888144 41017812 
853.353 40156344 39296012 38432264 37568016 36714900 35891712 35119712 
856.728 34416756 33792844 33247370 32770876 32347512 31960272 31595770 
860.103 31247066 30914624 30605418 30329296 30095802 29910294 29772030 
863.478 29674072 29604850 29551030 29501002 29447076 29386568 29321058 
866.852 29254978 29193318 29141166 29102810 29083114 29087340 29121248 
870.227 29189750 29295314 29436728 29609588 29807690 30026862 30266552 
873.602 30531368 30829092 31166626 31546086 31961598 32399900 32844100 
876.977 33279124 33697668 34103228 34509132 34934980 35400440 35920396 
880.352 36501720 37143888 37841032 38584816 39366128 40175604 41002284 
883.727 41832024 42647716 43430008 44160312 44823372 45408348 45908684 
887.101 46320056 46637904 46855440 46963464 46951756 46810856 46534636 
890.476 46122344 45579544 44918852 44160312 43331672 42466704 41603444 
893.851 40779832 40028396 39372536 38823388 38380196 38034544 37775572 
897.226 37596476 37498112 37490272 37589276 37813576 38179176 38696408 
900.601 39368884 40195020 41170260 42289000 43545736 44933332 46442084 
903.975 48056180 49753780 51506392 53281068 55042984 56758100 58394944 
907.350 59925644 61325816 62573092 63646376 64525084 65189876 65624116 
910.725 65816948 65765544 65476612 64966568 64258704 63379756 62355408 
914.100 61207680 59954076 58609460 57189716 55714748 54210396 52707472 
917.475 51238124 49831228 48506884 47274392 46131244 45065676 44060460 
920.849 43097828 42163240 41248284 40352360 39482568 38652532 37880020 
924.224 37183456 36578500 36074244 35671608 35362552 35133156 34966404 
927.599 34846728 34762780 34708740 34683148 34686920 34720996 34785124 
930.974 34877252 34995280 35136848 35300156 35482856 35680788 35887472 
934.349 36094608 36294472 36482640 36660428 36834980 37016860 37216208 
937.724 37438660 37682732 37940368 38200028 38451660 38690412 38919140 
941.098 39146688 39385068 39644904 39931704 40244464 40575672 40913996 
944.473 41246496 41562196 41853600 42119172 42363688 42599024 42843312 
947.848 43118016 43444844 43841020 44316044 44870024 45494824 46178668 
951.223 46910680 47686212 48509036 49391688 50352768 51413544 52594920 
954.598 53915648 55391300 57034212 58853304 60852056 63028284 65372504 
957.972 67869392 70499976 73244216 76083456 79000136 81974320 84979552 
961.347 87978256 90919832 93742472 96379264 98764736 100842608 102569752 
964.722 103916760 104867112 105413800 105557928 105308536 104683752 
967.615 103711424 102428552 100878384 99105960 97153888 95059816 92856656 
970.990 90574112 88242712 85894632 83564216 81284800 79084888 76985384 
974.364 74998232 73127616 71373552 69735480 68214368 66813640 65537496 
977.739 64388856 63367756 62470948 61692312 61025124 60462964 60000008 
981.114 59630428 59347476 59141988 59003096 58919408 58880824 58881096 
984.489 58918000 58993664 59112620 59280224 59500400 59775240 60104396 
987.864 60485648 60914840 61386840 61894560 62428716 62977180 63525096 
991.239 64055616 64551348 64996652 65379680 65693588 65937512 66115780 
994.613 66237404 66314160 66359752 66391116 66428648 66498300 66632584 
997.988 66869864 67250800 67813688 68587384 69585880 70804488 72219368 
1001.363 73790360 75466208 77190744 78908136 80566384 82120680 83533968 
1004.738 84779664 85843280 86724368 87438816 88018992 88513760 88986992 
1008.113 89518128 90202368 91150608 92487184 94341128 96829240 100031112 
1011.487 103957744 108523072 113523440 118636896 123447792 127497912 
1014.380 130357384 131700216 131364152 129377528 125945408 121401544 
1017.273 116140968 110555392 104983936 99686488 94837472 90536432 86823720 
1020.648 83698784 81134872 79090128 77514160 76352968 75552920 75063168 
1024.022 74837720 74835128 75016960 75344976 75776712 76263728 76750616 
1027.398 77177224 77482416 77609528 77511232 77153536 76518656 75606032 
1030.773 74432032 73029352 71444016 69732584 67956784 66178864 64455332 
1034.148 62833004 61345212 60011472 58838380 57821980 56951900 56214644 
1037.523 55595960 55083328 54665712 54334408 54082016 53902500 53790536 
1040.899 53740956 53747276 53801712 53893580 54010688 54139704 54267780 
1044.274 54385720 54488312 54575928 54653120 54726964 54804760 54892368 
1047.649 54993044 55107520 55235236 55375312 55526796 55688932 55860592 
1051.024 56039688 56223228 56407312 56589156 56767136 56943476 57122648 
1054.400 57312088 57520120 57754644 58022276 58327180 58671040 59053284 
1057.775 59471136 59920312 60395316 60890884 61402284 61926648 62462848 
1061.150 63011616 63573608 64149080 64735600 65329076 65923260 66512592 
1064.525 67092896 67663656 68226992 68786024 69343080 69897288 70443016 
1067.901 70971408 71471840 71935160 72356280 72735552 73078736 73395912 
1071.276 73700152 74007928 74339496 74721552 75189832 75790104 76576896 
1074.651 77608912 78941248 80615960 82650912 85031968 87705616 90578352 
1078.026 93519024 96368488 98952136 101098104 102654800 103509312 103598720 
1081.402 102917592 101514872 99485480 96955544 94066888 90962024 87772984 
1084.777 84614416 81578992 78737568 76139608 73815296 71778048 70027648 
1088.152 68553176 67335768 66352256 65576472 64982348 64543492 64236164 
1091.527 64038300 63931672 63902616 63942464 64048016 64220928 64465924 
1094.903 64789160 65196424 65690464 66270284 66930024 67658280 68438440 
1098.278 69248616 70062856 70852224 71587160 72239344 72785496 73208216 
1101.653 73498464 73655064 73684224 73598408 73414448 73152336 72833728 
1105.028 72480824 72114376 71751664 71404360 71076176 70762560 70450376 
1108.404 70121008 69752760 69326024 68825496 68243520 67580056 66841820 
1111.779 66040724 65191044 64308076 63406692 62500664 61602528 60724000 
1115.154 59875148 59064424 58297696 57578316 56906704 56281944 55702068 
1118.529 55165792 54673136 54225368 53824192 53471044 53165800 52907012 
1121.905 52691712 52517148 52381940 52286628 52233388 52224988 52263144 
1125.280 52347340 52473448 52635240 52825012 53036080 53264308 53508312 
1128.655 53769712 54050800 54354532 54681952 55033404 55408584 55807768 
1132.030 56232496 56686012 57172456 57695612 58257784 58860072 59501344 
1135.406 60180608 60897504 61653716 62452484 63298828 64198524 65156876 
1138.781 66178380 67266552 68424232 69653648 70956408 72333752 73786376 
1142.156 75314808 76920944 78608472 80385168 82262160 84254632 86379104 
1145.531 88651344 91084432 93686928 96464016 99418376 102553264 105874200 
1148.906 109390160 113112960 117054944 121225632 125628800 130260784 
1151.800 135110192 140160528 145393632 150794960 156357440 162085744 
1154.693 167996080 174115776 180478640 187118944 194063888 201325472 
1157.586 208892160 216722368 224738032 232819952 240807232 248498544 
1160.479 255659696 262036240 267371424 271427616 274008416 274976448 
1163.372 274264864 271880224 267897600 262450896 255719488 247916272 
1166.265 239275200 230041584 220461392 210772208 201194688 191924816 
1169.158 183128496 174938704 167454416 160742624 154841696 149765488 
1172.051 145507984 142048128 139353200 137382512 136088608 135419536 
1174.944 135318016 135722176 136565424 137777568 139288384 141031216 
1177.837 142948880 144999296 147158448 149422496 151806544 154342384 
1180.730 157074240 160056224 163349712 167021168 171139728 175772928 
1183.623 180981056 186808944 193279184 200384752 208086000 216308928 
1186.516 224948768 233873840 242931536 251953840 260764784 269187968 
1189.409 277055392 284215360 290540544 295931712 300318560 303658016 
1192.302 305929376 307131168 307277792 306398304 304535328 301743488 
1195.196 298088384 293643488 288487520 282702240 276370816 269577024 
1198.089 262404288 254935536 247252144 239433744 231557024 223695424 
1200.982 215919616 208296832 200892480 193770208 186992384 180621328 
1203.875 174717344 169337824 164535008 160351888 156820160 153958000 
1206.768 151769184 150244368 149363488 149099376 149422048 150301520 
1209.661 151710432 153624432 156021472 158879424 162174176 165877616 
1212.554 169957008 174374896 179090224 184059168 189235712 194572096 
1215.447 200018912 205526336 211044960 216528608 221936112 227232112 
1218.340 232387344 237376384 242175712 246761056 251107904 255190880 
1221.233 258987184 262477552 265648992 268494496 271013344 273208768 
1224.126 275088160 276661344 277940320 278939488 279674720 280162752 
1227.019 280420960 280465280 280310208 279967808 279448512 278761216 
1229.912 277914560 276917952 275782816 274523392 273156320 271699328 
1232.805 270169536 268580960 266942832 265258736 263528112 261748016 
1235.698 259917744 258039680 256122208 254178016 252222128 250267568 
1238.592 248322768 246389328 244462128 242531248 240584912 238612048 
1241.485 236605328 234560928 232478176 230357824 228199936 226001728 
1244.378 223757696 221458976 219094672 216653520 214124640 211499648 
1247.271 208772416 205938960 202997136 199945104 196781536 193504656 
1250.164 190113984 186609952 182996608 179281008 175474080 171589200 
1253.057 167641232 163644384 159611888 155555280 151485408 147413920 
1255.950 143354304 139321856 135333728 131406336 127553608 123785344 
1258.843 120107248 116522048 113033400 109648248 106379176 103244224 
1261.736 100263616 97455384 94831008 92392160 90131872 88036088 86089320 
1265.111 84277984 82593240 81030352 79587336 78261456 77048192 75940224 
1268.487 74929296 74007648 73169320 72409232 71722912 71104120 70544792 
1271.862 70035640 69568680 69139488 68748592 68401192 68103888 67861592 
1275.237 67674648 67537672 67441400 67375408 67331840 67307792 67304840 
1278.612 67326736 67377440 67457120 67562224 67685936 67820928 67961736 
1281.988 68106048 68255248 68412680 68581160 68761560 68951712 69146424 
1285.363 69339000 69522192 69690680 69840944 69972392 70087288 70189600 
1288.738 70284512 70376632 70468040 70557016 70636928 70696800 70722512 
1292.113 70699480 70615112 70461416 70235944 69941792 69586840 69181992 
1295.489 68740176 68274464 67797584 67320864 66853492 66401400 65967484 
1298.864 65552352 65155500 64776728 64418212 64085072 63784764 63525708 
1302.239 63314976 63157180 63053444 63002320 63000412 63043848 63129016 
1305.614 63251860 63407168 63587652 63783304 63981904 64170064 64334208 
1308.990 64462104 64542704 64566568 64526132 64415956 64233772 63981816 
1312.365 63667216 63301796 62900708 62479904 62053584 61632724 61224400 
1315.740 60832944 60461080 60111840 59788336 59494084 59231576 59001188 
1319.115 58800520 58625140 58469792 58329488 58200536 58081344 57971592 
1322.490 57871852 57782520 57704432 57637332 57581136 57535248 57498148 
1325.866 57467604 57440676 57414148 57386140 57356296 57327240 57303412 
1329.241 57290064 57291044 57307436 57336392 57372104 57407120 57434824 
1332.616 57450884 57454356 57447668 57435584 57424120 57419952 57430232 
1335.991 57461864 57521576 57614080 57741356 57901040 58086008 58285852 
1339.367 58489608 58688432 58879948 59067932 59262484 59476600 59721420 
1342.742 60003232 60320680 60665512 61024096 61381392 61723760 62041256 
1346.117 62328196 62583164 62808372 63008808 63191532 63365912 63541496 
1349.492 63727892 63931204 64153664 64391828 64638332 64883620 65119140 
1352.868 65340212 65547144 65744788 65940804 66143432 66360496 66598804 
1356.243 66866532 67174536 67538296 67977208 68513384 69166368 69949440 
1359.618 70864376 71898616 73024104 74198120 75365096 76460912 77418544 
1362.993 78172984 78669864 78871072 78759680 78342632 77649488 76727256 
1366.369 75634944 74435328 73187920 71944168 70743968 69615464 68575848 
1369.744 67633040 66787696 66035168 65366656 64771524 64237864 63754632 
1373.119 63312104 62901372 62514512 62143476 61779376 61414244 61041080 
1376.494 60657096 60263800 59868088 59481008 59114328 58779376 58484448 
1379.870 58234460 58032716 57882004 57785640 57747072 57767372 57842916 
1383.245 57962504 58106128 58247684 58357348 58407660 58376280 58250308 
1386.620 58026220 57709140 57310240 56844784 56328956 55778508 55207420 
1389.995 54627376 54046952 53472488 52908276 52357696 51825196 51316224 
1393.371 50837428 50395484 49994760 49636820 49318424 49034640 48780816 
1396.746 48555312 48361916 48209152 48107780 48066540 48089124 48172208 
1400.121 48306420 48480492 48685036 48916632 49178520 49479844 49830424 
1403.496 50237872 50703516 51221768 51781164 52367700 52967144 53566880 
1406.872 54155400 54721120 55250528 55727368 56132812 56449712 56664628 
1410.247 56771816 56775116 56687212 56527032 56316672 56077364 55826648 
1413.622 55577168 55336580 55109096 54896060 54697716 54513144 54340140 
1416.997 54175780 54014976 53852072 53680724 53496452 53298248 53090284 
1420.373 52882816 52692468 52539356 52445828 52431860 52512860 52697124 
1423.748 52986220 53375464 53857572 54426392 55079704 55820924 56658084 
1427.123 57601284 58658840 59834880 61127296 62527812 64023860 65599964 
1430.498 67240336 68928624 70649704 72389064 74135064 75879504 77619688 
1433.874 79358536 81103000 82861456 84640648 86443296 88269192 90116152 
1437.249 91985496 93883216 95823336 97824768 99909352 102097848 104408424 
1440.624 106855368 109452024 112211928 115150336 118282448 121620712 
1443.517 125171064 128930120 132885128 137017248 141305808 145734352 
1446.410 150294944 154991488 159840208 164868080 170104944 175570704 
1449.303 181253008 187079424 192888320 198408496 203257952 206972992 
1452.196 209067472 209114960 206828624 202120656 195121120 186159280 
1455.089 175715008 164355520 152668528 141200208 130403264 120604120 
1457.982 111990896 104625416 98469432 93418160 89330400 86052368 83432904 
1461.358 81331536 79624912 78208544 76998704 75932264 74963728 74061752 
1464.733 73204368 72374416 71557360 70740512 69914520 69075984 68228576 
1468.108 67383792 66557316 65765144 65016984 64311044 63631228 62947316 
1471.483 62220364 61411204 60491776 59453456 58311848 57104896 55885572 
1474.859 54710988 53631072 52680872 51877876 51223604 50709432 50322896 
1478.234 50053380 49894940 49845312 49906020 50079612 50370632 50786116 
1481.609 51337932 52043004 52923208 54002220 55303084 56845516 58646468 
1484.984 60722244 63094504 65795220 68874344 72404720 76485600 81241632 
1488.360 86815456 93349512 100956376 109677864 119438832 130004600 140957824 
1491.735 151706016 161529360 169668928 175439744 178350240 178194640 
1494.628 175097024 169490896 162040768 153527008 144723824 136298272 
1497.521 128748360 122383096 117336976 113606032 111090112 109632184 
1500.414 109049400 109154936 109770640 110733344 111896368 113128192 
1503.307 114309336 115330640 116092272 116504240 116490784 115994592 
1506.200 114980016 113434864 111369520 108813560 105812440 102424600 
1509.093 98720720 94781784 90696568 86557352 82451688 78455712 74627864 
1512.469 71005960 67609552 64444476 61509224 58800040 56313076 54045296 
1515.844 51992180 50147296 48499732 47035940 45739008 44590184 43569296 
1519.219 42655600 41828648 41070680 40368132 39713960 39108068 38554976 
1522.594 38060680 37629368 37259596 36945332 36676188 36441148 36230708 
1525.969 36038676 35862276 35700592 35553960 35423020 35308564 35213244 
1529.345 35139556 35090676 35066888 35064624 35075236 35086656 35086564 
1532.720 35067360 35029292 34980860 34936780 34913096 34920416 34962000 
1536.095 35032032 35118528 35208032 35289744 35358416 35414376 35462036 
1539.470 35506876 35552808 35601080 35650560 35698996 35744536 35786280 
1542.846 35824372 35859360 35891608 35921440 35949452 35976604 36004960 
1546.221 36037216 36076196 36124384 36183696 36255328 36340056 36438980 
1549.596 36553528 36685128 36835272 37005188 37195668 37406476 37635788 
1552.971 37879460 38129184 38373248 38596492 38782176 38914616 38982112 
1556.347 38978236 38902888 38760336 38558488 38305764 38010968 37682472 
1559.722 37329476 36962096 36593316 36236584 35905188 35609432 35355996 
1563.097 35146576 34978548 34846500 34743264 34662020 34595740 34538148 
1566.472 34484188 34429436 34372068 34312376 34254128 34203112 34165504 
1569.848 34146252 34147552 34168540 34206672 34259716 34327904 34414656 
1573.223 34526576 34671044 34854588 35081068 35351212 35664512 36021832 
1576.598 36428244 36895616 37442344 38090912 38863272 39775532 40830644 
1579.973 42013588 43287808 44596144 45864752 47012316 47961160 48648236 
1583.349 49035292 49113744 48905080 48456972 47834796 47111424 46358760 
1586.724 45640364 45008520 44502736 44149932 43965496 43952752 44103900 
1590.099 44399996 44814108 45314716 45871340 46460316 47068932 47697928 
1593.474 48361864 49086388 49905292 50855380 51973428 53291284 54833356 
1596.850 56612196 58625296 60851140 63245960 65741928 68246976 70648784 
1600.225 72821472 74635496 75971408 76732824 76858248 76329256 75174280 
1603.600 73464768 71306976 68827072 66156648 63417360 60710804 58113300 
1606.975 55676384 53430640 51390480 49559908 47935520 46508884 45268016 
1610.351 44198052 43282692 42505108 41849196 41299428 40841476 40460800 
1613.726 40143452 39875264 39643644 39437956 39250484 39077108 38916008 
1617.101 38766508 38627880 38498488 38376512 38259576 38147692 38042548 
1620.476 37947780 37868216 37807488 37767016 37745352 37738360 37740832 
1623.852 37748008 37757628 37769516 37786180 37810400 37844356 37889184 
1627.227 37944552 38009576 38085508 38175376 38286156 38427400 38610088 
1630.602 38844112 39136368 39489996 39903252 40371652 40888888 41448824 
1633.977 42045760 42674180 43325836 43988936 44644588 45266820 45824792 
1637.353 46285072 46616328 46793976 46803748 46644156 46326720 45874644 
1640.728 45318840 44693380 44030920 43359216 42699260 42067384 41475360 
1644.103 40933104 40448328 40027820 39673360 39382608 39147472 38955840 
1647.478 38794748 38653128 38524596 38407888 38305932 38223136 38162504 
1650.854 38123288 38100732 38087844 38076968 38063532 38047432 38032012 
1654.229 38022412 38022848 38034112 38053628 38076572 38098828 38118540 
1657.604 38137456 38160068 38191276 38233908 38287116 38346556 38406496 
1660.979 38461756 38511128 38557040 38605352 38662644 38733280 38817624 
1664.354 38911568 39008880 39101588 39183524 39249716 39297624 39325500 
1667.730 39332904 39319352 39286416 39237108 39176496 39110780 39045136 
1671.105 38982788 38923376 38864116 38801076 38731808 38656536 38578356 
1674.480 38502536 38433576 38373776 38321836 38274200 38226476 38176204 
1677.855 38123376 38071056 38022628 37980732 37945088 37912812 37879116 
1681.231 37840112 37794396 37744076 37693132 37647388 37611184 37587540 
1684.606 37576964 37578612 37591660 37615288 37648812 37690996 37738976 
1687.981 37788144 37833928 37872540 37903632 37930196 37957996 37993604 
1691.356 38042212 38105836 38183608 38273420 38373688 38485840 38614044 
1694.732 38763812 38939448 39140400 39359884 39586180 39804776 40003884 
1698.107 40176720 40324828 40457760 40590180 40739352 40919484 41139496 
1701.482 41400636 41697448 42020740 42360524 42710152 43067728 43437512 
1704.857 43829012 44255588 44730652 45266432 45870240 46545024 47288504 
1708.233 48094768 48955844 49863788 50812088 51796884 52818440 53880880 
1711.608 54992228 56164176 57410156 58743932 60177984 61723264 63388148 
1714.983 65180400 67107664 69178776 71402528 73786896 76335920 79046528 
1718.358 81908512 84905112 88016240 91223744 94513600 97878248 101315376 
1721.734 104824920 108403664 112041656 115719808 119410640 123079936 
1724.627 126691328 130208712 133600712 136839856 139903952 142773744 
1727.520 145432800 147864288 150050320 151971616 153608320 154941088 
1730.413 155955696 156643248 157002608 157038928 156760416 156174736 
1733.306 155286352 154095456 152599936 150798352 148695520 146300928 
1736.199 143630656 140703312 137537936 134152472 130564768 126795072 
1739.092 122869272 118820328 114687864 110515344 106347792 102228328 
1741.985 98198280 94296256 90559120 87020144 83707456 80641680 77832392 
1745.360 75278832 72970416 70890536 69020728 67345216 65852708 64537368 
1748.736 63396812 62430328 61636696 61012816 60554484 60256628 60114416 
1752.111 60122548 60274280 60559940 60967868 61485208 62102784 62818340 
1755.486 63639940 64586996 65686384 66965572 68446696 70140992 72047896 
1758.861 74159176 76464616 78959224 81646688 84539160 87653192 91002016 
1762.237 94590048 98408216 102436288 106645552 111005512 115486760 120063184 
1765.612 124709624 129399048 134096984 138761040 143340720 147781296 
1768.505 152029680 156038336 159768160 163188848 166277680 169015584 
1771.398 171386592 173376000 174972432 176169856 176968320 177375648 
1774.291 177406320 177078496 176411472 175424384 174133728 172553968 
1777.184 170698384 168580768 166215648 163622112 160821648 157839568 
1780.077 154703120 151438752 148069936 144614880 141085760 137489872 
1782.970 133832544 130120248 126364248 122580352 118788624 115009768 
1785.863 111261712 107557152 103903584 100304528 96762728 93282760 89872416 
1789.239 86542152 83303768 80168936 77147488 74247008 71473776 68831640 
1792.614 66322536 63945628 61697104 59571476 57562208 55665180 53880416 
1795.989 52212588 50669232 49258516 47984440 46844376 45827204 44914664 
1799.364 44085172 43317708 42596024 41911008 41260544 40648192 40078924 
1802.740 39556208 39079224 38642088 38234276 37844600 37462948 37083408 
1806.115 36705112 36331572 35966408 35613376 35272792 34943140 34622412 
1809.490 34311604 34016476 33745908 33509656 33312370 33149962 33006792 
1812.865 32859680 32683648 32460344 32185126 31870294 31542216 31235568 
1816.240 30982642 30806390 30714218 30698130 30739532 30815598 30904492 
1819.616 30990114 31061610 31111622 31134170 31123454 31073992 30982550 
1822.991 30849054 30677394 30475026 30250990 30013220 29768112 29519492 
1826.366 29269316 29019970 28775340 28541764 28329608 28150480 28016124 
1829.741 27934270 27905768 27922230 27966286 28015136 28044772 28036426 
1833.117 27981770 27883990 27756340 27617190 27482840 27364168 27263396 
1836.492 27176614 27098362 27024862 26957940 26902640 26864768 26847484 
1839.867 26848150 26859600 26872568 26880046 26878566 26866856 26844780 
1843.242 26807784 26747904 26654954 26523304 26355778 26168930 25988534 
1846.618 25842772 25751370 25717386 25724222 25740482 25730498 25667672 
1849.993 25544700 25376756 25197746 25047478 24962154 24962514 25050830 
1853.368 25212950 25423100 25652252 25874722 26070248 26226032 26336672 
1856.743 26403134 26432438 26435802 26426824 26418534 26419660 26433320 
1860.119 26457434 26486206 26515944 26546716 26583300 26633610 26705132 
1863.494 26798964 26910982 27030670 27147616 27255876 27357812 27463070 
1866.869 27584642 27731134 27901480 28082326 28250604 28381540 28456932 
1870.244 28472934 28442078 28389444 28344742 28333414 28368984 28449680 
1873.620 28561542 28683822 28797694 28892056 28966578 29030128 29096734 
1876.995 29178978 29283508 29406362 29535478 29651122 29732476 29763164 
1880.370 29735908 29656092 29541540 29420280 29324320 29282046 29309462 
1883.745 29405406 29548582 29701176 29818178 29857618 29795126 29629290 
1887.121 29386474 29112366 28861540 28679934 28593990 28600770 28670190 
1890.496 28754822 28806278 28787988 28690354 28529324 28342274 28173932 
1893.871 28061370 28019680 28036684 28074682 28082734 28011866 27831044 
1897.246 27540114 27170314 26779770 26436636 26203888 26120294 26192430 
1900.622 26391962 26665994 26950992 27189978 27345938 27408264 27390570 
1903.997 27320628 27230960 27146212 27077540 27021692 26964506 26888634 
1907.372 26778520 26625150 26427932 26193058 25933200 25662914 25399370 
1910.747 25158550 24954422 24795526 24685010 24618508 24584364 24565742 
1914.123 24544172 24503314 24431788 24327032 24194320 24047192 23903868 
1917.498 23780890 23689056 23626084 23577276 23514052 23404350 23223030 
1920.873 22965504 22652198 22332636 22070986 21931182 21951532 22131574 
1924.248 22425746 22754044 23026168 23169348 23153890 23002460 22782804 
1927.624 22587638 22504366 22586724 22841598 23227062 23666164 24067004 
1930.999 24346766 24444158 24329994 24006710 23505940 22882512 22208118 
1934.374 21563986 21030650 20677906 20551134 20664670 20996740 21496932 
1937.749 22096058 22723870 23320360 23847628 24286902 24636128 24899370 
1941.125 25081054 25181192 25203028 25153714 25056960 24951940 24891924 
1944.500 24931740 25111370 25440310 25889788 26391146 26851954 27174632 
1947.875 27282604 27139692 26762652 26215436 25594862 25005724 24541846 
1951.250 24266522 24207704 24355992 24676738 25113402 25601660 26074078 
1954.625 26472752 26755264 26904770 26934148 26883844 26807484 26758266 
1958.001 26766128 26824354 26894928 26921316 26851738 26658732 26351084 
1961.376 25961388 25525336 25059694 24555662 23985182 23323654 22578854 
1964.751 21801290 21083120 20523108 20199958 20136726 20293892 20584112 
1968.126 20909450 21188058 21381800 21484190 21508662 21455410 21304986 
1971.502 21014190 20547790 19901668 19124168 18310062 17586382 17072348 
1974.877 16855608 16978676 17438732 18206400 19235772 20472010 21842758 
1978.252 23260254 24624696 25841512 26839986 27584176 28076890 28339236 
1981.627 28402386 28292354 28030866 27646454 27189042 26738572 26402490 
1985.003 26282644 26452220 26914644 27591090 28321716 28908734 29159126 
1988.378 28939860 28207584 27023220 25530836 23923704 22401984 21131120 
1991.753 20212444 19677568 19492284 19577922 19839312 20197750 20607998 
1995.128 21065640 21590302 22198774 22866770 23518604 24027986 24257046 
1998.504 24105894 23558602 22699072 21693092 20723300 19926750 19335832 
2001.879 18872666 18387500 17739138 16870916 15857769 14882203 14180722 
2005.254 13941058 14222802 14934661 15862381 16768137 17490784 17992300 
2008.629 18351464 18689248 19088024 19536472 19935202 20156310 20111490 
2012.005 19812262 19377658 18984912 18794568 18886408 19233290 19719134 
2015.380 20204790 20573870 20769702 20787050 20641254 20331998 19835404 
2018.755 19125062 18218084 17201942 16237358 15518743 15197380 15316322 
2022.130 15774697 16359894 16820978 16962502 16719354 16180815 15552339 
2025.506 15079593 14960208 15285555 16017666 17007296 18050280 18931342 
2028.881 19472274 19558706 19149086 18279812 17068810 15692210 14380945 
2032.256 13366080 12852061 12963046 13725509 15060905 16817968 18793122 
2035.631 20776590 22555164 23938238 24762764 24915818 24365426 23190552 
2039.007 21588084 19852596 18320884 17299028 16983642 17421842 18508054 
2042.382 20032252 21743440 23424096 24925880 26180146 27181194 27957146 
2045.757 28548626 29002208 29365448 29690922 30023252 30381484 30729132 
2049.132 30982442 31023834 30754130 30133558 29215328 28139422 27097818 
2052.508 26285672 25841850 25815354 26145670 26691760 27276122 27747180 
2055.883 28018142 28081238 27988110 27811606 27614106 27420350 27221130 
2059.258 26982064 26669468 26263834 25772258 25223396 24665360 24152190 
2062.633 23739774 23476248 23395478 23507162 23790908 24193526 24643624 
2066.009 25064442 25401978 25643728 25819594 25993882 26230648 26563602 
2069.384 26976592 27401264 27739664 27904006 27852104 27606638 27253756 
2072.759 26910906 26689080 26653604 26810452 27107638 27462620 27792002 
2076.134 28037418 28170066 28188530 28099986 27908710 27612862 27213038 
2079.510 26723638 26183348 25651644 25196290 24871028 24695858 24652586 
2082.885 24694320 24765794 24830854 24888058 24969150 25122380 25385496 
2086.260 25760104 26202844 26631756 26953026 27092046 27016024 26740336 
2089.635 26319846 25821696 25302644 24790214 24283744 23768150 23236820 
2093.010 22707554 22230030 21870432 21692376 21725594 21953244 22310712 
2096.386 22709064 23062876 23321092 23480276 23580984 23685814 23850526 
2099.761 24103134 24428534 24777006 25083046 25289662 25370724 25339942 
2103.136 25246392 25156530 25133558 25212788 25393162 25636062 25877490 
2106.511 26047696 26091294 25980670 25726326 25368518 24971332 24602354 
2109.887 24322728 24169114 24152736 24256218 24440384 24651622 24834374 
2113.262 24938532 24930044 24794374 24539134 24194254 23805324 23426242 
2116.637 23106826 22883452 22768476 22745608 22772298 22789210 22735300 
2120.012 22563588 22256294 21830294 21335024 20837500 20402564 20073162 
2123.388 19855068 19711404 19576176 19369804 19028946 18524426 17873492 
2126.763 17136074 16399059 15746988 15239161 14890912 14672003 14519414 
2130.138 14354165 14113179 13767077 13327011 12841616 12378670 12010179 
2133.513 11790996 11752416 11898543 12215468 12672641 13236334 13867867 
2136.889 14525715 15165962 15752830 16261088 16690694 17060698 17405360 
2140.264 17754426 18112234 18448340 18690154 18750992 18561176 18100268 
2143.639 17421102 16645946 15936280 15443163 15255341 15365527 15674576 
2147.014 16018167 16221926 16159818 15786827 15135539 14292402 13351017 
2150.390 12373270 11363072 10288728 9099872 7766520 6303705 4763496 3215827 
2154.247 1729375 343454 -912209 -1990015 -2784406 -3105709 -2700280 -1317221 
2158.104 1179467 4702484 8907783 13257476 17196296 20331392 22522588 
2161.480 23880508 24658390 25145568 25555144 25989762 26439366 26831456 
2164.855 27078284 27123670 26966052 26630432 26165744 25607596 24980716 
2168.230 24298098 23576186 22841852 22139480 21508612 20987378 20604712 
2171.605 20387956 20374612 20616378 21175606 22096272 23360688 24867124 
2174.981 26413450 27733584 28559194 28695154 28077920 26788278 25026856 
2178.356 23045838 21089140 19342038 17918912 16877190 16243063 16034208 
2181.731 16257452 16890504 17853302 18996286 20120312 21016318 21529346 
2185.106 21605866 21306946 20796976 20286760 19976746 20006760 20428828 
2188.482 21212060 22270720 23484470 24730002 25887384 26850802 27538142 
2191.857 27901736 27948720 27754448 27454144 27214534 27186026 27453390 
2195.232 27997580 28699738 29369846 29813220 29893904 29582864 28969128 
2198.607 28226234 27554538 27112278 26967872 27087708 27352278 27605242 
2201.983 27706738 27576474 27211470 26683692 26111544 25629662 25352056 
2205.358 25345742 25623364 26139882 26800350 27480592 28052154 28409040 
2208.733 28492738 28306624 27919874 27450068 27028810 26771388 26741132 
2212.108 26942018 27321232 27800004 28303382 28787580 29249918 29719700 
2215.484 30228770 30788582 31367004 31893860 32272830 32421578 32294392 
2218.859 31901084 31302742 30592974 29868030 29207406 28661954 28261504 
2222.234 28027708 27987164 28177666 28634776 29380472 30400390 31641864 
2225.609 33019968 34441192 35830804 37152376 38415472 39660532 40939664 
2228.985 42289840 43722812 45226856 46784588 48390752 50069772 51867756 
2232.360 53839540 56015060 58377632 60845180 63286692 65544636 67478760 
2235.735 68993848 70063856 70720368 71033168 71073848 70888536 70483032 
2239.110 69828272 68885208 67628936 66072272 64272180 62315464 60295320 
2242.486 58284472 56316864 54381728 52444952 50468536 48441684 46394188 
2245.861 44392184 42524304 40871032 39480044 38350528 37435144 36657620 
2249.236 35937056 35216408 34476232 33743012 33073842 32544438 32225064 
2252.611 32165330 32382458 32854576 33525634 34310292 35106820 35810608 
2255.987 36331868 36610684 36624404 36390016 35955736 35385468 34743724 
2259.362 34083832 33441010 32837362 32288712 31812734 31430476 31168594 
2262.737 31045700 31065780 31215080 31461038 31760008 32067332 32344156 
2266.112 32562338 32702942 32752146 32702100 32552380 32315162 32020432 
2269.488 31715486 31457956 31299844 31274884 31387564 31611052 31899534 
2272.863 32202140 32480984 32720380 32924638 33111952 33299528 33494234 
2276.238 33690224 33872908 34026332 34144612 34230828 34300212 34368136 
2279.613 34449384 34550692 34674432 34822192 34997272 35205756 35451756 
2282.989 35731856 36030824 36321756 36570324 36746700 36831068 36823672 
2286.364 36741032 36612616 36469920 36339696 36237420 36165464 36116452 
2289.739 36076308 36030320 35965352 35872812 35750096 35600268 35431348 
2293.114 35256084 35087476 34938100 34815620 34722540 34654392 34604020 
2296.490 34563076 34524876 34485948 34446844 34408900 34376148 34351820 
2299.865 34339780 34344216 34368856 34415748 34482636 34561956 34641696 
2303.240 34707968 34749288 34761540 34748892 34723500 34700876 34693656 
2306.615 34708188 34742664 34789576 34839448 34887984 34935356 34988284 
2309.990 35055268 35143128 35253716 35382672 35522020 35661672 35793064 
2313.366 35909664 36008360 36089620 36159232 36227832 36311904 36430860 
2316.741 36602888 36836808 37128000 37457492 37797752 38123100 38422088 
2320.116 38703788 38994872 39327564 39719464 40154664 40577160 40896844 
2323.491 41012676 40842372 40346792 39544632 38509600 37352380 36197380 
2326.867 35154896 34299716 33663296 33232592 32962986 32796972 32682252 
2330.242 32583766 32486920 32394662 32319930 32277868 32277998 32323540 
2333.617 32409322 32524862 32656342 32789652 32913602 33021138 33111614 
2336.992 33190444 33266996 33350858 33446848 33552908 33658440 33746880 
2340.368 33801296 33809616 33768144 33683020 33567628 33439130 33312510 
2343.743 33197734 33099692 33018544 32953344 32903288 32866538 32842860 
2347.118 32827598 32813948 32792080 32751646 32685720 32592118 32475424 
2350.493 32345742 32216106 32097530 31998772 31921622 31864624 31822246 
2353.869 31788058 31755700 31719950 31676866 31623046 31556416 31476140 
2357.244 31382800 31279034 31169756 31061336 30959080 30867752 30789202 
2360.619 30721262 30658382 30593292 30517460 30424916 30313056 30184154 
2363.994 30046986 29913166 29796090 29706560 29649440 29622636 29618338 
2367.370 29625022 29632266 29635150 29635612 29641076 29660040 29698324 
2370.745 29752472 29810602 29853628 29861644 29821016 29728500 29594112 
2374.120 29437908 29284018 29153882 29060138 29004500 28978796 28968318 
2377.495 28957910 28935420 28895504 28838380 28770378 28702106 28645074 
2380.871 28611794 28613610 28658592 28749846 28885546 29057620 29254642 
2384.246 29463238 29670254 29865264 30041266 30192296 30312708 30396280 
2387.621 30436796 30430640 30378922 30291326 30185118 30084332 30012462 
2390.996 29989974 30027098 30122726 30264588 30432972 30604712 30758248 
2394.372 30875990 30947348 30968546 30941986 30875666 30781104 30671866 
2397.747 30559900 30454768 30361302 30280578 30211200 30153008 30108474 
2401.122 30084466 30090018 30133086 30216154 30333606 30469970 30604762 
2404.497 30715830 30787312 30812366 30795550 30750568 30695052 30645100 
2407.873 30611312 30596326 30596128 30604634 30616100 30629464 30648672 
2411.248 30682110 30738932 30826560 30947486 31097052 31265810 31441666 
2414.623 31613246 31773698 31920542 32055904 32181840 32296516 32390688 
2417.998 32448706 32451208 32381140 32231272 32008384 31733130 31437096 
2421.374 31153506 30910870 30726198 30603800 30536904 30514790 30524580 
2424.749 30557860 30605878 30662268 30716860 30760214 30783136 30782544 
2428.124 30764302 30742826 30737248 30764148 30829276 30925612 31032024 
2431.499 31121394 31170968 31169596 31125132 31060470 31007084 30995288 
2434.875 31040800 31141262 31273522 31402520 31489744 31506206 31441216 
2438.250 31307470 31135826 30969880 30853244 30818310 30878842 31027262 
2441.625 31239992 31485428 31734354 31969416 32184336 32382522 32567862 
2445.000 32737524 32877516 32964916 32976512 32899052 32736852 32515492 
2448.375 32275520 32061520 31909772 31838778 31846632 31915058 32018426 
2451.751 32131542 32235172 32318738 32375108 32399994 32388252 32337528 
2455.126 32247792 32127254 31988572 31846330 31712264 31588818 31471714 
2458.501 31352564 31227078 31099042 30984990 30908992 30893484 30949732 
2461.876 31071918 31236172 31407646 31551306 31642988 31675584 31660590 
2465.252 31622190 31588748 31584994 31625844 31713870 31839572 31985552 
2468.627 32128416 32244190 32312558 32322992 32276996 32191932 32093498 
2472.002 32014030 31978664 32000176 32073374 32178942 32289884 32383550 
2475.377 32448012 32485448 32508094 32529824 32558062 32589524 32612886 
2478.753 32614656 32586452 32530300 32457772 32382016 32312066 32247260 
2482.128 32176084 32083604 31957210 31795766 31611740 31427770 31267818 
2485.503 31152504 31090386 31081488 31118052 31191350 31293362 31418756 
2488.878 31561188 31711600 31856470 31981692 32074430 32129694 32152414 
2492.254 32153190 32147326 32146826 32160018 32189056 32234956 32297562 
2495.629 32378860 32479872 32597814 32724154 32845352 32944604 33010610 
2499.004 33042424 33048794 33048078 33054884 33075776 33104110 33123058 
2502.379 33111490 33057518 32963678 32849208 32742828 32672926 32657668 
2505.755 32698940 32784726 32897436 33020888 33148266 33279120 33414922 
2509.130 33553626 33683900 33788336 33849304 33858724 33823600 33762440 
2512.505 33699460 33653036 33624620 33598264 33547054 33445574 33283486 
2515.880 33072126 32845870 32647576 32516084 32469380 32501380 32582920 
2519.256 32673602 32738086 32757088 32733924 32688722 32650896 32647754 
2522.631 32693352 32786674 32912608 33048176 33170696 33262230 33316710 
2526.006 33336442 33333488 33324056 33324114 33345490 33393822 33464282 
2529.381 33545226 33618252 33667616 33681380 33658484 33610152 33556344 
2532.757 33521898 33530008 33595072 33718680 33889288 34084412 34276604 
2536.132 34438824 34547952 34591556 34567248 34482876 34355628 34207860 
2539.507 34066296 33954732 33893304 33892096 33952532 34062500 34200592 
2542.882 34337780 34444008 34493140 34470980 34379312 34236716 34076524 
2546.258 33939868 33864944 33878148 33986308 34174272 34407808 34643920 
2549.633 34840672 34968812 35017372 34995120 34926000 34839848 34764396 
2553.008 34718508 34709700 34733804 34778704 34827452 34863116 34870920 
2556.383 34841836 34774280 34675588 34562520 34457380 34384912 34362616 
2559.759 34397604 34481868 34594264 34707140 34797384 34852200 34875316 
2563.134 34884420 34904124 34954692 35043252 35162192 35288120 35392948 
2566.509 35453668 35459544 35416240 35342436 35264408 35205052 35179332 
2569.884 35189884 35228216 35279220 35324260 35346808 35335308 35285272 
2573.260 35199764 35090292 34976212 34882248 34833236 34849532 34942000 
2576.635 35108240 35332896 35591784 35858600 36109504 36329572 36511184 
2580.010 36653216 36756540 36821112 36845396 36829656 36778884 36706080 
2583.385 36632896 36584536 36585528 36649864 36777252 36951780 37145448 
2586.760 37325140 37462364 37538404 37549568 37505744 37426260 37335212 
2590.136 37257088 37208844 37200504 37233876 37302764 37395652 37498628 
2593.511 37598788 37685844 37755604 37808312 37850652 37889788 37932864 
2596.886 37982884 38039864 38099368 38155680 38205428 38247880 38287404 
2600.261 38330876 38386112 38458232 38548040 38651440 38760248 38864900 
2603.637 38957536 39034240 39094880 39144924 39191488 39242180 39303360 
2607.012 39378412 39467100 39566644 39670348 39770436 39857204 39921092 
2610.387 39953016 39946500 39899664 39816860 39707856 39588788 39478912 
2613.762 39397528 39360316 39375372 39442116 39550868 39683912 39819968 
2617.138 39937852 40020948 40059944 40055196 40015644 39957656 39900100 
2620.513 39862300 39856772 39889924 39957716 40049756 40151360 40249500 
2623.888 40335440 40408792 40475872 40548288 40636956 40748304 40880076 
2627.263 41023744 41164936 41289216 41386744 41455576 41501400 41534764 
2630.639 41567412 41608028 41659324 41718424 41779624 41836584 41885524 
2634.014 41926236 41962700 41998276 42036480 42077432 42118564 42155632 
2637.389 42185648 42206956 42221932 42235088 42251784 42277660 42315872 
2640.764 42367364 42430124 42500268 42572532 42641176 42700488 42745008 
2644.140 42769896 42772516 42751568 42708504 42646868 42572828 42492864 
2647.515 42414856 42345208 42289376 42250276 42229372 42225944 42238272 
2650.890 42263908 42301024 42347920 42402936 42464992 42531720 42598384 
2654.265 42658964 42705504 42730240 42727780 42695896 42637608 42560216 
2657.641 42473744 42388716 42312612 42249092 42196620 42149600 42100748 
2661.016 42043180 41972516 41887760 41791252 41688240 41584364 41485124 
2664.391 41394828 41315384 41246080 41185268 41129736 41076848 41025124 
2667.766 40975944 40932432 40899528 40882276 40883972 40904092 40938524 
2671.142 40978828 41014836 41036636 41037432 41013460 40966348 40900688 
2674.517 40824628 40746984 40677768 40625784 40598572 40601844 40636624 
2677.892 40699168 40780292 40866320 40941808 40994148 41016064 41008716 
2681.267 40980756 40945608 40917532 40906296 40914932 40937568 40964456 
2684.643 40983508 40986820 40971512 40941716 40906292 40875828 40858812 
2688.018 40859324 40877444 40909600 40949972 40993488 41036388 41076796 
2691.393 41113072 41144172 41168176 41182944 41187544 41182252 41170576 
2694.768 41158796 41154792 41165388 41194404 41240456 41295032 41345656 
2698.144 41377684 41379512 41346060 41282652 41203024 41126604 41072404 
2701.519 41053504 41071400 41116564 41170920 41214632 41232376 41219308 
2704.894 41182296 41137372 41103384 41095208 41118776 41170228 41237120 
2708.269 41304956 41360836 41399532 41423260 41439292 41457820 41486504 
2711.645 41528132 41581492 41640380 41697324 41744976 41776708 41788688 
2715.020 41778784 41747516 41698808 41638984 41577276 41523016 41485048 
2718.395 41468528 41474296 41498816 41536328 41580380 41626404 41672172 
2721.770 41717104 41760376 41800672 41834332 41858012 41868972 41867408 
2725.146 41857324 41845916 41840700 41848748 41871688 41907552 41950540 
2728.521 41992896 42027196 42047748 42051424 42037760 42007500 41964472 
2731.896 41914020 41863748 41823200 41801696 41806812 41842332 41905752 
2735.271 41990404 42085236 42178032 42258084 42317408 42350144 42353748 
2738.646 42326888 42270296 42187456 42085488 41977012 41877904 41804732 
2742.022 41771720 41785932 41845704 41940536 42054972 42171264 42274308 
2745.397 42354300 42406336 42430088 42427828 42403108 42362440 42313744 
2748.772 42268604 42239692 42239736 42275648 42346420 42441296 42541512 
2752.147 42625500 42674828 42680136 42644212 42580852 42512844 42461928 
2755.523 42445808 42472532 42539672 42636184 42745888 42852804 42944124 
2758.898 43013880 43061580 43093268 43117484 43144268 43181672 43233992 
2762.273 43300360 43375784 43452260 43521744 43577868 43618908 43648356 
2765.648 43673464 43703120 43745156 43804500 43882128 43975484 44078948 
2769.024 44187044 44293928 44394956 44486792 44566072 44630532 44678228 
2772.399 44710300 44728476 44737200 44741940 44748088 44760148 44780248 
2775.774 44809404 44847164 44892100 44942968 44998440 45055356 45110676 
2779.149 45159800 45198800 45226820 45246616 45266032 45295032 45344604 
2782.525 45421864 45526620 45650668 45780052 45896536 45985468 46038012 
2785.900 46054420 46043980 46020388 45998896 45989876 45997736 46018936 
2789.275 46046852 46073348 46093116 46106076 46117604 46135848 46169756 
2792.650 46225216 46304724 46406196 46525488 46656860 46796088 46940284 
2796.026 47088004 47237428 47387308 47534264 47675300 47807716 47930936 
2799.401 48046584 48157448 48267676 48380368 48496004 48614772 48735336 
2802.776 48856516 48979684 49107556 49242632 49386664 49538600 49693120 
2806.151 49843160 49981340 50103204 50210096 50308692 50410432 50528104 
2809.527 50672128 50846992 51050760 51274540 51506688 51734780 51950052 
2812.902 52148792 52332756 52508324 52685532 52873248 53080428 53311004 
2816.277 53565088 53838904 54124396 54413056 54696504 54969564 55232996 
2819.652 55492864 55760972 56052020 56380724 56758760 57193668 57686392 
2823.028 58233124 58826124 59457196 60118484 60804828 61513820 62245716 
2826.403 63004000 63793400 64619480 65487988 66403584 67369464 68386536 
2829.778 69453400 70568416 71729128 72935504 74189880 75495432 76857720 
2833.153 78280488 79765632 81312624 82918424 84579136 86292792 88060040 
2836.529 89884352 91771920 93728376 95757776 97860480 100035152 102278944 
2839.904 104591752 106977632 109446144 112012512 114694656 117509904 
2842.797 120473232 123595088 126880392 130331504 133945104 137712848 
2845.690 141615824 145621200 149674544 153698000 157589056 161225952 
2848.583 164479040 167224400 169357920 170809376 171549072 171591424 
2851.476 170990192 169830752 168216688 166260192 164068704 161737664 
2854.369 159344336 156946160 154579792 152266400 150013872 147824384 
2857.262 145696320 143629728 141626016 139689040 137823216 136033184 
2860.155 134322272 132693632 131151128 129699440 128343376 127088072 
2863.048 125935896 124886152 123933248 123068328 122281656 121563512 
2865.941 120908936 120315816 119784072 119313960 118902336 118541896 
2868.834 118221808 117928768 117651552 117383320 117122264 116872064 
2871.728 116638304 116427288 116242904 116087384 115961928 115869072 
2874.621 115814304 115806264 115854312 115968472 116153056 116407168 
2877.514 116724664 117095392 117509392 117959736 118444960 118970304 
2880.407 119544392 120177664 120879176 121653656 122502056 123419984 
2883.300 124400784 125435368 126514744 127630936 128776776 129947272 
2886.193 131137952 132346872 133573920 134821824 136094128 137396096 
2889.086 138733888 140110016 141525360 142976400 144455664 145951632 
2891.979 147451936 148943968 150417280 151868128 153297328 154713168 
2894.872 156129296 157562512 159030336 160547184 162122064 163756816 
2897.765 165446448 167180288 168945488 170729264 172523920 174327792 
2900.658 176146704 177995040 179892240 181862320 183928112 186109792 
2903.551 188420912 190866480 193443408 196140288 198941968 201835296 
2906.444 204811584 207871152 211024960 214291360 217693232 221253168 
2909.337 224986896 228902784 232999984 237270688 241701440 246276576 
2912.230 250975008 255769200 260620864 265480048 270282624 274956896 
2915.124 279428288 283629216 287503904 291013632 294134336 296854368 
2918.017 299166368 301066304 302547968 303605472 304235264 304441088 
2920.910 304234400 303637280 302679840 301399392 299835808 298032256 
2923.803 296030720 293872544 291595712 289234368 286817568 284366592 
2926.696 281896896 279417952 276936256 274454656 271974912 269496960 
2929.589 267018048 264532720 262033520 259513728 256970224 254406688 
2932.482 251833616 249266640 246722336 244214496 241746752 239315120 
2935.375 236905648 234501312 232085792 229647424 227180080 224683232 
2938.268 222159360 219610512 217038256 214443696 211831264 209209360 
2941.161 206591808 203997504 201444752 198949584 196519088 194153600 
2944.054 191843968 189577632 187341680 185126400 182926768 180742144 
2946.947 178576736 176434240 174318656 172233776 170181488 168164544 
2949.840 166184800 164245648 162351376 160505872 158713888 156978464 
2952.733 155303648 153689968 152136336 150638320 149187776 147773280 
2955.626 146381872 145000752 143618544 142228544 140827184 139418176 
2958.520 138009408 136613600 135248144 133931952 132684496 131520864 
2961.413 130448656 129464448 128553912 127690704 126844912 125986112 
2964.306 125092256 124153928 123177104 122179536 121185272 120216824 
2967.199 119289232 118406456 117560104 116733768 115907152 115063080 
2970.092 114191040 113287392 112356056 111405080 110443544 109477744 
2972.985 108510536 107541720 106568336 105589264 104604784 103619984 
2975.878 102642472 101680664 100740392 99822576 98919928 98020832 97109640 
2979.253 96173512 95207592 94216920 93217904 92233160 91286040 90393472 
2982.628 89561616 88785056 88048104 87332384 86621480 85907488 85190488 
2986.004 84477584 83777816 83098264 82440696 81803928 81184768 80584352 
2989.379 80008904 79471968 78989400 78576144 78241728 77985896 77802480 
2992.754 77680896 77612760 77597904 77643352 77764768 77978728 78297448 
2996.129 78723920 79249192 79853808 80513504 81202272 81901776 82597408 
2999.505 83282184 83949696 84591440 85192848 85732864 86187112 86530968 
3002.880 86745600 86820272 86754208 86554856 86235496 85811144 85297816 
3006.255 84710352 84064736 83378480 82672296 81968624 81291192 80662368 
3009.630 80101000 79621184 79232008 78939464 78746072 78654408 78665288 
3013.006 78780408 79000968 79329408 79769184 80327856 81016160 81850544 
3016.381 82850056 84035744 85425688 87032904 88860568 90902360 93141160 
3019.756 95551752 98104016 100766424 103509512 106307376 109135080 111966360 
3023.131 114766528 117488800 120069880 122433864 124496560 126178712 
3026.024 127417016 128173560 128441560 128242704 127619280 126623232 
3028.917 125306072 123712952 121878864 119835648 117613032 115245616 
3031.811 112772024 110233184 107669704 105116736 102602984 100152488 
3034.704 97784520 95517760 93368952 91349464 89465552 87715272 86089256 
3038.079 84574976 83162208 81845688 80627040 79511624 78502776 77597160 
3041.454 76783120 76042328 75354984 74706848 74092504 73517096 72990136 
3044.829 72522480 72119096 71779736 71500232 71279928 71123504 71044840 
3048.205 71062248 71192336 71442840 71810048 72277040 72822688 73426320 
3051.580 74076400 74771152 75517560 76323832 77194536 78126392 79108248 
3054.955 80124360 81159832 82204064 83250296 84294520 85331032 86347112 
3058.330 87323480 88233712 89047584 89733776 90264368 90614336 90765864 
3061.706 90706960 90435808 89961288 89304320 88495704 87573360 86575000 
3065.081 85532800 84470104 83400480 82329768 81263808 80209952 79183448 
3068.456 78202624 77288248 76455544 75710968 75049440 74455592 73908512 
3071.831 73388912 72881944 72384360 71902808 71453744 71059688 70744904 
3075.207 70530408 70431888 70457328 70605280 70868312 71231704 71676520 
3078.582 72181376 72722104 73275728 73818080 74327800 74784640 75169728 
3081.957 75467528 75661424 75737568 75682704 75485248 75138040 74640720 
3085.332 74000176 73231464 72355344 71393240 70367520 69294328 68187120 
3088.708 67055956 65912940 64771636 63649312 62563324 61529236 60556276 
3092.083 59647248 58799896 58011128 57281532 56618176 56032236 55536992 
3095.458 55141460 54847008 54645692 54523948 54465428 54456052 54486024 
3098.833 54547960 54634296 54734032 54831012 54908352 54952100 54957752 
3102.208 54933212 54897956 54875436 54887496 54942512 55034732 55141652 
3105.584 55232544 55273280 55237568 55108880 54885472 54576792 54203108 
3108.959 53788148 53357760 52934660 52536428 52172040 51842444 51539940 
3112.334 51252400 50965464 50669304 50359408 50040500 49721780 49417268 
3115.709 49140580 48902704 48709124 48561644 48454272 48377296 48314744 
3119.085 48248428 48160352 48037228 47874988 47681436 47475644 47283852 
3122.460 47131008 47033528 46992248 46993712 47012120 47018832 46989320 
3125.835 46910804 46783692 46621504 46444264 46275472 46136880 46045972 
3129.210 46014568 46047720 46142900 46289404 46468808 46658176 46834404 
3132.586 46979340 47082960 47147164 47179792 47192852 47194736 47189204 
3135.961 47173864 47144444 47097564 47036040 46968812 46907144 46862156 
3139.336 46838452 46834448 46841860 46848508 46843320 46817000 46764388 
3142.711 46683004 46573240 46440616 46295888 46157600 46051620 46007580 
3146.087 46050748 46194432 46432868 46739948 47072436 47379612 47617280 
3149.462 47753900 47780564 47708212 47562992 47378296 47186424 47012584 
3152.837 46873616 46778940 46731716 46731500 46776716 46863804 46987600 
3156.212 47140456 47311764 47490292 47662508 47816364 47942224 48034200 
3159.588 48091396 48117824 48121584 48112660 48100576 48093588 48096260 
3162.963 48111076 48139044 48181004 48237644 48308972 48392364 48480144 
3166.338 48561096 48620660 48646012 48628616 48567948 48471916 48352904 
3169.713 48226048 48103940 47993992 47900008 47821884 47758544 47709756 
3173.089 47675972 47657428 47653340 47662000 47683176 47719168 47776528 
3176.464 47865056 47992748 48162772 48366672 48586268 48796240 48970940 
3179.839 49093644 49162016 49187816 49192212 49197372 49218376 49256756 
3183.214 49302800 49340112 49354032 49338764 49300624 49255052 49220608 
3186.590 49211316 49232440 49277752 49333372 49383304 49413988 49418940 
3189.965 49398040 49356872 49303200 49245024 49190008 49145052 49117180 
3193.340 49112324 49135196 49185708 49259700 49347980 49439364 49524184 
3196.715 49597188 49659336 49716344 49775136 49839756 49909020 49975328 
3200.091 50027040 50053488 50048820 50015236 49962068 49903376 49852932 
3203.466 49821264 49812040 49823832 49852676 49893644 49944632 50004776 
3206.841 50072984 50146932 50220036 50285768 50338620 50378268 50411416 
3210.216 50450420 50510500 50602472 50729356 50883880 51049492 51205020 
3213.592 51332556 51419692 51462764 51465840 51435536 51377144 51294744 
3216.967 51188876 51060876 50916268 50765428 50623528 50506908 50429532 
3220.342 50399152 50415764 50471560 50554584 50651032 50747292 50830408 
3223.717 50890176 50919172 50913820 50876340 50816896 50753556 50708380 
3227.093 50705872 50765344 50898024 51101184 51361040 51652876 51946740 
3230.468 52212308 52424992 52568080 52637400 52639140 52588052 52503700 
3233.843 52403872 52300680 52199012 52096328 51988616 51875764 51767880 
3237.218 51686352 51658328 51711212 51859296 52098416 52402040 52728768 
3240.594 53032924 53276892 53442104 53529488 53557096 53548872 53525584 
3243.969 53497256 53463892 53419580 53358944 53283440 53201664 53127348 
3247.344 53072904 53046700 53049432 53076760 53123756 53186316 53263984 
3250.719 53355652 53458220 53564048 53660188 53734300 53779656 53799500 
3254.094 53807140 53822172 53862740 53937944 54043676 54162876 54271476 
3257.470 54346356 54374584 54354696 54298340 54225124 54156848 54111208 
3260.845 54100356 54128224 54193148 54288764 54405964 54533552 54660056 
3264.220 54775024 54870148 54940880 54987004 55010764 55017308 55010808 
3267.595 54995848 54977736 54963564 54963228 54987328 55046000 55144000 
3270.971 55277200 55432296 55589268 55727684 55833328 55902472 55942972 
3274.346 55971640 56006624 56060016 56136128 56227496 56320024 56398468 
3277.721 56451620 56474956 56472072 56452788 56428088 56410036 56408268 
3281.096 56432048 56488412 56582704 56717080 56887624 57084832 57293788 
3284.472 57498084 57680460 57831080 57946468 58030832 58093912 58146444 
3287.847 58198424 58255084 58319576 58391480 58471908 58561676 58664432 
3291.222 58782780 58920836 59078144 59252572 59439012 59630184 59817804 
3294.597 59993648 60149752 60277900 60372144 60426444 60437328 60403992 
3297.973 60328040 60213076 60065944 59893028 59702976 59504468 59306724 
3301.348 59119316 58951952 58813952 58711512 58647448 58619292 58619868 
3304.723 58637428 58657052 58663892 58644488 58589256 58495880 58367904 
3308.098 58217524 58061636 57919996 57809252 57739244 57707924 57701592 
3311.474 57696872 57668372 57596348 57474844 57315148 57144352 56998080 
3314.849 56909248 56898792 56968204 57098240 57257580 57410004 57526688 
3318.224 57590536 57601200 57569280 57511364 57443596 57379352 57327568 
3321.599 57294556 57284544 57301908 57346312 57412836 57490616 57566120 
3324.975 57625496 57661592 57677064 57682564 57692068 57716496 57758360 
3328.350 57807476 57848108 57862912 57842936 57789868 57715544 57636492 
3331.725 57565352 57505900 57453100 57398672 57338376 57278280 57233812 
3335.100 57225644 57268296 57363164 57493592 57629368 57739192 57801620 
3338.476 57814232 57794604 57770940 57770648 57807204 57874412 57949816 
3341.851 58003580 58010688 57961300 57862916 57736380 57606700 57493260 
3345.226 57406072 57344228 57301640 57272296 57255288 57253724 57274084 
3348.601 57319844 57389728 57476844 57571032 57662120 57741692 57805228 
3351.977 57848680 57869012 57860920 57820576 57745416 57640744 57516632 
3355.352 57388444 57272948 57183336 57125848 57099240 57097720 57112636 
3358.727 57137840 57170116 57206340 57242568 57271284 57280308 57257944 
3362.102 57196536 57096992 56971940 56842340 56732756 56663136 56641820 
3365.478 56664184 56713576 56767968 56807180 56820880 56810220 56786448 
3368.853 56766964 56767084 56795172 56849376 56919632 56990016 57045324 
3372.228 57073928 57070816 57037492 56980100 56907120 56827852 56751692 
3375.603 56687840 56643968 56626124 56638520 56679400 56742288 56815892 
3378.979 56884276 56932552 56947428 56921320 56854336 56752164 56627148 
3382.354 56495932 56377388 56288632 56243880 56250852 56306984 56400204 
3385.729 56509764 56611076 56682464 56710940 56696152 56649508 56591528 
3389.104 56541708 56514740 56513200 56528252 56545044 56548648 56531112 
3392.479 56493592 56446612 56405216 56384256 56393436 56434868 56505540 
3395.855 56595984 56694644 56788184 56860932 56897560 56885032 56816212 
3399.230 56695188 56538776 56373808 56232916 56145600 56127692 56178616 
3402.605 56279100 56399632 56506736 56573568 56584740 56538724 56443924 
3405.980 56316980 56177124 56043096 55932844 55860436 55836204 55861700 
3409.356 55930952 56027552 56129012 56212760 56260984 56265524 56228852 
3412.731 56160936 56074560 55980648 55884712 55791104 55702412 55625560 
3416.106 55569848 55545492 55558728 55605720 55674468 55745468 55799788 
3419.481 55823652 55816588 55786564 55746764 55708256 55675732 55644860 
3422.857 55605488 55549496 55475136 55389796 55308212 55248028 55221288 
3426.232 55232720 55276900 55342196 55414924 55483664 55541232 55585712 
3429.607 55618536 55641576 55658356 55671500 55682384 55691276 55695436 
3432.982 55689324 55664916 55616160 55541408 55445976 55344724 55257284 
3436.358 55203124 55196576 55239772 55323752 55431648 55544188 55643508 
3439.733 55718632 55764884 55780744 55766080 55722876 55653508 55563992 
3443.108 55466520 55375780 55306332 55267544 55259760 55273180 55293232 
3446.483 55305708 55301604 55280892 55249152 55213848 55177460 55137396 
3449.859 55085452 55015468 54926740 54829552 54740772 54679976 54659724 
3453.234 54682432 54737424 54806544 54870592 54915652 54936736 54934660 
3456.609 54913224 54872652 54808888 54715892 54590780 54437840 54270016 
3459.984 54107164 53968160 53864904 53799424 53763532 53745692 53736048 
3463.360 53732476 53739956 53766356 53816428 53885792 53959944 54017564 
3466.735 54038292 54008416 53927688 53808596 53671368 53539008 53431268 
3470.110 53357808 53321748 53318076 53338948 53374000 53413120 53447960 
3473.485 53469924 53472808 53454712 53415612 53358968 53291920 53221040 
3476.861 53150748 53084008 53019288 52953236 52881788 52802452 52713184 
3480.236 52616620 52518116 52426992 52356752 52322796 52338768 52413504 
3483.611 52545872 52724180 52925868 53122364 53286048 53395716 53444144 
3486.986 53436932 53390100 53324580 53260008 53210740 53183128 53177896 
3490.362 53192072 53222300 53263204 53309616 53353292 53383312 53386608 
3493.737 53352136 53273040 53152320 53002196 52842568 52696824 52585960 
3497.112 52523760 52513492 52549528 52618440 52704428 52792356 52870952 
3500.487 52935268 52984352 53023248 53057460 53094688 53140336 53199452 
3503.863 53275420 53367768 53474576 53589956 53704644 53806744 53882992 
3507.238 53920736 53910936 53850788 53744996 53605572 53449496 53295576 
3510.613 53160888 53056656 52988172 52954360 52949712 52967460 53001484 
3513.988 53047456 53101264 53160640 53224136 53288856 53352384 53413512 
3517.364 53472488 53531604 53594348 53662676 53736572 53811580 53879356 
3520.739 53928296 53948504 53933160 53883008 53807936 53724860 53653504 
3524.114 53611020 53607476 53640448 53695928 53751800 53784320 53776184 
3527.489 53720832 53625636 53507304 53387252 53283512 53205316 53151792 
3530.865 53116060 53090120 53069504 53058708 53067880 53109664 53192304 
3534.240 53315692 53467632 53628468 53772992 53879212 53931700 53923644 
3537.615 53858400 53746528 53604768 53452288 53309872 53197288 53130580 
3540.990 53118388 53161448 53250208 53366564 53488668 53593688 53663832 
3544.365 53688888 53664812 53595000 53486376 53349256 53194240 53034320 
3547.741 52881064 52744824 52631780 52540876 52466480 52397912 52325072 
3551.116 52242112 52149632 52053980 51964020 51886216 51820080 51759400 
3554.491 51694580 51617556 51527000 51431056 51341792 51270544 51222544 
3557.866 51190380 51159288 51110156 51029328 50915436 50779228 50640300 
3561.242 50519388 50429188 50371996 50338572 50313556 50284748 50246420 
3564.617 50201492 50158496 50125752 50106528 50098668 50095060 50089008 
3567.992 50077596 50062256 50048384 50039508 50035636 50029572 50011396 
3571.367 49971476 49906360 49819348 49722176 49626692 49543164 49474176 
3574.743 49414576 49356068 49289836 49213564 49130180 49048480 48976196 
3578.118 48917092 48867764 48818432 48757328 48676640 48577684 48472348 
3581.493 48380580 48324528 48322596 48381872 48495548 48644064 48799112 
3584.868 48932276 49021116 49056152 49042888 48999444 48952060 48926384 
3588.244 48942284 49007388 49115704 49250812 49391372 49513800 49599676 
3591.619 49634708 49611640 49527624 49384232 49187616 48949812 48690844 
3594.994 48436892 48217180 48059124 47979684 47982428 48055112 48171820 
3598.369 48301720 48417036 48500028 48545528 48560028 48556316 48545832 
3601.745 48535592 48526704 48517440 48506324 48497792 48501936 48532692 
3605.120 48602512 48715728 48867320 49040288 49212084 49362236 49473696 
3608.495 49542252 49569724 49564992 49535444 49484408 49411136 49314504 
3611.870 49196740 49069320 48953240 48874552 48858096 48917732 49049924 
3615.246 49233320 49433840 49611320 49734064 49783988 49762172 49685532 
3618.621 49579804 49470948 49377308 49306404 49257644 49222492 49193636 
3621.996 49167380 49145564 49134148 49141184 49175104 49239132 49333164 
3625.371 49451644 49583804 49715260 49828400 49905980 49935692 49913544 
3628.747 49847952 49759756 49677756 49632100 49647508 49732320 49879740 
3632.122 50066600 50261224 50430448 50548760 50602832 50595248 50539412 
3635.497 50458688 50375952 50310736 50276484 50273816 50293416 50319004 
3638.872 50328536 50304084 50236176 50131028 50011424 49914324 49881836 
3642.248 49949712 50133456 50423196 50781488 51154296 51481504 51718388 
3645.623 51842544 51862132 51810196 51731648 51671932 51660536 51706208 
3648.998 51797100 51905020 51999600 52052460 52049212 51987572 51878176 
3652.373 51739864 51594532 51465680 51371432 51324064 51326836 51372136 
3655.749 51443344 51517820 51570668 51581096 51536576 51435952 51285104 
3659.124 51098680 50892692 50683172 50484524 50309248 50169264 50074820 
3662.499 50030312 50035404 50079064 50141656 50197496 50220640 50193536 
3665.874 50110388 49979596 49821080 49657888 49509976 49388356 49293172 
3669.250 49216392 49145612 49072320 48990844 48899196 48795372 48675456 
3672.625 48532196 48360048 48158524 47939796 47728928 47561448 47473224 
3676.000 47490740 47619324 47841088 48117688 48400420 48642696 48809928 
3679.375 48886204 48873256 48786248 48647548 48478408 48295400 48107216 
3682.750 47918252 47729132 47541248 47356220 47179468 47017780 46879444 
3686.126 46771904 46698536 46659868 46648864 46651940 46654272 46641492 
3689.501 46603664 46540784 46460268 46375960 46302204 46250332 46226916 
3692.876 46232568 46264424 46321104 46401480 46505076 46629864 46767048 
3696.251 46904668 47024156 47110648 47155520 47161540 47141192 47111996 
3699.627 47088732 47078072 47075876 47069260 47042932 46986932 46902740 
3703.002 46801604 46702860 46626060 46586016 46590056 46636684 46720368 
3706.377 46831748 46962260 47099520 47230752 47339764 47410704 47433324 
3709.752 47405056 47335892 47243808 47148904 47068424 47007804 46962492 
3713.128 46920972 46871452 46808624 46735400 46662652 46602944 46563244 
3716.503 46545332 46543768 46553736 46574860 46613616 46681548 46787560 
3719.878 46931536 47098272 47261900 47390024 47459156 47461996 47412132 
3723.253 47340156 47283148 47272372 47324488 47435084 47585120 47747532 
3726.629 47895380 48012368 48091476 48138800 48166528 48190320 48224312 
3730.004 48278792 48357752 48458628 48570108 48675896 48755968 48791836 
3733.379 48773152 48700796 48584692 48444724 48301296 48171344 48063824 
3736.754 47977312 47906348 47841484 47775972 47706744 47636736 47570024 
3740.130 47513508 47476248 47468964 47503164 47589712 47733484 47927128 
3743.505 48148812 48362916 48525836 48599072 48562372 48421068 48206600 
3746.880 47967184 47755096 47613304 47564952 47609564 47724924 47877420 
3750.255 48030612 48156072 48237280 48270756 48263512 48229504 48185872 
3753.631 48151328 48142272 48172412 48249336 48373444 48535152 48717444 
3757.006 48897220 49049100 49152140 49190660 49159236 49063240 48916000 
3760.381 48740508 48562160 48407020 48296272 48241604 48243040 48289032 
3763.756 48360340 48436420 48501848 48553556 48598716 48653016 48732144 
3767.132 48844076 48981132 49121832 49234520 49286252 49255876 49140540 
3770.507 48957344 48742200 48539132 48390480 48325872 48355092 48467760 
3773.882 48635460 48818940 48976836 49076784 49100320 49048068 48938040 
3777.257 48802208 48677436 48596996 48582440 48640100 48759688 48919580 
3780.633 49091392 49247784 49368704 49442924 49468604 49451912 49403316 
3784.008 49333776 49253624 49170228 49088748 49010480 48936856 48868632 
3787.383 48809452 48765244 48743396 48750116 48786968 48848792 48922540 
3790.758 48988536 49028160 49026236 48980176 48899028 48804008 48721144 
3794.134 48675152 48681212 48742828 48851480 48990096 49139508 49283656 
3797.509 49413072 49524244 49618980 49698824 49764420 49812776 49838040 
3800.884 49833596 49792928 49714724 49600824 49462608 49316588 49184432 
3804.259 49090548 49057300 49099748 49221972 49413220 49650276 49897964 
3807.635 50119084 50280076 50358636 50346400 50249728 50088620 49890544 
3811.010 49688924 49516160 49400372 49361200 49406224 49532888 49726644 
3814.385 49964624 50220536 50465868 50676368 50833608 50923752 50940352 
3817.760 50881176 50750904 50560208 50327496 50078572 49843320 49651352 
3821.135 49525352 49473816 49490228 49556100 49645488 49735804 49812704 
3824.511 49873564 49926212 49981228 50047876 50127084 50209200 50277344 
3827.886 50312312 50298116 50229532 50112688 49965088 49811716 49677008 
3831.261 49582692 49540544 49551612 49606912 49691788 49788596 49883344 
3834.636 49965412 50031008 50080256 50115884 50139348 50149840 50145788 
3838.012 50125756 50090500 50046336 50003728 49975524 49971972 49999748 
3841.387 50057832 50139924 50234376 50330304 50418768 50495192 50558364 
3844.762 50609740 50650632 50683244 50709568 50731560 50753684 50780020 
3848.137 50813980 50854788 50898368 50936692 50961616 50966684 50951492 
3851.513 50920908 50883864 50850236 50826328 50812424 50804172 50793544 
3854.888 50773708 50742000 50700544 50656324 50618136 50593112 50585476 
3858.263 50594436 50615780 50642264 50665984 50679964 50679968 50668368 
3861.638 50652932 50646992 50667560 50727968 50834712 50978296 51138168 
3865.014 51281188 51373280 51391844 51330892 51207180 51054660 50915316 
3868.389 50823772 50798536 50837236 50917844 51009704 51085728 51132548 
3871.764 51151084 51154552 51159724 51175752 51201440 51223956 51224376 
3875.139 51187204 51106340 50986680 50845816 50703736 50580560 50489536 
3878.515 50437424 50423832 50446652 50502856 50589552 50703432 50838944 
3881.890 50986828 51135296 51270940 51381960 51460372 51504040 51515748 
3885.265 51504088 51479160 51452892 51433912 51428616 51438308 51459036 
3888.640 51482680 51499692 51503024 51489876 51464760 51439644 51429936 
3892.016 51448540 51501044 51582152 51677120 51764128 51824820 51847732 
3895.391 51834056 51796820 51754780 51727244 51725252 51749224 51789320 
3898.766 51830356 51857680 51863024 51848116 51822416 51800836 51797104 
3902.141 51821100 51876564 51961512 52068888 52188560 52309608 52420684 
3905.517 52508840 52563240 52574660 52538696 52457988 52341612 52207180 
3908.892 52074592 51963892 51889896 51860628 51874780 51924324 51996204 
3912.267 52077328 52153516 52215436 52256896 52272564 52260812 52220964 
3915.642 52153556 52062180 51952592 51834692 51719168 51616616 51537184 
3919.018 51486380 51464744 51471204 51500300 51548004 51610048 51685108 
3922.393 51770768 51865164 51962796 52056300 52138040 52201960 52248072 
3925.768 52281712 52316164 52366464 52443464 52550960 52682640 52821472 
3929.143 52946796 53038840 53085512 53083964 53041028 52968664 52878812 
3932.519 52781548 52681584 52583212 52492888 52421084 52381264 52385940 
3935.894 52441432 52540120 52661692 52775764 52851392 52866476 52816420 
3939.269 52715612 52594316 52485656 52417360 52399676 52424264 52467980 
3942.644 52502012 52504392 52467964 52405132 52341196 52306764 52326632 
3946.020 52408776 52542588 52701116 52849980 52958020 53008200 53003336 
3949.395 52963788 52921136 52906800 52942820 53032056 53158440 53292980 
3952.770 53402688 53463380 53467068 53423852 53359940 53305352 53284812 
3956.145 53307808 53366092 53436696 53490012 53499908 53452852 53349492 
3959.521 53204436 53038116 52871500 52720152 52591784 52488016 52409820 
3962.896 52358668 52340272 52360444 52424084 52529056 52667776 52825920 
3966.271 52985872 53132860 53256316 53353360 53424932 53475912 53510352 
3969.646 53530832 53539904 53539352 53532284 53523032 53514880 53510780 
3973.021 53508716 53505304 53497808 53487188 53480900 53493908 53542116 
3976.397 53635852 53773108 53935704 54092084 54204728 54243124 54195824 
3979.772 54075052 53914792 53759964 53651768 53615264 53649388 53731152 
3983.147 53825196 53895972 53920880 53894588 53826736 53734224 53632832 
3986.522 53529792 53426868 53325008 53230220 53158988 53133520 53173336 
3989.898 53284728 53453276 53642612 53803496 53889948 53874484 53758724 
3993.273 53571448 53360664 53174972 53049560 52995096 53000404 53039556 
3996.648 53085420 53120492 53144108 53167864 53210472 53286976 53403532 
4000.023 53554300 53723836 
##END=
