##TITLE=eSUN_PETG_Black_Filament_r1_ATR-Corrected
##JCAMP-DX=5.01  $$ Nicolet v. 1
##DATATYPE=INFRARED SPECTRUM
##ORIGIN=Curtin University
##OWNER=Nicolet
##LONGDATE=2024/07/10
##TIME=15:05:43
##SPECTROMETER/DATA SYSTEM=Nicolet iS50
##DATA PROCESSING=
Ratio against background
%Transmittance->Absorbance
ATR Correction
Truncated
ElementMultiply or ElementDivide
##COMMENTS=
Number of sample scans: 32
Collection length: 47.29 sec
Sample gain: 1.0
Background collected on: Wed Jul 10 15:03:55 2024 (GMT+08:00);
Number of background scans: 32
Background gain: 1.0
Sample spacing:  1.000
Number of scan points: 16672
Resolution points: 8192
Number of FFT points: 65536
Apodization: N-B strong;
Phase correction: Mertz;
Laser frequency: 15798.3 cm-1
Number of rejected sample scans: 0
Number of rejected background scans: 0
Bench serial number: AUP1200105;
##RESOLUTION=4.000
##XUNITS=1/CM
##YUNITS=ABSORBANCE
##FIRSTX=400.163452
##LASTX=4000.187744
##FIRSTY=0.042978
##MAXX=4000.187744
##MINX=400.163452
##MAXY=1.576477
##MINY=-0.015961
##XFACTOR=1.000000
##YFACTOR=1.000000E-008
##NPOINTS=7468
##DELTAX=0.482125
##ZPD=8192
##XYDATA=(X++(Y..Y))
400.163 4297846 4268987 4249313 4236867 4229793 4225810 4223187 4220919 
404.020 4219005 4218407 4220938 4228682 4243466 4265848 4294811 4327477 
407.877 4359736 4386963 4405118 4411416 4404890 4386305 4357926 4323010 
411.734 4285311 4248527 4216017 4190261 4172771 4163928 4163310 4170259 
415.591 4184695 4207656 4241253 4287816 4348480 4421736 4502816 4584275 
419.448 4658073 4717986 4761787 4791633 4812858 4831214 4850065 4868553 
423.305 4881841 4883252 4867562 4833882 4786876 4735474 4689911 4658232 
427.162 4643868 4645130 4656855 4673104 4689753 4705650 4722144 4741154 
431.019 4763194 4786190 4805933 4817285 4816976 4804240 4781059 4751120 
434.876 4718167 4684822 4652354 4621370 4593062 4569803 4555027 4551876 
438.733 4561670 4582688 4610117 4637246 4657475 4666293 4662481 4648074 
442.590 4627099 4603905 4581804 4562608 4547161 4536135 4530688 4532314 
446.447 4542026 4559231 4581082 4602558 4617738 4621431 4610866 4586494 
450.304 4551793 4512110 4473179 4439855 4415542 4402164 4400590 4410839 
454.161 4432118 4462409 4498264 4534768 4566357 4588001 4596665 4592255 
458.017 4577741 4558206 4539291 4525383 4518478 4517822 4520646 4523419 
461.874 4523298 4519085 4511578 4503007 4496303 4493915 4497158 4505990 
465.731 4519223 4535028 4551540 4567230 4581213 4593150 4603238 4612010 
469.588 4620285 4629086 4639572 4652883 4669974 4691313 4716708 4745244 
473.445 4775325 4805014 4832387 4855904 4874684 4888687 4898632 4905977 
477.302 4912748 4921328 4934219 4953630 4981043 5016770 5059680 5107273 
481.159 5156216 5203128 5245635 5283043 5316700 5349495 5385069 5426613 
485.016 5475998 5533390 5597482 5666147 5737317 5809470 5881861 5954253 
488.873 6026511 6098303 6169193 6238994 6308347 6379059 6454127 6537166 
492.730 6631580 6739640 6861863 6996822 7141439 7291439 7441983 7588155 
496.587 7725277 7849183 7956385 8044193 8110792 8155074 8176441 8174404 
500.444 8148461 8098161 8023588 7925977 7808185 7674613 7530538 7380962 
504.301 7229460 7077456 6924531 6769276 6610773 6449649 6288504 6131347 
508.158 5982366 5844613 5719236 5605506 5501669 5406077 5318071 5238149 
512.015 5167499 5107065 5056846 5015638 4981564 4952846 4928634 4909069 
515.871 4894848 4886207 4882075 4879783 4875643 4866095 4849100 4824919 
519.728 4796051 4766267 4739219 4717169 4700434 4687634 4676558 4665167 
523.585 4652258 4637540 4621241 4603619 4584513 4563521 4540385 4515429 
527.442 4489717 4464757 4441915 4421801 4404013 4387346 4370459 4352504 
531.299 4333576 4314543 4296474 4279834 4264041 4247465 4228073 4204324 
535.156 4175927 4144116 4111310 4080226 4052989 4030468 4012169 3996687 
539.013 3982361 3967964 3952988 3937611 3922376 3907779 3894028 3881022 
542.870 3868473 3856095 3843713 3831224 3818520 3805389 3791541 3776758 
546.727 3761010 3744541 3727858 3711545 3696100 3681743 3668410 3655848 
550.584 3643688 3631535 3618954 3605371 3590002 3571941 3550310 3524592 
554.441 3494938 3462252 3428143 3394594 3363400 3335794 3312144 3291924 
558.298 3273929 3256654 3238700 3219129 3197663 3174711 3151276 3128700 
562.155 3108414 3091580 3078895 3070390 3065475 3063065 3061806 3060389 
566.012 3057751 3053221 3046518 3037745 3027317 3015897 3004376 2993753 
569.869 2985035 2978960 2975779 2975121 2975953 2976858 2976388 2973494 
573.725 2967791 2959582 2949656 2938903 2928019 2917274 2906644 2896019 
577.582 2885452 2875287 2866104 2858422 2852517 2848193 2845018 2842615 
581.439 2841126 2841428 2845113 2854046 2869749 2892724 2922152 2955956 
585.296 2991345 3025540 3056582 3083714 3107456 3129214 3150854 3174160 
589.153 3200643 3231567 3268199 3312004 3364681 3427897 3502845 3589656 
593.010 3687098 3792489 3902040 4011392 4116321 4213141 4298978 4371625 
596.867 4429285 4470267 4492936 4495844 4478094 4439731 4381993 4307280 
600.724 4218807 4120227 4015200 3907190 3799446 3695085 3597163 3508481 
604.581 3431294 3366866 3315268 3275315 3245008 3222089 3204694 3191721 
608.438 3182839 3178111 3177508 3180431 3185662 3191558 3196669 3200239 
612.295 3202546 3204777 3208574 3215405 3225964 3239882 3255834 3271925 
616.152 3286202 3297162 3304037 3306911 3306726 3305059 3303940 3305555 
620.009 3311897 3324414 3343755 3369673 3401193 3436916 3475466 3515758 
623.866 3557137 3599251 3642022 3685702 3731355 3781436 3840294 3914120 
627.723 4009952 4133740 4287874 4468801 4665780 4861312 5033595 5160776 
631.579 5225770 5220305 5146865 5017877 4852566 4672604 4497865 4343372 
635.436 4217909 4124132 4059845 4019751 3997337 3986372 3981955 3981025 
639.293 3982357 3986126 3993310 4004905 4021364 4042300 4066544 4092561 
643.150 4118873 4144517 4169146 4192830 4215727 4237677 4258150 4276306 
647.007 4291404 4303096 4311664 4317849 4322592 4326641 4330373 4333855 
650.864 4337146 4340558 4344854 4351115 4360362 4373127 4389309 4408136 
654.721 4428662 4450179 4472612 4496423 4522277 4550419 4580219 4610094 
658.578 4637862 4661512 4680020 4693811 4704804 4715879 4730051 4749614 
662.435 4775639 4807878 4845088 4885572 4927692 4970194 5012300 5053592 
666.292 5093909 5133230 5171760 5209907 5248466 5288468 5331132 5377620 
670.149 5428765 5484925 5545893 5610977 5679175 5749527 5821467 5895238 
674.006 5972088 6054190 6144289 6244968 6357761 6482340 6616105 6754268 
677.863 6890564 7018324 7131721 7226658 7301263 7355729 7391845 7412240 
681.720 7419926 7417950 7409379 7397390 7385333 7376492 7373786 7379331 
685.577 7394159 7418184 7450573 7490133 7535909 7587448 7644851 7708609 
689.433 7779262 7857132 7942274 8034529 8133820 8240338 8354681 8477803 
693.290 8610836 8754937 8911123 9080337 9263588 9462092 9677438 9911454 
697.147 10166039 10442740 10742324 11064401 11407264 11767861 12142043 
700.522 12524997 12911746 13297661 13678943 14052923 14418237 14774676 
703.897 15122996 15464468 15800409 16131707 16458565 16780450 17096312 
707.272 17405074 17706310 18000862 18291376 18582538 18881094 19195506 
710.647 19535888 19913528 20340740 20830786 21397816 22056668 22822710 
714.021 23711244 24737008 25913394 27251744 28760656 30445402 32307404 
717.396 34343872 36547372 38905736 41401732 44013316 46713652 49471152 
720.771 52248748 55002236 57677196 60204864 62498796 64454264 65954332 
724.146 66884692 67155680 66725480 65613888 63900520 61707288 59173888 
727.521 56435312 53606988 50778364 48012724 45350280 42813056 40409304 
730.896 38137592 35989980 33954536 32017184 30163348 28379252 26653120 
734.270 24975974 23342178 21749542 20199028 18694206 17240590 15844966 
737.645 14514802 13257676 12080755 10990211 9990634 9084492 8271785 7549916 
741.502 6914079 6357709 5873264 5452926 5089191 4775227 4504877 4272603 
745.359 4073352 3902487 3755786 3629559 3520740 3426852 3345944 3276354 
749.216 3216587 3165187 3120786 3082245 3048789 3020119 2996348 2977834 
753.073 2964946 2957827 2956290 2959836 2967757 2979314 2993885 3010953 
756.930 3030128 3051033 3073305 3096542 3120431 3144831 3169871 3195975 
760.787 3223818 3254186 3287870 3325433 3367169 3412953 3462335 3514607 
764.644 3568945 3624640 3681292 3738986 3798283 3860161 3925780 3996138 
768.501 4071821 4152761 4238204 4326803 4416812 4506334 4593502 4676580 
772.358 4754105 4824862 4887974 4943064 4990385 5030936 5066534 5099600 
776.214 5132984 5169482 5211519 5260762 5317989 5383032 5454990 5532502 
780.071 5614187 5699014 5786672 5877807 5973966 6077432 6190851 6316721 
783.928 6456957 6612565 6783578 6969235 7168344 7379751 7602758 7837273 
787.785 8083733 8342768 8614507 8897833 9189603 9483979 9772073 10041968 
791.642 10279248 10468085 10592787 10639756 10599548 10468543 10250255 
795.017 9955467 9601457 9210316 8806437 8413909 8053849 7742527 7490092 
798.874 7300325 7171225 7096252 7066015 7069978 7097921 7140941 7191915 
802.731 7245522 7298057 7347089 7391230 7429985 7463596 7492891 7519003 
806.588 7543067 7565977 7588173 7609700 7630361 7649895 7668128 7685091 
810.445 7700845 7715493 7729049 7741575 7753328 7764856 7777132 7791286 
814.302 7808308 7828665 7851980 7877026 7902007 7925085 7944953 7961244 
818.159 7974644 7986670 7999251 8014231 8032981 8056239 8084155 8116429 
822.016 8152463 8191488 8232538 8274567 8316517 8357484 8397073 8435582 
825.872 8474084 8514327 8558338 8608013 8664608 8728539 8799295 8875714 
829.729 8956318 9039774 9125131 9212125 9301064 9392715 9488030 9587867 
833.586 9692658 9802271 9915849 10031888 10148478 10263534 10375253 10482448 
837.443 10584667 10682282 10776136 10867247 10956313 11043515 11128394 
840.818 11210091 11287662 11360546 11428741 11492831 11553703 11612113 
844.193 11668266 11721519 11770474 11813310 11848264 11874237 11891095 
847.568 11899777 11902089 11900292 11896706 11893269 11891312 11891524 
850.943 11893995 11898310 11903817 11909817 11915815 11921806 11928452 
854.317 11937156 11949903 11968978 11996508 12034115 12082636 12142187 
857.692 12212443 12293039 12384044 12486159 12600730 12729554 12874517 
861.067 13037415 13219754 13422970 13648619 13898636 14175583 14482598 
864.442 14823331 15201646 15621401 16086102 16598548 17160226 17770574 
867.817 18426166 19119722 19839572 20569430 21288886 21974448 22601240 
871.191 23144900 23583598 23899776 24081522 24123292 24025882 23795932 
874.566 23444770 22987110 22439718 21820360 21146918 20436808 19706490 
877.941 18971022 18243606 17535174 16854172 16206445 15595561 15023397 
881.316 14490721 13997944 13545498 13134016 12764075 12435717 12148048 
884.691 11898898 11684930 11502121 11346327 11213999 11102543 11010280 
888.066 10936148 10879118 10837705 10809749 10792488 10783032 10778884 
891.440 10778411 10781113 10787461 10798520 10815455 10838979 10869029 
894.815 10904635 10943991 10984758 11024319 11060054 11089629 11111038 
898.190 11122681 11123282 11111831 11087436 11049305 10996633 10928738 
901.565 10845094 10745595 10630732 10501876 10361342 10212383 10058896 
904.940 9905087 9754796 9611076 9475847 9349786 9232622 9123654 9022258 
908.797 8928420 8842868 8766958 8702192 8649676 8609667 8581393 8563197 
912.654 8553008 8548903 8549511 8554269 8563250 8576935 8595783 8619974 
916.510 8649328 8683394 8721659 8763760 8809507 8858808 8911589 8967549 
920.367 9026244 9087013 9149220 9212310 9275906 9339716 9403411 9466503 
924.224 9528322 9588045 9644900 9698434 9748689 9796330 9842593 9889045 
928.081 9937384 9989097 10045228 10106254 10172002 10241844 10314716 
931.456 10389449 10464946 10540409 10615534 10690671 10766804 10845575 
934.831 10929079 11019649 11119537 11230531 11353808 11489761 11638150 
938.206 11798385 11969925 12152654 12347065 12554203 12775354 13011570 
941.581 13263229 13529772 13809741 14101060 14401449 14708798 15021300 
944.955 15337360 15655309 15973201 16288717 16599341 16902788 17197438 
948.330 17482648 17758746 18026812 18288222 18544294 18796004 19043898 
951.705 19288058 19528062 19762680 19989508 20204602 20402268 20575350 
955.080 20715976 20816680 20871606 20877458 20834116 20744472 20614078 
958.455 20450480 20262570 20060090 19853220 19652228 19467002 19306392 
961.829 19177430 19084672 19029758 19011414 19025830 19067464 19129838 
965.204 19206382 19290882 19377772 19462126 19539532 19606044 19658130 
968.579 19692790 19707576 19700720 19671062 19618010 19541384 19441364 
971.954 19318404 19173254 19006916 18820794 18616662 18396754 18163766 
975.329 17920890 17671738 17420220 17170366 16926040 16690677 16467164 
978.703 16257708 16064022 15887365 15728787 15589099 15468857 15368058 
982.078 15286012 15221137 15171051 15132743 15103053 15079018 15058194 
985.453 15038854 15019846 15000501 14980334 14958981 14936212 14911899 
988.828 14886317 14860138 14834550 14811122 14791609 14777905 14771734 
992.203 14774774 14788511 14814365 14853591 14907317 14976381 15061276 
995.578 15162097 15278564 15410095 15556017 15715690 15888734 16075061 
998.952 16274922 16488945 16718018 16963298 17226186 17508396 17811936 
1002.327 18139236 18493162 18877094 19294898 19750916 20249912 20796918 
1005.702 21397154 22055886 22778346 23569758 24435434 25380928 26412398 
1009.077 27536812 28762188 30097440 31551946 33134290 34850432 36700864 
1012.452 38677024 40757048 42901328 45048620 47114096 48990760 50556092 
1015.826 51684772 52266516 52225448 51535188 50224620 48372228 46091604 
1019.201 43513168 40767384 37972408 35227028 32607812 30169630 27947804 
1022.576 25961306 24216248 22709120 21429668 20363202 19492250 18797772 
1025.951 18259958 17858664 17574098 17387212 17280258 17237278 17244410 
1029.326 17290066 17364864 17461538 17574612 17700290 17836230 17981262 
1032.702 18135096 18297898 18469954 18651248 18841284 19039090 19243320 
1036.077 19452442 19664968 19879500 20094718 20309324 20521906 20730908 
1039.452 20934572 21131016 21318232 21494186 21656888 21804508 21935522 
1042.827 22048986 22144466 22222178 22282752 22327038 22355948 22370412 
1046.203 22371524 22360804 22340434 22313412 22283252 22253642 22227886 
1049.578 22208490 22197018 22194318 22200950 22217750 22246088 22288076 
1052.953 22346156 22422748 22519804 22638572 22779582 22942918 23128476 
1056.328 23336240 23566320 23818926 24094224 24392240 24713000 25056588 
1059.704 25423342 25813872 26228864 26668826 27133712 27622720 28134408 
1063.079 28667098 29219392 29790766 30381852 30994478 31631148 32294446 
1066.454 32986266 33707388 34457312 35234588 36037460 36864616 37715940 
1069.829 38592816 39498024 40435340 41408692 42421596 43476624 44575448 
1073.205 45719172 46908744 48145328 49430308 50764696 52148484 53579776 
1076.580 55054604 56567116 58110236 59676712 61259764 62852948 64449644 
1079.955 66042024 67620408 69173320 70688752 72155824 73566968 74918816 
1083.330 76212464 77452240 78643768 79792752 80903824 81980552 83026136 
1086.706 84044024 85038152 86012568 86970816 87914992 88845152 89758720 
1090.081 90650376 91511640 92330776 93092808 93780224 94374296 94856968 
1093.456 95212752 95430080 95501160 95421272 95187096 94795744 94244264 
1096.831 93530616 92654464 91618648 90429352 89095936 87630024 86044792 
1100.207 84354376 82573808 80718664 78805080 76849416 74868000 72877064 
1103.582 70893336 68934568 67020332 65172224 63413604 61768480 60260092 
1106.957 58909504 57734232 56747324 55956680 55364656 54967660 54755644 
1110.332 54711868 54812724 55028212 55323116 55658948 55996396 56298132 
1113.708 56531148 56668556 56690468 56584120 56343512 55968792 55465324 
1117.083 54842760 54113852 53293000 52395028 51434012 50422608 49371968 
1120.458 48291780 47190888 46077464 44959356 43844020 42738372 41648488 
1123.833 40579344 39534644 38516728 37526696 36564540 35629540 34720596 
1127.208 33836652 32977006 32141292 31329420 30541242 29776176 29032936 
1130.584 28309500 27603346 26911912 26233042 25565436 24908820 24263850 
1133.959 23631840 23014526 22413656 21830908 21267820 20725718 20205670 
1137.334 19708300 19233616 18780944 18348948 17935814 17539694 17159018 
1140.709 16792830 16440836 16103302 15780702 15473479 15181886 14905816 
1144.085 14645037 14399220 14168085 13951291 13748391 13558623 13380849 
1147.460 13213599 13055199 12903965 12758398 12617183 12479149 12343176 
1150.835 12208091 12072685 11935809 11796542 11654357 11509163 11361301 
1154.210 11211481 11060623 10909897 10760594 10614187 10472289 10336590 
1157.586 10208672 10089944 9981523 9884159 9798386 9724586 9663092 9614247 
1161.443 9578437 9556071 9547663 9553916 9575947 9615380 9674414 9755709 
1165.301 9862000 9995673 10158186 10349714 10568761 10812088 11074798 
1168.676 11350456 11631463 11909492 12175954 12422597 12642112 12828557 
1172.051 12977722 13087155 13156052 13184923 13175313 13129409 13049982 
1175.426 12940204 12803692 12644421 12466690 12275047 12074168 11868785 
1178.802 11663631 11463285 11272116 11094025 10932266 10789346 10666953 
1182.177 10566061 10487175 10430518 10396199 10384217 10394411 10426261 
1185.552 10478904 10551148 10641747 10749692 10874289 11015330 11172795 
1188.927 11346519 11535891 11739559 11955463 12181094 12413864 12651543 
1192.302 12892547 13136144 13382362 13631894 13885854 14145486 14411974 
1195.678 14686248 14968835 15259913 15559407 15867113 16183008 16507345 
1199.053 16840752 17184046 17538082 17903534 18280762 18669870 19070852 
1202.428 19483824 19909098 20347184 20798554 21263524 21742030 22233708 
1205.803 22738140 23255196 23785212 24329186 24888520 25464764 26059252 
1209.179 26672938 27306396 27960032 28634468 29330686 30050134 30794532 
1212.554 31565576 32364652 33192536 34049432 34934884 35847944 36787032 
1215.929 37749812 38732928 39731716 40740000 41750292 42754160 43743084 
1219.304 44709572 45648328 46557288 47438228 48296752 49141632 49983656 
1222.680 50834204 51703976 52602172 53536128 54511536 55532868 56603868 
1226.055 57727928 58908164 60147392 61448096 62812392 64242292 65739940 
1229.430 67307912 68949008 70666168 72461936 74338104 76295312 78332736 
1232.805 80447904 82636336 84890744 87200352 89550048 91920000 94285912 
1236.181 96619864 98891696 101070656 103126672 105031384 106758808 108285824 
1239.556 109592840 110664760 111491384 112068176 112396416 112483024 
1242.449 112340304 111985520 111440000 110728016 109875312 108907280 
1245.342 107847640 106717528 105535624 104318952 103083488 101844952 
1248.235 100618688 99419080 98258728 97147992 96094688 95104680 94182504 
1251.610 93331880 92555904 91856560 91234120 90686472 90208504 89792392 
1254.986 89427840 89102856 88804136 88517528 88228088 87920168 87577824 
1258.361 87185504 86728704 86195128 85575288 84863096 84055896 83154536 
1261.736 82163256 81089536 79943672 78738136 77486472 76202200 74897608 
1265.111 73583272 72267752 70958200 69660720 68380968 67124192 65895152 
1268.487 64697588 63534044 62405460 61311416 60250388 59220212 58218424 
1271.862 57242624 56290604 55360420 54450428 53559244 52685572 51827960 
1275.237 50984760 50153864 49332784 48518960 47710024 46904336 46101244 
1278.612 45301072 44504876 43714108 42930068 42153796 41385888 40626760 
1281.988 39876840 39136796 38407556 37690260 36986092 36296208 35621716 
1285.363 34963776 34323688 33702944 33102960 32524932 31969312 31435574 
1288.738 30922020 30425764 29942966 29469206 28999838 28530386 28056752 
1292.113 27575440 27083632 26579266 26061138 25528950 24983346 24426106 
1295.489 23859968 23288752 22717010 22149968 21592912 21050942 20528496 
1298.864 20029104 19555322 19108708 18689856 18298534 17933624 17593146 
1302.239 17274130 16972828 16684771 16405284 16129977 15855238 15578683 
1305.614 15299296 15017419 14734365 14452170 14173178 13899802 13634443 
1308.990 13379470 13137171 12909719 12698939 12506078 12331513 12174501 
1312.365 12033159 11904521 11784816 11669779 11555180 11437166 11312624 
1315.740 11179441 11036687 10884633 10724602 10558791 10389812 10220215 
1319.115 10052074 9886590 9724119 9564257 9406301 9249740 9094761 8942416 
1322.973 8794668 8654104 8523586 8405890 8303538 8218957 8154656 8113608 
1326.830 8099463 8116591 8170087 8265376 8407996 8603343 8856362 9171296 
1330.688 9551164 9997133 10507734 11078031 11699165 12358156 13038306 
1334.063 13719925 14381516 15001117 15557665 16032472 16410394 16680816 
1337.438 16838192 16882240 16817484 16652562 16399170 16070926 15682189 
1340.813 15247081 14778720 14288774 13787414 13283244 12783548 12294373 
1344.188 11820591 11365935 10932992 10523344 10137766 9776476 9439424 
1347.564 9126443 8837295 8571776 8329501 8109966 7912441 7736073 7579791 
1351.421 7442341 7322268 7217921 7127462 7049028 6980905 6921737 6870681 
1355.279 6827355 6791826 6764357 6745206 6734468 6732110 6738032 6752456 
1359.136 6776038 6809994 6856202 6916931 6994542 7091099 7207993 7345766 
1362.993 7503942 7681111 7875079 8082988 8301445 8526636 8754335 8980050 
1366.851 9199273 9407696 9601582 9778070 9935342 10072622 10190055 10288458 
1370.708 10369083 10433327 10482593 10518032 10540573 10550775 10548847 
1374.083 10534759 10508333 10469358 10417767 10353751 10277810 10190915 
1377.459 10094565 9990920 9882839 9773865 9668035 9569587 9482435 9409876 
1381.316 9354112 9316225 9296216 9293287 9306158 9333341 9373347 9424634 
1385.174 9485534 9554184 9628504 9706341 9785745 9865145 9943523 10020246 
1389.031 10094929 10167224 10236611 10302558 10364692 10423164 10478856 
1392.406 10533521 10589653 10650253 10718615 10798144 10892294 11004719 
1395.781 11139358 11300468 11492548 11720276 11988192 12300771 12662284 
1399.157 13077052 13549738 14085485 14689843 15368603 16126978 16968634 
1402.532 17894254 18899852 19975070 21101580 22251920 23389422 24469136 
1405.907 25440410 26250854 26851190 27200342 27270064 27048006 26539012 
1409.282 25764394 24759344 23569170 22244724 20837786 19397090 17965304 
1412.658 16577230 15259205 14029385 12898836 11872698 10951529 10132396 
1416.033 9409751 8776169 8222972 7740827 7320495 6953388 6632087 6350596 
1419.890 6104208 5889257 5702654 5541579 5403434 5285831 5186858 5105187 
1423.748 5040003 4990908 4957544 4939365 4935607 4945373 4967829 5002516 
1427.605 5049372 5108709 5180925 5266265 5364642 5475580 5598188 5731361 
1431.463 5873756 6024007 6180693 6342521 6508405 6677603 6849733 7024594 
1435.320 7201820 7380707 7559869 7737344 7910976 8078956 8240445 8395935 
1439.177 8547255 8697382 8849946 9008802 9177727 9360165 9559137 9777181 
1443.035 10016055 10276441 10557654 10857443 11172107 11496843 11826337 
1446.410 12155200 12478267 12790649 13087440 13363492 13613218 13830622 
1449.785 14009570 14144370 14230332 14264497 14246218 14177352 14062300 
1453.161 13907364 13720016 13508110 13279165 13040139 12797153 12555535 
1456.536 12319683 12092891 11877131 11673034 11479987 11296634 11121322 
1459.911 10952583 10789412 10631224 10477708 10328457 10182730 10039459 
1463.286 9897240 9754661 9610589 9464345 9315726 9164970 9012603 8859216 
1467.144 8705569 8552547 8401214 8252824 8108707 7969983 7837359 7710892 
1471.001 7589935 7473257 7359294 7246484 7133554 7019776 6904832 6788787 
1474.859 6671782 6553875 6434834 6314183 6191235 6065316 5935969 5803064 
1478.716 5666939 5528371 5388477 5248578 5109988 4973860 4841102 4712351 
1482.573 4588010 4468335 4353536 4243787 4139260 4040045 3946184 3857623 
1486.431 3774340 3696429 3624150 3558033 3498756 3447004 3403302 3367925 
1490.288 3340840 3321816 3310638 3307359 3312372 3326525 3351054 3387438 
1494.146 3437214 3501964 3583231 3682693 3802294 3944628 4113100 4312410 
1498.003 4548626 4829080 5161809 5554214 6011147 6532472 7110619 7728781 
1501.861 8360418 8970501 9518655 9963720 10269285 10408993 10370788 10159012 
1505.718 9793857 9308092 8741741 8135973 7527714 6946066 6410879 5933225 
1509.575 5516967 5160891 4860485 4609591 4401406 4229345 4087443 3970565 
1513.433 3874453 3795597 3731113 3678600 3636071 3601930 3574941 3554210 
1517.290 3539089 3529035 3523507 3521928 3523711 3528329 3535394 3544676 
1521.148 3556043 3569285 3583997 3599546 3615101 3629789 3642877 3653846 
1525.005 3662417 3668474 3671964 3672787 3670712 3665453 3656697 3644212 
1528.863 3627871 3607595 3583397 3555368 3523654 3488609 3450803 3411114 
1532.720 3370682 3330730 3292406 3256579 3223647 3193650 3166263 3140973 
1536.577 3117329 3094965 3073757 3053861 3035632 3019623 3006402 2996483 
1540.435 2990051 2986929 2986523 2987916 2990053 2992019 2993275 2993734 
1544.292 2993829 2994229 2995677 2998674 3003461 3009939 3017772 3026586 
1548.150 3036120 3046193 3056825 3068050 3079928 3092514 3105804 3119809 
1552.007 3134514 3149856 3165722 3181843 3197804 3213141 3227360 3240238 
1555.865 3251752 3262208 3272275 3282772 3294555 3308331 3324477 3343018 
1559.722 3363600 3385700 3408847 3432826 3457807 3484363 3513388 3545764 
1563.579 3582211 3623129 3668479 3717948 3771200 3828106 3889056 3955009 
1567.437 4027442 4108233 4199340 4302696 4419959 4552437 4701022 4866194 
1571.294 5047998 5246057 5459559 5687232 5927061 6176115 6430042 6682794 
1575.152 6926324 7150803 7345409 7499359 7603255 7650269 7636789 7562674 
1579.009 7431065 7247931 7021595 6761991 6480065 6186744 5892229 5605264 
1582.866 5332773 5079723 4849320 4643273 4462112 4305420 4172016 4060157 
1586.724 3967597 3891733 3829803 3778991 3736672 3700554 3668781 3640064 
1590.581 3613630 3589217 3566919 3547024 3529866 3515690 3504585 3496518 
1594.439 3491347 3488984 3489433 3492840 3499452 3509481 3523051 3540090 
1598.296 3560415 3583763 3610007 3639145 3671487 3707391 3747298 3791486 
1602.154 3839990 3892637 3949147 4009247 4072757 4139558 4209517 4282385 
1606.011 4357658 4434614 4512543 4590876 4669392 4748232 4827685 4907936 
1609.868 4988574 5068403 5145381 5216790 5279580 5330797 5367839 5388710 
1613.726 5392041 5377117 5343992 5293601 5227862 5149822 5063292 4972499 
1617.583 4881630 4794220 4713004 4639898 4576126 4522397 4478995 4445691 
1621.441 4421741 4405818 4396198 4391192 4389354 4389913 4392677 4397889 
1625.298 4405825 4416398 4429061 4442811 4456518 4469248 4480560 4490523 
1629.156 4499634 4508568 4517921 4528166 4539559 4552285 4566444 4582113 
1633.013 4599260 4617748 4637325 4657711 4678720 4700279 4722451 4745269 
1636.870 4768551 4791778 4814236 4835130 4853997 4870853 4886249 4901284 
1640.728 4917180 4935063 4955723 4979627 5006906 5037524 5071257 5107698 
1644.585 5146191 5185815 5225587 5264803 5303250 5341445 5380380 5421211 
1648.443 5464698 5510867 5559008 5607998 5656823 5705061 5753203 5802440 
1652.300 5854308 5910123 5970547 6035618 6104983 6178352 6255783 6337680 
1656.157 6424533 6516624 6613751 6715388 6821001 6930510 7044545 7164419 
1660.015 7291718 7427771 7573203 7727758 7890489 8060272 8236143 8417685 
1663.872 8604837 8797714 8996288 9200190 9408718 9621044 9836326 10053892 
1667.730 10273031 10492954 10712662 10931190 11147749 11362182 11575055 
1671.105 11787596 12001480 12218282 12439251 12665202 12896584 13133724 
1674.480 13376896 13626327 13882019 14143571 14410189 14680830 14954609 
1677.855 15231028 15509991 15791751 16076332 16363318 16651833 16940844 
1681.231 17229758 17518814 17809276 18103008 18401880 18707038 19018612 
1684.606 19335932 19658534 19987014 20323754 20672812 21039292 21428206 
1687.981 21843598 22288154 22763268 23269818 23808806 24381908 24991570 
1691.356 25640952 26333792 27074578 27868968 28724042 29648140 30649928 
1694.732 31736720 32913194 34180724 35538692 36987264 38530736 40179940 
1698.107 41952636 43871032 45957524 48230208 50699544 53368388 56235088 
1701.482 59298820 62564384 66044020 69755440 73716792 77940672 82429472 
1704.857 87173616 92152712 97338112 102694592 108179680 113740864 119312272 
1708.233 124814056 130155840 135243456 139986384 144301424 148113424 
1711.126 151353488 153960752 155888576 157114608 157647712 157527264 
1714.019 156812720 155569184 153856224 151724320 149219904 146393088 
1716.912 143302336 140013664 136592768 133096400 129566048 126027640 
1719.805 122495712 118979752 115489520 112036944 108635304 105296496 
1722.698 102028856 98836336 95719616 92677896 89710840 86819104 84003792 
1726.073 81265576 78603640 76015680 73498592 71049488 68666304 66348052 
1729.448 64093852 61901944 59768856 57689248 55656572 53664320 51707216 
1732.824 49782292 47889216 46029708 44206752 42423240 40680952 38979952 
1736.199 37318672 35694240 34103504 32543850 31014046 29514802 28048786 
1739.574 26620286 25234470 23896592 22611080 21381148 20208784 19094810 
1742.949 18039298 17041940 16102432 15220432 14395583 13627237 12914206 
1746.325 12254553 11645509 11083739 10565585 10087599 9646662 9240165 
1749.700 8865874 8521618 8205239 7914341 7646604 7399837 7172207 6962313 
1753.557 6768895 6590750 6426475 6274517 6133264 6001386 5877819 5761940 
1757.415 5653314 5551493 5455813 5365442 5279490 5197342 5118625 5043302 
1761.272 4971437 4902946 4837439 4774410 4713437 4654574 4598475 4546154 
1765.130 4498652 4456469 4419145 4385222 4352691 4319506 4284266 4246566 
1768.987 4206871 4166141 4125399 4085152 4045454 4006103 3966832 3927775 
1772.844 3889361 3852273 3817104 3784254 3753790 3725673 3699922 3676770 
1776.702 3656612 3639677 3625959 3614816 3605187 3595894 3585850 3574534 
1780.559 3562015 3548861 3535777 3523348 3511748 3500720 3489643 3477714 
1784.417 3464099 3448203 3429680 3408716 3385947 3362517 3339805 3319170 
1788.274 3301553 3287157 3275441 3265197 3255067 3243973 3231538 3218091 
1792.132 3204532 3191829 3180662 3171093 3162666 3154705 3146666 3138413 
1795.989 3130106 3122167 3114974 3108677 3103157 3098180 3093442 3088744 
1799.846 3084014 3079063 3073694 3067584 3060409 3052138 3043018 3033466 
1803.704 3023997 3014846 3005915 2996906 2987538 2978054 2969300 2962650 
1807.561 2959434 2960417 2965213 2972378 2979596 2984719 2986368 2984352 
1811.419 2979568 2973334 2966618 2959480 2951091 2940259 2926353 2909996 
1815.276 2893435 2880137 2873825 2877328 2891619 2915460 2945755 2978429 
1819.134 3009486 3035829 3055623 3068164 3073530 3072155 3064665 3051850 
1822.991 3034812 3015015 2994251 2974516 2957570 2944692 2936385 2932268 
1826.848 2931196 2931360 2930902 2928068 2921736 2911453 2897531 2880636 
1830.706 2861334 2839908 2816086 2789336 2759331 2726562 2692458 2659368 
1834.563 2629862 2605905 2588136 2575439 2565388 2554962 2541723 2524601 
1838.421 2504299 2482709 2462340 2445114 2431749 2421509 2412592 2402702 
1842.278 2389884 2372986 2352006 2327833 2302025 2276440 2252760 2232212 
1846.135 2215495 2202696 2193371 2186778 2182126 2178781 2176133 2173596 
1849.993 2170384 2165199 2156503 2142882 2123699 2099673 2073109 2047460 
1853.850 2026573 2013266 2008301 2010140 2015328 2019686 2019819 2014116 
1857.708 2003123 1989140 1975077 1963420 1955394 1950875 1948697 1947269 
1861.565 1945127 1941169 1934402 1924150 1909936 1891880 1871062 1849537 
1865.423 1830288 1816193 1809118 1809118 1814153 1820647 1824757 1823416 
1869.280 1815564 1802141 1785596 1768913 1754442 1743603 1736707 1733434 
1873.137 1733379 1736267 1741902 1749833 1759030 1767877 1774576 1777663 
1876.995 1776753 1772467 1766398 1760205 1754913 1750516 1745810 1739073 
1880.852 1728799 1714409 1696615 1677320 1659070 1644207 1634516 1630623 
1884.710 1632212 1638008 1646184 1654729 1661467 1664571 1662641 1655087 
1888.567 1642275 1625742 1608106 1592496 1582135 1579326 1584993 1598007 
1892.425 1615524 1633303 1646781 1652110 1647293 1632681 1611039 1586747 
1896.282 1564863 1549884 1544808 1550646 1566468 1589707 1617006 1644488 
1900.139 1668415 1685599 1693941 1692911 1683884 1670326 1657123 1649308 
1903.997 1650703 1662284 1681911 1704406 1723392 1733109 1730270 1714725 
1907.854 1689065 1657258 1622959 1588540 1554996 1523130 1494710 1473214 
1911.712 1463618 1470765 1497193 1541250 1596979 1654959 1705407 1740979 
1915.569 1759035 1761974 1755964 1748181 1744254 1746387 1753291 1761245 
1919.427 1766214 1765359 1758179 1745959 1731025 1715371 1700440 1686817 
1923.284 1675199 1666938 1664611 1671482 1690612 1723705 1769623 1824140 
1927.141 1880437 1930290 1966069 1982438 1977934 1955233 1920514 1881578 
1930.999 1845722 1817613 1798014 1784079 1770506 1752252 1726477 1694281 
1934.856 1660702 1633128 1619077 1623470 1647089 1686323 1734292 1783038 
1938.714 1825955 1859140 1882469 1898728 1912867 1930305 1955582 1990992 
1942.571 2036257 2088055 2140636 2186804 2219452 2233103 2225450 2197807 
1946.428 2154493 2101782 2045773 1991419 1941354 1896755 1857722 1824477 
1950.286 1797816 1778609 1767390 1763686 1765932 1771719 1778884 1785398 
1954.143 1789779 1789917 1782499 1763038 1727054 1672257 1600716 1519990 
1958.001 1442357 1382034 1350761 1354167 1390519 1451908 1528544 1612517 
1961.858 1699750 1789153 1879104 1963602 2030318 2063274 2047783 1976819 
1965.716 1856024 1704094 1548460 1416767 1328765 1290957 1295961 1326786 
1969.573 1363704 1390080 1395662 1376219 1331781 1263384 1172679 1062678 
1973.430 941043 821463 723674 669699 678879 761526 915627 1125255 1364053 
1977.770 1600288 1804817 1957500 2050943 2090595 2091455 2073031 2054192 
1981.627 2048042 2059584 2084060 2109463 2120625 2106521 2064473 2003455 
1985.485 1941393 1899363 1893204 1926872 1990105 2060699 2111810 2120831 
1989.342 2076544 1981766 1850927 1704475 1561640 1435812 1333022 1253982 
1993.200 1197760 1164467 1156138 1174281 1217822 1280379 1350682 1414654 
1997.057 1459066 1475163 1459932 1415859 1348873 1266202 1175006 1083104 
2000.915 999349 934106 897445 896059 929302 986522 1047704 1087949 1085258 
2005.254 1028209 921966 788981 663578 581279 568135 633122 766589 945183 
2009.594 1140032 1324401 1479133 1594363 1666994 1697894 1688069 1638348 
2013.451 1548513 1419519 1254689 1061394 850882 638272 440686 275124 155717 
2017.791 90239 78226 109293 165142 223711 264547 274677 251852 204593 148163 
2022.613 99364 68833 58255 59765 60142 46501 11181 -45150 -114549 -186561 
2027.434 -251448 -303918 -342164 -366060 -373740 -360320 -319301 -247082 
2031.292 -146729 -30752 81477 169431 220668 236961 235442 242934 285741 
2035.631 378299 517204 681569 841104 966892 1041296 1062997 1046212 1012900 
2039.971 985045 975961 988013 1013748 1041973 1063324 1074406 1078497 
2043.828 1083392 1097485 1127408 1176703 1247740 1342280 1463321 1612726 
2047.686 1788531 1981272 2173059 2340803 2461560 2519641 2511414 2445442 
2051.543 2339649 2215788 2094123 1989086 1907747 1849418 1808749 1778573 
2055.401 1753470 1731565 1714231 1704935 1706509 1719572 1741800 1768260 
2059.258 1793313 1812005 1822007 1824120 1821745 1819599 1822444 1833583 
2063.115 1854268 1883785 1919943 1959856 2000310 2037860 2068956 2089753 
2066.973 2096829 2087846 2062663 2024395 1979306 1935776 1902549 1886032 
2070.830 1888587 1908007 1937989 1970632 1999040 2019032 2030260 2035041 
2074.688 2037075 2039131 2042151 2045102 2046267 2044447 2040465 2037072 
2078.545 2038080 2046761 2064462 2090088 2120023 2149444 2173894 2190176 
2082.403 2196961 2194365 2183678 2166383 2144196 2118992 2092872 2068274 
2086.260 2047553 2032392 2023003 2018371 2016325 2014364 2010576 2004061 
2090.117 1995065 1984168 1971598 1956792 1938547 1915752 1888661 1859704 
2093.975 1833639 1816523 1814152 1830067 1864142 1912218 1967341 2021498 
2097.832 2067826 2101804 2122129 2130369 2129726 2124111 2116990 2110558 
2101.690 2105769 2101975 2097674 2090690 2079147 2061910 2039313 2013275 
2105.547 1987367 1965833 1952642 1950315 1959228 1977224 2000493 2024586 
2109.405 2045915 2062703 2075647 2087454 2101716 2121248 2147048 2177001 
2113.262 2206196 2227513 2233504 2217834 2177339 2112533 2027923 1931176 
2117.119 1831583 1738231 1658170 1595733 1552087 1525790 1513776 1512228 
2120.977 1517665 1526785 1536583 1543968 1545620 1538124 1518834 1486134 
2124.834 1440380 1383741 1319795 1252550 1185739 1121578 1061020 1003832 
2128.692 949475 897711 849286 805676 768844 740550 721427 711168 708039 
2133.031 710037 715084 721937 730289 740529 753385 769045 786942 805344 
2137.371 821878 833605 838090 832916 816778 788693 748244 695560 631253 
2141.710 557067 476065 392937 313907 246373 197877 174484 179543 212687 
2146.050 269723 342614 420854 492892 548037 577457 575230 539452 471958 
2150.390 377610 264075 139547 11785 -114662 -239466 -367038 -504963 -661841 
2154.729 -841687 -1040550 -1243409 -1424716 -1552441 -1596129 -1538685 
2158.104 -1384706 -1163902 -923615 -713488 -566583 -488908 -459632 -442351 
2161.962 -399821 -305134 -150335 54262 283542 506347 693363 823939 887557 
2166.302 885516 826358 725246 600124 470688 355732 270728 224343 216444 
2170.641 236793 268019 289770 285641 249510 187417 116223 58838 35719 58424 
2175.463 124430 218430 316298 393058 428641 413610 349721 248514 128967 
2179.802 12379 -79832 -131136 -132045 -82492 7765 121969 239349 341191 
2184.142 414953 457175 472693 472215 467231 466460 473168 486137 501248 
2188.482 515085 526670 538363 554594 579349 614977 660510 712319 765724 
2192.821 815818 858826 892142 914224 924726 924305 915451 902606 891078 
2197.161 886388 891977 908295 932729 961147 989556 1016623 1043546 1074029 
2201.500 1111243 1155768 1204581 1251370 1289100 1312950 1322301 1321583 
2205.358 1318293 1320301 1332826 1356527 1387381 1418414 1441344 1449103 
2209.215 1437263 1405202 1356559 1298899 1243958 1205317 1195725 1223601 
2213.073 1289309 1383924 1489893 1585730 1652409 1679462 1668315 1631676 
2216.930 1588598 1557519 1550002 1567609 1602918 1643970 1679758 1704544 
2220.788 1718852 1727632 1736828 1749949 1767294 1787057 1807155 1827761 
2224.645 1850740 1878214 1909648 1939931 1960329 1961258 1936832 1888883 
2228.502 1827588 1769585 1732540 1729124 1762545 1825716 1903151 1976190 
2232.360 2028377 2049607 2038313 2000561 1948237 1895504 1855941 1840124 
2236.217 1853940 1897170 1963746 2042486 2119671 2182118 2220319 2231038 
2240.075 2217455 2187627 2151449 2116825 2087936 2064363 2043077 2020618 
2243.932 1995885 1971096 1951082 1941460 1946477 1967337 2002113 2046665 
2247.790 2096109 2146269 2194320 2238677 2278655 2313888 2344045 2369204 
2251.647 2389922 2407165 2422017 2435124 2446247 2454489 2458737 2458259 
2255.504 2453314 2444657 2433215 2418780 2399842 2374054 2339404 2295871 
2259.362 2246388 2197223 2156207 2130728 2125066 2139089 2167931 2203900 
2263.219 2238854 2266689 2284983 2295239 2301497 2308534 2319748 2336228 
2267.077 2356834 2379129 2400769 2420497 2438549 2456133 2474275 2492991 
2270.934 2510569 2524087 2530531 2528024 2517529 2503159 2491304 2489344 
2274.792 2503129 2535133 2583622 2642433 2703156 2756889 2796776 2819398 
2278.649 2825021 2816909 2800022 2779743 2760936 2747641 2742952 2749114 
2282.506 2767120 2796208 2833646 2874478 2912786 2943116 2961951 2969061 
2286.364 2967268 2961485 2956644 2955869 2959288 2963958 2965192 2958283 
2290.221 2940341 2911517 2874750 2834973 2797485 2766617 2744594 2731370 
2294.079 2724819 2721540 2717611 2709561 2695030 2673366 2645915 2615849 
2297.936 2587624 2565990 2554643 2555272 2566987 2586718 2609903 2632163 
2301.793 2650200 2662693 2670138 2673981 2675952 2676959 2677010 2675279 
2305.651 2671014 2663976 2655076 2646095 2639473 2637450 2641613 2652415 
2309.508 2669140 2690174 2713211 2735791 2755668 2771148 2781240 2785972 
2313.366 2786159 2783279 2779193 2775625 2773995 2775077 2779134 2785986 
2317.223 2795264 2806758 2820737 2838106 2860766 2891221 2932199 2985676 
2321.081 3051487 3126245 3202781 3270701 3318235 3334899 3314193 3255456 
2324.938 3164215 3051077 2929349 2812116 2709875 2628681 2569550 2529561 
2328.795 2503412 2485792 2472803 2462746 2455691 2452448 2453478 2458173 
2332.653 2465001 2471974 2477507 2480762 2482074 2482325 2482394 2482843 
2336.510 2483474 2483820 2483261 2481615 2479149 2476595 2474770 2474311 
2340.368 2475576 2478549 2483122 2489255 2497100 2506843 2518579 2531961 
2344.225 2546171 2559933 2571831 2580665 2585756 2587220 2585933 2583250 
2348.083 2580604 2579059 2578982 2580014 2581159 2581313 2579605 2575836 
2351.940 2570634 2565223 2561040 2559207 2560123 2563350 2567964 2572779 
2355.797 2576939 2580181 2582775 2585121 2587485 2589608 2590724 2589858 
2359.655 2586306 2580034 2571731 2562799 2554610 2548232 2544002 2541527 
2363.512 2539951 2538430 2536466 2533980 2531380 2529156 2527775 2527510 
2367.370 2528652 2531491 2536518 2544162 2554739 2568017 2583203 2598912 
2371.227 2613670 2626212 2635946 2642845 2647439 2650382 2652163 2653001 
2375.084 2652950 2651994 2650392 2648425 2646434 2644498 2642285 2639248 
2378.942 2634923 2629417 2623519 2618712 2616565 2618155 2623452 2631294 
2382.799 2639568 2645927 2648528 2646495 2640100 2630355 2618532 2605869 
2386.657 2593309 2581621 2571689 2564584 2561362 2562796 2568880 2578506 
2390.514 2589851 2600485 2608444 2612489 2612576 2609453 2604417 2598614 
2394.372 2592866 2587532 2582878 2579028 2576357 2575223 2575423 2576178 
2398.229 2575848 2572440 2564101 2549737 2529569 2505217 2479191 2454301 
2402.086 2432984 2416818 2406548 2402174 2403341 2409611 2420524 2435488 
2405.944 2453610 2473376 2492899 2510006 2522890 2530384 2532281 2529443 
2409.801 2523307 2515632 2507856 2500707 2494169 2487629 2480194 2471382 
2413.659 2461248 2450825 2441619 2435252 2432756 2434208 2438480 2443417 
2417.516 2446742 2446352 2441255 2431521 2418462 2403988 2390036 2378295 
2421.374 2369923 2365536 2365211 2368703 2375350 2383905 2392620 2399301 
2425.231 2401743 2398225 2388118 2372112 2352278 2331356 2312336 2297457 
2429.088 2288002 2284047 2284821 2289060 2295629 2303635 2312542 2321856 
2432.946 2330804 2338206 2342404 2341639 2334523 2320617 2300809 2277484 
2436.803 2254081 2234401 2221802 2218116 2223399 2235773 2252091 2268667 
2440.661 2282458 2291470 2295312 2294509 2290215 2283513 2275030 2265180 
2444.518 2254333 2243368 2233880 2227931 2227717 2234870 2249795 2271762 
2448.375 2298757 2328041 2356564 2381379 2399840 2410013 2410803 2402536 
2452.233 2387013 2367655 2348758 2334752 2328769 2331704 2341832 2355300 
2456.090 2367426 2374266 2373983 2366931 2355606 2343028 2331729 2322759 
2459.948 2315601 2308899 2301321 2292381 2282663 2273243 2265062 2258328 
2463.805 2252267 2245754 2238046 2229360 2221021 2214990 2212753 2214738 
2467.663 2219745 2225463 2229364 2229649 2226024 2219641 2212386 2206107 
2471.520 2201832 2199344 2197799 2196028 2193245 2189314 2184570 2179456 
2475.377 2174265 2168913 2163408 2157952 2153029 2149562 2148121 2148731 
2479.235 2150465 2151931 2151829 2149598 2145999 2142918 2142597 2146671 
2483.092 2155473 2167669 2180846 2192442 2200732 2205480 2207732 2209345 
2486.950 2211961 2216343 2222318 2229060 2235587 2241409 2246476 2250946 
2490.807 2254702 2257194 2257463 2254771 2249263 2242234 2236097 2233434 
2494.665 2236017 2243732 2254617 2265093 2271663 2271949 2266067 2256356 
2498.522 2246911 2241817 2243771 2253066 2267610 2283531 2296846 2304477 
2502.379 2305429 2300681 2292839 2284961 2279801 2279078 2283205 2291690 
2506.237 2303452 2317045 2331459 2345745 2359365 2372076 2383841 2395068 
2510.094 2406155 2417528 2429127 2440298 2449584 2454933 2454263 2446311 
2513.952 2431159 2410723 2388486 2368775 2355736 2352227 2359059 2375057 
2517.809 2397382 2422696 2447880 2470663 2490103 2505999 2518724 2528601 
2521.667 2535984 2541181 2544909 2548159 2552232 2558181 2566281 2575670 
2525.524 2584343 2589660 2589212 2581674 2567465 2548717 2528764 2511183 
2529.381 2498964 2493756 2495483 2502717 2513079 2523874 2532794 2538102 
2533.239 2539092 2535899 2529611 2521765 2514270 2508955 2507034 2508903 
2537.096 2514136 2521452 2529314 2535982 2540208 2541448 2539580 2535428 
2540.954 2530190 2525604 2523593 2526114 2534498 2549094 2568563 2590018 
2544.811 2609293 2621927 2624557 2616001 2598001 2575158 2553564 2539352 
2548.668 2536817 2547348 2569018 2597430 2627209 2653744 2674448 2689333 
2552.526 2700413 2710674 2722726 2737480 2754030 2769797 2781579 2786724 
2556.383 2784270 2775275 2762578 2749841 2740446 2736427 2737768 2742682 
2560.241 2748398 2752090 2752060 2748263 2742272 2736801 2734496 2737326 
2564.098 2745895 2759336 2775921 2793289 2809428 2822785 2832440 2838129 
2567.956 2840032 2838890 2836009 2833214 2832750 2836775 2846901 2863534 
2571.813 2885842 2911521 2937573 2960743 2978400 2988646 2990704 2984788 
2575.670 2971929 2953844 2932933 2912123 2894428 2882445 2877593 2879481 
2579.528 2885904 2893504 2898704 2899087 2894599 2887442 2881450 2880574 
2583.385 2887224 2901247 2919917 2938755 2953294 2960722 2960799 2955668 
2587.243 2948720 2943171 2940515 2940112 2939735 2936574 2928806 2916534 
2591.100 2901906 2888500 2879988 2879043 2886481 2901132 2920307 2940736 
2594.958 2959234 2973424 2981906 2984280 2981026 2973398 2963240 2952849 
2598.815 2944497 2940084 2940541 2945570 2953731 2962975 2971197 2977165 
2602.672 2980921 2983564 2987003 2992810 3001782 3013312 3025688 3036562 
2606.530 3043857 3046452 3044566 3039555 3033610 3028941 3027210 3029217 
2610.387 3034822 3043148 3052954 3062870 3071785 3078996 3084208 3087776 
2614.245 3090473 3093464 3097989 3104999 3114934 3127422 3141368 3155126 
2618.102 3167016 3175798 3181023 3183072 3183158 3182878 3183874 3187381 
2621.959 3194015 3203825 3216070 3229706 3243251 3255289 3264559 3270207 
2625.817 3272204 3271113 3268238 3265049 3262987 3262779 3264427 3267222 
2629.674 3269982 3271783 3272114 3271332 3270262 3269892 3270779 3272831 
2633.532 3275048 3276132 3274782 3270351 3263187 3254475 3245787 3238642 
2637.389 3233805 3231125 3229791 3228511 3226339 3222908 3218845 3215240 
2641.247 3213405 3214397 3218423 3224692 3231757 3237968 3241901 3242926 
2645.104 3241344 3238383 3235520 3234215 3235256 3238551 3243103 3247547 
2648.961 3250504 3251159 3249465 3246209 3242635 3240134 3239567 3241195 
2652.819 3244686 3249174 3253625 3257274 3259676 3260864 3261267 3261479 
2656.676 3262143 3263849 3266824 3270932 3275512 3279496 3281496 3280123 
2660.534 3274442 3264207 3250195 3233804 3216883 3201092 3187348 3175632 
2664.391 3165193 3154913 3143904 3131986 3119955 3109165 3101185 3097152 
2668.249 3097340 3101005 3106762 3112892 3117816 3120434 3120270 3117323 
2672.106 3111965 3104905 3097052 3089459 3083129 3078944 3077342 3078133 
2675.963 3080509 3083240 3085280 3085981 3085462 3084505 3084231 3085597 
2679.821 3089016 3094013 3099659 3104805 3108658 3110878 3111858 3112188 
2683.678 3112446 3112850 3113181 3112927 3111567 3108835 3104795 3099766 
2687.536 3094159 3088258 3082309 3076505 3071256 3067122 3064890 3065274 
2691.393 3068543 3074357 3081840 3089693 3096743 3102127 3105625 3107492 
2695.250 3108332 3108576 3108490 3107927 3106702 3104614 3101717 3098333 
2699.108 3095003 3092249 3090543 3090102 3091086 3093540 3097511 3102863 
2702.965 3109265 3116166 3122757 3128200 3131988 3134056 3134872 3135348 
2706.823 3136487 3138981 3143004 3148070 3153304 3157665 3160449 3161390 
2710.680 3160826 3159405 3158029 3157362 3157887 3159667 3162520 3166065 
2714.538 3169777 3173205 3176107 3178390 3180341 3182469 3185337 3189380 
2718.395 3194749 3201072 3207611 3213365 3217519 3219655 3219901 3218961 
2722.252 3217901 3217840 3219578 3223551 3229659 3237384 3246030 3254753 
2726.110 3262776 3269435 3274221 3276918 3277646 3276980 3275626 3274596 
2729.967 3274710 3276571 3280285 3285636 3292107 3299092 3305986 3312306 
2733.825 3317603 3321411 3323349 3323114 3320745 3316735 3311957 3307646 
2737.682 3305020 3304940 3307565 3312486 3318772 3325303 3331155 3335887 
2741.540 3339510 3342443 3345282 3348553 3352517 3357229 3362506 3368064 
2745.397 3373446 3378391 3382494 3385747 3388308 3390607 3393291 3397015 
2749.254 3402129 3408612 3415886 3422946 3428883 3432966 3435116 3435933 
2753.112 3436291 3437296 3439588 3443262 3447895 3452690 3456903 3460205 
2756.969 3462626 3464566 3466602 3469089 3472123 3475460 3478580 3481014 
2760.827 3482366 3482531 3481567 3479819 3477713 3475879 3474958 3475612 
2764.684 3478330 3483227 3489967 3497718 3505406 3512029 3516842 3519722 
2768.542 3521166 3521893 3522761 3524206 3526294 3528562 3530406 3531341 
2772.399 3531265 3530564 3529910 3530051 3531544 3534628 3538993 3544172 
2776.256 3549591 3554746 3559428 3563602 3567329 3570746 3573841 3576605 
2780.114 3578952 3580864 3582424 3583777 3585271 3587156 3589734 3593082 
2783.971 3597192 3601921 3607012 3612220 3617467 3622735 3628109 3633800 
2787.829 3640035 3646948 3654683 3663391 3673256 3684602 3697640 3712534 
2791.686 3729046 3746548 3763906 3779763 3792839 3802386 3808412 3811793 
2795.543 3814027 3816845 3821653 3829198 3839443 3851730 3865046 3878608 
2799.401 3891869 3904714 3917257 3929403 3940827 3950710 3958085 3962219 
2803.258 3962814 3960531 3956653 3953024 3951552 3953701 3960200 3970814 
2807.116 3984525 3999762 4014755 4027909 4038123 4044821 4048171 4048818 
2810.973 4047924 4046817 4046789 4048861 4053572 4061003 4070681 4081829 
2814.831 4093561 4105094 4116005 4126129 4135764 4145413 4155626 4167049 
2818.688 4180189 4195489 4213262 4233625 4256543 4281612 4308175 4335227 
2822.545 4361731 4386786 4409906 4431281 4451822 4473004 4496556 4523850 
2826.403 4555756 4592271 4632610 4675555 4719834 4764494 4809311 4854637 
2830.260 4901321 4950284 5002330 5057788 5116712 5178972 5244528 5313549 
2834.118 5386564 5464272 5547418 5636528 5731834 5833246 5940445 6053252 
2837.975 6171646 6296060 6427348 6566706 6715516 6875060 7046341 7229953 
2841.833 7425886 7633622 7852222 8080423 8316815 8560000 8808526 9060877 
2845.690 9315381 9570244 9823507 10073183 10317370 10554511 10783190 
2849.065 11002377 11210895 11407507 11590834 11759280 11911351 12045974 
2852.440 12162565 12261239 12342671 12407602 12456768 12490522 12508684 
2855.816 12510964 12496904 12466358 12419514 12357132 12280280 12190212 
2859.191 12088424 11976337 11855496 11727642 11594518 11458130 11320351 
2862.566 11182962 11047572 10915504 10787762 10665184 10548288 10437365 
2865.941 10332435 10233293 10139661 10051177 9967609 9888843 9814854 9745511 
2869.799 9680571 9619600 9562039 9507310 9455337 9406354 9361277 9321215 
2873.656 9287316 9260361 9240549 9227555 9220794 9219652 9223978 9234267 
2877.514 9251388 9276752 9311581 9356936 9413294 9480679 9558614 9646242 
2881.371 9742555 9846241 9955930 10070104 10187278 10306112 10425448 
2884.746 10544465 10662592 10779407 10894760 11008310 11119907 11229356 
2888.122 11336546 11441364 11543614 11642919 11738615 11829757 11915287 
2891.497 11994331 12066431 12131707 12191074 12245841 12297545 12347479 
2894.872 12396505 12444842 12492333 12538552 12583295 12626655 12669234 
2898.247 12712108 12756400 12803301 12853621 12907954 12966651 13030083 
2901.623 13098790 13173707 13255972 13346729 13446753 13555859 13672838 
2904.998 13795303 13920289 14044695 14166173 14283644 14397468 14509460 
2908.373 14621878 14737132 14856745 14981085 15109558 15240902 15373832 
2911.748 15507570 15642095 15777966 15915953 16056645 16199973 16345406 
2915.124 16491890 16638415 16784364 16929462 17074018 17218432 17362964 
2918.499 17507526 17651478 17793692 17932848 18067498 18196386 18318350 
2921.874 18432642 18538908 18637170 18728096 18812538 18891722 18966698 
2925.249 19038012 19105590 19168856 19226774 19278278 19322946 19360838 
2928.625 19392764 19419750 19442840 19462452 19478386 19489806 19495522 
2932.000 19494384 19485586 19468920 19444604 19413166 19375400 19331848 
2935.375 19283074 19229334 19170730 19107222 19038522 18964302 18884060 
2938.750 18797516 18704602 18605686 18501606 18393478 18282480 18169676 
2942.125 18055734 17940750 17824694 17707006 17587188 17464628 17338752 
2945.501 17208948 17074650 16935428 16791252 16642505 16490321 16336296 
2948.876 16182312 16030331 15881781 15737672 15598318 15463465 15332609 
2952.251 15205039 15079992 14956720 14834410 14712259 14589694 14466333 
2955.626 14342244 14217941 14094248 13972233 13852753 13736227 13622627 
2959.002 13511382 13401626 13292363 13182697 13071960 12959953 12846664 
2962.377 12732592 12618549 12505338 12393903 12284809 12178301 12074030 
2965.752 11971246 11868924 11766101 11662178 11556932 11450567 11343518 
2969.127 11236105 11128289 11019793 10910100 10798699 10685536 10570821 
2972.503 10455257 10339569 10224459 10110241 9996726 9883691 9770712 9657528 
2976.360 9544135 9430722 9317459 9204504 9091834 8979388 8867227 8755594 
2980.218 8645089 8536501 8430639 8328189 8229307 8133817 8041184 7950504 
2984.075 7861098 7772335 7683932 7595791 7508020 7420803 7334331 7248759 
2987.932 7164304 7081438 7000582 6922344 6847377 6776248 6709365 6646842 
2991.790 6588419 6533590 6481602 6431629 6382786 6334351 6285878 6237210 
2995.647 6188461 6140154 6093044 6047924 6005551 5966246 5929811 5895381 
2999.505 5861542 5826619 5789138 5748218 5703940 5657245 5609772 5563318 
3003.362 5519152 5477850 5438998 5401443 5363968 5325518 5285616 5244623 
3007.219 5203176 5162079 5121886 5082541 5043704 5004784 4965324 4925139 
3011.077 4884476 4843689 4803224 4763420 4724392 4686120 4648632 4612013 
3014.934 4576416 4542203 4509572 4478737 4449679 4422324 4396434 4371658 
3018.792 4347468 4323296 4298344 4272067 4244174 4215036 4185619 4157251 
3022.649 4131372 4108921 4090022 4073920 4059199 4044269 4028127 4010544 
3026.507 3992297 3974667 3959038 3946085 3935650 3926619 3917431 3906658 
3030.364 3893525 3878330 3862254 3847146 3834880 3826821 3823498 3824561 
3034.221 3828719 3834274 3839264 3842048 3841322 3836639 3828277 3817281 
3038.079 3805382 3794474 3786663 3783698 3786848 3796759 3813413 3836310 
3041.936 3864582 3897249 3933311 3972093 4013157 4056428 4102245 4151122 
3045.794 4203542 4259898 4320110 4383364 4448266 4512810 4574729 4631852 
3049.651 4682610 4726251 4763097 4794441 4822154 4848107 4873633 4898929 
3053.509 4922863 4943290 4957400 4962806 4958230 4943930 4921947 4895598 
3057.366 4868532 4844037 4824141 4809496 4799545 4793228 4789706 4788599 
3061.223 4790427 4796050 4806250 4821011 4839388 4859341 4878375 4893963 
3065.081 4904258 4908485 4907045 4901238 4892816 4883675 4875026 4867473 
3068.938 4860623 4853466 4844631 4832754 4817066 4797652 4775545 4752728 
3072.796 4731553 4714330 4702727 4697482 4698241 4703768 4712328 4722168 
3076.653 4731821 4740401 4747514 4753330 4758091 4762155 4765545 4767951 
3080.510 4768570 4766334 4760097 4748960 4732372 4710575 4684289 4654826 
3084.368 4623487 4591397 4559430 4527927 4497161 4467292 4438636 4411648 
3088.225 4386719 4364048 4343425 4324375 4306368 4289097 4272796 4258226 
3092.083 4246402 4238265 4234399 4234774 4238777 4245628 4254534 4264978 
3095.940 4276580 4288928 4301387 4313024 4322809 4329917 4334228 4336397 
3099.798 4337581 4339274 4342262 4346598 4351307 4354914 4355888 4353305 
3103.655 4347057 4337960 4327003 4315161 4302722 4289558 4275073 4258705 
3107.512 4240198 4219606 4197183 4173205 4147557 4120025 4090473 4059207 
3111.370 4027153 3995979 3967648 3943816 3925609 3913080 3905296 3900802 
3115.227 3897900 3895316 3892253 3888690 3885082 3882122 3880480 3880537 
3119.085 3882201 3884768 3887166 3888086 3886367 3881434 3873625 3864142 
3122.942 3854945 3848151 3845455 3847614 3854322 3864196 3875299 3885787 
3126.800 3894095 3899333 3901044 3899106 3893328 3883740 3870383 3853844 
3130.657 3835092 3815591 3796770 3779951 3765563 3753454 3742826 3732612 
3134.514 3721947 3710393 3697930 3684802 3671266 3657534 3643778 3630265 
3138.372 3617454 3606157 3597280 3591595 3589380 3590294 3593325 3597157 
3142.229 3600381 3602046 3601700 3599397 3595511 3590575 3584835 3578323 
3146.087 3570804 3561988 3551640 3539812 3526879 3513590 3500845 3489659 
3149.944 3480633 3474099 3469652 3466520 3463677 3460340 3456305 3451948 
3153.802 3448383 3446745 3447862 3451583 3456850 3461668 3463934 3462081 
3157.659 3455572 3445316 3433223 3421684 3412740 3407627 3406386 3408087 
3161.516 3411313 3414732 3417434 3419104 3419970 3420394 3420764 3421082 
3165.374 3421108 3420404 3418612 3415669 3411779 3407672 3404241 3402306 
3169.231 3402554 3405096 3409554 3415134 3420716 3425405 3428695 3430649 
3173.089 3431817 3433190 3435642 3439820 3445702 3452741 3459998 3466383 
3176.946 3471065 3473567 3473900 3472559 3470396 3468460 3467776 3469123 
3180.803 3472880 3478703 3485522 3491694 3495252 3494451 3488230 3476587 
3184.661 3460700 3442550 3424515 3408771 3396746 3388960 3385057 3384010 
3188.518 3384587 3385651 3386217 3385852 3384522 3382715 3381233 3381169 
3192.376 3383565 3389052 3397598 3408403 3419981 3430609 3438712 3443421 
3196.233 3444678 3443146 3439843 3435692 3431214 3426322 3420700 3413817 
3200.091 3405486 3395926 3385700 3375624 3366623 3359531 3355101 3354030 
3203.948 3356612 3362849 3371916 3382412 3392335 3399746 3403306 3402881 
3207.805 3399657 3395768 3393587 3394806 3399718 3407161 3414867 3420264 
3211.663 3421487 3417954 3410362 3400457 3390189 3381293 3374795 3370925 
3215.520 3369543 3370157 3372278 3375316 3378629 3381451 3383181 3383503 
3219.378 3382818 3382177 3383067 3386885 3394325 3405092 3417766 3430302 
3223.235 3440611 3447299 3450092 3449732 3447686 3445550 3444422 3444576 
3227.093 3445561 3446438 3446164 3444090 3440209 3435108 3429809 3425495 
3230.950 3423022 3422733 3424154 3426256 3427667 3427091 3423947 3418605 
3234.807 3412262 3406818 3403888 3404494 3408319 3414058 3419578 3422957 
3238.665 3422994 3419698 3414126 3407914 3402613 3399060 3397354 3397001 
3242.522 3397429 3398496 3400543 3404374 3410749 3419837 3431208 3443640 
3246.380 3455472 3465345 3472145 3475341 3474841 3470471 3462170 3449818 
3250.237 3433635 3414502 3394154 3375070 3360177 3352145 3352708 3362345 
3254.094 3380112 3403763 3430287 3456270 3478418 3494116 3501712 3500760 
3257.952 3492260 3478271 3461734 3445680 3432480 3423259 3417745 3414387 
3261.809 3411116 3406107 3398417 3388476 3377670 3368079 3361477 3359027 
3265.667 3360764 3365980 3373338 3381440 3389168 3395756 3400827 3404002 
3269.524 3405226 3404452 3401990 3398541 3395334 3393669 3394847 3399489 
3273.382 3407399 3417467 3427817 3436457 3441699 3442762 3439988 3434755 
3277.239 3429154 3425342 3425134 3429433 3438061 3449866 3463010 3475548 
3281.096 3485795 3492791 3496448 3497440 3496984 3496439 3496896 3498905 
3284.954 3502452 3506982 3511804 3516269 3520089 3523274 3526302 3529600 
3288.811 3533513 3538020 3542795 3547158 3550551 3552558 3553135 3552637 
3292.669 3551647 3550781 3550383 3550601 3551199 3551797 3552048 3551683 
3296.526 3550658 3549240 3547743 3546649 3546462 3547597 3550558 3555559 
3300.384 3562682 3571600 3581508 3591217 3599337 3604452 3605528 3602125 
3304.241 3594670 3584092 3572018 3560346 3550927 3545370 3544730 3549291 
3308.098 3558403 3570451 3583099 3593571 3599311 3598633 3591250 3578421 
3311.956 3562822 3547738 3536375 3530858 3531935 3538673 3548981 3560283 
3315.813 3570192 3577188 3580829 3581586 3580653 3579460 3579237 3580568 
3319.671 3583400 3586987 3590102 3591481 3590186 3586058 3579830 3573081 
3323.528 3567764 3565731 3567975 3574478 3584111 3595193 3606087 3615865 
3327.385 3624652 3633329 3643151 3654911 3668507 3682799 3695953 3706224 
3331.243 3712536 3715010 3714879 3713899 3713813 3715631 3719398 3724073 
3335.100 3728263 3730593 3730237 3727203 3722228 3716731 3712207 3710032 
3338.958 3711123 3715768 3723514 3733237 3743329 3751980 3757521 3758790 
3342.815 3755434 3747769 3736714 3723600 3709687 3696146 3683853 3673548 
3346.673 3665742 3660664 3658029 3657111 3656523 3654580 3649871 3641543 
3350.530 3630002 3616729 3603794 3593282 3586365 3582941 3581578 3580214 
3354.387 3577004 3571127 3563267 3555428 3550208 3549954 3555821 3567515 
3358.245 3583261 3600496 3616551 3629394 3637836 3641623 3641140 3636958 
3362.102 3629668 3619705 3607398 3593168 3577783 3562362 3548399 3537471 
3365.960 3531112 3530258 3535175 3545134 3558480 3572895 3585909 3595357 
3369.817 3600082 3600151 3596855 3592378 3589114 3589043 3593060 3600870 
3373.675 3610985 3621275 3629494 3633818 3633283 3627920 3618668 3607190 
3377.532 3595502 3585670 3579449 3577998 3581618 3589748 3601015 3613434 
3381.389 3624915 3633781 3638894 3640206 3638415 3634750 3630786 3627855 
3385.247 3626831 3628107 3631601 3636938 3643552 3650882 3658399 3665883 
3389.104 3673208 3680651 3688752 3698273 3709975 3724308 3741101 3759377 
3392.962 3777511 3793562 3805744 3813128 3815782 3814916 3812397 3810168 
3396.819 3809658 3811261 3814598 3818628 3822313 3825144 3827316 3829697 
3400.677 3833466 3839561 3848469 3860155 3874197 3890187 3907873 3927188 
3404.534 3947993 3969781 3991566 4011794 4028970 4042068 4051121 4057404 
3408.391 4063061 4070718 4082521 4099555 4121789 4148239 4177445 4207966 
3412.249 4238676 4268843 4297882 4325201 4349923 4371496 4389653 4404914 
3416.106 4418735 4433214 4450497 4472152 4498707 4529349 4562305 4595114 
3419.964 4625404 4651252 4671556 4685972 4695103 4700048 4702513 4704427 
3423.821 4707819 4714325 4724910 4739621 4757783 4777958 4798691 4818635 
3427.678 4836921 4852948 4866072 4875537 4880191 4879022 4871663 4858841 
3431.536 4842751 4826659 4814170 4808009 4809248 4816797 4827710 4838086 
3435.393 4844315 4843996 4836490 4822796 4804842 4784780 4764210 4743871 
3439.251 4723894 4703974 4683826 4663476 4643311 4623990 4606313 4590914 
3443.108 4578300 4568567 4561406 4556045 4551198 4545222 4536479 4523578 
3446.966 4505909 4483658 4457979 4430498 4402954 4376774 4352744 4330934 
3450.823 4311029 4292403 4274527 4256990 4239672 4222483 4205513 4188846 
3454.680 4172789 4157718 4144221 4132817 4123764 4116946 4111680 4106932 
3458.538 4101557 4094556 4085504 4074530 4062376 4050219 4039320 4030881 
3462.395 4025634 4023967 4025800 4030545 4037238 4044473 4050650 4054010 
3466.253 4053087 4046855 4035204 4018950 3999896 3980438 3963125 3950234 
3470.110 3943029 3941559 3944821 3950954 3957761 3963602 3967567 3969393 
3473.968 3969602 3968817 3967359 3964966 3960881 3954466 3945556 3934785 
3477.825 3923789 3914670 3909535 3909592 3914760 3923752 3934474 3944702 
3481.682 3952910 3958419 3961621 3963484 3964933 3966525 3968354 3970064 
3485.540 3971313 3972159 3973195 3975333 3979702 3986980 3997166 4009600 
3489.397 4023081 4036354 4048266 4058436 4066957 4074411 4081416 4088292 
3493.255 4094730 4099910 4102461 4101172 4095396 4085349 4072597 4059356 
3497.112 4048313 4041671 4040622 4044916 4053260 4063440 4073494 4082108 
3500.969 4089032 4094994 4101220 4108795 4118172 4129007 4140275 4150653 
3504.827 4159124 4164971 4168182 4168971 4167824 4165304 4161936 4158279 
3508.684 4155159 4153508 4154114 4157553 4163814 4172360 4182081 4191696 
3512.542 4199856 4205625 4208357 4208012 4205058 4200476 4195773 4192613 
3516.399 4192733 4197451 4207226 4221401 4238386 4255953 4271883 4284665 
3520.257 4293600 4298951 4301556 4302157 4301402 4299422 4296528 4293407 
3524.114 4291412 4292312 4297896 4308947 4324858 4343418 4361528 4376038 
3527.971 4385055 4388614 4388696 4388622 4391857 4400931 4416606 4437838 
3531.829 4462198 4486714 4508865 4527059 4540869 4550872 4558201 4563866 
3535.686 4568543 4572304 4574521 4574131 4570129 4562130 4550615 4537261 
3539.544 4524642 4515656 4512514 4516173 4525633 4538275 4550691 4559628 
3543.401 4563273 4561705 4556882 4551986 4550221 4553890 4563864 4579532 
3547.259 4599308 4621188 4643321 4664188 4682483 4697073 4706987 4711290 
3551.116 4709771 4702888 4691953 4678976 4666191 4655394 4647688 4643209 
3554.973 4641193 4640354 4639223 4636452 4631021 4622577 4611471 4598675 
3558.831 4585888 4574957 4567608 4564764 4566354 4571092 4577205 4582469 
3562.688 4585375 4585120 4581556 4574745 4564465 4549888 4529848 4503394 
3566.546 4470820 4434024 4396667 4363310 4338097 4323606 4319861 4324506 
3570.403 4333581 4342670 4348380 4348919 4344149 4335181 4323372 4309748 
3574.260 4294733 4278121 4259876 4240384 4220793 4203013 4189212 4181228 
3578.118 4180111 4185643 4196331 4209495 4221799 4229828 4230750 4223005 
3581.975 4206856 4184364 4158955 4134750 4115408 4103146 4098442 4099786 
3585.833 4104485 4109770 4113422 4114524 4113442 4111138 4108627 4106029 
3589.690 4102794 4097778 4090096 4079837 4068365 4058442 4053295 4055671 
3593.548 4067030 4086765 4112561 4140789 4167743 4190415 4207477 4219023 
3597.405 4226483 4231667 4236276 4241193 4246393 4251313 4255326 4257833 
3601.262 4258807 4258532 4257483 4256005 4254219 4251979 4249222 4246036 
3605.120 4242775 4240004 4238128 4237467 4237996 4239595 4242470 4247287 
3608.977 4255275 4267788 4286082 4310260 4339367 4371206 4403059 4432305 
3612.835 4457266 4477260 4492679 4504258 4512476 4517306 4517958 4513727 
3616.692 4504278 4490314 4473660 4456718 4441883 4430930 4424613 4422735 
3620.550 4424730 4430083 4438571 4450519 4466113 4484972 4506014 4527100 
3624.407 4545685 4559332 4566381 4566395 4560113 4549475 4536981 4525263 
3628.264 4516587 4512288 4512701 4516890 4522837 4527895 4529585 4525964 
3632.122 4516559 4502520 4486634 4472392 4463547 4462801 4471347 4488459 
3635.979 4511749 4537739 4562450 4582221 4594132 4596330 4588474 4571407 
3639.837 4547560 4520198 4493331 4470606 4455026 4448070 4449689 4458347 
3643.694 4471554 4486591 4501235 4514007 4524162 4531672 4536697 4539125 
3647.552 4538556 4534268 4525563 4511930 4493680 4471621 4447594 4423465 
3651.409 4401136 4381852 4365998 4353115 4342033 4331558 4321119 4310876 
3655.266 4301876 4295661 4293713 4296421 4303125 4311985 4320723 4327271 
3659.124 4330471 4330517 4328446 4325590 4322731 4319873 4315991 4309427 
3662.981 4298861 4283764 4264713 4243216 4221303 4200686 4182783 4168070 
3666.839 4156746 4148700 4143620 4141283 4141079 4141985 4142791 4141963 
3670.696 4138463 4131667 4121911 4109867 4096524 4082728 4068917 4055342 
3674.553 4042275 4030205 4020044 4012965 4009919 4011394 4017244 4026555 
3678.411 4038131 4050687 4062984 4074084 4083237 4089764 4093178 4093213 
3682.268 4089969 4084058 4076269 4067563 4058517 4049282 4039619 4029102 
3686.126 4017720 4005959 3994859 3985599 3979043 3975216 3973480 3972546 
3689.983 3971424 3969473 3967071 3964957 3963782 3963736 3964115 3963641 
3693.841 3960960 3955342 3947101 3937340 3927514 3918614 3910754 3903332 
3697.698 3895193 3885558 3874490 3862930 3852385 3844260 3839211 3837099 
3701.555 3837122 3838514 3841174 3845720 3853071 3863842 3877521 3892298 
3705.413 3905369 3913728 3915394 3910040 3899147 3885546 3872245 3861433 
3709.270 3854005 3849445 3846395 3843421 3839726 3835553 3831933 3830327 
3713.128 3832072 3838227 3849147 3864482 3883303 3904160 3925027 3943704 
3716.985 3958073 3966753 3969401 3966961 3961680 3956182 3953032 3953759 
3720.843 3958466 3966055 3974569 3981896 3986482 3987492 3984973 3979369 
3724.700 3971384 3961704 3951035 3940148 3930070 3921950 3916902 3915739 
3728.557 3918422 3924296 3931969 3939833 3946232 3949820 3949925 3946153 
3732.415 3938871 3928963 3918028 3908142 3901929 3901698 3909098 3924286 
3736.272 3945833 3970636 3994852 4015055 4029030 4036356 4038338 4037054 
3740.130 4034374 4031146 4026786 4019618 4007808 3990431 3968197 3943482 
3743.987 3919769 3900538 3888053 3882593 3882711 3885906 3889636 3892158 
3747.844 3893040 3892867 3893011 3894784 3899293 3906935 3917951 3931975 
3751.702 3948806 3967655 3987543 4006890 4023886 4036923 4045093 4048469 
3755.559 4048274 4046268 4044504 4044270 4046014 4049239 4052861 4055909 
3759.417 4057897 4058966 4059871 4061221 4063454 4066429 4069825 4073337 
3763.274 4077093 4081694 4088112 4097038 4108704 4122242 4136181 4148410 
3767.132 4157198 4161187 4159965 4153991 4144213 4131716 4117757 4103437 
3770.989 4089755 4077633 4067791 4060841 4057016 4056304 4058424 4062942 
3774.846 4069526 4077611 4086686 4095610 4102920 4106819 4105597 4098176 
3778.704 4084812 4067054 4047805 4030454 4018080 4012701 4014945 4023842 
3782.561 4037559 4053900 4070979 4087332 4102224 4115026 4125375 4132589 
3786.419 4136049 4135314 4130347 4121865 4111167 4100030 4090113 4082756 
3790.276 4078474 4076945 4077258 4078176 4078708 4078260 4077181 4076399 
3794.134 4077315 4081313 4089282 4101249 4116238 4132508 4147971 4160717 
3797.991 4169246 4173015 4172022 4167207 4159730 4151167 4143146 4137317 
3801.848 4135065 4137308 4144085 4154547 4166977 4178867 4187905 4192133 
3805.706 4190803 4184426 4174750 4164207 4155225 4149659 4148372 4151097 
3809.563 4156864 4164134 4171420 4177321 4180828 4181371 4178945 4173942 
3813.421 4167188 4159759 4152808 4147242 4143670 4142017 4141775 4141935 
3817.278 4141408 4139233 4134893 4128423 4120539 4112691 4106813 4104893 
3821.135 4108512 4118194 4133124 4151057 4168790 4183008 4191201 4192458 
3824.993 4187683 4179386 4170736 4164800 4163389 4167033 4174919 4185603 
3828.850 4197643 4209948 4221879 4232981 4242718 4250257 4254908 4256212 
3832.708 4254585 4251355 4248554 4248033 4250991 4257352 4265749 4273939 
3836.565 4279798 4281940 4280117 4275254 4268849 4262287 4256519 4251468 
3840.423 4246572 4241022 4234101 4225506 4215460 4204617 4193797 4184046 
3844.280 4176408 4171695 4170546 4172989 4178608 4186607 4196019 4206180 
3848.137 4216761 4228065 4240406 4253679 4267036 4278655 4285919 4286325 
3851.995 4278246 4261682 4238502 4212216 4187081 4166997 4155119 4152967 
3855.852 4160637 4177086 4200156 4226813 4253389 4275792 4290138 4293651 
3859.710 4285503 4267237 4242620 4216885 4195371 4182119 4178968 4185263 
3863.567 4198398 4214819 4231075 4244657 4254315 4259970 4262143 4261676 
3867.425 4259513 4256509 4253437 4251062 4249804 4249808 4250402 4250550 
3871.282 4249107 4245189 4238705 4230444 4222036 4215415 4212136 4213161 
3875.139 4218437 4227033 4237555 4248474 4258607 4267450 4274965 4281692 
3878.997 4288235 4295216 4302818 4310765 4318319 4324541 4328562 4330011 
3882.854 4329136 4326849 4324468 4323210 4323667 4325643 4328003 4329002 
3886.712 4326990 4320695 4310039 4295773 4279562 4263508 4249856 4240391 
3890.569 4236489 4238561 4246238 4258349 4272922 4287923 4301117 4311072 
3894.427 4317139 4319712 4320061 4319894 4320746 4323838 4329711 4338355 
3898.284 4349360 4362105 4375888 4389781 4402643 4413362 4420978 4425067 
3902.141 4426052 4425020 4423496 4422595 4422570 4422519 4420702 4415457 
3905.999 4406027 4393275 4379511 4367750 4360359 4358226 4360172 4363275 
3909.856 4364345 4360948 4352685 4341310 4329932 4321731 4318593 4320296 
3913.714 4324751 4328890 4329955 4326776 4319990 4311831 4305362 4303043 
3917.571 4306155 4314421 4326271 4339616 4352446 4363521 4372520 4379922 
3921.428 4386673 4393786 4401994 4411645 4422606 4434383 4446352 4457883 
3925.286 4468617 4478459 4487395 4495373 4501990 4506445 4507586 4504317 
3929.143 4495808 4482138 4464201 4443897 4423428 4405124 4390773 4381512 
3933.001 4377718 4379177 4385064 4394214 4405039 4415801 4424706 4430482 
3936.858 4432577 4431472 4428641 4425889 4424797 4425955 4428908 4431875 
3940.716 4432873 4430159 4423009 4411809 4397968 4383239 4368977 4356106 
3944.573 4344923 4335467 4327926 4322943 4321233 4323450 4329773 4339478 
3948.430 4351224 4363378 4374581 4384030 4391480 4397226 4401564 4404640 
3952.288 4406401 4406857 4406266 4405405 4405458 4407555 4412476 4420154 
3956.145 4429745 4439888 4449093 4456445 4461604 4465028 4467524 4469872 
3960.003 4472531 4475526 4478509 4481062 4482859 4483823 4483964 4483405 
3963.860 4482063 4479723 4475981 4470471 4462911 4453609 4443347 4433489 
3967.718 4425989 4422764 4425325 4434241 4448721 4466471 4484079 4497776 
3971.575 4504427 4502408 4492025 4475588 4456421 4438074 4423184 4412899 
3975.432 4406934 4404050 4403016 4403212 4405044 4409512 4417917 4430718 
3979.290 4447392 4466048 4483858 4497828 4505481 4505783 4499070 4487250 
3983.147 4473276 4460423 4451549 4448553 4451936 4460713 4473001 4486392 
3987.005 4498715 4508669 4515941 4521085 4525009 4528378 4531124 4532431 
3990.862 4531093 4526210 4517703 4506858 4496066 4488177 4485772 4490171 
3994.719 4501294 4517474 4536268 4554919 4571197 4583686 4591773 4595401 
3998.577 4594853 4590523 4582818 4572567 4560845 
##END=
