##TITLE=eSUN_ABS+_Black_Filament_r2_ATR-Corrected
##JCAMP-DX=5.01  $$ Nicolet v. 1
##DATATYPE=INFRARED SPECTRUM
##ORIGIN=Curtin University
##OWNER=Nicolet
##LONGDATE=2024/07/18
##TIME=10:30:30
##SPECTROMETER/DATA SYSTEM=Nicolet iS50
##DATA PROCESSING=
Ratio against background
%Transmittance->Absorbance
ATR Correction
Truncated
ElementMultiply or ElementDivide
##COMMENTS=
Number of sample scans: 32
Collection length: 47.27 sec
Sample gain: 1.0
Background collected on: Thu Jul 18 10:28:37 2024 (GMT+08:00);
Number of background scans: 32
Background gain: 1.0
Sample spacing:  1.000
Number of scan points: 16672
Resolution points: 8192
Number of FFT points: 65536
Apodization: N-B strong;
Phase correction: Mertz;
Laser frequency: 15798.3 cm-1
Number of rejected sample scans: 0
Number of rejected background scans: 0
Bench serial number: AUP1200105;
##RESOLUTION=4.000
##XUNITS=1/CM
##YUNITS=ABSORBANCE
##FIRSTX=400.163452
##LASTX=4000.187744
##FIRSTY=0.022100
##MAXX=4000.187744
##MINX=400.163452
##MAXY=0.373848
##MINY=0.002415
##XFACTOR=1.000000
##YFACTOR=1.000000E-009
##NPOINTS=7468
##DELTAX=0.482125
##ZPD=8192
##XYDATA=(X++(Y..Y))
400.163 22100224 21897258 21832982 21932788 22173668 22504388 22868626 
403.538 23221122 23531398 23779994 23952452 24035782 24023066 23919668 
406.913 23745446 23531294 23308390 23095778 22895096 22694846 22485342 
410.288 22274640 22098600 22013910 22079028 22325106 22733376 23228074 
413.663 23691822 23998000 24050020 23811064 23313944 22647976 21931420 
417.038 21279046 20777668 20473358 20371650 20445100 20644268 20906540 
420.412 21163194 21347926 21405804 21304912 21044218 20656636 20201482 
423.787 19747514 19354332 19057482 18863406 18756750 18714820 18722148 
427.162 18778508 18895700 19087448 19354366 19675860 20010272 20304834 
430.537 20511712 20601488 20570706 20440276 20247492 20032396 19830140 
433.912 19665580 19552590 19496458 19496868 19547766 19636344 19742858 
437.286 19841228 19904348 19912068 19858410 19755586 19633094 19529762 
440.661 19484168 19523306 19653872 19860242 20107452 20349854 20542168 
444.036 20650206 20658152 20570816 20411092 20213074 20015256 19852806 
447.411 19753516 19734738 19803268 19955582 20178142 20447574 20731606 
450.786 20991840 21190678 21299928 21311288 21242408 21136272 21051342 
454.161 21044614 21152560 21377596 21683768 22006670 22272360 22421936 
457.535 22430212 22314030 22124732 21930866 21795136 21757096 21824988 
460.910 21979042 22183508 22400902 22601214 22766356 22886960 22954156 
464.285 22957564 22885772 22732026 22502420 22222194 21935212 21695870 
467.660 21555728 21548734 21680462 21926130 22237320 22555426 22828332 
471.035 23022472 23129212 23162494 23149804 23120016 23093652 23076200 
474.409 23059082 23025328 22958344 22850374 22707042 22547376 22399442 
477.784 22292650 22250192 22284008 22393134 22565516 22782626 23024502 
481.159 23273840 23517426 23746248 23953484 24133366 24280570 24390192 
484.534 24459964 24491216 24489292 24463540 24425636 24387568 24359378 
487.909 24347290 24352820 24372610 24398702 24420326 24426526 24409092 
491.284 24366220 24304286 24238052 24187498 24172946 24208226 24296164 
494.658 24425030 24571184 24704334 24795950 24826418 24791248 24701820 
498.033 24582170 24462484 24371574 24330186 24347816 24422074 24540578 
501.408 24684784 24833114 24964000 25058438 25101732 25085878 25011616 
504.783 24889638 24740796 24593744 24480204 24429138 24460404 24580162 
508.158 24780026 25039182 25330508 25627610 25911318 26173508 26417616 
511.532 26655382 26901972 27170928 27470296 27801678 28161466 28542926 
514.907 28938726 29342786 29749642 30154446 30552390 30939102 31312738 
518.282 31675908 32037574 32412682 32820214 33278160 33799204 34386200 
521.657 35030712 35714380 36413064 37102240 37762940 38384844 38968172 
525.032 39522504 40063176 40607772 41171052 41761448 42377748 43008420 
528.406 43632816 44225404 44761164 45222920 45606368 45923560 46201276 
531.781 46475888 46785060 47158748 47612844 48146064 48742132 49375416 
535.156 50019100 50651900 51262372 51849904 52421368 52986592 53553124 
538.531 54123372 54693676 55256372 55803392 56329724 56835532 57326368 
541.906 57810780 58296988 58789336 59286336 59780108 60259260 60711952 
545.281 61131128 61517028 61879248 62235528 62608072 63019216 63485660 
548.655 64014956 64602880 65233916 65884164 66525960 67132880 67684560 
552.030 68169216 68583880 68932632 69222744 69460760 69649704 69788080 
555.405 69870376 69890280 69842456 69725208 69540808 69294256 68991592 
558.780 68638296 68238552 67795144 67310704 66787288 66226288 65627284 
562.155 64986416 64295872 63544996 62720940 61812456 60811324 59714104 
565.529 58523236 57247080 55900268 54504636 53089528 51690580 50347076 
568.904 49096444 47968308 46979020 46128964 45404128 44781020 44233788 
572.279 43740192 43285804 42863532 42471152 42107148 41767704 41446352 
575.654 41135816 40830672 40529524 40234620 39948640 39670792 39393576 
579.029 39102256 38778112 38404428 37973204 37489188 36970608 36445004 
582.404 35942388 35487352 35093128 34759060 34472040 34210460 33951404 
585.778 33675624 33372850 33043966 32700424 32362036 32052000 31791962 
589.153 31595886 31466526 31393360 31354140 31319224 31258936 31149720 
592.528 30980520 30754348 30487374 30203240 29927014 29678430 29468254 
595.903 29296752 29155958 29033646 28916580 28794176 28659298 28508206 
599.278 28339486 28153236 27951100 27737120 27518204 27304874 27110000 
602.652 26946378 26823636 26745338 26707900 26700830 26709896 26720364 
606.027 26720878 26705040 26672422 26626336 26572362 26516530 26464148 
609.402 26420322 26390512 26380564 26395768 26439026 26508660 26596962 
612.777 26691048 26775708 26838162 26872390 26882358 26881530 26890348 
616.152 26929922 27016586 27157004 27345786 27566772 27796176 28007212 
619.527 28174686 28278506 28306048 28253022 28123196 27927376 27682268 
622.901 27407864 27125576 26855560 26614458 26414228 26261262 26156866 
626.276 26097864 26077822 26088162 26119452 26162514 26209354 26254458 
629.651 26294952 26330674 26362828 26393276 26422220 26448018 26466616 
633.026 26472700 26460532 26425378 26364312 26276254 26162086 26024756 
636.401 25869814 25705874 25544536 25399878 25285768 25213422 25188216 
639.775 25208466 25265866 25347836 25441508 25536946 25628520 25715236 
643.150 25798116 25877786 25953180 26021300 26079242 26126358 26165632 
646.525 26203318 26246748 26301004 26367030 26440508 26513942 26579910 
649.900 26634408 26678916 26720122 26767902 26832208 26920048 27034632 
653.275 27175420 27339766 27524554 27726698 27943390 28171300 28406006 
656.650 28642484 28876000 29104066 29327396 29550662 29781438 30028156 
660.024 30298790 30598272 30928242 31286716 31668850 32067832 32476482 
663.399 32888376 33299658 33709808 34122240 34543284 34980356 35438880 
666.774 35919776 36418092 36923820 37424288 37908424 38370024 38809700 
670.149 39234408 39654676 40081216 40522080 40980928 41457852 41950696 
673.524 42457388 42976744 43508580 44053704 44612376 45185260 45773456 
676.898 46379584 47008340 47665872 48358696 49091824 49868116 50688668 
680.273 51554276 52467940 53436128 54469308 55581028 56785604 58095876 
683.648 59522672 61074652 62759944 64587988 66571228 68726456 71075816 
687.023 73648752 76485056 79638824 83183024 87212984 91848992 97236056 
690.398 103543312 110961016 119696384 129968032 141993712 155972720 
693.290 172056864 190312224 210670032 232873232 256424928 280554816 
696.183 304222432 326179872 345110720 359833344 369519168 373848416 
699.076 373037056 367728896 358806880 347205408 333773920 319210720 
701.969 304050368 288680960 273373856 258310192 243604384 229322384 
704.861 215495888 202134992 189239472 176806608 164836784 153335360 
707.754 142312880 131783544 121764216 112274584 103337824 94980952 87234192 
711.129 80127920 73687440 67926864 62844188 58418772 54611356 51368548 
714.504 48628536 46327968 44407036 42812740 41498844 40424740 39552932 
717.878 38847680 38275476 37806704 37418064 37094560 36829340 36621688 
721.253 36473324 36385028 36353856 36372804 36433100 36527140 36651696 
724.628 36808904 37005772 37250884 37550724 37906620 38312968 38758540 
728.003 39229192 39712184 40199244 40689448 41189292 41711304 42271292 
731.378 42885644 43568664 44329740 45173188 46097488 47096228 48159296 
734.752 49274304 50428956 51612096 52815488 54033812 55264476 56506236 
738.127 57758252 59017832 60280664 61539996 62788972 64022488 65240972 
741.502 66452600 67674848 68933776 70261176 71689576 73246816 74950728 
744.877 76807032 78809904 80945816 83199064 85557568 88016176 90576984 
748.252 93246904 96032248 98934512 101947448 105057920 108249104 111505792 
751.627 114818784 118186144 121610504 125093296 128627480 132189664 
754.519 135736896 139207904 142528352 145621072 148415408 150856128 
757.412 152907472 154552240 155786432 156611648 157028608 157032304 
760.305 156613136 155760368 154468736 152743856 150606384 148091536 
763.197 145246464 142126064 138788272 135290864 131689336 128034976 
766.090 124373512 120742160 117167800 113665408 110238184 106880568 
768.983 103583312 100338776 97145296 94009296 90944024 87965552 85087928 
772.358 82319288 79659712 77102168 74635576 72248936 69934136 67687760 
775.732 65509372 63399800 61358664 59382844 57468072 55610548 53809936 
779.107 52071412 50405136 48823896 47339496 45958188 44678688 43492132 
782.482 42384716 41341668 40351652 39409420 38516328 37678528 36903592 
785.857 36197064 35559972 34988232 34473060 34003504 33568608 33159312 
789.232 32769476 32396164 32038924 31698388 31374760 31066698 30770810 
792.606 30481200 30191832 29898296 29599866 29302096 29016350 28758458 
795.981 28545168 28390158 28300410 28275064 28306388 28382744 28492862 
799.356 28628976 28788734 28973740 29187822 29433636 29711208 30017270 
802.731 30347164 30697328 31066774 31457808 31874810 32321796 32800052 
806.106 33306566 33833800 34372104 34912300 35448620 35981448 36517292 
809.481 37067832 37647004 38266572 38932380 39640712 40377656 41120328 
812.855 41841556 42514740 43119952 43647256 44096416 44474048 44787652 
816.230 45041200 45233084 45357628 45411860 45401420 45345892 45278320 
819.605 45239584 45269556 45397148 45635556 45982856 46427800 46959512 
822.980 47574548 48279656 49088480 50013584 51057676 52209088 53441196 
826.355 54719048 56006876 57275180 58503328 59677556 60785276 61809996 
829.729 62729476 63517788 64150444 64610288 64890720 64994804 64931280 
833.104 64709820 64338760 63826256 63183412 62427924 61586764 60693016 
836.479 59781108 58880316 58010212 57180420 56393696 55651940 54960444 
839.854 54330864 53778016 53316048 52951580 52680544 52486984 52344792 
843.229 52222556 52087512 51909520 51663616 51331712 50904384 50381432 
846.604 49773140 49098756 48383180 47652104 46925868 46215724 45521152 
849.978 44832412 44134432 43412340 42655884 41862520 41036836 40189340 
853.353 39333308 38482308 37648016 36839308 36061308 35315500 34600472 
856.728 33913096 33250980 32614504 32008700 31443984 30934138 30493576 
860.103 30133158 29856570 29658742 29525832 29437500 29371364 29306328 
863.478 29226712 29124334 28999130 28859074 28717678 28591030 28494128 
866.852 28436908 28422436 28445434 28494590 28555460 28615614 28667610 
870.227 28711254 28753084 28803456 28873382 28971480 29102814 29268780 
873.602 29468474 29699518 29959148 30244412 30552264 30880586 31229364 
876.977 31602472 32007392 32454372 32952278 33504256 34105284 34740856 
880.352 35390832 36035780 36663000 37271592 37872180 38482852 39121488 
883.727 39797972 40509996 41242188 41969868 42665348 43303248 43863928 
887.101 44334172 44705512 44971228 45125212 45160792 45071788 44853132 
890.476 44501544 44017000 43402696 42667704 41829208 40914160 39959904 
893.851 39011048 38114028 37309620 36626788 36079468 35667880 35383228 
897.226 35215488 35159148 35217276 35399952 35720976 36192420 36820452 
900.601 37604032 38536208 39607020 40806952 42128312 43564720 45109696 
903.975 46753896 48483052 50278088 52114492 53963760 55793768 57569248 
907.350 59252696 60805032 62188032 63366860 64312184 65002920 65426664 
910.725 65579736 65466264 65097824 64492128 63672988 62669092 61512512 
914.100 60236748 58873880 57452884 55998424 54530076 53063964 51613672 
917.475 50191192 48807772 47474016 46199340 44991928 43857836 42801456 
920.849 41824724 40927004 40105028 39352620 38661840 38023208 37427804 
924.224 36868316 36339784 35840336 35370900 34933984 34534008 34176528 
927.599 33867712 33613868 33420362 33290024 33222050 33211510 33250220 
930.974 33328236 33436764 33569064 33721432 33891756 34077768 34274324 
934.349 34473676 34666688 34845404 35006736 35153964 35296384 35446416 
937.724 35615088 35808576 36025588 36257900 36493744 36721480 36932908 
941.098 37125956 37304424 37476480 37653028 37845052 38062300 38311528 
944.473 38596096 38914912 39262792 39630800 40009004 40388640 40765552 
947.848 41141656 41524788 41927052 42361568 42839652 43369724 43957528 
951.223 44608128 45328092 46127180 47017876 48013880 49127440 50367832 
954.598 51740364 53248052 54892816 56677516 58606204 60683720 62913820 
957.972 65297632 67832232 70509584 73315520 76228680 79217928 82241688 
961.347 85246936 88171136 90946856 93508064 95796552 97766632 99386592 
964.722 100637392 101509176 101998208 102104808 101834936 101201528 
967.615 100226800 98942320 97386360 95599832 93622024 91487096 89224320 
970.990 86859952 84421336 81939040 79448744 76989248 74599128 72312352 
974.364 70155240 68144784 66288688 64586728 63033484 61619960 60335952 
977.739 59171140 58117204 57168124 56320372 55572172 54921552 54364556 
981.114 53893540 53497476 53163536 52880232 52640140 52441912 52290232 
984.489 52193476 52160548 52197780 52307432 52488184 52736192 53047288 
987.864 53418716 53847948 54331772 54863936 55433492 56024524 56616664 
991.239 57187468 57714428 58176948 58557996 58844620 59029820 59112536 
994.613 59099576 59005284 58852744 58672060 58499636 58376312 58345496 
997.988 58451152 58734532 59231180 59965872 60948216 62169196 63599460 
1001.363 65192268 66888252 68622952 70335312 71973216 73497080 74880616 
1004.738 76108992 77176760 78086488 78849128 79485264 80029064 80531288 
1008.113 81063096 81717600 82610128 83872752 85643200 88045632 91164936 
1011.487 95015784 99513992 104457168 109523688 114296376 118312960 121136520 
1014.862 122432456 122030360 119954296 116410408 111741008 106355712 
1017.755 100664256 95023328 89705920 84892072 80676784 77086128 74097488 
1021.130 71658024 69701536 68160496 66975280 66098564 65496608 65145024 
1024.505 65023796 65109348 65368408 65756024 66215172 66682116 67092032 
1027.880 67384808 67509312 67425912 67107028 66537820 65716976 64657920 
1031.255 63389668 61954464 60405156 58798804 57189736 55624308 54138020 
1034.630 52755164 51491104 50355248 49353312 48487964 47757816 47156688 
1038.006 46673156 46291512 45994400 45765708 45592700 45467376 45384600 
1041.381 45340924 45331848 45350980 45390488 45442196 45499940 45560400 
1044.756 45623660 45692308 45769828 45859076 45961544 46076244 46200924 
1048.131 46331484 46463636 46593292 46718028 46837452 46954548 47075816 
1051.507 47210028 47365928 47550396 47765792 48009548 48275416 48555788 
1054.882 48845216 49142944 49453660 49786408 50151096 50555840 51004440 
1058.257 51495416 52023224 52580532 53160272 53756864 54365980 54984076 
1061.632 55606892 56229916 56848268 57458440 58059568 58653368 59243964 
1065.008 59835968 60431996 61032016 61631892 62224304 62800280 63350156 
1068.383 63864520 64335996 64759104 65131968 65456772 65742472 66004632 
1071.758 66267424 66562472 66928356 67408480 68050168 68902032 70012592 
1075.133 71426216 73178040 75286664 77745448 80513688 83510048 86611664 
1078.509 89659512 92470864 94858376 96652120 97721328 97989168 97442200 
1081.884 96127120 94141240 91616408 88701592 85547624 82295552 79068776 
1085.259 75969464 73075464 70440968 68096496 66051104 64296640 62812148 
1088.634 61570504 60543304 59705340 59036172 58519688 58142204 57890344 
1092.010 57749020 57701832 57732284 57826156 57974048 58171820 58421204 
1095.385 58727484 59098128 59539500 60055940 60646640 61305600 62019776 
1098.760 62768660 63523972 64251632 64914652 65478236 65914808 66208436 
1102.135 66357864 66375196 66283016 66109084 65880880 65621228 65346092 
1105.510 65064908 64781508 64496576 64208328 63913776 63607856 63283108 
1108.886 62929408 62535556 62090572 61586080 61018644 60391104 59710980 
1112.261 58990388 58242804 57481800 56718724 55962340 55219500 54495780 
1115.636 53796464 53126956 52492056 51895860 51340388 50825328 50348244 
1119.011 49906268 49497388 49122504 48785684 48494332 48257308 48082104 
1122.387 47972868 47928532 47943032 48006624 48108288 48238648 48391416 
1125.762 48564344 48757740 48973620 49213444 49477996 49766300 50077460 
1129.137 50410964 50768064 51150984 51562868 52005576 52479760 52983620 
1132.512 53513540 54065532 54635216 55219864 55817936 56429704 57056460 
1135.888 57701488 58369272 59066704 59802940 60589284 61437456 62359092 
1139.263 63363256 64455120 65636376 66905328 68258608 69692800 71206160 
1142.638 72799832 74477248 76243952 78106200 80070264 82141944 84327104 
1146.013 86632456 89066896 91642976 94375704 97283576 100385192 103697736 
1149.389 107234360 111002368 115002768 119229544 123672456 128317880 
1152.282 133151784 138161552 143338560 148680784 154194608 159897232 
1155.175 165816704 171990048 178459712 185264816 192432720 199967088 
1158.068 207837872 215973744 224255536 232516624 240545872 248096880 
1160.961 254901440 260687888 265201840 268228896 269612768 269269632 
1163.854 267193232 263452352 258181728 251568848 243838592 235238256 
1166.747 226025056 216453312 206765216 197182448 187900672 179085824 
1169.640 170872144 163362480 156628624 150714720 145639248 141398944 
1172.533 137971888 135321520 133400544 132153976 131522224 131443280 
1175.426 131854248 132692232 133895304 135402912 137157696 139108320 
1178.319 141211648 143437648 145771024 148214288 150788640 153533168 
1181.212 156503280 159767968 163404720 167495552 172119136 177343584 
1184.105 183219024 189769136 196985216 204822912 213201440 222006064 
1186.999 231093968 240300224 249446256 258348256 266825472 274709280 
1189.892 281849856 288122976 293432960 297714016 300929120 303066848 
1192.785 304137216 304167392 303196896 301273280 298449120 294780000 
1195.678 290325856 285150848 279327232 272934912 266061424 258798784 
1198.571 251239360 243471920 235579232 227637328 219716880 211885296 
1201.464 204208192 196751056 189578608 182754320 176339360 170391552 
1204.357 164963824 160103184 155848656 152229856 149264656 146959072 
1207.250 145307120 144292224 143890320 144072384 144808464 146068848 
1210.143 147825920 150054624 152730848 155831024 159330288 163202304 
1213.036 167417392 171943024 176743072 181777424 187002848 192373232 
1215.929 197841376 203360496 208885776 214375472 219790720 225094512 
1218.822 230250832 235224464 239980880 244488736 248721040 252656640 
1221.715 256280272 259582192 262556880 265202944 267522448 269522272 
1224.608 271214304 272614752 273741856 274613216 275242976 275640992 
1227.501 275814144 275768192 275511840 275058368 274425824 273634496 
1230.395 272704096 271650656 270485408 269216064 267848672 266390896 
1233.288 264853328 263249072 261592624 259896928 258171760 256422368 
1236.181 254650528 252855008 251034384 249187600 247314784 245417952 
1239.074 243499696 241563312 239611696 237646816 235669760 233679824 
1241.967 231675200 229652800 227609504 225542160 223447312 221320672 
1244.860 219156496 216945136 214673264 212324416 209879984 207322528 
1247.753 204637776 201816528 198855248 195755152 192520320 189157056 
1250.646 185672112 182072592 178366800 174563856 170675008 166711584 
1253.539 162685712 158608544 154490032 150340144 146169344 141990848 
1256.432 137821200 133681480 129594936 125586496 121678536 117889192 
1259.325 114230856 110710104 107329560 104090616 100995232 98047560 95253720 
1262.700 92619824 90150360 87845888 85702784 83714304 81871424 80165696 
1266.076 78589360 77136048 75799688 74573576 73449976 72420224 71476608 
1269.451 70613416 69828000 69120608 68492856 67945592 67476824 67080996 
1272.826 66748416 66467388 66226228 66015264 65827944 65661320 65514660 
1276.201 65387996 65281444 65193848 65123520 65068820 65028824 65004504 
1279.577 64998612 65014748 65056688 65127140 65226368 65352588 65501520 
1282.952 65667836 65845684 66029712 66216416 66403664 66591180 66780008 
1286.327 66971420 67166120 67363512 67560408 67751568 67929280 68084512 
1289.702 68208048 68291624 68329264 68317144 68253808 68138752 67971560 
1293.078 67751240 67475760 67143784 66755632 66315436 65832564 65321900 
1296.453 64802012 64292452 63810616 63368136 62968888 62609600 62281676 
1299.828 61974144 61678188 61389244 61108892 60843928 60604880 60403280 
1303.203 60248856 60147920 60102752 60110984 60167292 60263120 60388800 
1306.579 60533428 60685772 60834584 60968616 61077008 61149248 61175008 
1309.954 61144756 61050664 60887904 60655628 60358220 60005340 59610784 
1313.329 59190704 58761428 58336516 57926236 57536356 57169768 56827360 
1316.704 56509184 56215376 55946192 55701616 55481064 55283500 55107900 
1320.080 54953404 54820316 54708768 54618528 54547128 54489684 54439376 
1323.455 54388552 54330832 54264232 54190796 54117264 54052152 54003220 
1326.830 53975196 53968056 53978144 53999420 54025552 54052320 54077292 
1330.205 54100004 54119708 54135288 54143996 54142860 54129628 54104256 
1333.581 54069780 54031636 53996460 53971296 53961840 53972432 54006688 
1336.956 54067448 54157476 54278904 54432756 54617544 54829852 55063768 
1340.331 55313476 55573736 55842000 56117980 56403620 56700756 57010536 
1343.706 57331180 57658572 57986904 58309012 58618824 58910940 59183168 
1347.082 59434892 59668840 59889384 60103320 60317212 60536900 60765532 
1350.457 61002616 61243868 61482480 61711328 61925048 62121736 62303584 
1353.832 62475960 62646248 62822828 63013480 63226872 63473040 63764432 
1357.207 64116388 64546264 65070756 65703468 66451380 67312152 68272048 
1360.583 69305552 70374160 71428512 72411216 73261368 73921120 74343016 
1363.958 74496384 74371752 73980568 73352848 72530936 71562680 70495544 
1367.333 69373648 68234632 67111176 66030784 65016596 64086192 63249708 
1370.708 62509812 61859924 61287688 60776732 60311012 59878204 59470512 
1374.083 59084596 58719672 58374472 58046860 57732420 57425620 57122076 
1377.459 56818932 56517148 56220776 55936936 55674904 55445008 55258272 
1380.834 55124676 55052220 55044676 55100032 55209052 55355180 55516364 
1384.209 55667164 55782796 55841044 55825616 55726072 55538808 55265676 
1387.584 54913804 54494340 54021148 53509844 52975868 52433476 51894276 
1390.960 51366288 50854320 50360696 49886076 49430860 48996052 48583144 
1394.335 48194300 47831596 47497132 47193016 46921332 46685076 46487836 
1397.710 46333456 46225700 46166988 46158088 46198260 46285404 46416832 
1401.085 46590412 46804700 47059192 47354732 47692456 48073804 48498972 
1404.461 48967620 49476588 50020256 50589128 51171044 51749812 52307380 
1407.836 52824388 53281876 53663080 53954984 54150032 54246864 54251308 
1411.211 54174892 54033536 53845940 53630724 53404716 53182180 52973500 
1414.586 52785588 52622128 52483420 52366052 52263236 52164652 52057624 
1417.962 51929124 51769016 51571984 51340280 51084220 50821712 50575504 
1421.337 50370644 50231240 50177428 50224552 50381032 50649176 51026080 
1424.712 51505528 52080912 52747700 53505804 54359356 55315260 56380712 
1428.087 57560508 58854572 60257676 61759856 63348576 65009432 66727668 
1431.463 68487912 70273648 72068600 73857312 75628408 77375952 79101056 
1434.838 80811336 82518872 84236960 85977480 87750200 89562416 91420808 
1438.213 93333216 95309352 97361888 99504336 101751920 104119696 106623328 
1441.588 109278984 112101872 115105792 118299096 121684008 125254112 
1444.481 128996864 132895648 136934928 141104336 145402528 149839904 
1447.375 154438000 159227136 164239168 169494160 174978928 180619328 
1450.268 186253664 191612592 196319456 199919312 201937504 201958656 
1453.161 199706800 195100448 188273712 179555280 169420816 158429840 
1456.054 147158144 136135840 125796544 116445984 108253104 101264392 
1458.947 95431544 90646024 86769088 83653944 81158776 79153944 77524936 
1462.322 76174184 75021832 74005912 73080976 72215688 71388920 70586520 
1465.697 69797400 69013208 68228584 67442088 66658496 65888360 65146640 
1469.073 64448528 63803584 63210316 62652000 62096564 61500160 60816020 
1472.448 60006148 59051752 57960500 56766912 55526124 54303052 53160008 
1475.823 52146400 51292980 50610384 50093608 49727896 49495208 49379704 
1479.198 49370764 49463264 49658328 49962340 50386084 50944556 51655572 
1482.573 52537800 53609428 54886736 56384420 58118432 60107980 62380644 
1485.949 64975620 67947272 71368344 75331984 79951848 85356824 91675664 
1489.324 99010792 107399560 116769088 126894696 137375648 147642144 
1492.217 157002096 164726160 170159440 172835616 172566752 169481776 
1495.110 164007104 156788128 148578160 140120560 132052792 124847496 
1498.003 118795208 114019936 110513760 108178416 106862112 106388392 
1500.896 106575696 107248688 108245816 109421056 110644432 111801328 
1503.789 112789200 113515608 113897248 113861152 113348152 112318480 
1506.682 110755128 108666856 106087256 103069896 99683976 96007736 92124248 
1510.058 88116688 84064872 80042976 76115640 72336400 68746584 65375224 
1513.433 62240064 59349012 56702664 54294772 52114968 50149888 48384816 
1516.808 46805344 45397636 44147696 43041436 42062928 41194584 40417852 
1520.183 39715316 39072816 38481724 37938960 37445148 37002936 36613332 
1523.559 36274432 35981132 35726172 35501840 35301660 35120600 34955360 
1526.934 34803708 34663776 34534560 34415724 34308796 34216000 34139908 
1530.309 34082136 34042108 34016840 34001848 33992788 33987344 33986488 
1533.684 33994344 34016048 34056172 34116920 34196452 34290020 34391100 
1537.060 34493376 34591960 34683804 34767968 34844828 34915504 34981272 
1540.435 35043212 35102764 35161168 35219924 35280544 35343956 35410632 
1543.810 35479664 35549280 35617108 35680212 35736288 35784720 35826092 
1547.185 35863212 35900248 35942216 35992928 36055848 36132292 36223636 
1550.561 36332004 36460960 36616220 36803864 37027744 37286412 37570184 
1553.936 37861368 38136224 38368488 38535700 38622256 38621612 38536368 
1557.311 38375980 38154044 37885952 37587232 37272572 36955144 36646240 
1560.686 36354800 36086268 35843272 35624596 35426908 35245960 35077440 
1564.062 34918072 34766128 34621040 34482828 34351920 34228812 34114724 
1567.437 34011868 33922560 33850140 33797344 33766088 33756568 33768144 
1570.812 33799564 33850148 33920520 34012612 34129796 34276280 34456320 
1574.187 34674476 34934064 35238228 35588896 35988424 36440308 36951044 
1577.563 37530680 38193560 38955220 39828648 40818148 41913192 43083536 
1580.938 44279172 45433564 46472268 47323768 47930276 48256172 48292824 
1584.313 48058732 47596532 46966400 46238472 45484492 44771020 44153236 
1587.688 43671148 43348236 43191916 43194944 43341164 43608264 43972760 
1591.063 44412640 44910208 45451224 46027928 46638292 47288028 47991768 
1594.439 48773528 49664800 50701364 51919036 53346740 55001460 56883272 
1597.814 58971384 61221820 63567184 65917188 68163120 70184704 71860624 
1601.189 73080664 73758600 73841896 73317872 72214504 70596104 68555120 
1604.564 66201144 63649276 61010616 58383292 55848224 53465764 51276012 
1607.940 49299512 47541188 45993628 44642300 43470228 42460384 41597788 
1611.315 40868292 40257180 39748012 39320760 38954664 38628760 38325760 
1614.690 38033608 37746664 37465712 37196556 36948240 36729840 36549372 
1618.065 36410796 36313664 36253032 36219648 36202176 36189600 36173628 
1621.441 36150680 36121836 36092228 36068316 36054636 36052600 36059620 
1624.816 36071516 36084544 36098368 36116900 36147800 36200052 36281116 
1628.191 36394884 36541000 36716276 36916832 37140092 37387288 37663088 
1631.566 37975244 38333656 38748416 39228788 39781176 40406332 41098432 
1634.942 41841796 42610516 43369128 44076888 44692328 45177864 45505120 
1638.317 45656488 45625520 45417696 45048028 44541280 43928732 43245632 
1641.692 42528108 41808824 41113256 40458668 39854172 39301244 38797676 
1645.067 38339204 37922048 37543344 37202092 36897352 36628140 36392984 
1648.443 36190980 36020796 35882440 35776384 35702460 35659428 35643044 
1651.818 35647532 35665008 35687672 35709888 35728940 35745060 35760256 
1655.193 35776212 35793956 35812512 35830032 35844156 35853720 35859756 
1658.568 35864588 35872064 35886936 35913264 35954456 36012564 36088468 
1661.944 36181152 36287900 36404748 36526256 36647140 36762720 36870292 
1665.319 36968940 37059520 37142892 37219392 37286920 37341568 37378260 
1668.694 37392208 37382048 37349916 37303376 37252960 37210208 37183808 
1672.069 37177564 37188868 37209508 37227876 37232648 37216332 37177632 
1675.445 37121680 37058272 36998216 36949588 36915836 36894916 36880720 
1678.820 36866804 36848944 36826392 36803468 36785864 36779596 36788096 
1682.195 36811128 36845604 36887424 36932952 36980980 37032308 37089428 
1685.570 37153856 37225316 37300640 37375764 37445288 37506016 37556064 
1688.946 37596120 37628656 37657312 37686564 37720844 37765288 37824564 
1692.321 37901936 37998904 38113656 38241304 38375136 38509584 38641168 
1695.696 38772432 38910352 39064900 39245716 39458352 39702100 39970584 
1699.071 40253812 40540864 40824716 41103588 41381452 41666908 41969380 
1702.447 42297760 42657420 43051708 43481260 43945384 44442724 44970196 
1705.822 45524880 46102832 46700500 47316332 47952064 48613148 49308380 
1709.197 50048476 50844420 51704968 52636692 53644644 54732868 55905804 
1712.572 57169112 58528376 59989588 61557928 63237480 65032744 66949704 
1715.948 68995136 71176616 73499128 75962856 78562144 81284816 84116832 
1719.323 87044960 90062504 93168144 96366424 99661648 103052560 106528944 
1722.698 110069024 113643352 117218016 120761112 124244544 127644536 
1725.591 130938528 134103032 137110400 139930464 142533872 144895856 
1728.484 146999568 148836624 150404240 151701888 152727296 153474528 
1731.377 153934256 154095456 153947808 153483280 152696816 151586640 
1734.270 150154432 148406432 146353008 144009792 141394992 138528880 
1737.163 135430720 132119432 128613336 124933320 121105464 117163648 
1740.056 113148848 109107528 105087704 101134376 97285960 93573080 90018232 
1743.432 86637528 83443432 80446520 77656424 75081832 72728168 70596768 
1746.807 68683688 66979564 65472348 64150380 63004644 62029952 61225768 
1750.182 60592752 60130548 59835888 59701252 59715988 59868416 60147536 
1753.557 60545700 61057924 61682864 62422664 63281140 64264820 65382548 
1756.933 66644192 68060696 69643520 71402872 73347456 75484392 77820032 
1760.308 80358192 83102432 86053584 89210992 92570592 96126256 99869904 
1763.683 103790224 107874888 112105704 116460152 120906552 125404032 
1766.576 129902464 134343920 138668128 142817008 146739424 150394512 
1769.469 153752848 156795488 159510832 161892800 163936928 165640160 
1772.362 166998832 168011024 168676704 168998208 168982432 168640320 
1775.255 167986752 167039376 165816944 164336480 162612464 160655728 
1778.148 158474816 156078048 153477488 150690640 147741104 144656144 
1781.042 141463552 138185744 134837984 131428320 127960744 124439544 
1783.935 120874832 117282824 113685344 110105128 106560072 103061024 
1786.828 99611344 96209568 92855208 89552712 86313816 83156152 80099152 
1790.203 77160064 74350064 71672912 69126744 66706516 64406352 62222884 
1793.578 60155160 58203136 56367628 54648168 53042860 51548044 50159872 
1796.953 48873856 47687104 46597664 45604500 44706368 43900248 43181512 
1800.329 42541600 41970312 41456104 40988824 40560448 40165532 39799840 
1803.704 39458320 39133800 38816972 38496536 38164240 37815084 37451528 
1807.079 37081172 36716180 36369440 36052724 35774160 35538460 35346740 
1810.454 35196424 35079616 34981592 34880824 34751648 34569760 34319284 
1813.830 34000864 33634528 33257518 32916232 32654234 32500032 32458800 
1817.205 32510388 32617108 32733314 32819000 32848998 32815666 32725796 
1820.580 32593962 32435484 32262814 32084304 31904232 31726674 31555738 
1823.955 31396310 31252924 31128672 31024120 30938016 30867286 30806718 
1827.331 30750592 30690526 30618350 30525984 30408078 30262724 30094460 
1830.706 29911596 29726410 29551054 29396872 29271490 29179824 29123350 
1834.081 29100500 29107018 29135728 29175430 29212564 29232412 29220642 
1837.456 29165352 29058628 28896972 28682466 28423446 28135194 27840338 
1840.832 27566270 27342274 27191712 27126338 27141584 27215780 27316824 
1844.207 27410588 27472656 27493882 27483346 27460142 27446166 27455738 
1847.582 27492298 27548900 27614528 27680960 27746150 27813598 27888196 
1850.957 27970892 28054274 28125944 28173568 28191450 28183908 28163570 
1854.333 28144808 28136280 28135886 28132058 28110328 28063994 27998524 
1857.708 27935636 27903880 27928648 28019242 28165840 28340106 28506832 
1861.083 28636300 28713820 28743630 28744422 28741568 28756108 28799766 
1864.458 28874304 28974562 29094544 29231972 29388142 29566682 29769348 
1867.833 29991558 30221512 30440974 30628440 30763600 30833062 30832508 
1871.209 30770852 30669162 30558290 30471338 30437306 30472014 30572424 
1874.584 30717666 30875250 31011060 31101364 31140554 31143322 31137490 
1877.959 31155122 31221896 31347450 31525046 31734690 31949214 32140494 
1881.334 32285486 32367318 32376974 32313616 32185714 32010392 31813520 
1884.710 31623614 31466816 31360216 31307656 31299554 31318984 31348686 
1888.085 31375610 31395652 31410430 31420008 31419632 31396862 31335090 
1891.460 31219714 31046612 30826064 30582294 30346346 30147248 30004994 
1894.835 29924736 29897444 29902508 29914930 29908272 29859356 29751426 
1898.211 29577606 29344412 29073616 28801146 28572428 28430988 28409970 
1901.586 28518914 28742292 29041774 29365020 29657046 29872188 29981358 
1904.961 29973832 29855416 29645514 29371156 29063642 28753602 28465898 
1908.336 28216158 28007708 27833684 27680342 27535324 27392488 27254052 
1911.712 27128390 27023892 26940104 26866362 26785252 26681124 26548526 
1915.087 26399442 26256470 26144624 26076048 26040994 26008738 25937722 
1918.462 25795598 25572326 25289080 24990322 24725406 24531490 24418992 
1921.837 24371814 24359374 24354594 24346332 24347512 24385190 24487102 
1925.213 24663174 24898394 25156874 25389302 25551990 25615604 25569452 
1928.588 25417548 25173450 24855998 24491824 24120456 23797248 23587140 
1931.963 23555042 23740972 24145370 24717312 25365134 25972056 26430046 
1935.338 26665684 26656172 26429944 26055650 25620592 25205328 24872540 
1938.714 24653544 24550058 24539288 24582584 24631262 24640958 24578656 
1942.089 24430082 24206740 23945992 23703546 23542438 23520520 23673994 
1945.464 24008528 24495328 25073978 25663404 26177586 26538878 26696200 
1948.839 26633236 26371534 25962820 25483382 25020624 24657728 24467646 
1952.215 24500322 24778788 25288932 25975602 26738322 27441158 27930588 
1955.590 28071274 27782362 27073622 26058184 24935336 23947410 23311214 
1958.965 23155002 23480380 24165252 25012588 25819382 26438268 26801686 
1962.340 26916906 26823720 26552978 26112104 25488902 24696578 23800620 
1965.716 22938490 22293376 22029542 22227308 22831554 23649670 24402112 
1969.091 24813852 24701164 24034012 22943784 21685684 20557620 19822448 
1972.466 19643450 20053738 20975042 22258270 23729898 25239928 26690814 
1975.841 28054538 29347554 30611774 31861856 33056050 34085712 34795680 
1979.217 35039776 34736068 33905648 32669950 31227340 29795308 28553340 
1982.592 27604528 26963570 26578540 26382450 26336732 26454748 26791456 
1985.967 27399624 28277506 29331306 30383342 31213814 31628106 31521148 
1989.342 30918876 29966526 28882216 27889556 27149562 26722740 26562774 
1992.718 26548436 26525102 26355674 25951896 25289706 24412216 23414616 
1996.093 22417620 21546818 20903786 20541650 20454694 20578078 20809050 
1999.468 21029328 21143434 21098346 20889222 20552048 20144386 19713166 
2002.843 19296748 18915876 18589316 18345050 18229196 18290096 18564436 
2006.219 19053522 19709100 20445058 21159494 21757916 22178224 22396068 
2009.594 22419546 22270576 21989296 21631472 21265766 20984848 20889552 
2012.969 21056122 21522832 22257390 23162850 24096498 24910518 25488400 
2016.344 25777576 25789378 25585554 25243980 24834822 24399598 23943278 
2019.719 23454742 22911968 22298268 21607152 20844428 20025602 19171538 
2023.095 18303666 17441442 16588543 15742490 14882387 13988765 13051276 
2026.470 12091131 11162528 10347149 9738442 9404523 9376388 9643416 10165061 
2030.327 10895363 11804713 12873714 14079317 15362906 16619250 17708116 
2033.703 18506072 18961996 19138628 19210488 19407990 19923234 20833270 
2037.078 22056340 23379468 24539732 25330006 25671688 25650008 25478050 
2040.453 25405866 25626712 26212974 27100120 28121256 29082986 29833030 
2043.828 30287408 30446440 30360866 30105456 29757340 29397916 29125840 
2047.204 29061428 29328728 30019584 31136462 32568726 34103284 35471456 
2050.579 36434092 36844080 36676292 36020696 35044168 33940728 32880358 
2053.954 31975084 31268954 30746824 30368276 30090450 29890424 29762924 
2057.329 29712462 29730212 29790056 29849576 29860450 29790950 29635272 
2060.705 29422322 29200924 29027250 28935732 28929932 28974254 29005530 
2064.080 28949376 28749720 28383066 27869676 27268416 26662426 26132208 
2067.455 25742826 25526192 25483632 25592044 25818984 26132842 26509474 
2070.830 26933868 27393316 27873598 28356188 28820892 29248710 29628004 
2074.206 29955826 30230734 30452660 30615104 30706762 30717312 30648326 
2077.581 30515164 30351830 30198638 30087912 30030708 30007822 29978508 
2080.956 29891952 29713848 29440766 29106798 28772868 28506078 28351948 
2084.331 28317674 28366632 28432508 28444144 28353368 28153352 27882970 
2087.707 27609620 27405682 27319006 27354414 27469978 27589600 27630666 
2091.082 27530840 27272500 26889592 26462988 26097474 25896786 25931946 
2094.457 26226426 26746700 27413586 28124664 28777538 29295556 29641724 
2097.832 29819662 29864230 29827190 29757646 29691100 29642706 29604358 
2101.208 29552906 29461012 29303700 29070178 28764556 28408418 28034354 
2104.583 27681916 27391972 27196560 27117326 27160846 27315286 27552430 
2107.958 27829686 28097360 28308074 28425846 28438474 28360012 28228220 
2111.333 28096524 28013198 28006534 28070588 28163416 28218300 28163694 
2114.708 27948854 27562502 27040626 26457628 25904160 25461904 25176844 
2118.084 25046918 25024778 25034872 24996482 24846570 24557276 24134978 
2121.459 23615540 23050178 22489296 21973242 21530336 21173268 20904442 
2124.834 20716786 20598634 20532156 20500508 20491754 20499860 20526560 
2128.209 20578078 20656228 20750002 20832640 20865794 20809294 20641354 
2131.585 20367164 20025940 19680216 19393714 19203148 19102178 19038996 
2134.960 18931242 18704612 18330460 17840254 17327006 16915706 16719516 
2138.335 16798098 17137834 17651570 18204566 18651990 18879032 18826886 
2141.710 18503526 17973082 17332766 16700700 16185200 15875539 15827574 
2145.086 16056487 16532635 17177028 17875434 18497538 18925636 19091204 
2148.461 18985204 18670746 18246734 17823962 17474874 17211844 16983252 
2151.836 16684931 16200298 15433729 14335004 12905877 11200445 9300207 
2155.211 7323955 5414855 3775581 2667351 2414683 3335792 5640788 9307392 
2159.069 13996160 19070272 23762714 27397760 29569838 30226824 29639884 
2162.444 28279734 26685522 25338498 24558584 24453500 24928152 25742582 
2165.819 26591582 27209552 27430672 27224030 26694396 26039558 25491272 
2169.195 25250710 25430596 26024432 26908638 27880220 28716434 29245036 
2172.570 29393356 29215688 28853380 28487556 28264014 28234574 28339012 
2175.945 28432362 28346746 27968706 27293816 26433962 25586302 24977156 
2179.320 24779640 25074378 25820870 26890380 28093472 29250060 30226492 
2182.696 30959232 31448156 31739722 31896844 31969912 31990976 31961482 
2186.071 31863668 31676002 31387698 31012490 30601480 30236504 30010428 
2189.446 30000570 30237470 30679118 31210724 31670782 31893998 31766806 
2192.821 31265300 30467950 29538814 28677984 28058006 27779494 27845668 
2196.197 28172724 28626988 29076042 29434092 29675826 29840152 29999082 
2199.572 30226932 30568868 31025014 31550306 32073088 32515236 32816458 
2202.947 32948584 32920514 32774150 32569266 32371138 32229860 32172364 
2206.322 32194134 32263096 32330282 32343998 32267902 32091580 31835310 
2209.698 31551226 31302586 31160430 31176608 31379930 31767446 32308638 
2213.073 32954622 33645204 34321288 34931032 35429240 35774540 35930248 
2216.448 35862976 35553148 35003780 34255368 33391240 32532084 31816970 
2219.823 31367126 31257294 31492274 32000940 32658946 33324224 33886268 
2223.198 34295840 34585924 34851848 35221224 35813496 36700072 37890756 
2226.574 39336236 40946192 42616104 44249192 45772592 47142084 48347656 
2229.949 49415564 50408576 51424116 52580932 53992480 55737664 57827684 
2233.324 60191824 62683240 65112100 67293640 69092272 70452488 71397520 
2236.699 72005000 72361592 72528080 72513752 72281016 71767792 70918056 
2240.075 69707000 68153640 66311404 64249448 62035176 59726380 57369684 
2243.450 55016296 52729948 50590792 48685520 47087872 45834960 44910252 
2246.825 44242980 43718140 43206140 42591232 41799608 40811540 39667156 
2250.200 38451064 37269044 36224268 35393328 34813312 34475596 34337764 
2253.576 34335676 34407068 34508048 34619680 34748332 34914456 35134768 
2256.951 35409244 35715868 36019144 36276660 36461028 36568416 36616868 
2260.326 36641856 36677972 36744288 36835596 36924232 36968140 36930004 
2263.701 36789380 36553796 36253556 35936776 35654132 35442204 35321608 
2267.077 35291368 35334692 35427108 35545128 35669052 35783212 35879420 
2270.452 35947732 35978388 35963860 35897020 35780740 35623584 35446712 
2273.827 35275728 35136948 35051704 35029688 35066872 35149708 35257680 
2277.202 35372344 35482764 35589328 35702288 35837148 36009904 36228752 
2280.578 36492656 36789920 37100960 37404612 37681216 37915640 38100684 
2283.953 38234164 38318852 38358572 38360136 38327452 38265388 38178652 
2287.328 38072908 37955236 37836108 37728132 37645324 37601100 37604916 
2290.703 37657448 37748712 37857840 37955908 38011396 37996972 37898628 
2294.079 37717116 37470360 37187172 36900952 36641128 36425224 36257576 
2297.454 36129660 36025620 35929364 35830548 35727044 35627608 35547644 
2300.829 35505180 35517276 35595836 35747092 35971256 36259892 36598604 
2304.204 36965684 37332492 37666652 37937276 38120764 38209076 38210792 
2307.580 38152056 38069160 37999252 37967704 37983100 38035620 38102560 
2310.955 38157596 38184088 38180044 38157604 38138972 38145176 38187760 
2314.330 38264860 38364772 38471032 38572644 38668232 38765624 38877188 
2317.705 39013788 39179284 39372672 39592464 39844368 40143548 40510728 
2321.081 40959872 41483048 42038548 42548808 42913524 43033448 42839100 
2324.456 42309284 41480832 40439632 39301488 38187476 37199004 36401656 
2327.831 35817148 35429580 35197136 35071468 35010640 34989832 35000192 
2331.206 35042612 35119920 35229744 35361228 35498304 35623188 35722840 
2334.582 35791112 35830000 35846540 35849284 35844736 35836972 35826480 
2337.957 35812604 35795828 35777444 35761772 35753648 35757244 35773760 
2341.332 35801864 35835196 35866292 35886540 35889416 35871620 35833308 
2344.707 35778072 35710432 35634224 35551556 35462896 35367364 35265688 
2348.083 35161712 35062060 34974936 34907596 34862960 34838680 34824228 
2351.458 34807512 34775788 34723084 34650680 34568652 34491520 34433716 
2354.833 34403244 34398748 34409584 34418084 34405984 34359072 34270212 
2358.208 34143596 33988920 33819648 33649460 33488188 33340286 33205200 
2361.583 33078392 32953244 32823864 32686032 32540246 32392398 32254208 
2364.959 32140802 32067056 32044080 32073662 32146458 32243490 32340080 
2368.334 32413066 32447446 32441490 32406126 32360848 32327070 32319538 
2371.709 32342564 32389536 32446168 32497392 32533136 32551102 32557636 
2375.084 32562864 32576222 32601844 32637224 32674172 32701124 32709620 
2378.460 32695844 32662522 32618944 32577864 32553372 32557118 32596688 
2381.835 32672924 32780804 32911062 33050436 33186454 33309490 33415046 
2385.210 33502522 33576080 33638072 33688652 33723972 33735768 33715364 
2388.585 33657344 33563404 33441886 33307404 33177718 33067946 32988400 
2391.961 32941550 32925036 32930850 32950092 32972940 32989740 32992854 
2395.336 32975662 32935434 32873474 32796900 32715962 32642450 32586622 
2398.711 32553236 32540922 32544258 32555886 32570060 32586534 32609332 
2402.086 32645438 32701846 32784324 32895598 33036932 33210248 33416394 
2405.462 33653700 33916084 34187048 34441288 34647528 34775864 34806500 
2408.837 34736408 34581384 34372856 34149684 33948088 33794872 33702028 
2412.212 33669560 33689580 33750808 33843448 33959672 34091488 34229988 
2415.587 34362676 34475248 34553456 34586912 34570720 34507656 34405900 
2418.963 34276788 34133144 33989052 33857016 33749944 33680288 33657672 
2422.338 33687320 33767220 33886952 34028048 34168476 34284984 34361124 
2425.713 34391036 34380680 34347476 34312760 34298060 34312428 34351664 
2429.088 34396568 34416696 34382100 34272708 34088324 33850824 33600228 
2432.464 33384026 33244810 33208794 33279456 33439464 33659516 33906104 
2435.839 34150180 34372724 34561608 34710372 34814140 34871036 34883948 
2439.214 34863868 34831076 34809472 34820608 34873628 34959944 35055068 
2442.589 35126988 35150404 35118844 35048856 34979176 34953680 35007632 
2445.965 35152404 35371072 35622144 35854840 36022472 36098964 36080308 
2449.340 35984656 35842812 35688240 35550924 35451788 35404508 35415756 
2452.715 35488080 35617244 35792964 35997292 36206192 36393408 36536940 
2456.090 36622520 36648324 36623328 36565128 36493840 36426672 36372776 
2459.466 36331764 36292772 36238656 36150536 36015652 35831724 35612004 
2462.841 35384048 35184232 35050244 35007076 35062616 35200632 35386688 
2466.216 35576892 35729004 35815016 35825396 35770076 35671196 35556128 
2469.591 35450168 35370296 35326356 35319380 35345396 35395464 35456804 
2472.967 35513340 35548732 35549732 35511916 35441628 35354952 35274876 
2476.342 35222392 35209244 35235516 35289452 35353344 35410884 35454868 
2479.717 35487072 35517832 35557704 35612360 35677496 35737900 35774256 
2483.092 35769816 35715940 35619596 35499240 35382164 35297816 35269084 
2486.468 35306564 35406648 35551988 35716836 35873996 36002172 36092292 
2489.843 36150032 36193288 36244588 36323304 36436552 36575808 36718124 
2493.218 36832992 36893112 36881352 36798780 36662212 36499708 36341004 
2496.593 36213148 36132460 36104784 36127160 36191388 36283304 36387836 
2499.969 36488040 36566032 36607528 36602924 36550144 36455240 36330300 
2503.344 36189456 36046264 35911352 35793120 35699320 35637040 35615148 
2506.719 35636084 35696320 35781924 35871672 35942220 35979032 35979844 
2510.094 35961228 35950164 35975556 36055060 36187924 36354076 36520744 
2513.469 36655208 36736148 36759992 36739204 36695224 36647604 36608248 
2516.845 36579648 36558368 36542600 36537260 36552804 36602432 36694212 
2520.220 36824372 36977140 37127564 37248840 37321496 37335724 37294336 
2523.595 37207260 37087460 36946864 36796020 36645304 36505720 36389812 
2526.970 36310384 36275684 36289008 36346404 36440296 36562644 36706368 
2530.346 36866456 37037552 37210820 37370460 37496940 37569628 37575824 
2533.721 37516532 37407952 37279628 37166476 37100120 37100312 37172640 
2537.096 37308912 37489440 37691720 37890984 38066052 38199048 38279052 
2540.471 38301484 38273368 38210016 38134700 38069744 38033012 38028976 
2543.847 38047432 38068344 38069448 38035724 37965060 37872024 37779920 
2547.222 37715208 37697716 37732800 37813684 37924664 38046716 38163924 
2550.597 38266128 38348788 38410120 38448280 38461496 38447920 38408500 
2553.972 38349264 38280200 38214520 38165124 38141304 38148492 38189532 
2557.348 38264176 38371828 38510420 38675848 38858652 39044016 39214356 
2560.723 39351564 39443900 39488784 39494812 39479636 39464276 39465976 
2564.098 39493028 39543240 39603864 39657816 39687908 39683380 39640516 
2567.473 39562380 39457148 39334444 39201644 39066080 38933484 38812036 
2570.849 38713056 38650548 38639276 38690988 38808816 38985668 39203592 
2574.224 39436300 39654904 39833660 39957156 40020804 40032632 40008000 
2577.599 39966448 39927192 39904908 39909884 39946488 40015164 40109840 
2580.974 40220852 40332628 40427696 40488020 40501528 40465692 40388488 
2584.350 40288628 40189268 40112880 40072940 40074464 40112048 40177004 
2587.725 40260200 40358628 40472568 40604000 40750332 40901540 41039040 
2591.100 41140872 41188792 41176320 41111988 41018776 40925880 40862104 
2594.475 40843320 40873192 40940896 41027608 41115800 41192584 41255572 
2597.851 41308768 41359024 41413332 41473636 41538428 41603788 41666480 
2601.226 41723920 41777192 41826796 41872940 41913452 41945656 41966496 
2604.601 41974360 41970132 41956568 41936824 41914296 41891208 41869744 
2607.976 41853004 41845672 41854308 41884648 41939408 42017068 42110828 
2611.352 42210564 42306284 42392076 42468028 42538868 42612084 42692432 
2614.727 42779280 42864196 42933828 42974700 42977752 42943616 42882452 
2618.102 42813064 42756092 42728192 42737860 42783944 42857716 42947116 
2621.477 43041704 43137220 43236580 43346528 43475576 43627544 43800268 
2624.853 43983568 44161528 44317864 44438824 44519188 44561220 44575816 
2628.228 44578108 44582216 44599088 44632368 44679780 44733292 44784736 
2631.603 44827484 44859828 44885004 44908924 44938660 44977920 45025560 
2634.978 45075300 45118064 45145404 45152292 45140460 45118728 45099156 
2638.354 45095400 45116188 45164268 45234932 45319000 45406928 45492872 
2641.729 45577040 45664340 45761412 45870836 45987968 46099212 46183604 
2645.104 46221032 46197704 46112312 45979420 45824972 45679412 45570800 
2648.479 45514736 45512432 45551592 45611212 45669484 45710144 45726132 
2651.854 45718912 45695496 45663836 45629700 45594536 45557624 45517588 
2655.230 45474792 45433536 45398848 45376056 45367172 45368628 45373468 
2658.605 45371248 45352996 45312376 45248644 45165276 45067020 44958748 
2661.980 44843296 44720472 44589376 44449328 44303028 44156784 44019116 
2665.355 43899852 43806524 43742052 43705468 43691256 43692816 43704664 
2668.731 43724032 43750948 43786772 43831156 43882076 43933568 43979008 
2672.106 44011492 44028076 44030692 44025564 44020256 44021844 44032540 
2675.481 44049596 44066744 44075964 44072112 44055180 44030216 44005516 
2678.856 43989192 43986604 43997932 44018760 44042728 44062920 44076380 
2682.232 44082736 44085028 44086116 44087300 44088384 44086424 44078452 
2685.607 44061876 44037072 44005136 43967548 43925972 43880776 43831764 
2688.982 43780708 43731572 43690648 43665724 43663092 43685264 43729940 
2692.357 43789536 43854620 43916116 43968648 44011272 44046588 44079696 
2695.733 44114192 44150564 44187780 44221844 44250172 44270336 44283256 
2699.108 44289692 44291280 44288140 44279784 44265104 44244196 44220020 
2702.483 44198348 44186612 44191884 44217536 44263384 44322368 44384260 
2705.858 44437688 44472620 44483520 44471512 44443096 44410656 44387716 
2709.234 44387596 44419456 44485460 44582072 44699164 44822272 44935628 
2712.609 45025600 45080768 45095416 45068768 45004628 44911236 44799676 
2715.984 44683884 44578904 44498008 44452248 44445632 44475872 44533808 
2719.359 44605320 44675656 44732624 44770604 44790056 44797712 44802744 
2722.735 44814148 44835944 44869012 44909388 44952596 44994408 45032472 
2726.110 45067280 45099836 45130344 45158780 45182160 45197948 45203868 
2729.485 45200484 45189676 45176136 45165224 45160504 45164900 45178332 
2732.860 45198524 45221560 45243744 45261880 45274384 45282360 45287248 
2736.236 45291644 45296136 45299788 45298060 45284740 45253408 45201228 
2739.611 45130280 45048924 44971320 44912556 44884988 44894112 44935592 
2742.986 44997564 45063252 45116208 45144728 45145856 45125064 45093500 
2746.361 45064656 45050172 45057036 45087636 45138576 45204940 45279100 
2749.737 45355268 45428048 45494908 45554204 45607468 45656092 45701892 
2753.112 45746484 45789284 45827732 45859468 45882760 45897248 45906980 
2756.487 45917476 45935480 45967052 46013268 46072312 46137928 46203860 
2759.862 46264864 46318952 46368024 46416060 46467636 46525216 46588248 
2763.238 46653672 46715976 46770504 46812276 46838632 46847952 46840396 
2766.613 46817588 46783800 46745620 46711912 46692960 46697956 46733264 
2769.988 46799796 46893456 47006904 47130056 47254296 47373904 47485832 
2773.363 47590536 47689744 47785056 47877056 47965464 48049396 48127820 
2776.739 48200616 48267784 48331252 48392808 48455352 48522040 48595176 
2780.114 48675052 48759744 48842168 48914648 48967568 48995932 48999232 
2783.489 48985340 48967420 48960424 48976204 49018612 49081024 49149708 
2786.864 49207056 49239424 49241784 49221148 49193872 49180232 49198840 
2790.240 49260104 49362700 49496556 49646168 49795648 49933152 50054020 
2793.615 50159516 50252788 50337692 50415016 50483480 50540564 50584444 
2796.990 50617896 50647880 50684832 50740736 50826836 50949232 51108540 
2800.365 51299164 51510320 51727872 51936132 52121236 52272888 52386104 
2803.740 52461936 52508208 52536836 52562552 52599056 52657220 52742200 
2807.116 52853520 52985592 53131320 53284504 53439876 53596688 53756980 
2810.491 53923564 54099376 54285776 54482304 54687896 54901276 55121992 
2813.866 55350024 55584116 55823220 56064104 56303256 56538020 56768320 
2817.241 56997472 57231908 57478112 57742068 58025552 58327124 58644144 
2820.617 58975968 59327220 59707528 60131296 60612416 61157992 61766352 
2823.992 62425608 63116668 63822232 64530700 65243364 65974148 66745660 
2827.367 67580352 68494520 69492776 70566000 71696944 72865616 74056576 
2830.742 75264320 76493912 77759576 79079008 80468096 81937456 83489392 
2834.118 85118752 86815800 88566968 90360936 92188544 94047128 95938896 
2837.493 97872216 99860360 101918528 104062112 106303640 108652176 111110928 
2840.868 113679704 116356720 119139848 122031120 125035856 128165584 
2843.761 131436752 134868736 138480736 142284096 146276544 150431008 
2846.654 154688496 158953136 163093488 166952528 170361184 173163200 
2849.547 175234224 176500000 176946896 176619984 175611232 174043728 
2852.440 172051088 169759712 167277712 164689568 162056208 159420160 
2855.333 156810864 154249856 151755296 149343056 147027456 144820528 
2858.227 142729856 140758976 138905696 137162512 135517536 133954760 
2861.120 132459400 131017744 129620448 128266456 126959664 125710504 
2864.013 124532408 123440128 122446080 121558280 120779712 120108296 
2866.906 119536456 119053440 118645520 118297864 117996816 117729072 
2869.799 117482592 117248440 117018728 116788376 116555352 116320200 
2872.692 116088712 115870824 115681120 115537064 115454872 115448448 
2875.585 115524544 115683560 115919208 116221264 116580320 116990152 
2878.478 117448736 117958160 118521000 119137056 119802104 120507104 
2881.371 121241352 121996744 122771272 123569776 124403952 125288160 
2884.264 126235576 127254144 128345128 129504368 130725216 131999864 
2887.157 133323016 134689408 136095184 137533856 138996720 140474448 
2890.050 141959104 143446768 144937424 146434464 147941664 149460032 
2892.943 150983440 152503120 154007136 155485856 156938160 158370784 
2895.836 159800128 161246448 162729680 164265536 165862160 167521728 
2898.729 169240976 171016512 172846576 174732416 176678448 178690912 
2901.623 180776336 182940224 185185712 187514288 189924560 192413200 
2904.516 194975632 197608128 200308560 203079136 205929632 208875456 
2907.409 211939184 215146256 218522848 222092352 225873152 229877376 
2910.302 234109824 238569264 243245328 248119712 253161968 258329504 
2913.195 263565328 268800640 273956160 278948544 283695136 288120608 
2916.088 292161152 295767200 298905120 301555104 303707936 305363520 
2918.981 306527840 307213472 307437152 307224288 306608160 305629984 
2921.874 304335840 302773152 300985856 299008928 296868096 294580960 
2924.767 292160992 289622432 286984256 284272256 281517600 278753376 
2927.660 276009248 273306816 270658304 268063904 265514288 262991936 
2930.553 260475936 257943776 255378512 252770928 250123856 247451136 
2933.446 244777024 242127664 239525232 236979024 234482912 232016416 
2936.339 229553200 227066896 224543136 221981712 219397456 216811888 
2939.232 214245984 211714912 209221968 206763472 204331280 201920176 
2942.125 199530160 197166304 194836400 192544864 190292912 188076368 
2945.019 185888400 183723184 181578768 179456896 177363344 175304912 
2947.912 173287200 171315632 169394704 167528576 165722672 163980112 
2950.805 162299328 160673904 159090720 157532896 155984384 154434048 
2953.698 152878976 151323584 149777632 148252352 146756288 145294752 
2956.591 143869216 142479968 141127696 139813136 138536336 137294800 
2959.484 136083072 134893152 133716064 132547976 131389496 130248336 
2962.377 129135728 128062920 127037792 126063120 125134352 124243376 
2965.270 123378616 122528984 121682472 120829008 119959224 119068656 
2968.163 118157944 117234680 116312000 115406384 114530504 113689432 
2971.056 112876808 112075104 111262144 110416744 109527888 108596920 
2973.949 107637568 106671224 105718488 104794592 103902152 103034224 
2976.842 102174704 101305800 100410128 99478032 98506704 97503152 96482296 
2980.218 95465120 94476048 93538520 92668752 91874496 91151008 90484064 
2983.593 89854144 89241912 88634960 88029832 87430696 86846784 86286008 
2986.968 85750880 85238224 84739360 84244744 83747848 83247592 82748984 
2990.343 82260952 81794800 81362744 80976696 80649840 80394240 80222352 
2993.719 80145616 80170656 80298592 80526456 80846400 81249896 81727296 
2997.094 82271032 82873160 83522744 84207736 84911320 85615592 86302816 
3000.469 86956808 87563912 88110704 88582736 88962208 89229480 89365080 
3003.844 89354384 89190496 88878568 88434352 87882576 87252056 86574056 
3007.219 85877816 85189904 84532464 83922328 83371056 82883496 82458952 
3010.595 82094752 81787128 81537664 81354576 81250224 81239760 81336152 
3013.970 81546504 81874232 82319752 82886688 83587264 84441256 85475528 
3017.345 86713616 88169656 89842808 91716472 93763464 95954392 98264480 
3020.720 100678120 103184280 105771840 108416472 111078120 113696816 
3023.614 116199872 118510744 120560368 122294744 123678128 124690784 
3026.507 125323592 125574384 125445176 124941144 124075640 122870728 
3029.400 121359784 119586120 117597840 115445752 113176584 110834528 
3032.293 108457520 106078560 103727096 101427000 99195488 97045008 94979864 
3035.668 93003024 91115320 89319344 87622240 86032424 84557584 83201024 
3039.043 81957104 80811816 79743456 78729760 77751992 76801064 75880280 
3042.418 75004576 74194560 73471544 72849744 72333496 71916880 71585056 
3045.794 71322112 71115608 70962072 70868696 70850512 70925968 71111224 
3049.169 71412560 71827640 72340864 72933112 73582544 74274104 74998736 
3052.544 75757080 76553464 77392608 78275792 79197416 80147480 81112376 
3055.919 82079768 83039960 83988928 84922240 85834728 86714480 87540416 
3059.295 88285088 88916360 89405080 89729408 89876808 89847440 89647864 
3062.670 89289072 88782472 88137424 87362488 86468264 85470424 84392072 
3066.045 83264328 82122920 81004936 79944016 78966536 78087808 77312816 
3069.420 76636168 76043984 75516360 75030432 74563056 74096112 73618344 
3072.796 73128128 72634048 72153248 71708904 71325176 71023736 70821456 
3076.171 70727784 70746072 70873368 71102000 71420672 71816472 72272032 
3079.546 72770136 73291088 73813568 74315048 74770104 75149296 75422728 
3082.921 75557936 75527600 75311440 74902432 74308256 73550752 72662424 
3086.297 71679352 70635280 69556048 68459048 67351768 66238492 65123664 
3089.672 64013192 62920144 61860796 60853188 59915100 59060476 58299324 
3093.047 57634540 57063036 56576692 56163292 55808676 55499040 55225080 
3096.422 54982404 54774108 54608312 54496024 54445936 54462212 54539336 
3099.798 54665900 54821280 54983792 55131172 55246264 55317936 55342704 
3103.173 55324416 55271304 55194272 55103628 55005124 54898456 54776436 
3106.548 54625336 54431984 54185436 53883884 53535900 53160364 52780756 
3109.923 52419556 52091760 51801000 51539020 51290824 51039280 50774204 
3113.299 50493804 50207148 49931932 49685588 49483432 49331996 49226872 
3116.674 49156540 49103524 49049960 48980428 48885048 48761692 48613556 
3120.049 48448888 48279268 48116892 47972604 47855496 47768796 47712300 
3123.424 47680428 47663556 47650012 47630448 47596940 47547756 47487828 
3126.800 47426500 47376192 47348520 47350340 47381252 47432680 47489488 
3130.175 47531816 47542256 47507564 47421632 47287848 47114396 46913936 
3133.550 46700120 46486284 46284220 46103724 45953720 45840000 45766452 
3136.925 45731240 45729132 45751864 45790284 45839376 45899020 45973736 
3140.301 46070016 46193340 46341264 46503668 46663660 46801636 46901824 
3143.676 46957960 46975296 46968476 46955736 46951276 46960848 46978624 
3147.051 46989160 46974888 46922496 46828096 46700212 46557608 46423628 
3150.426 46320160 46261588 46252688 46289252 46359216 46449076 46546208 
3153.802 46641116 46727932 46804512 46869324 46922464 46963940 46994816 
3157.177 47018228 47038408 47060316 47089276 47127004 47171468 47215620 
3160.552 47249804 47262116 47243516 47190216 47105460 46998336 46884040 
3163.927 46777948 46693960 46640548 46619768 46627200 46653508 46687524 
3167.302 46718636 46738552 46744580 46738228 46726000 46716164 46718164 
3170.678 46737872 46776180 46827532 46880544 46920404 46933400 46910840 
3174.053 46854420 46774500 46691060 46627084 46602600 46628724 46703532 
3177.428 46813964 46938816 47055332 47146268 47205520 47239172 47262476 
3180.803 47294068 47350860 47439864 47557152 47688676 47813376 47910044 
3184.179 47962296 47962244 47912144 47822928 47710184 47593484 47490636 
3187.554 47417600 47385976 47401556 47463068 47561452 47679336 47794636 
3190.929 47883392 47925872 47911004 47840612 47727832 47593348 47458612 
3194.304 47341812 47250388 47184020 47136376 47101416 47076644 47066536 
3197.680 47078124 47119208 47191656 47287704 47393648 47490420 47563200 
3201.055 47603724 47615284 47610272 47604924 47615936 47653196 47718480 
3204.430 47805216 47900108 47987120 48050184 48075332 48055400 47988816 
3207.805 47883288 47754404 47623948 47514708 47444604 47421364 47439048 
3211.181 47481508 47525516 47550708 47546504 47515860 47474632 47444188 
3214.556 47443592 47482004 47554708 47643864 47724888 47773840 47774160 
3217.931 47720756 47620768 47489984 47349900 47222472 47125700 47072056 
3221.306 47065748 47102268 47170484 47253640 47335604 47404108 47455288 
3224.682 47492672 47526524 47565472 47612388 47659872 47690336 47682640 
3228.057 47619056 47494260 47319984 47122984 46937468 46795400 46717280 
3231.432 46706544 46750596 46826444 46910396 46985292 47045144 47094492 
3234.807 47144620 47208188 47293164 47399464 47518004 47636132 47737336 
3238.183 47808268 47841256 47837052 47804304 47757448 47714460 47690012 
3241.558 47692884 47723420 47772640 47825428 47865564 47879680 47861660 
3244.933 47811944 47738624 47651376 47560560 47474272 47400096 47343040 
3248.308 47308216 47301664 47326604 47384848 47473504 47587816 47721780 
3251.684 47870720 48033328 48209704 48400648 48600940 48798968 48975200 
3255.059 49107284 49174636 49166064 49084084 48944108 48772948 48600624 
3258.434 48453080 48349084 48295332 48289296 48320016 48372556 48430576 
3261.809 48478440 48502840 48497364 48461236 48403388 48340144 48293012 
3265.185 48283128 48326076 48425812 48573736 48750400 48929816 49085204 
3268.560 49195928 49250052 49246216 49191788 49100660 48991124 48881328 
3271.935 48787900 48723504 48695888 48704416 48744028 48804088 48872920 
3275.310 48942220 49008632 49074828 49146440 49229884 49327508 49434512 
3278.686 49540416 49632292 49697316 49730728 49734896 49721712 49708524 
3282.061 49712568 49749596 49827196 49947172 50104720 50291192 50496220 
3285.436 50710028 50924368 51131012 51324436 51499060 51650500 51775336 
3288.811 51871280 51939580 51985056 52016980 52049372 52099064 52182256 
3292.187 52310504 52488696 52711008 52963296 53222848 53466756 53675068 
3295.562 53835524 53945224 54010624 54042684 54053640 54052360 54041876 
3298.937 54018900 53976400 53905272 53798936 53655328 53478548 53278120 
3302.312 53066412 52855708 52654160 52464964 52284932 52107020 51925572 
3305.688 51737612 51548032 51367400 51210456 51089948 51010624 50967628 
3309.063 50946776 50927156 50890492 50824844 50730532 50617340 50502184 
3312.438 50401896 50327728 50280708 50255176 50239632 50223280 50198740 
3315.813 50165200 50126540 50090016 50062932 50049500 50050852 50063364 
3319.188 50078948 50086448 50070608 50017048 49911536 49748588 49532076 
3322.564 49278280 49013408 48771056 48582444 48472048 48449576 48511744 
3325.939 48641516 48814428 49004396 49187364 49344960 49464392 49539016 
3329.314 49566276 49547888 49490544 49403272 49298288 49187096 49078972 
3332.689 48980644 48895320 48825856 48777044 48755988 48772752 48835236 
3336.065 48946680 49098856 49274548 49447448 49589052 49676688 49697252 
3339.440 49652332 49555072 49427328 49292804 49171988 49079324 49023756 
3342.815 49005968 49022656 49067084 49128828 49197128 49260280 49310384 
3346.190 49341804 49354540 49351784 49338812 49317800 49290016 49254180 
3349.566 49208928 49158376 49112972 49089728 49107816 49182200 49316684 
3352.941 49498808 49702844 49893620 50036852 50109160 50104972 50035880 
3356.316 49928448 49814776 49722608 49668976 49657000 49677244 49714204 
3359.691 49750944 49776512 49787228 49788032 49787568 49794244 49813952 
3363.067 49846808 49888200 49931332 49970328 50004832 50040608 50086556 
3366.442 50152136 50242328 50352064 50465760 50560432 50611924 50601952 
3369.817 50526324 50395896 50235736 50075324 49943312 49857048 49819780 
3373.192 49821240 49845124 49873420 49894196 49903752 49905908 49909448 
3376.568 49923980 49957160 50013960 50096720 50205104 50334024 50474360 
3379.943 50609172 50717836 50778408 50775672 50706480 50584372 50436612 
3383.318 50296360 50193544 50141996 50136720 50153728 50160172 50126688 
3386.693 50038396 49901672 49740424 49589252 49479840 49432304 49449676 
3390.069 49519660 49621516 49734428 49843904 49944456 50036204 50123220 
3393.444 50208392 50291152 50370444 50444636 50515372 50586576 50662008 
3396.819 50740480 50816416 50879212 50915916 50919636 50892828 50849560 
3400.194 50812816 50806732 50848684 50941872 51074516 51222736 51358632 
3403.570 51459664 51515888 51529956 51515528 51489760 51463160 51439372 
3406.945 51411232 51368024 51300008 51205672 51092268 50975672 50872500 
3410.320 50796212 50750876 50731976 50729084 50729344 50722712 50703548 
3413.695 50669284 50617796 50546744 50452040 50332600 50193584 50050332 
3417.071 49927772 49855076 49858828 49952900 50132396 50373968 50642144 
3420.446 50898236 51113968 51276520 51390660 51472792 51542500 51611992 
3423.821 51681984 51742472 51777724 51772792 51723428 51635872 51526416 
3427.196 51414956 51318388 51246244 51198084 51166124 51140624 51113004 
3430.572 51081488 51049264 51023608 51013124 51023708 51056056 51105264 
3433.947 51162472 51217232 51260348 51287568 51301492 51311864 51330848 
3437.322 51373296 51448640 51557032 51688328 51823328 51937148 52006616 
3440.697 52016976 51965244 51861192 51723836 51575580 51436860 51320792 
3444.073 51232792 51170884 51131156 51109724 51104948 51116232 51142888 
3447.448 51180292 51219840 51250412 51261004 51243696 51198460 51132988 
3450.823 51061820 51002820 50972320 50982164 51037448 51136560 51271688 
3454.198 51431264 51601088 51766944 51914848 52032212 52109780 52143972 
3457.573 52138548 52104788 52060560 52025816 52018832 52047680 52110724 
3460.949 52193364 52273424 52326908 52336088 52294196 52209168 52098696 
3464.324 51987608 51897636 51844608 51833640 51859872 51911788 51974888 
3467.699 52034564 52080224 52103756 52101012 52071360 52017900 51949672 
3471.074 51878444 51817800 51779396 51768484 51780560 51802156 51816852 
3474.450 51810224 51775236 51718432 51655292 51608228 51596316 51628980 
3477.825 51703276 51804536 51912032 52005012 52070568 52103564 52107320 
3481.200 52089224 52058356 52021740 51984640 51950628 51923896 51909824 
3484.575 51913780 51940320 51991728 52069204 52170264 52291200 52425812 
3487.951 52565500 52696500 52803488 52870280 52886680 52851240 52776028 
3491.326 52684160 52604588 52563816 52576948 52643640 52749060 52870576 
3494.701 52985648 53080144 53150676 53202988 53245360 53283424 53315496 
3498.076 53334972 53336316 53320252 53298420 53290156 53317436 53396256 
3501.452 53527620 53696400 53874628 54029944 54134800 54174008 54149100 
3504.827 54074252 53972548 53868536 53783400 53731816 53721868 53754180 
3508.202 53824660 53923348 54035192 54142252 54225732 54268852 54260524 
3511.577 54197928 54086968 53942484 53784332 53636292 53518964 53449608 
3514.953 53436320 53478512 53564388 53676352 53793540 53898700 53981788 
3518.328 54043044 54092124 54140608 54199256 54271332 54351764 54431868 
3521.703 54502556 54560568 54610728 54663928 54730096 54813100 54906896 
3525.078 54997332 55066848 55104900 55109888 55093320 55072748 55065488 
3528.454 55078468 55106840 55134728 55144088 55122032 55067356 54989984 
3531.829 54906520 54833364 54779828 54745940 54725016 54709548 54695052 
3535.204 54681996 54673680 54671780 54670492 54657184 54614716 54529732 
3538.579 54398564 54230932 54049916 53885628 53767956 53718428 53746880 
3541.955 53849968 54014344 54218540 54438632 54647608 54822848 54944100 
3545.330 55001724 54996184 54939976 54851984 54754948 54664952 54587980 
3548.705 54519264 54447248 54361196 54257216 54143232 54033352 53944536 
3552.080 53886176 53855216 53838276 53816804 53775332 53710328 53630412 
3555.456 53553540 53499204 53477544 53487852 53517792 53550924 53574168 
3558.831 53584716 53588932 53599848 53627268 53675076 53735480 53794684 
3562.206 53838132 53856056 53845868 53812316 53760308 53691892 53603156 
3565.581 53486288 53334900 53149376 52940824 52730896 52543572 52401220 
3568.957 52317800 52295748 52328620 52405564 52513108 52640532 52775332 
3572.332 52905640 53016532 53093756 53127876 53120832 53087180 53053656 
3575.707 53048300 53094196 53195292 53334060 53474972 53576048 53602412 
3579.082 53539304 53397500 53209280 53017956 52863672 52770988 52744080 
3582.458 52769364 52823244 52879976 52923092 52944700 52946172 52933264 
3585.833 52913588 52892064 52873228 52859068 52851416 52849416 52848032 
3589.208 52836188 52801452 52732508 52627240 52495136 52361764 52257656 
3592.583 52213352 52242512 52340256 52480524 52624656 52735320 52790320 
3595.958 52789516 52752964 52712208 52696844 52722396 52787048 52872812 
3599.334 52957604 53024668 53069896 53101560 53136452 53186652 53257616 
3602.709 53339828 53419224 53480236 53515692 53527668 53528648 53531360 
3606.084 53544700 53567072 53589684 53600684 53594488 53574312 53553504 
3609.459 53550636 53581180 53647252 53738608 53832584 53903548 53932800 
3612.835 53915216 53861340 53794548 53743108 53730700 53769100 53858708 
3616.210 53987288 54135748 54284012 54415576 54519624 54592676 54637816 
3619.585 54663352 54679444 54699768 54734384 54792360 54876576 54985164 
3622.960 55110952 55246108 55380432 55507584 55622212 55721444 55800052 
3626.336 55851908 55867424 55837000 55755136 55626432 55467316 55306548 
3629.711 55176768 55110364 55126156 55225052 55389272 55585716 55775624 
3633.086 55926192 56016688 56043576 56019076 55964240 55900032 55842176 
3636.461 55797780 55768228 55752028 55751672 55775428 55835268 55943476 
3639.837 56105824 56319332 56570192 56836152 57093596 57322116 57506784 
3643.212 57642332 57728588 57769160 57770796 57740232 57687116 57623460 
3646.587 57562420 57515524 57492044 57491252 57507620 57527252 57537248 
3649.962 57527032 57493752 57442016 57381740 57324464 57282600 57262940 
3653.338 57271748 57308672 57371976 57454496 57542568 57617228 57658484 
3656.713 57647256 57576068 57451476 57293052 57129452 56986192 56877572 
3660.088 56800228 56732808 56646504 56517704 56337332 56119596 55895184 
3663.463 55701152 55568060 55504848 55499324 55521216 55536944 55520480 
3666.839 55465384 55382720 55297404 55234084 55207616 55217896 55252208 
3670.214 55291200 55319108 55329520 55327600 55321384 55319332 55318904 
3673.589 55308644 55268528 55180116 55033976 54837016 54613676 54400908 
3676.964 54237760 54157280 54176476 54292756 54485012 54719452 54954128 
3680.340 55151644 55284596 55339576 55319920 55240400 55120708 54981788 
3683.715 54834516 54683292 54524464 54352480 54165180 53971296 53788356 
3687.090 53641144 53554172 53541588 53602048 53717112 53854456 53980100 
3690.465 54065556 54098052 54081204 54033736 53981836 53948644 53949488 
3693.841 53986276 54049904 54124452 54193180 54243940 54271800 54276720 
3697.216 54262644 54233224 54189724 54131904 54057200 53966768 53865152 
3700.591 53762884 53673660 53612684 53590380 53610416 53665724 53740716 
3703.966 53813440 53863464 53875940 53847528 53787632 53716164 53658008 
3707.342 53634260 53655332 53717440 53803196 53886176 53941224 53953316 
3710.717 53921560 53863084 53803200 53770900 53785768 53854324 53968688 
3714.092 54111084 54260144 54399452 54519448 54619752 54700200 54764120 
3717.467 54808428 54828024 54815640 54769080 54690396 54587844 54472652 
3720.843 54356424 54246668 54148628 54065992 54004508 53974772 53989540 
3724.218 54059820 54190332 54373352 54588612 54805484 54992800 55123588 
3727.593 55183484 55172484 55101908 54991308 54861648 54732852 54624236 
3730.968 54550488 54524936 54553596 54634316 54750612 54876544 54977944 
3734.344 55025624 54999828 54901828 54752972 54588480 54446236 54355560 
3737.719 54327872 54354732 54416184 54489692 54558344 54618176 54673924 
3741.094 54735200 54805208 54878692 54939380 54967876 54948276 54881192 
3744.469 54783808 54691284 54642376 54672768 54800344 55021568 55313524 
3747.844 55638884 55953836 56219048 56405284 56499480 56503148 56429356 
3751.220 56299204 56136092 55961240 55791772 55637328 55503056 55389612 
3754.595 55296608 55224304 55177460 55165236 55200384 55294772 55454604 
3757.970 55675952 55939256 56211440 56451748 56619544 56685364 56639224 
3761.345 56495804 56290564 56071872 55887736 55774268 55748644 55805212 
3764.721 55921544 56067484 56215144 56345296 56449256 56526248 56575476 
3768.096 56593316 56568500 56486552 56335808 56115112 55837120 55530804 
3771.471 55233388 54986480 54822260 54761536 54808732 54953432 55175652 
3774.846 55449700 55749220 56050156 56331416 56578596 56781820 56937564 
3778.222 57049552 57125924 57177940 57215052 57242204 57258060 57255504 
3781.597 57224144 57154496 57044620 56898900 56730844 56559900 56405672 
3784.972 56284516 56206284 56172820 56178548 56213740 56267904 56330128 
3788.347 56390428 56439044 56467268 56466144 56431480 56362880 56269316 
3791.723 56166892 56077836 56026204 56029940 56097148 56222372 56385764 
3795.098 56560780 56718676 56836276 56900520 56910744 56876948 56815004 
3798.473 56742636 56675584 56626496 56602936 56609592 56645972 56707116 
3801.848 56784312 56863884 56933820 56983048 57008524 57012748 57004584 
3805.224 56994184 56990188 56995448 57009320 57026992 57046488 57070696 
3808.599 57107824 57167312 57254908 57367348 57489892 57599924 57674544 
3811.974 57697148 57665592 57592572 57500968 57416528 57360208 57339976 
3815.349 57352192 57384316 57421276 57450660 57466952 57468308 57457244 
3818.725 57435548 57404816 57365552 57322216 57281368 57252684 57243928 
3822.100 57260844 57298348 57347404 57393840 57427044 57441112 57439168 
3825.475 57431980 57432128 57448156 57483620 57533656 57589752 57642960 
3828.850 57688432 57726308 57760768 57796032 57833260 57867216 57888836 
3832.226 57886384 57850812 57779852 57680340 57566356 57460096 57382096 
3835.601 57348536 57367844 57436240 57538196 57649668 57743268 57793964 
3838.976 57785168 57714196 57591192 57437880 57283220 57158176 57088948 
3842.351 57093216 57177724 57335644 57550184 57795244 58041716 58261516 
3845.727 58432692 58543748 58595440 58599084 58570656 58527420 58480744 
3849.102 58433664 58381280 58315812 58231044 58127096 58010852 57895636 
3852.477 57794276 57716940 57665484 57637020 57626384 57629768 57649396 
3855.852 57692568 57767236 57878156 58023772 58194844 58375768 58550140 
3859.228 58702972 58824340 58907720 58949660 58947884 58902100 58816684 
3862.603 58701036 58572904 58452444 58360712 58311652 58307528 58341716 
3865.978 58397804 58459460 58514116 58555244 58581652 58594524 58591608 
3869.353 58569176 58522444 58452460 58367856 58288152 58236180 58231752 
3872.729 58282436 58380696 58504236 58624748 58717920 58772288 58791304 
3876.104 58791304 58791836 58807928 58845040 58898924 58961080 59023108 
3879.479 59083688 59145888 59213156 59286180 59355484 59408016 59427656 
3882.854 59407052 59350596 59277324 59213768 59186064 59211408 59289296 
3886.229 59403604 59528228 59636744 59710728 59743492 59741952 59720796 
3889.605 59695756 59677524 59669024 59663600 59650024 59614540 59547116 
3892.980 59444128 59310008 59157552 59005612 58875016 58785156 58747528 
3896.355 58766028 58831320 58927236 59030404 59117816 59169540 59175784 
3899.730 59135336 59057412 58959132 58861368 58785124 58746484 58753476 
3903.106 58802908 58880868 58966348 59037392 59076568 59078636 59052432 
3906.481 59017372 58998788 59017196 59079984 59180456 59297588 59405500 
3909.856 59480844 59511256 59500212 59459772 59408180 59359396 59318380 
3913.231 59280452 59237400 59181456 59115420 59049640 59003192 58993796 
3916.607 59030752 59111784 59219580 59329436 59415244 59457380 59448420 
3919.982 59393460 59306624 59207924 59119020 59057284 59037232 59066824 
3923.357 59148504 59276372 59437004 59608984 59765544 59881056 59938120 
3926.732 59932284 59876168 59795916 59726024 59696280 59726532 59815836 
3930.108 59947388 60091244 60215984 60297592 60328064 60315072 60279816 
3933.483 60248188 60241808 60272280 60339896 60434960 60544360 60656236 
3936.858 60763672 60864104 60958092 61042900 61111640 61152800 61152568 
3940.233 61099856 60991780 60834976 60646760 60448772 60264028 60110232 
3943.609 59996468 59923964 59889064 59885968 59912096 59967208 60053220 
3946.984 60170932 60316732 60479908 60645580 60795724 60914992 60993764 
3950.359 61030088 61028856 60999820 60953264 60898024 60840184 60784496 
3953.734 60736008 60699704 60682536 60689664 60723268 60779968 60852424 
3957.110 60931012 61006916 61076984 61141100 61204812 61271260 61341548 
3960.485 61408568 61461752 61489088 61483916 61447188 61390300 61330416 
3963.860 61286704 61271424 61288552 61331120 61386368 61439864 61478380 
3967.235 61494712 61486652 61453388 61396952 61319236 61225980 61127792 
3970.611 61040220 60983024 60973520 61022240 61127684 61275984 61444668 
3973.986 61607940 61743432 61836500 61879760 61870072 61807112 61688700 
3977.361 61514556 61289312 61027592 60753552 60500108 60298388 60172692 
3980.736 60130416 60163372 60248244 60357320 60465056 60555068 60620344 
3984.112 60661588 60682880 60687620 60677460 60655392 60625936 60599072 
3987.487 60585732 60595932 60634056 60697364 60776984 60863184 60947908 
3990.862 61030604 61116460 61211948 61319504 61434904 61545688 61635100 
3994.237 61688764 61700320 61674708 61625232 61571752 61531444 61515260 
3997.613 61525700 61558648 61605464 61656548 61705176 61745844 61777184 
##END=
