##TITLE=eSUN_PETG_Black_Filament_r4_ATR-Corrected
##JCAMP-DX=5.01  $$ Nicolet v. 1
##DATATYPE=INFRARED SPECTRUM
##ORIGIN=Curtin University
##OWNER=Nicolet
##LONGDATE=2024/07/10
##TIME=15:22:36
##SPECTROMETER/DATA SYSTEM=Nicolet iS50
##DATA PROCESSING=
Ratio against background
%Transmittance->Absorbance
ATR Correction
Truncated
ElementMultiply or ElementDivide
##COMMENTS=
Number of sample scans: 32
Collection length: 47.29 sec
Sample gain: 1.0
Background collected on: Wed Jul 10 15:20:18 2024 (GMT+08:00);
Number of background scans: 32
Background gain: 1.0
Sample spacing:  1.000
Number of scan points: 16672
Resolution points: 8192
Number of FFT points: 65536
Apodization: N-B strong;
Phase correction: Mertz;
Laser frequency: 15798.3 cm-1
Number of rejected sample scans: 0
Number of rejected background scans: 0
Bench serial number: AUP1200105;
##RESOLUTION=4.000
##XUNITS=1/CM
##YUNITS=ABSORBANCE
##FIRSTX=400.163452
##LASTX=4000.187744
##FIRSTY=0.040495
##MAXX=4000.187744
##MINX=400.163452
##MAXY=1.451079
##MINY=-0.015143
##XFACTOR=1.000000
##YFACTOR=1.000000E-008
##NPOINTS=7468
##DELTAX=0.482125
##ZPD=8192
##XYDATA=(X++(Y..Y))
400.163 4049513 4150492 4230559 4282014 4302462 4293762 4261368 4212952 
404.020 4156927 4101302 4052944 4017074 3996970 3993743 4006295 4031530 
407.877 4065098 4102345 4138928 4171399 4196872 4212746 4216156 4204169 
411.734 4174469 4126680 4063341 3990272 3915834 3849047 3797464 3765246 
415.591 3752514 3756126 3771332 3793819 3820968 3852035 3887236 3926336 
419.448 3967708 4008363 4044869 4074810 4097809 4115571 4130913 4146289 
423.305 4162433 4178265 4191432 4200001 4203702 4204603 4206278 4212234 
427.162 4224056 4240437 4257410 4269882 4273581 4266700 4250421 4228185 
431.019 4204162 4181767 4162586 4146617 4133218 4121938 4113163 4107895 
434.876 4106795 4109263 4112854 4113752 4107903 4092676 4068026 4036802 
438.733 4004075 3975730 3956771 3950096 3955968 3972352 3995733 4022120 
442.590 4047784 4069849 4086317 4096140 4099156 4096043 4088149 4077202 
446.447 4064947 4052763 4041403 4031073 4021607 4012903 4005196 3999029 
450.304 3995070 3993704 3994635 3996853 3998823 3999080 3996776 3992081 
454.161 3986151 3980762 3977617 3977701 3980802 3985565 3989845 3991396 
458.017 3988624 3981229 3970330 3958291 3948092 3942527 3943435 3951149 
461.874 3964486 3981155 3998467 4014212 4027313 4037921 4047084 4056108 
465.731 4065800 4076040 4085835 4093766 4098764 4100726 4100716 4100655 
469.588 4102710 4108550 4118801 4133184 4150832 4170991 4193389 4218318 
473.445 4246185 4276971 4309701 4342480 4372965 4399219 4420497 4437607 
477.302 4452580 4467889 4485380 4505572 4527586 4549725 4570517 4589671 
481.159 4608547 4629905 4656950 4692163 4736285 4787989 4844201 4901094 
485.016 4955196 5004334 5048030 5087353 5124397 5161616 5201274 5245173 
488.873 5294542 5350197 5412523 5481593 5557134 5638574 5725218 5816361 
492.730 5911580 6010730 6113794 6220635 6330634 6442436 6553951 6662593 
496.587 6765569 6860240 6944258 7015490 7071801 7110902 7130380 7127972 
500.444 7102213 7052971 6981815 6891905 6787437 6672750 6551453 6425880 
504.301 6297070 6165287 6030772 5894466 5758306 5625048 5497664 5378581 
508.158 5269067 5169097 5077579 4993013 4914079 4840141 4771359 4708395 
512.015 4651976 4602441 4559428 4521920 4488445 4457455 4427714 4398536 
515.871 4369863 4342210 4316415 4293377 4273721 4257587 4244427 4233099 
519.728 4222049 4209799 4195387 4178729 4160781 4143251 4128116 4116874 
523.585 4109943 4106396 4104006 4099931 4091302 4076169 4053906 4025329 
527.442 3992381 3957549 3923181 3891023 3861901 3835765 3811888 3789217 
531.299 3766801 3744127 3721344 3699305 3679338 3662867 3650882 3643497 
535.156 3639704 3637548 3634602 3628709 3618663 3604631 3588088 3571299 
539.013 3556512 3545244 3537829 3533430 3530529 3527589 3523609 3518394 
542.870 3512405 3506315 3500554 3494952 3488732 3480801 3470116 3456059 
546.727 3438475 3417736 3394373 3368974 3342071 3314258 3286316 3259285 
550.584 3234335 3212510 3194264 3179235 3166096 3152816 3137207 3117491 
554.441 3092870 3063792 3031852 2999484 2969237 2943265 2922773 2907732 
558.298 2896887 2888052 2878599 2866101 2848854 2826367 2799429 2769988 
562.155 2740671 2714194 2692723 2677393 2668091 2663627 2662011 2661048 
566.012 2658791 2654000 2646277 2636081 2624498 2612866 2602462 2594132 
569.869 2588162 2584253 2581689 2579635 2577364 2574592 2571478 2568569 
573.725 2566601 2566242 2567823 2571275 2576055 2581300 2585969 2589017 
577.582 2589597 2587219 2581854 2574047 2564851 2555665 2547980 2542973 
581.439 2541174 2542406 2545838 2550404 2555256 2560195 2565793 2573207 
585.296 2583758 2598383 2617349 2640186 2665981 2693887 2723540 2755221 
589.153 2789646 2827677 2869845 2916186 2966370 3020055 3077243 3138416 
593.010 3204381 3275727 3352157 3432127 3512734 3590197 3660507 3720182 
596.867 3766706 3798647 3815367 3816653 3802468 3772919 3728531 3670518 
600.724 3600943 3522665 3438894 3352752 3266892 3183326 3103551 3028771 
604.581 2960148 2898809 2845800 2801822 2767102 2741368 2723993 2714143 
608.438 2710910 2713261 2719921 2729273 2739431 2748569 2755388 2759558 
612.295 2761910 2764191 2768405 2776092 2787684 2802312 2818192 2833271 
616.152 2846046 2856075 2864082 2871515 2880010 2890711 2903988 2919410 
620.009 2936076 2953065 2969754 2986008 3002137 3018748 3036579 3056282 
623.866 3078372 3103176 3130896 3161838 3196796 3237550 3287167 3350041 
627.723 3431197 3534967 3663160 3813275 3977316 4141941 4290122 4404198 
631.579 4469695 4478647 4431486 4336783 4208981 4065036 3920978 3789416 
635.436 3678353 3591327 3528303 3486955 3463761 3454820 3456324 3464799 
639.293 3477354 3491863 3507028 3522384 3538034 3554269 3571189 3588505 
643.150 3605574 3621711 3636492 3650017 3662855 3675769 3689320 3703489 
647.007 3717625 3730638 3741460 3749495 3754890 3758516 3761639 3765444 
650.864 3770613 3777152 3784487 3791850 3798674 3804952 3811370 3819043 
654.721 3829252 3842958 3860470 3881340 3904484 3928447 3951835 3973638 
658.578 3993443 4011474 4028428 4045286 4063042 4082519 4104282 4128603 
662.435 4155456 4184572 4215428 4247297 4279325 4310719 4340935 4369868 
666.292 4397957 4426135 4455602 4487505 4522673 4561407 4603611 4649025 
670.149 4697508 4749392 4805442 4866741 4934336 5008889 5090513 5178756 
674.006 5272797 5371762 5474898 5581528 5690950 5802080 5913229 6022081 
677.863 6125848 6221708 6307149 6380363 6440349 6486956 6520716 6542748 
681.720 6554698 6558677 6557264 6553326 6549757 6549162 6553546 6564071 
685.577 6581155 6604726 6634484 6670229 6712020 6760120 6814879 6876544 
689.433 6945177 7020727 7103127 7192486 7289177 7393820 7507094 7629651 
693.290 7761904 7904106 8056451 8219310 8393423 8580081 8781090 8998648 
697.147 9235099 9492610 9772799 10076364 10402699 10749726 11113777 11489835 
701.004 11871969 12254099 12630735 12997736 13352706 13695019 14025472 
704.379 14345625 14657161 14961408 15259166 15550962 15837368 16119476 
707.754 16399106 16678806 16961684 17251308 17551718 17867728 18205642 
711.129 18573772 18982934 19446432 19979612 20598946 21321006 22161508 
714.504 23134620 24252684 25526220 26964048 28573332 30359238 32324242 
717.878 34467096 36781776 39256392 41872688 44605392 47421692 50279744 
721.253 53126096 55892104 58489956 60811432 62731820 64122408 64871852 
724.628 64910972 64232064 62892980 61004220 58704888 56137628 53429852 
728.003 50683980 47974976 45352648 42846100 40468620 38222172 36101112 
731.378 34094904 32190404 30373454 28630236 26948372 25317750 23731034 
734.752 22183942 20675110 19205776 17779380 16401066 15077130 13814586 
738.127 12620585 11501875 10464220 9511930 8647417 7870964 7180657 6572602 
741.984 6041226 5579774 5180895 4837169 4541537 4287564 4069547 3882420 
745.841 3721702 3583324 3463680 3359582 3268392 3188071 3117172 3054779 
749.698 3000350 2953576 2914169 2881765 2855844 2835713 2820514 2809299 
753.555 2801149 2795289 2791225 2788855 2788382 2790323 2795202 2803404 
757.412 2814948 2829531 2846530 2865264 2885168 2905929 2927482 2949872 
761.269 2973180 2997323 3022173 3047689 3074097 3102049 3132606 3167067 
765.126 3206638 3252100 3303660 3360908 3423038 3489054 3558067 3629313 
768.983 3702138 3775790 3849328 3921546 3991154 4056980 4118236 4174655 
772.840 4226463 4274133 4318207 4359093 4397032 4432227 4465029 4496088 
776.697 4526397 4557145 4589565 4624677 4663293 4706018 4753557 4806791 
780.554 4866954 4935490 5013776 5102794 5202906 5313753 5434493 5564118 
784.410 5701912 5847710 6002051 6166018 6340994 6528318 6728998 6943510 
788.267 7171667 7412467 7663802 7922115 8181955 8435611 8672997 8881948 
792.124 9049063 9160976 9206054 9176144 9068088 8884826 8635544 8335133 
795.981 8002687 7659505 7326715 7022968 6762650 6554637 6401921 6302120 
799.838 6248617 6232181 6242721 6270774 6308614 6350650 6393395 6434952 
803.695 6474442 6511439 6545610 6576591 6604013 6627633 6647474 6663895 
807.552 6677664 6689855 6701629 6714006 6727622 6742443 6757734 6772155 
811.409 6784124 6792267 6795887 6795257 6791651 6787090 6783887 6784090 
815.266 6789109 6799513 6815119 6835198 6858748 6884788 6912415 6940827 
819.123 6969301 6997148 7023800 7048888 7072351 7094469 7115900 7137471 
822.980 7160160 7184919 7212587 7243809 7278984 7318193 7361132 7407182 
826.837 7455541 7505457 7556557 7609023 7663672 7721754 7784579 7853066 
830.694 7927398 8006931 8090409 8176334 8263469 8351126 8439233 8528116 
834.551 8618139 8709356 8801278 8892974 8983321 9071337 9156492 9238742 
838.408 9318499 9396327 9472657 9547597 9620795 9691547 9758895 9821899 
842.264 9879822 9932245 9979215 10021178 10058898 10093277 10125159 10155107 
846.121 10183378 10209902 10234469 10256911 10277247 10295738 10312760 
849.496 10328566 10343153 10356136 10366923 10375050 10380529 10384224 
852.871 10387791 10393558 10403969 10421066 10446064 10479151 10519650 
856.246 10566373 10618142 10674237 10734696 10800423 10873149 10955223 
859.621 11049403 11158682 11286040 11434374 11606314 11804231 12030176 
862.995 12285953 12573186 12893377 13247989 13638517 14066432 14533232 
866.370 15040170 15587917 16175967 16801808 17459878 18140734 18830476 
869.745 19510802 20159866 20753838 21269094 21684434 21983082 22154104 
873.120 22192916 22101046 21885352 21556756 21129054 20617766 20039130 
876.495 19409344 18744004 18057630 17363354 16672845 15996195 15341909 
879.870 14716917 14126407 13573863 13061059 12588365 12155168 11760440 
883.244 11403188 11082729 10798541 10549942 10335659 10153430 10000058 
886.619 9871753 9764664 9675453 9601722 9541877 9494910 9459864 9435440 
890.476 9419855 9411023 9406974 9406251 9408215 9413040 9421395 9433990 
894.333 9451111 9472301 9496347 9521338 9545009 9565069 9579437 9586403 
898.190 9584717 9573423 9551783 9519099 9474600 9417459 9346896 9262405 
902.047 9164099 9052832 8930404 8799350 8662666 8523431 8384423 8247901 
905.904 8115683 7989260 7870023 7759338 7658511 7568553 7489908 7422282 
909.761 7364695 7315719 7273792 7237603 7206252 7179311 7156646 7138328 
913.618 7124527 7115509 7111665 7113559 7121810 7136874 7158829 7187145 
917.475 7220743 7258191 7298071 7339336 7381490 7424575 7468869 7514524 
921.332 7561353 7608727 7655813 7701843 7746499 7790048 7833309 7877324 
925.189 7923051 7970974 8020966 8072394 8124298 8175687 8225798 8274247 
929.045 8321058 8366567 8411352 8456091 8501481 8548196 8596873 8648136 
932.902 8702675 8761225 8824638 8893775 8969449 9052195 9142225 9239356 
936.759 9343151 9453167 9569244 9691755 9821667 9960436 10109623 10270548 
940.616 10443936 10629768 10827354 11035462 11252628 11477285 11707793 
943.991 11942390 12179097 12415703 12649919 12879628 13103193 13319668 
947.366 13528837 13731107 13927260 14118248 14305010 14488539 14669794 
950.741 14849868 15029836 15210505 15392156 15574138 15754630 15930580 
954.116 16097721 16250834 16384079 16491404 16567102 16606499 16606621 
957.490 16566865 16489512 16379845 16245729 16096818 15943450 15795410 
960.865 15660991 15546337 15455203 15389189 15347996 15329991 15332545 
964.240 15352413 15385944 15429330 15478814 15530801 15581986 15629387 
967.615 15670198 15701751 15721379 15726450 15714489 15683456 15631959 
970.990 15559477 15466480 15354276 15224952 15080979 14925002 14759572 
974.364 14586958 14409135 14227782 14044431 13860685 13678384 13499655 
977.739 13326991 13163003 13010138 12870421 12745109 12634559 12538327 
981.114 12455320 12384120 12323304 12271592 12228024 12191714 12161792 
984.489 12137141 12116396 12097937 12080111 12061467 12041028 12018424 
987.864 11994004 11968570 11943366 11919804 11899319 11883206 11872624 
991.239 11868578 11871929 11883461 11903908 11933928 11974154 12025128 
994.613 12087341 12161126 12246653 12343872 12452474 12571964 12701701 
997.988 12841073 12989663 13147391 13314599 13492075 13681011 13882840 
1001.363 14099154 14331615 14581956 14852041 15144038 15460525 15804650 
1004.738 16180153 16591236 17042496 17538690 18084544 18684736 19344034 
1008.113 20067656 20861878 21734760 22696798 23761126 24943094 26258906 
1011.487 27723060 29344872 31124028 33045808 35076432 37159440 39214320 
1014.862 41138484 42814088 44120044 44948080 45219776 44899984 44002580 
1018.237 42586832 40746272 38593692 36246540 33815296 31395796 29065338 
1021.612 26881882 24885148 23098858 21533590 20189428 19058468 18126926 
1024.987 17376816 16787540 16337278 16004239 15767851 15609790 15514447 
1028.362 15469173 15463948 15490772 15543140 15615435 15702829 15801297 
1031.737 15907854 16020679 16139063 16263157 16393507 16530667 16674891 
1035.113 16826036 16983674 17147202 17315912 17488876 17664792 17841802 
1038.488 18017512 18189134 18353836 18509186 18653318 18785148 18904056 
1041.863 19009638 19101336 19178270 19239282 19283118 19308840 19316136 
1045.238 19305538 19278542 19237446 19185164 19124974 19060164 18993762 
1048.614 18928366 18865984 18808132 18755824 18709932 18671378 18641280 
1051.989 18621070 18612418 18617044 18636526 18672176 18724996 18795768 
1055.364 18885198 18993968 19122884 19272670 19443836 19636456 19850152 
1058.739 20083984 20336832 20607572 20895372 21199894 21521278 21860078 
1062.115 22216958 22592500 22986998 23400422 23832462 24282610 24750402 
1065.490 25235584 25738188 26258714 26798126 27357864 27939842 28546414 
1068.865 29180152 29843876 30540400 31272432 32042416 32852582 33704948 
1072.240 34601516 35544364 36535812 37578376 38674500 39826252 41034740 
1075.615 42299796 43619592 44990728 46408240 47865800 49355920 50869936 
1078.991 52397824 53928284 55448968 56947284 58411308 59831272 61200292 
1082.366 62514872 63774460 64980756 66136716 67245936 68312488 69341120 
1085.741 70337144 71306288 72253904 73184136 74099144 74999072 75882584 
1089.116 76747760 77592608 78415224 79212680 79979808 80707968 81384840 
1092.492 81995264 82523048 82953064 83272760 83472416 83544952 83484848 
1095.867 83287848 82951024 82473624 81857648 81107984 80231736 79236992 
1099.242 78131712 76923360 75619144 74226984 72756128 71217600 69623904 
1102.617 67988624 66325860 64650488 62978488 61327504 59717156 58168764 
1105.993 56704436 55346088 54114212 53027152 52100312 51345616 50770844 
1109.368 50378604 50165068 50119048 50221312 50445044 50757168 51120948 
1112.743 51498788 51855416 52160024 52387648 52519472 52542460 52448748 
1116.118 52235208 51902892 51456632 50904392 50256240 49523384 48717224 
1119.494 47848868 46928960 45967776 44975324 43961088 42933808 41901036 
1122.869 40868936 39842384 38825372 37821604 36834908 35869336 34928940 
1126.244 34017100 33135998 32286168 31466496 30674622 29907540 29162260 
1129.619 28436398 27728244 27036778 26361374 25701650 25057248 24427836 
1132.995 23813198 23213296 22628272 22058312 21503620 20964194 20439980 
1136.370 19930794 19436520 18957198 18493044 18044298 17611190 17193664 
1139.745 16791498 16404262 16031578 15673231 15329300 15000062 14685771 
1143.120 14386545 14102021 13831483 13573918 13328364 13094079 12870722 
1146.496 12658274 12456770 12266046 12085368 11913416 11748348 11588117 
1149.871 11430860 11275093 11120027 10965378 10811266 10657921 10505520 
1153.246 10354073 10203491 10053674 9904690 9756960 9611251 9468719 9330793 
1157.104 9199031 9075005 8960098 8855520 8762133 8680525 8611084 8554046 
1160.961 8509637 8478130 8459879 8455334 8465026 8489667 8530169 8587816 
1164.818 8664314 8761767 8882434 9028298 9200503 9398762 9620910 9862754 
1168.676 10118274 10380003 10639729 10889187 11120579 11327022 11502719 
1172.051 11643103 11744811 11805873 11825728 11805339 11747061 11654475 
1175.426 11531948 11384263 11216183 11032278 10836811 10633831 10427272 
1178.802 10220955 10018623 9823827 9639740 9469149 9314354 9177275 9059453 
1182.659 8962070 8885887 8831175 8797619 8784367 8790130 8813487 8853134 
1186.516 8908093 8977910 9062526 9162159 9277050 9407241 9552430 9711836 
1190.374 9884241 10067938 10260870 10460666 10664903 10871363 11078300 
1193.749 11284801 11490867 11697365 11905819 12118034 12335695 12560140 
1197.124 12792200 13032275 13280465 13536677 13800752 14072436 14351355 
1200.500 14637047 14928995 15226753 15530136 15839228 16154413 16476339 
1203.875 16805706 17143222 17489624 17845540 18211720 18588976 18978096 
1207.250 19379924 19795180 20224500 20668454 21127776 21603344 22096198 
1210.625 22607396 23137880 23688256 24258742 24849396 25460244 26091602 
1214.000 26744168 27418888 28116628 28837678 29581332 30345594 31127130 
1217.376 31921482 32723462 33527554 34328448 35121588 35903716 36673568 
1220.751 37432272 38183720 38934480 39693344 40470540 41276908 42122804 
1224.126 43017504 43968752 44982364 46062324 47210820 48428544 49715112 
1227.501 51069724 52491808 53981636 55540592 57170980 58875380 60655664 
1230.877 62512052 64442564 66442852 68506560 70625720 72791216 74992648 
1234.252 77218016 79453304 81682064 83885632 86043600 88134496 90136336 
1237.627 92027208 93785608 95391032 96825080 98072952 99124744 99976096 
1241.002 100627848 101085064 101355336 101447728 101372528 101141480 
1243.896 100768288 100268888 99660784 98962008 98189952 97360584 96488400 
1247.271 95586744 94668368 93745576 92830192 91933104 91063920 90230864 
1250.646 89440928 88700208 88014168 87387384 86823008 86322448 85884928 
1254.021 85507528 85185704 84913680 84684744 84490744 84321328 84163056 
1257.396 83999176 83810128 83575456 83276072 82896736 82427576 81864480 
1260.772 81208280 80463248 79635696 78733096 77763480 76735584 75658640 
1264.147 74542216 73395800 72228440 71048528 69864040 68682592 67511648 
1267.522 66358124 65228104 64126080 63054604 62014216 61003732 60020948 
1270.897 59063172 58127660 57211768 56313004 55428784 54556584 53694172 
1274.273 52839820 51992524 51152032 50318672 49492896 48675084 47865268 
1277.648 47063192 46268392 45480344 44698524 43922332 43151080 42384048 
1281.023 41620608 40860640 40104784 39354692 38612824 37882160 37165676 
1284.398 36465836 35784324 35122012 34479024 33855132 33249870 32662818 
1287.774 32093508 31541428 31005714 30485118 29977694 29480702 28990596 
1291.149 28503082 28013456 27517074 27009928 26489252 25953876 25404328 
1294.524 24842580 24271648 23695024 23116450 22539542 21968106 21406042 
1297.899 20857472 20326638 19817574 19333784 18877834 18451156 18053914 
1301.275 17685092 17342646 17023594 16724181 16439962 16166174 15897979 
1304.650 15631059 15362111 15089183 14811979 14531641 14250429 13971223 
1308.025 13697058 13430770 13174865 12931503 12702437 12489096 12292297 
1311.400 12112137 11947692 11796986 11657044 11524223 11394658 11264752 
1314.776 11131616 10993319 10848954 10698589 10542955 10383277 10220887 
1318.151 10057037 9892628 9728225 9564005 9399951 9236048 9072488 8909904 
1322.008 8749312 8592139 8440008 8294524 8157281 8029818 7913834 7811340 
1325.866 7724935 7657740 7613442 7595961 7609296 7657358 7743767 7872034 
1329.723 8045385 8266712 8538200 8860715 9233180 9651937 10110427 10599077 
1333.581 11105708 11616043 12114520 12585127 13012367 13382176 13682857 
1336.956 13905832 14046128 14102629 14077781 13977134 13808517 13581234 
1340.331 13305214 12990259 12645611 12279603 11899634 11512186 11122945 
1343.706 10736928 10358529 9991548 9639154 9303875 8987644 8691746 8416939 
1347.564 8163467 7931126 7719352 7527341 7354136 7198688 7059941 6936792 
1351.421 6828092 6732677 6649378 6577131 6515084 6462628 6419344 6384898 
1355.279 6358938 6340975 6330339 6326323 6328400 6336444 6350921 6373013 
1359.136 6404479 6447577 6504712 6578322 6670547 6783158 6917192 7072963 
1362.993 7249813 7446176 7659500 7886430 8122984 8364708 8606884 8844654 
1366.851 9073251 9288144 9485299 9661476 9814409 9942991 10047238 10128196 
1370.708 10187627 10227764 10250899 10259255 10254712 10238795 10212589 
1374.083 10176762 10131565 10076894 10012424 9937883 9853312 9759470 9658074 
1377.941 9551863 9444370 9339549 9241176 9152377 9075374 9011459 8961249 
1381.798 8925093 8903287 8896112 8903843 8926288 8962594 9011133 9069547 
1385.656 9135113 9205128 9277332 9350109 9422504 9493983 9564187 9632652 
1389.513 9698816 9762051 9821901 9878380 9932140 9984519 10037470 10093345 
1393.371 10154683 10224123 10304331 10397988 10507973 10637375 10789621 
1396.746 10968554 11178369 11423513 11708630 12038278 12417035 12849286 
1400.121 13339391 13891760 14510836 15200773 15964842 16804258 17716730 
1403.496 18694652 19723476 20780536 21834532 22846290 23770706 24559780 
1406.872 25166738 25550336 25679240 25535506 25116834 24437184 23525520 
1410.247 22422862 21178040 19842880 18467558 17096844 15767767 14508431 
1413.622 13338134 12268152 11303025 10441864 9679857 9009477 8421706 7907104 
1417.479 7456539 7061833 6715906 6412975 6148136 5917177 5716422 5542543 
1421.337 5392556 5263997 5154879 5063708 4989329 4930821 4887349 4858120 
1425.194 4842599 4840518 4852017 4877623 4917953 4973422 5044004 5129022 
1429.052 5227280 5337361 5457832 5587583 5725751 5871645 6024546 6183529 
1432.909 6347500 6515313 6686049 6859092 7034098 7210847 7388901 7567364 
1436.767 7744883 7919831 8090555 8255939 8415550 8569905 8720470 8869645 
1440.624 9020644 9177289 9343822 9524439 9722798 9941433 10181353 10441803 
1444.481 10720324 11013208 11316024 11624096 11932816 12237662 12534031 
1447.857 12816940 13080932 13320024 13527913 13698359 13825613 13904914 
1451.232 13933128 13909276 13834877 13714036 13552958 13359202 13140832 
1454.607 12905660 12660807 12412547 12166272 11926460 11696412 11478116 
1457.982 11272064 11077449 10892615 10715661 10545121 10380163 10220662 
1461.358 10066763 9918388 9774815 9634592 9495699 9356099 9214272 9069564 
1465.215 8922217 8773097 8623245 8473568 8324555 8176504 8029599 7884229 
1469.073 7741006 7600784 7464308 7332211 7204783 7081984 6963523 6848921 
1472.930 6737470 6628262 6520106 6411592 6301305 6188029 6071030 5950209 
1476.787 5826064 5699452 5571378 5442710 5314088 5185959 5058761 4932971 
1480.645 4809179 4687930 4569618 4454371 4342077 4232591 4125959 4022555 
1484.502 3923160 3828795 3740402 3658662 3583810 3515782 3454249 3398993 
1488.360 3349925 3307123 3270682 3240636 3216922 3199459 3188337 3184015 
1492.217 3187365 3199613 3222126 3256135 3302603 3362332 3436027 3524728 
1496.074 3630035 3754365 3901131 4074862 4281173 4526661 4818352 5162743 
1499.932 5564048 6022103 6530146 7073248 7627801 8162817 8642776 9031838 
1503.789 9298561 9420477 9387545 9203803 8886749 8464572 7971651 7443510 
1507.647 6912149 6402989 5933572 5513879 5147615 4834002 4569376 4348520 
1511.504 4165689 4015079 3891294 3789493 3705421 3635580 3577080 3527768 
1515.362 3486143 3451273 3422633 3399973 3383121 3371873 3365988 3365161 
1519.219 3369053 3377292 3389344 3404534 3421880 3440265 3458470 3475446 
1523.076 3490483 3503254 3513776 3522266 3528868 3533663 3536486 3537097 
1526.934 3535167 3530438 3522648 3511601 3497089 3478939 3457114 3431840 
1530.791 3403660 3373426 3342097 3310657 3279762 3249742 3220598 3192205 
1534.649 3164499 3137657 3112126 3088492 3067315 3048934 3033410 3020487 
1538.506 3009744 3000671 2992766 2985625 2978913 2972372 2965913 2959680 
1542.364 2954079 2949746 2947349 2947430 2949987 2954562 2960154 2965617 
1546.221 2969985 2972904 2974672 2976269 2978955 2983986 2992170 3003687 
1550.078 3018134 3034646 3052123 3069479 3085800 3100438 3113055 3123649 
1553.936 3132498 3140154 3147330 3154688 3162829 3172137 3182840 3195082 
1557.793 3208967 3224601 3241992 3261012 3281290 3302270 3323425 3344484 
1561.651 3365660 3387654 3411546 3438461 3469235 3504209 3543251 3586011 
1565.508 3632291 3682452 3737366 3798473 3867209 3944851 4032208 4129684 
1569.365 4237491 4356082 4486271 4629252 4786346 4958569 5146308 5349007 
1573.223 5564953 5791285 6023707 6256416 6481804 6690760 6873125 7018808 
1577.080 7118912 7166971 7159602 7096711 6981209 6818508 6615998 6382395 
1580.938 6127323 5860600 5591740 5329330 5080531 4850777 4643662 4460890 
1584.795 4302550 4167421 4053351 3957652 3877485 3810180 3753366 3705137 
1588.653 3663991 3628838 3598882 3573475 3552030 3533934 3518573 3505326 
1592.510 3493711 3483417 3474350 3466683 3460790 3457147 3456359 3459060 
1596.367 3465843 3477181 3493340 3514307 3539682 3568805 3600870 3635135 
1600.225 3671062 3708527 3747701 3789014 3832860 3879638 3929497 3982597 
1604.082 4039086 4099181 4163171 4231320 4303613 4379769 4459143 4540931 
1607.940 4624283 4708452 4792838 4876704 4959056 5038459 5112932 5180234 
1611.797 5238025 5284374 5317706 5336956 5341337 5330265 5303375 5260806 
1615.655 5203471 5133441 5053914 4968928 4882727 4799127 4721050 4650368 
1619.512 4588205 4535088 4491349 4457110 4432193 4415915 4407001 4403726 
1623.369 4404204 4406789 4410441 4414782 4419927 4426222 4433892 4442857 
1627.227 4452809 4463348 4474215 4485417 4497178 4509822 4523563 4538407 
1631.084 4554103 4570290 4586540 4602565 4618049 4632814 4646666 4659451 
1634.942 4671187 4682079 4692578 4703415 4715300 4728882 4744462 4762143 
1638.799 4781696 4802831 4825136 4848239 4871763 4895399 4918963 4942465 
1642.656 4966236 4990846 5016996 5045309 5076034 5108949 5143420 5178575 
1646.514 5213702 5248423 5282863 5317472 5352781 5389180 5426889 5466036 
1650.371 5506801 5549662 5595297 5644431 5697506 5754486 5814785 5877680 
1654.229 5942576 6009501 6079012 6152061 6229556 6311998 6399414 6491544 
1658.086 6588287 6690049 6797889 6913257 7037481 7171312 7314522 7466123 
1661.944 7624782 7789306 7959022 8133801 8313725 8498549 8687511 8879322 
1665.801 9072622 9266423 9460464 9655344 9851986 10051260 10253400 10457966 
1669.658 10664058 10870838 11077923 11285531 11494508 11705843 11920477 
1673.034 12139039 12362031 12589917 12823118 13061954 13306303 13555373 
1676.409 13807744 14061718 14315835 14569557 14823356 15078555 15336651 
1679.784 15598813 15865302 16135652 16409139 16685443 16965040 17249172 
1683.159 17539332 17836626 18141208 18452464 18769596 19092550 19422768 
1686.535 19763308 20118350 20492366 20889344 21312398 21763876 22245878 
1689.910 22760620 23310730 23898930 24528032 25200680 25919918 26689994 
1693.285 27517116 28409454 29376390 30426624 31566364 32798258 34122120 
1696.660 35537596 37047604 38660968 40393228 42264348 44294856 46501012 
1700.036 48891784 51468472 54228096 57168496 60293092 63612580 67142864 
1703.411 70899848 74893656 79123928 83578288 88233312 93057048 98010448 
1706.786 103046752 108109000 113128112 118023776 122710112 127103616 
1709.679 131130944 134731440 137855600 140460320 142507744 143968784 
1712.572 144831520 145107904 144834432 144064432 142856176 141262576 
1715.465 139327872 137090656 134591072 131875552 128996800 126008120 
1718.358 122955872 119873872 116782512 113692344 110609952 107542560 
1721.251 104500296 101494824 98536856 95633456 92787224 89997552 87262968 
1724.627 84583304 81960568 79398152 76899168 74464576 72092656 69779480 
1728.002 67520584 65312620 63154304 61046148 58989264 56983804 55027764 
1731.377 53116840 51245212 49406956 47597620 45815188 44060172 42334908 
1734.752 40642244 38984220 37361316 35772488 34215800 32689252 31191886 
1738.128 29724252 28288594 26888428 25527974 24211370 22942118 21722760 
1741.503 20554920 19439482 18376864 17367478 16411895 15510914 14665610 
1744.878 13876869 13144924 12468862 11846193 11272906 10743940 10254131 
1748.253 9799082 9375915 8983357 8621283 8289750 7988012 7714031 7464422 
1752.111 7235224 7022614 6823829 6637328 6462587 6299586 6148169 6007742 
1755.968 5877274 5755539 5641545 5534631 5434420 5340581 5252664 5169892 
1759.826 5091398 5016350 4944282 4875085 4808967 4746100 4686414 4629572 
1763.683 4574914 4521817 4469813 4418826 4369036 4320899 4274944 4231665 
1767.541 4191530 4154782 4121552 4091587 4064301 4038746 4013811 3988548 
1771.398 3962385 3935382 3907948 3880651 3853719 3826807 3799149 3769899 
1775.255 3738755 3706336 3674246 3644707 3619668 3600202 3585940 3575166 
1779.113 3565541 3554764 3541457 3525471 3507658 3489463 3472176 3456612 
1782.970 3442927 3430775 3419594 3408865 3398113 3386918 3374767 3361128 
1786.828 3345671 3328263 3309428 3289913 3270880 3253258 3237528 3223672 
1790.685 3211313 3199871 3188981 3178513 3168578 3159376 3150918 3143063 
1794.542 3135477 3127831 3120008 3112114 3104457 3097299 3090744 3084595 
1798.400 3078529 3072052 3064678 3056017 3045863 3034031 3020650 3006159 
1802.257 2991389 2977546 2966030 2958041 2954182 2954208 2957109 2961396 
1806.115 2965717 2969150 2971572 2973341 2974918 2976409 2977339 2976838 
1809.972 2974118 2968930 2961851 2954121 2947035 2941324 2936701 2931851 
1813.830 2925083 2915112 2901893 2886859 2872718 2862542 2858814 2862551 
1817.687 2872996 2887791 2903896 2918268 2928645 2933870 2933890 2929608 
1821.544 2922580 2914791 2908245 2904584 2904732 2908397 2914163 2919770 
1825.402 2922882 2921853 2916277 2906969 2895472 2883197 2870529 2856605 
1829.259 2839574 2817392 2789032 2755115 2718081 2681516 2649279 2624273 
1833.117 2607766 2599193 2596449 2596610 2596438 2593024 2584103 2568253 
1836.974 2545159 2515644 2481653 2446024 2411926 2381893 2357343 2338042 
1840.832 2322410 2308203 2293590 2277798 2261491 2246385 2234421 2226674 
1844.689 2222996 2221654 2220109 2215853 2207168 2193679 2176229 2156416 
1848.546 2135992 2116287 2098249 2082219 2068342 2056737 2047462 2040436 
1852.404 2035214 2030984 2026764 2021503 2014614 2006014 1996352 1986648 
1856.261 1977999 1971162 1966421 1963381 1961285 1959339 1957084 1954492 
1860.119 1952164 1950952 1951615 1954288 1958138 1961414 1961757 1956926 
1863.976 1945570 1927915 1906029 1883270 1863536 1850028 1844090 1844743 
1867.833 1848835 1851864 1849415 1838419 1818022 1789790 1757062 1724014 
1871.691 1694363 1670665 1653801 1643239 1637593 1635202 1634831 1635688 
1875.548 1637624 1640614 1644562 1648989 1653076 1655780 1656217 1653924 
1879.406 1649080 1642392 1635090 1628477 1623808 1622144 1624163 1630383 
1883.263 1640884 1655372 1673010 1692300 1711016 1726556 1736553 1739493 
1887.121 1735455 1726259 1715354 1706943 1704823 1711311 1726430 1747893 
1890.978 1771619 1792930 1807656 1813386 1809885 1799099 1784518 1770222 
1894.835 1759806 1755622 1758296 1766907 1779589 1794058 1808717 1822846 
1898.693 1836629 1850731 1865331 1879412 1890558 1895195 1889777 1872094 
1902.550 1842385 1803789 1761714 1722421 1691370 1671489 1662913 1663012 
1906.408 1668112 1674671 1680756 1686400 1692996 1702280 1715309 1731641 
1910.265 1749439 1766066 1778984 1786642 1788730 1786384 1781608 1776953 
1914.123 1774828 1777174 1785174 1798859 1817017 1837233 1856593 1872295 
1917.980 1882723 1888177 1890902 1894233 1901594 1914831 1933600 1955034 
1921.837 1974952 1988871 1993591 1987910 1972542 1949670 1921807 1891486 
1925.695 1860953 1832581 1809475 1795190 1793186 1805657 1832144 1869221 
1929.552 1910929 1950348 1981723 2001860 2011063 2012011 2008271 2002311 
1933.410 1994236 1982150 1963189 1935466 1899722 1859439 1820229 1787876 
1937.267 1766733 1758276 1761815 1775320 1797301 1827875 1868661 1921569 
1941.125 1986948 2061684 2139135 2209943 2264416 2295410 2300083 2281066 
1944.982 2244590 2198890 2151413 2107152 2068538 2036188 2011271 1996248 
1948.839 1995347 2013684 2054620 2117695 2197674 2284262 2364071 2423618 
1952.697 2451942 2442390 2393668 2308789 2194695 2060899 1919328 1783630 
1956.554 1668759 1588910 1555421 1573599 1640279 1743135 1862912 1977684 
1960.412 2068765 2125762 2148188 2144290 2126743 2106819 2090949 2078354 
1964.269 2062981 2036608 1992987 1930671 1853710 1770381 1690204 1621703 
1968.126 1571003 1540820 1532536 1546970 1584564 1645143 1726163 1819941 
1971.984 1913774 1989959 2029775 2017872 1947592 1824997 1669513 1511678 
1975.841 1386823 1326439 1349814 1457783 1631965 1839912 2045059 2217063 
1979.699 2337950 2404060 2422348 2405494 2366624 2315596 2257640 2193159 
1983.556 2119864 2034419 1934950 1822750 1703436 1586945 1486537 1416253 
1987.414 1387511 1405626 1467580 1560615 1665189 1758905 1822650 1845985 
1991.271 1829860 1785256 1728990 1676745 1637797 1611627 1589847 1560411 
1995.128 1513775 1447890 1369862 1293479 1234421 1203776 1204328 1229196 
1998.986 1264714 1294883 1306549 1292433 1251950 1189541 1111816 1024826 
2002.843 933145 839546 747330 661296 588559 537665 516547 530119 577700 
2007.183 652635 743616 837106 920491 983460 1020072 1027763 1007144 961199 
2011.522 894408 812779 723931 636637 560889 505664 478159 480461 509425 
2015.862 555537 605887 646426 666339 660476 630663 584146 530954 480413 
2020.202 439437 411232 397512 398744 415996 449290 496173 550046 600615 
2024.541 635452 645755 629286 593010 550049 514667 494258 485133 471876 
2028.881 433184 351769 224071 64238 -96985 -222379 -280791 -257356 -158768 
2033.220 -10043 155174 305974 424603 509119 570251 623973 683854 756143 
2037.560 840411 931553 1023961 1113853 1199700 1280171 1353269 1414987 
2041.417 1460623 1486866 1494167 1486584 1471302 1455484 1444427 1439603 
2045.275 1440700 1446875 1460130 1486053 1532399 1605652 1706769 1827638 
2049.132 1951914 2058265 2127657 2148312 2119868 2052593 1964726 1877183 
2052.990 1808593 1770242 1763758 1780691 1806304 1824506 1823912 1802028 
2056.847 1765394 1727355 1703219 1704696 1736498 1794754 1868835 1945147 
2060.705 2011712 2060940 2091246 2105885 2110611 2111510 2113305 2118519 
2064.562 2127944 2140584 2154458 2165815 2169730 2160673 2134286 2089469 
2068.419 2029988 1964662 1905313 1863605 1847435 1857762 1888914 1930204 
2072.277 1970036 1999806 2016159 2021125 2020309 2019499 2022380 2029307 
2076.134 2038108 2045570 2049670 2050140 2048650 2047477 2048593 2052888 
2079.992 2060514 2071542 2086845 2107720 2135240 2168929 2205898 2240755 
2083.849 2266643 2277577 2269958 2244104 2204408 2157464 2110733 2070190 
2087.707 2039195 2017938 2004126 1993571 1981619 1963902 1937554 1901869 
2091.564 1859363 1815479 1778532 1758033 1762440 1796608 1859924 1945561 
2095.421 2041980 2135539 2214523 2271656 2305927 2321671 2326526 2328409 
2099.279 2333033 2342420 2354874 2366121 2371330 2366622 2350705 2325013 
2103.136 2293286 2260513 2231580 2209751 2196325 2190482 2190034 2192315 
2106.994 2195612 2199212 2203700 2209836 2217958 2227065 2235023 2238980 
2110.851 2236661 2227022 2210922 2189964 2166034 2139592 2109304 2072591 
2114.708 2027038 1972085 1910570 1848811 1795489 1759268 1746175 1757530 
2118.566 1788887 1831118 1872211 1900096 1905226 1882174 1830734 1755106 
2122.423 1663279 1564999 1470397 1388185 1324380 1281561 1258649 1251438 
2126.281 1254000 1259685 1263014 1259963 1248162 1226343 1193557 1148608 
2130.138 1090233 1018079 933980 843184 754672 680262 632672 622132 654025 
2134.478 726412 830436 951978 1075302 1186663 1277704 1346233 1395915 
2138.335 1432888 1462902 1487731 1504075 1504053 1478236 1419626 1327845 
2142.193 1210669 1083763 966559 877214 826280 813928 828709 851211 859827 
2146.532 837485 776165 679439 560208 436684 325914 238941 178020 136773 
2150.872 102968 63246 6167 -74611 -181188 -310895 -460955 -628043 -809242 
2155.211 -999851 -1189602 -1358976 -1479053 -1514250 -1432353 -1216776 
2158.587 -878924 -460980 -26234 361111 656774 847549 948435 990885 1008123 
2162.926 1024502 1049894 1083070 1117166 1146997 1173183 1201589 1237631 
2166.784 1281073 1321919 1342872 1324401 1253971 1131226 970740 797583 
2170.641 640365 522855 457986 446077 477758 538423 613910 691747 761970 
2174.981 815745 843971 839154 798040 724584 631629 538369 466431 432900 
2179.320 446706 505658 598375 708613 819568 917979 995796 1049132 1077870 
2183.660 1082690 1065905 1029964 978879 917181 850199 783372 722617 674763 
2188.000 647858 650344 689220 766330 875620 1002822 1127416 1228843 1292886 
2192.339 1316359 1308178 1284833 1264394 1258616 1270057 1292075 1314145 
2196.197 1328075 1332337 1332135 1336252 1350298 1372762 1393998 1400597 
2200.054 1381459 1334795 1269856 1205398 1162273 1156944 1195162 1271713 
2203.911 1373243 1483975 1590389 1683803 1758923 1812565 1841325 1842525 
2207.769 1816310 1768916 1713330 1667858 1649920 1670717 1729784 1814854 
2211.626 1905237 1979245 2020956 2025253 1997602 1951029 1900035 1856610 
2215.484 1826921 1812205 1810825 1820688 1840140 1868078 1902048 1937686 
2219.341 1968550 1988114 1991482 1977847 1950335 1915566 1881230 1854593 
2223.198 1840490 1841069 1856071 1883143 1917904 1954273 1984836 2001464 
2227.056 1997635 1970284 1921166 1857411 1789684 1730059 1688254 1670197 
2230.913 1676597 1703968 1746385 1797125 1850056 1900495 1944698 1980131 
2234.771 2005348 2020903 2028675 2032601 2037284 2047019 2064165 2088852 
2238.628 2118573 2149469 2177223 2198627 2211455 2215212 2210500 2198840 
2242.486 2182337 2163680 2145883 2131867 2123433 2120871 2122323 2124543 
2246.343 2123972 2118319 2107391 2093644 2081148 2074136 2075235 2084649 
2250.200 2099926 2117452 2133540 2146120 2155146 2162535 2171119 2183532 
2254.058 2201068 2223498 2248992 2274901 2298241 2316843 2329528 2336689 
2257.915 2340084 2342423 2346442 2354012 2365283 2378461 2390189 2397186 
2261.773 2397075 2390375 2380023 2370827 2367614 2373505 2388624 2410204 
2265.630 2433898 2455683 2473276 2486990 2498684 2510701 2523872 2537012 
2269.488 2547134 2551017 2546703 2535162 2519972 2506809 2501055 2506560 
2273.345 2523990 2551200 2583860 2617023 2646471 2669633 2685704 2695513 
2277.202 2700650 2703339 2705804 2710233 2718848 2733786 2756849 2789555 
2281.060 2832388 2884735 2944390 3007496 3068694 3121788 3160680 3180829 
2284.917 3180188 3159922 3124380 3080099 3034335 2993571 2962062 2941262 
2288.775 2930041 2925347 2923150 2919640 2911634 2897318 2876019 2848604 
2292.632 2817168 2784792 2755015 2731100 2715212 2707867 2707647 2711835 
2296.490 2717111 2720771 2721303 2718603 2713547 2707151 2699907 2691588 
2300.347 2681504 2669147 2654961 2640505 2628011 2619758 2616836 2618802 
2304.204 2623723 2628842 2631885 2631762 2628978 2625354 2623015 2623712 
2308.062 2627880 2634867 2643272 2651759 2659621 2667110 2675034 2684323 
2311.919 2695387 2707810 2720381 2731517 2739901 2745011 2747443 2748914 
2315.777 2751663 2758111 2769936 2787845 2811227 2838812 2869078 2901193 
2319.634 2935530 2973764 3018026 3069640 3127642 3187637 3241883 3280595 
2323.491 3294200 3275872 3223550 3140651 3035339 2918806 2803003 2698385 
2327.349 2612071 2547338 2503597 2477441 2464178 2459057 2458277 2459125 
2331.206 2460006 2459937 2458340 2455015 2450130 2444315 2438507 2433852 
2335.064 2431209 2431013 2433132 2436886 2441346 2445642 2448987 2451080 
2338.921 2451704 2450907 2448911 2446135 2443326 2441430 2441623 2444868 
2342.779 2451796 2462337 2475685 2490448 2504861 2517235 2526253 2531282 
2346.636 2532321 2529995 2525340 2519590 2513919 2509425 2506828 2506617 
2350.493 2508751 2512978 2518565 2524696 2530319 2534473 2536439 2535872 
2354.351 2533017 2528593 2523688 2519572 2517368 2517730 2520607 2525302 
2358.208 2530591 2534946 2537026 2535918 2531291 2523534 2513387 2501913 
2362.066 2490187 2479115 2469323 2461148 2454646 2449683 2446026 2443459 
2365.923 2441830 2441332 2442166 2444680 2449026 2455174 2462651 2470871 
2369.781 2479144 2487162 2494918 2502888 2511569 2521165 2531312 2540892 
2373.638 2548414 2552479 2552376 2548402 2541860 2534719 2528689 2524820 
2377.495 2523007 2522203 2520881 2517887 2512880 2506789 2501382 2498778 
2381.353 2500682 2507826 2519631 2534614 2550463 2564992 2576395 2583793 
2385.210 2587200 2587463 2585871 2583807 2582164 2581185 2580263 2578066 
2389.068 2573109 2564190 2550999 2534444 2516302 2499107 2485194 2476221 
2392.925 2472741 2474141 2478985 2485529 2492116 2497504 2500925 2501982 
2396.782 2500468 2496512 2490489 2483202 2475839 2469808 2466372 2466387 
2400.640 2469791 2475850 2483103 2489861 2494478 2495851 2493530 2487806 
2404.497 2479698 2470828 2463171 2458711 2458861 2464040 2473370 2484731 
2408.355 2495206 2501991 2503171 2498331 2488559 2475963 2462569 2449629 
2412.212 2437095 2424034 2409194 2392190 2374044 2357425 2345686 2341956 
2416.070 2348006 2363558 2386310 2412633 2438546 2460702 2476733 2485508 
2419.927 2486611 2480406 2467490 2449077 2426923 2403295 2380731 2361415 
2423.784 2346593 2336318 2329366 2323988 2318288 2311345 2303291 2295365 
2427.642 2289426 2287323 2290212 2298300 2310455 2324921 2339024 2350301 
2431.499 2356558 2356688 2350826 2340693 2329263 2320145 2316516 2320413 
2435.357 2331620 2347998 2365714 2380540 2389080 2389693 2382944 2371244 
2439.214 2357928 2346361 2338791 2336293 2338532 2344386 2352212 2360504 
2443.072 2367773 2373026 2375432 2374708 2371067 2365420 2359258 2354444 
2446.929 2352578 2354667 2360405 2368334 2375820 2379898 2377769 2367851 
2450.786 2350260 2327037 2301892 2279433 2263984 2258617 2264044 2278568 
2454.644 2298318 2318420 2334308 2343193 2344360 2339494 2331581 2323748 
2458.501 2318119 2315285 2314290 2313461 2311265 2306961 2300713 2293505 
2462.359 2286036 2278581 2270457 2260613 2248147 2233135 2216684 2201030 
2466.216 2188542 2181129 2179395 2182766 2189426 2197259 2204243 2209084 
2470.073 2211136 2210272 2206567 2200193 2191269 2179958 2166537 2151499 
2473.931 2135304 2118661 2102224 2086961 2074079 2065215 2061828 2065233 
2477.788 2075610 2091979 2111983 2132609 2150933 2165193 2174915 2181394 
2481.646 2186550 2192329 2199513 2207665 2215023 2219443 2219396 2214548 
2485.503 2206076 2196274 2187738 2182579 2181589 2184401 2189418 2194681 
2489.361 2198263 2199000 2196503 2191463 2185191 2179608 2176685 2178488 
2493.218 2186167 2200222 2219768 2242801 2266243 2286813 2301504 2308540 
2497.075 2307625 2300251 2289072 2277374 2267989 2262862 2262529 2266307 
2500.933 2272683 2280019 2286943 2293049 2298318 2303310 2308304 2313240 
2504.790 2317314 2319465 2318664 2314589 2307646 2299316 2291477 2286011 
2508.648 2284234 2286635 2292908 2302343 2314060 2327711 2343069 2360230 
2512.505 2378931 2398638 2418262 2436661 2452821 2466407 2477596 2487024 
2516.363 2495084 2501773 2506340 2507682 2504662 2497065 2485605 2472349 
2520.220 2459823 2450737 2447037 2449606 2458185 2471793 2488906 2508217 
2524.077 2528284 2547908 2565521 2579571 2588315 2590549 2585814 2574812 
2527.935 2559544 2542978 2528364 2518684 2516008 2521042 2533080 2550197 
2531.792 2569615 2588218 2603223 2612622 2615303 2611519 2602272 2589532 
2535.650 2575283 2561633 2550327 2542777 2540017 2542840 2551363 2565193 
2539.507 2582827 2602005 2619788 2633399 2640901 2642152 2638668 2633534 
2543.365 2630245 2631580 2638493 2649909 2662928 2674207 2680730 2681358 
2547.222 2676903 2669860 2663377 2660309 2662075 2668541 2678039 2688103 
2551.079 2696163 2700259 2699357 2693706 2684439 2673662 2663704 2657237 
2554.937 2656377 2662359 2675093 2692804 2712538 2730460 2742753 2746676 
2558.794 2740971 2726357 2705275 2681199 2658048 2639248 2627238 2623326 
2562.652 2627480 2638748 2655527 2676022 2698478 2721513 2743977 2765085 
2566.509 2783972 2799809 2811623 2818608 2820368 2817484 2811369 2804597 
2570.366 2800023 2800243 2806726 2819495 2836754 2855796 2873345 2886728 
2574.224 2894236 2895609 2891633 2883926 2874368 2864834 2856969 2852221 
2578.081 2851388 2854962 2862526 2873118 2885005 2896475 2905932 2912540 
2581.939 2916351 2918107 2918871 2919548 2920576 2921868 2923055 2923987 
2585.796 2924664 2925535 2926987 2929063 2931246 2932637 2932082 2929037 
2589.654 2923620 2916845 2910034 2904452 2900517 2897858 2895409 2892219 
2593.511 2887969 2883269 2879475 2878210 2880316 2885765 2893301 2901288 
2597.368 2908370 2914156 2919362 2925391 2933499 2943989 2955616 2966345 
2601.226 2973548 2975551 2972031 2964304 2954752 2946028 2939817 2936633 
2605.083 2935777 2936010 2936287 2936459 2937250 2939824 2945121 2953284 
2608.941 2963156 2972711 2979732 2982591 2980735 2975113 2967641 2960672 
2612.798 2956270 2955615 2958765 2964992 2972768 2980735 2987663 2993109 
2616.656 2997168 3000542 3004194 3009102 3015920 3024940 3035899 3048263 
2620.513 3061247 3074183 3086618 3098441 3109619 3120202 3129959 3138381 
2624.370 3144677 3148170 3148265 3145140 3139359 3132260 3125123 3119326 
2628.228 3115611 3114196 3114579 3115921 3117145 3117421 3116255 3113770 
2632.085 3110487 3107338 3105182 3104773 3106319 3109471 3113224 3116369 
2635.943 3117640 3116289 3112307 3106528 3100550 3096258 3095279 3098575 
2639.800 3105998 3116479 3128126 3138787 3146484 3150019 3148965 3143941 
2643.657 3136188 3127523 3119675 3114246 3112193 3113850 3118832 3126250 
2647.515 3134724 3142913 3149709 3154359 3156711 3157105 3156153 3154571 
2651.372 3153049 3151953 3151460 3151509 3151901 3152383 3152684 3152634 
2655.230 3152040 3150877 3149196 3147289 3145391 3143853 3142777 3142025 
2659.087 3141201 3139688 3136798 3132041 3125171 3116270 3105627 3093631 
2662.945 3080500 3066386 3051317 3035529 3019465 3004114 2990753 2980724 
2666.802 2975053 2974132 2977462 2983787 2991267 2997988 3002333 3003347 
2670.659 3000838 2995332 2987889 2979853 2972496 2966935 2963790 2963225 
2674.517 2964796 2967712 2970902 2973321 2974211 2973327 2970869 2967435 
2678.374 2963737 2960337 2957574 2955474 2953884 2952848 2952559 2953381 
2682.232 2955772 2959859 2965370 2971457 2976918 2980746 2982331 2981918 
2686.089 2980380 2979034 2979067 2981136 2984914 2989488 2993361 2995306 
2689.947 2994580 2991377 2986498 2981353 2977111 2974689 2974242 2975351 
2693.804 2977166 2978724 2979184 2978078 2975385 2971483 2967112 2963169 
2697.661 2960527 2959901 2961613 2965591 2971322 2978009 2984663 2990510 
2701.519 2994919 2997621 2998588 2998103 2996515 2994330 2992161 2990801 
2705.376 2990994 2993439 2998508 3005951 3014990 3024354 3032608 3038563 
2709.234 3041683 3042252 3041135 3039602 3038631 3038656 3039315 3039745 
2713.091 3038782 3035595 3030036 3022758 3015036 3008547 3004568 3003937 
2716.948 3006631 3012014 3018913 3026203 3032942 3038638 3043291 3047280 
2720.806 3051076 3055087 3059413 3063954 3068283 3072011 3074751 3076462 
2724.663 3077322 3077773 3078373 3079743 3082290 3086332 3092016 3099382 
2728.521 3108254 3118420 3129277 3140074 3149825 3157545 3162462 3164386 
2732.378 3163643 3161142 3158082 3155755 3154981 3156180 3159156 3163446 
2736.236 3168342 3173323 3177991 3182156 3185614 3188235 3189858 3190486 
2740.093 3190292 3189781 3189577 3190427 3192686 3196318 3200810 3205426 
2743.950 3209388 3212222 3213964 3214921 3215654 3216583 3217765 3218975 
2747.808 3219680 3219506 3218284 3216359 3214322 3213087 3213445 3216040 
2751.665 3220959 3228109 3236948 3246691 3256540 3265700 3273475 3279517 
2755.523 3283704 3286249 3287556 3287991 3287908 3287413 3286437 3284907 
2759.380 3282832 3280417 3278095 3276280 3275244 3275073 3275551 3276405 
2763.238 3277466 3278847 3280831 3283851 3288057 3293331 3299001 3304353 
2767.095 3308783 3312272 3315338 3318923 3323821 3330277 3337546 3344177 
2770.952 3348289 3348409 3343968 3335587 3324975 3314332 3305642 3300349 
2774.810 3298901 3301138 3306475 3314310 3324239 3335845 3348592 3361713 
2778.667 3374092 3384488 3391998 3396225 3397382 3396351 3394172 3391897 
2782.525 3390305 3389858 3390844 3393547 3398253 3405304 3414826 3426678 
2786.382 3440331 3455081 3470113 3484811 3498840 3512190 3524898 3536927 
2790.240 3548019 3557886 3566178 3572747 3577795 3581767 3585264 3588839 
2794.097 3592728 3597058 3601714 3606619 3611736 3617217 3623169 3629704 
2797.954 3636815 3644407 3652421 3660841 3669607 3678683 3687743 3696300 
2801.812 3703624 3709163 3712817 3715074 3717035 3720241 3726093 3735415 
2805.669 3748222 3763680 3780373 3796823 3811881 3824909 3835754 3844432 
2809.527 3850980 3855303 3857223 3856818 3854633 3851727 3849590 3849749 
2813.384 3853161 3860114 3869976 3881584 3893592 3904950 3915233 3924721 
2817.241 3934058 3944025 3955182 3967791 3981602 3996364 4011857 4028061 
2821.099 4045443 4064581 4086241 4110930 4138891 4169947 4203459 4238542 
2824.956 4274140 4309255 4343180 4375591 4406547 4436577 4466372 4496922 
2828.814 4529036 4563484 4600756 4641089 4684470 4730784 4779831 4831648 
2832.671 4886335 4944288 5006140 5072631 5144470 5222222 5306209 5396484 
2836.529 5493035 5595880 5705264 5821720 5945931 6078618 6220307 6371348 
2840.386 6531781 6701517 6880599 7069272 7267840 7476638 7695543 7923784 
2844.243 8159830 8401547 8646492 8892408 9137478 9380569 9620830 9857810 
2848.101 10090671 10318299 10539027 10751009 10952102 11140379 11314011 
2851.476 11471334 11610767 11730852 11830146 11907669 11962871 11995988 
2854.851 12007964 12000468 11975438 11935149 11881635 11816814 11742163 
2858.227 11658908 11568009 11470106 11365779 11255544 11140063 11020238 
2861.602 10897163 10772130 10646492 10521471 10397945 10276373 10157032 
2864.977 10039937 9925213 9813340 9704962 9601097 9502842 9411193 9326915 
2868.834 9250388 9181526 9119861 9064519 9014467 8968521 8925702 8885286 
2872.692 8847058 8811238 8778533 8749913 8726354 8708727 8697755 8694024 
2876.549 8698107 8710510 8731905 8762790 8803514 8854034 8913725 8981594 
2880.407 9056299 9136485 9220899 9308665 9399229 9492272 9587756 9685708 
2884.264 9786180 9889103 9994359 10101618 10210488 10320314 10430311 
2887.639 10539597 10647092 10751732 10852575 10948641 11039363 11124419 
2891.015 11203959 11278424 11348519 11414950 11478052 11537665 11593127 
2894.390 11643400 11687668 11725675 11758291 11787226 11815087 11844622 
2897.765 11878115 11916948 11961465 12011059 12064952 12122414 12183327 
2901.140 12248104 12317510 12392324 12472892 12559156 12650707 12747033 
2904.516 12847735 12952629 13061699 13174744 13291250 13410190 13530327 
2907.891 13650322 13769384 13887180 14004464 14122465 14242959 14367801 
2911.266 14498530 14636169 14781234 14933334 15091582 15254338 15419707 
2914.641 15585527 15749860 15911148 16068572 16221975 16371770 16518523 
2918.017 16662899 16805074 16944868 17081620 17214330 17341792 17462812 
2921.392 17576220 17681016 17776232 17861270 17935826 17999964 18054398 
2924.767 18100490 18139946 18174820 18206956 18237692 18267610 18296334 
2928.142 18322562 18344518 18360230 18368356 18368294 18360550 18346270 
2931.518 18327190 18304620 18279306 18250898 18218536 18180802 18136728 
2934.893 18085884 18028962 17967286 17902534 17836386 17769960 17703754 
2938.268 17637704 17571134 17503274 17432836 17358432 17278308 17190826 
2941.643 17094628 16989192 16875290 16754912 16631044 16506851 16384992 
2945.019 16266647 16151525 16037920 15923344 15805498 15682882 15555254 
2948.394 15423524 15289372 15154871 15021789 14891487 14764731 14641760 
2951.769 14522399 14406043 14291881 14178781 14065659 13951591 13836148 
2955.144 13719416 13602078 13484964 13368957 13254540 13141689 13030007 
2958.520 12918803 12807597 12696172 12584528 12473026 12361801 12250651 
2961.895 12139121 12026521 11912093 11795524 11676919 11556809 11436215 
2965.270 11316074 11197242 11080208 10965095 10851879 10740354 10630450 
2968.645 10521899 10414577 10308102 10201907 10095286 9987529 9878185 
2972.021 9767210 9655087 9542783 9431411 9322052 9215300 9111185 9009120 
2975.878 8908150 8807270 8705742 8603229 8499902 8396225 8292727 8189741 
2979.735 8087396 7985634 7884425 7783716 7683986 7585653 7489419 7395767 
2983.593 7305010 7217017 7131605 7048449 6967415 6888423 6811665 6737293 
2987.450 6665464 6596183 6529291 6464620 6402050 6341481 6282988 6226615 
2991.308 6172554 6120973 6072160 6026392 5984042 5945183 5909695 5876896 
2995.165 5845599 5814174 5781057 5744917 5705145 5661949 5616296 5569505 
2999.022 5523015 5478001 5435007 5394263 5355591 5318659 5283424 5249699 
3002.880 5217473 5186748 5157272 5128662 5100362 5071829 5042591 5012304 
3006.737 4980959 4948589 4915542 4882059 4848471 4814838 4781247 4747497 
3010.595 4713261 4678359 4642649 4606423 4570224 4534873 4501286 4470084 
3014.452 4441433 4414947 4389740 4364561 4338335 4310133 4279749 4247193 
3018.310 4212911 4177573 4141760 4106120 4071221 4037777 4006425 3977980 
3022.167 3952970 3931691 3913970 3899185 3886329 3874180 3861595 3847739 
3026.024 3832083 3814648 3796065 3777023 3758588 3741718 3727085 3714979 
3029.882 3705348 3697656 3691325 3685611 3680248 3675223 3670972 3668001 
3033.739 3666785 3667265 3669016 3670840 3671495 3669751 3664945 3657208 
3037.597 3647618 3637964 3630272 3626440 3627791 3634702 3646826 3663065 
3041.454 3682223 3703224 3725531 3749270 3775084 3804066 3837269 3875434 
3045.312 3918872 3967347 4020258 4076462 4134708 4193706 4252102 4308600 
3049.169 4362049 4411420 4455933 4495089 4528651 4556644 4579271 4596694 
3053.026 4609243 4617104 4620610 4620123 4616159 4609414 4600686 4590562 
3056.884 4579680 4568398 4557102 4546096 4535907 4527330 4521341 4519075 
3060.741 4521287 4528191 4539284 4552964 4567113 4579186 4587082 4589464 
3064.599 4586298 4578937 4569786 4561601 4556872 4556947 4561870 4570340 
3068.456 4580202 4589035 4595029 4597215 4595568 4590802 4583782 4575275 
3072.313 4565681 4555157 4543819 4532289 4521662 4513309 4508842 4509191 
3076.171 4514589 4524048 4535736 4547365 4556540 4561328 4560733 4554596 
3080.028 4543748 4529825 4514770 4500546 4488515 4479100 4471489 4463697 
3083.886 4453091 4437086 4414021 4383781 4347921 4309344 4271517 4237320 
3087.743 4208231 4184259 4164220 4146353 4129380 4113005 4098001 4085643 
3091.601 4077146 4072766 4071743 4072345 4072674 4071301 4067941 4063354 
3095.458 4059156 4057040 4058232 4063052 4071014 4081064 4092038 4103132 
3099.315 4113828 4123892 4133102 4141203 4147696 4152145 4154317 4154295 
3103.173 4152524 4149574 4145795 4141168 4135138 4126932 4115913 4101802 
3107.030 4085249 4067546 4050424 4035484 4023566 4014404 4006673 3998166 
3110.888 3986428 3969773 3947478 3920264 3890064 3859524 3831240 3807146 
3114.745 3788090 3773827 3763352 3755293 3748559 3742525 3737156 3732680 
3118.603 3729391 3727397 3726454 3726052 3725576 3724473 3722444 3719340 
3122.460 3715331 3710706 3705918 3701650 3698722 3698048 3700342 3705851 
3126.317 3713981 3723551 3732453 3738632 3740358 3736757 3728148 3715934 
3130.175 3702204 3689142 3678646 3671794 3668958 3669640 3672978 3677713 
3134.032 3682440 3685727 3686262 3682976 3675451 3663932 3649399 3633422 
3137.890 3617550 3602986 3590086 3578208 3566092 3552266 3535809 3516807 
3141.747 3496446 3476882 3460594 3449600 3445130 3446962 3453827 3463463 
3145.604 3473539 3481834 3486871 3487843 3484858 3478630 3470282 3461258 
3149.462 3452883 3446274 3442188 3440712 3441442 3443479 3445784 3447478 
3153.319 3447962 3447311 3445994 3444603 3443618 3443018 3442387 3440799 
3157.177 3437560 3432110 3424695 3416023 3407295 3399487 3393288 3388621 
3161.034 3384899 3381335 3377265 3372648 3367856 3363644 3360633 3358943 
3164.892 3358015 3356882 3354395 3349918 3343665 3336670 3330586 3326942 
3168.749 3326825 3330224 3336186 3342978 3348815 3352112 3352094 3348619 
3172.606 3342333 3334331 3325919 3318550 3313700 3312479 3315794 3323574 
3176.464 3334935 3347994 3360097 3368698 3371713 3368382 3359513 3347361 
3180.321 3334947 3325305 3320735 3322112 3329053 3339895 3352406 3364240 
3184.179 3373321 3378309 3378408 3373524 3364288 3351839 3337937 3324735 
3188.036 3314409 3308905 3309394 3316118 3328311 3344287 3362003 3379293 
3191.894 3394325 3405796 3412881 3415283 3413087 3406802 3397434 3386404 
3195.751 3375578 3366994 3362392 3362562 3367346 3375182 3383693 3390264 
3199.608 3392806 3390471 3384039 3375496 3367713 3363340 3364162 3370441 
3203.466 3381018 3393698 3405818 3415068 3419990 3420177 3416021 3408510 
3207.323 3398841 3388070 3377166 3366847 3357844 3350799 3346270 3344560 
3211.181 3345586 3348922 3353796 3359282 3364563 3369070 3372511 3374970 
3215.038 3376829 3378547 3380658 3383545 3387437 3392204 3397530 3402639 
3218.896 3406700 3408872 3408486 3405465 3400235 3393767 3387352 3382216 
3222.753 3379266 3378732 3380309 3383168 3386333 3388876 3390313 3390459 
3226.610 3389618 3388175 3386578 3384881 3382943 3380325 3376533 3371228 
3230.468 3364440 3356697 3349051 3342554 3338217 3336499 3337238 3339611 
3234.325 3342611 3345272 3347121 3348245 3349129 3350364 3352268 3354558 
3238.183 3356509 3357371 3356750 3355073 3353582 3353807 3357110 3363791 
3242.040 3372894 3382375 3389515 3392044 3388860 3380379 3368350 3355372 
3245.897 3344064 3336268 3333073 3334461 3339826 3348300 3359005 3370991 
3249.755 3383357 3395243 3405841 3414490 3421123 3425924 3429513 3432384 
3253.612 3434749 3436307 3436352 3434187 3429435 3422218 3413473 3404317 
3257.470 3395977 3389315 3384764 3382301 3381905 3383324 3386446 3390964 
3261.327 3396346 3401685 3405897 3408083 3407823 3405314 3401574 3397568 
3265.185 3394235 3391855 3390139 3388501 3386640 3384822 3383957 3385211 
3269.042 3389470 3396927 3406705 3417351 3427203 3435059 3440596 3444213 
3272.899 3446531 3448006 3448536 3447511 3444438 3439264 3432966 3427211 
3276.757 3423790 3424049 3427923 3434013 3439993 3443393 3442697 3437603 
3280.614 3429257 3419594 3410575 3403436 3398523 3395268 3392859 3390493 
3284.472 3388095 3386128 3385489 3387301 3392581 3402157 3416432 3435444 
3288.329 3458516 3484131 3510139 3533633 3551908 3562779 3565514 3560961 
3292.187 3551351 3539737 3528972 3520932 3516179 3514121 3513337 3512464 
3296.044 3510549 3507458 3503482 3499337 3495572 3492432 3490042 3488446 
3299.901 3487881 3488783 3491757 3497221 3505209 3515083 3525668 3535290 
3303.759 3542246 3545232 3543549 3537410 3528082 3517505 3507982 3501509 
3307.616 3499415 3501722 3507410 3514427 3520636 3524329 3524910 3523130 
3311.474 3520754 3519793 3522049 3528140 3537553 3548781 3559765 3568659 
3315.331 3574143 3575688 3573426 3567908 3559977 3550557 3540785 3531891 
3319.188 3525203 3521995 3523104 3528712 3538290 3550816 3564892 3579368 
3323.046 3593420 3606552 3618638 3629531 3639051 3646844 3652932 3657418 
3326.903 3660854 3664177 3668135 3673123 3678825 3684291 3688175 3689150 
3330.761 3686514 3680312 3671458 3661459 3652023 3644714 3640722 3640693 
3334.618 3644687 3652353 3662957 3675401 3688519 3701039 3711977 3720637 
3338.476 3726804 3730577 3732387 3732495 3731205 3728564 3724638 3719620 
3342.333 3713932 3707968 3702173 3696639 3691125 3685008 3677798 3669222 
3346.190 3659836 3650790 3643833 3640525 3641823 3647558 3656435 3666123 
3350.048 3673935 3677412 3674902 3665648 3650096 3629597 3606113 3582079 
3353.905 3560114 3542838 3532528 3530769 3537998 3553261 3574297 3597657 
3357.763 3619521 3636364 3645876 3647438 3642050 3632186 3620893 3610967 
3361.620 3604419 3601819 3602667 3605628 3609160 3612065 3613668 3613935 
3365.478 3613161 3611632 3609417 3606344 3602126 3596523 3589776 3582454 
3369.335 3575383 3569442 3565181 3562761 3561920 3562247 3563592 3566025 
3373.192 3570050 3576368 3585643 3598198 3613840 3631919 3651358 3670850 
3377.050 3688928 3704007 3714534 3719024 3716432 3706375 3689654 3668074 
3380.907 3644320 3621389 3602108 3588290 3580751 3579067 3582104 3588256 
3384.765 3596007 3603945 3610815 3615446 3617087 3615417 3610997 3605368 
3388.622 3600899 3600238 3605353 3616859 3633516 3652446 3670015 3682946 
3392.479 3689428 3689664 3685808 3680878 3677953 3679018 3684754 3694598 
3396.337 3707354 3722099 3738523 3756998 3778148 3802103 3828080 3854195 
3400.194 3877639 3895354 3904978 3905277 3896734 3881326 3862442 3843938 
3404.052 3829586 3822384 3823944 3834455 3852671 3876561 3903856 3932647 
3407.909 3961834 3991000 4020123 4048863 4076340 4100983 4121105 4135587 
3411.767 4144646 4150161 4155341 4163627 4177698 4198162 4223383 4250094 
3415.624 4274418 4293580 4306770 4315560 4323269 4333696 4349748 4372537 
3419.481 4400984 4432515 4463967 4492583 4516762 4536052 4551083 4562809 
3423.339 4572177 4579934 4586522 4592412 4598126 4604474 4612171 4621954 
3427.196 4634085 4648456 4664578 4681622 4698695 4714742 4728836 4740260 
3431.054 4748532 4753635 4756076 4756650 4756414 4756166 4756294 4756386 
3434.911 4755538 4752328 4745509 4734246 4718561 4699184 4677629 4655625 
3438.769 4634781 4616061 4599866 4585642 4572344 4558515 4543096 4525394 
3442.626 4505620 4484725 4464241 4445586 4429739 4416745 4405617 4394758 
3446.483 4382239 4366707 4347656 4325639 4301868 4277905 4255151 4234380 
3450.341 4215994 4199980 4186220 4174610 4164891 4156546 4148587 4139661 
3454.198 4128322 4113687 4095872 4076102 4056446 4039282 4026338 4018086 
3458.056 4013564 4010839 4007561 4001905 3993044 3981145 3967300 3952722 
3461.913 3938378 3924690 3911717 3899331 3887497 3876437 3866516 3857925 
3465.771 3850581 3843942 3837325 3830034 3821763 3812654 3803342 3794689 
3469.628 3787554 3782775 3780848 3782057 3786593 3794137 3804197 3815689 
3473.485 3827349 3837856 3846159 3851936 3855519 3857837 3859731 3861709 
3477.343 3863497 3864115 3862452 3857714 3850077 3840783 3831748 3824957 
3481.200 3821618 3821829 3824488 3827715 3829855 3830018 3828476 3826555 
3485.058 3826078 3828419 3834126 3842499 3851977 3860570 3866652 3869617 
3488.915 3869938 3869097 3869098 3871650 3877796 3887328 3898939 3910518 
3492.772 3919869 3925221 3925988 3922883 3917626 3912593 3909782 3910048 
3496.630 3912988 3916869 3919454 3918793 3914064 3906087 3897192 3890412 
3500.487 3888485 3892971 3903874 3919364 3936789 3953231 3966618 3976018 
3504.345 3981785 3985241 3988019 3991310 3995818 4001282 4007188 4012810 
3508.202 4017741 4022101 4026629 4032304 4040107 4050491 4063389 4077807 
3512.060 4092160 4104629 4113490 4117547 4116593 4111248 4102959 4093664 
3515.917 4085276 4079566 4077827 4080636 4088127 4099715 4114612 4131347 
3519.774 4148268 4163602 4175583 4182822 4184546 4180657 4171934 4159970 
3523.632 4146901 4135088 4126824 4124089 4128073 4138971 4156092 4177722 
3527.489 4201403 4224576 4244947 4260890 4271848 4278132 4280689 4280625 
3531.347 4278911 4276101 4272378 4267713 4262242 4256323 4250764 4246565 
3535.204 4244736 4246218 4251530 4260952 4274294 4291050 4310260 4330623 
3539.062 4350510 4368127 4382116 4391801 4397518 4400761 4403764 4408795 
3542.919 4417621 4430765 4447344 4465380 4482431 4496247 4505471 4509931 
3546.776 4510399 4508338 4505138 4501780 4498445 4494577 4489339 4481956 
3550.634 4472272 4460828 4449152 4439097 4432601 4430853 4433950 4440683 
3554.491 4448607 4454884 4456774 4452612 4442107 4426349 4407399 4387488 
3558.349 4368289 4350652 4334443 4319117 4304008 4288930 4274288 4260650 
3562.206 4248682 4238642 4230286 4223213 4217184 4212354 4209537 4209621 
3566.063 4213116 4219794 4228355 4236518 4241842 4242293 4236949 4226230 
3569.921 4211705 4195526 4179890 4166367 4155831 4148319 4143275 4139493 
3573.778 4135698 4130321 4121951 4109504 4092676 4072147 4049609 4027409 
3577.636 4008234 3994092 3986115 3984146 3986849 3992242 3998329 4003335 
3581.493 4006030 4005789 4002395 3995821 3986346 3974445 3961152 3947845 
3585.351 3936108 3927414 3922934 3922912 3926986 3934085 3943039 3952618 
3589.208 3962028 3970844 3979138 3987020 3995001 4003363 4012497 4022403 
3593.065 4032874 4042994 4051590 4057157 4058374 4054517 4045976 4034156 
3596.923 4021404 4010375 4003427 4002019 4006409 4015755 4028506 4042938 
3600.780 4057388 4070532 4081512 4089520 4094073 4094670 4091321 4084514 
3604.638 4075462 4065857 4057610 4052403 4051167 4053915 4060002 4068236 
3608.495 4077529 4087069 4096662 4106258 4115844 4125065 4133158 4139153 
3612.353 4142433 4143122 4142753 4143514 4148407 4159672 4178382 4203682 
3616.210 4232844 4261835 4286454 4303175 4310167 4307217 4295924 4278491 
3620.067 4257469 4235040 4213200 4193624 4178124 4168586 4166824 4173925 
3623.925 4189843 4213156 4241091 4270285 4297566 4320722 4338724 4351865 
3627.782 4361006 4367172 4370966 4372548 4371942 4369357 4365461 4361378 
3631.640 4358271 4356920 4357374 4358819 4359942 4359419 4356791 4352491 
3635.497 4347807 4344594 4344154 4347072 4352603 4358842 4363410 4363802 
3639.354 4358344 4346550 4329176 4308365 4287068 4268558 4255920 4250991 
3643.212 4254208 4264146 4277821 4291191 4300333 4302305 4296221 4283482 
3647.069 4267525 4252658 4243127 4241440 4247762 4259788 4273531 4284111 
3650.927 4287386 4280892 4264230 4238889 4207855 4174692 4142721 4114439 
3654.784 4091509 4074553 4063435 4057558 4055956 4057460 4060692 4064149 
3658.642 4066252 4065545 4061192 4052882 4041211 4027461 4013298 4000388 
3662.499 3989853 3982078 3976753 3973219 3970543 3968027 3965363 3962497 
3666.356 3959420 3956141 3952252 3947229 3940547 3931670 3920437 3906784 
3670.214 3890887 3872954 3853413 3832996 3813237 3796142 3784377 3780312 
3674.071 3785545 3799893 3821367 3846079 3869554 3887484 3897331 3898604 
3677.929 3892672 3882243 3870127 3858270 3847673 3837910 3828119 3817291 
3681.786 3804898 3791029 3776359 3761673 3747734 3734955 3723760 3714225 
3685.644 3706575 3701086 3697782 3696353 3696187 3696282 3695615 3693447 
3689.501 3689513 3684141 3678067 3671966 3666326 3661149 3656108 3650865 
3693.358 3645445 3640200 3636092 3634062 3634775 3638117 3643340 3648901 
3697.216 3653238 3655293 3654917 3652962 3650942 3650353 3652158 3656121 
3701.073 3660925 3664513 3665029 3661390 3653783 3643616 3633031 3623925 
3704.931 3617543 3613870 3612043 3610691 3608749 3605652 3601673 3597229 
3708.788 3592759 3587885 3581955 3573911 3563227 3550240 3536521 3524208 
3712.646 3515614 3512048 3513610 3518857 3525642 3531785 3535943 3537874 
3716.503 3538585 3539460 3542135 3547492 3555773 3566651 3579536 3593785 
3720.360 3608834 3624064 3638770 3651930 3662444 3669327 3672352 3671843 
3724.218 3668949 3664929 3661111 3658240 3656604 3655865 3655731 3655951 
3728.075 3656602 3657757 3659506 3661673 3663790 3665401 3666431 3667272 
3731.933 3668896 3672507 3679017 3688197 3698938 3708947 3715769 3717199 
3735.790 3712169 3700959 3685275 3667309 3649417 3633194 3619539 3608568 
3739.647 3600266 3594890 3593149 3596121 3604937 3620132 3641203 3666163 
3743.505 3691996 3714984 3731760 3740023 3739388 3731094 3717935 3703211 
3747.362 3690390 3682075 3680084 3684928 3696228 3712565 3732035 3752325 
3751.220 3771123 3786301 3796699 3801591 3801621 3797908 3792158 3785859 
3755.077 3780017 3774861 3770060 3764864 3758800 3751587 3743635 3735758 
3758.935 3728847 3723603 3720563 3720046 3722372 3727732 3736435 3748417 
3762.792 3763083 3779004 3794446 3807403 3816585 3821633 3823604 3824336 
3766.649 3825899 3829633 3835785 3843280 3850316 3854900 3855789 3852587 
3770.507 3845904 3836675 3825833 3813722 3800458 3785771 3769994 3753844 
3774.364 3738676 3726078 3717495 3713759 3715168 3721146 3731082 3744043 
3778.222 3759185 3775344 3791150 3804809 3814537 3818715 3816753 3808995 
3782.079 3796938 3782649 3768445 3756011 3746382 3739740 3735829 3734380 
3785.937 3735254 3738527 3744394 3752509 3762013 3771263 3778294 3781164 
3789.794 3778754 3771282 3760247 3748557 3739716 3737132 3743122 3758229 
3793.651 3780916 3807650 3833907 3854923 3867191 3869125 3861568 3847365 
3797.509 3830468 3814715 3802900 3795951 3793264 3792947 3792874 3791358 
3801.366 3787560 3781803 3775168 3768982 3764497 3762485 3763052 3765787 
3805.224 3769785 3773785 3776688 3777553 3776148 3772935 3769089 3766041 
3809.081 3765059 3766762 3770959 3776680 3782738 3788114 3792612 3796658 
3812.938 3801249 3807276 3815037 3824003 3832855 3839859 3843696 3843547 
3816.796 3839581 3832326 3822765 3811805 3800285 3789075 3779325 3772317 
3820.653 3769284 3770848 3776803 3785817 3796051 3805576 3813353 3819370 
3824.511 3824740 3830954 3839232 3849835 3861815 3873308 3882440 3887980 
3828.368 3889560 3887803 3883968 3878989 3873477 3867391 3860459 3852591 
3832.226 3844252 3836212 3829794 3826012 3825480 3828249 3833879 3841539 
3836.083 3850268 3858856 3865899 3869703 3868836 3862397 3850699 3835522 
3839.940 3820005 3807792 3802229 3805077 3816245 3833540 3853578 3872748 
3843.798 3888277 3898855 3904755 3907280 3908004 3908402 3909036 3909904 
3847.655 3910264 3909070 3905214 3897766 3886205 3870686 3852175 3832513 
3851.513 3814114 3799394 3790078 3786621 3788009 3792206 3796834 3800249 
3855.370 3802148 3803473 3805923 3811078 3819634 3830757 3842614 3852801 
3859.228 3859235 3860934 3858040 3851664 3843362 3834442 3825980 3818510 
3863.085 3812637 3809054 3808665 3812178 3819872 3831157 3844806 3858826 
3866.942 3871499 3881515 3888411 3892333 3893776 3893028 3890088 3884431 
3870.800 3875741 3864018 3850153 3835854 3823598 3815581 3813561 3818054 
3874.657 3828181 3841963 3856708 3869817 3879340 3884502 3885866 3885021 
3878.515 3884308 3886092 3892442 3904121 3920818 3940942 3962152 3981686 
3882.372 3997090 4006663 4009730 4006524 3998363 3986960 3974261 3961917 
3886.229 3951099 3942177 3934994 3928969 3923444 3917957 3912640 3907942 
3890.087 3904694 3903489 3904580 3907584 3911473 3914967 3917049 3917284 
3893.944 3915960 3914041 3912928 3913650 3916974 3922797 3930484 3939059 
3897.802 3947358 3954430 3959507 3962087 3961809 3958688 3953039 3945471 
3901.659 3936948 3928543 3921155 3915393 3911363 3908934 3907854 3908112 
3905.517 3909853 3913474 3919149 3926415 3934306 3941086 3944939 3944736 
3909.374 3940238 3932465 3923615 3916197 3912635 3914470 3922328 3935613 
3913.231 3953216 3973585 3995131 4016060 4034764 4049676 4059489 4063644 
3917.089 4062442 4057253 4050387 4044158 4040468 4040074 4042273 4045231 
3920.946 4046673 4044576 4038115 4027726 4014994 4002019 3990666 3982013 
3924.804 3976193 3972595 3970420 3969123 3968812 3970032 3973530 3979626 
3928.661 3987962 3997340 4006054 4012518 4015810 4015929 4014021 4011686 
3932.519 4010590 4011576 4014642 4018671 4022233 4023793 4022471 4018131 
3936.376 4011521 4003613 3995570 3988167 3981750 3976374 3971985 3968583 
3940.233 3966424 3965626 3966499 3968949 3972803 3977594 3982934 3988235 
3944.091 3992977 3996621 3998676 3998736 3996976 3993959 3990832 3989125 
3947.948 3990174 3994651 4002291 4011820 4021514 4029669 4035440 4038788 
3951.806 4040568 4041825 4043002 4043669 4042500 4037641 4027884 4013151 
3955.663 3994886 3975747 3959020 3947508 3943039 3945962 3955474 3969888 
3959.521 3987127 4005191 4022172 4036459 4046907 4053124 4055621 4055966 
3963.378 4056420 4059037 4065017 4073798 4083037 4089225 4088740 4079278 
3967.235 4060812 4035842 4008677 3984241 3966584 3957929 3958194 3965526 
3971.093 3977115 3990054 4002122 4012185 4019920 4025597 4029832 4033219 
3974.950 4036229 4039159 4042090 4044751 4046819 4047931 4048070 4047671 
3978.808 4047756 4049475 4053745 4060757 4069648 4078676 4085788 4089228 
3982.665 4088345 4083543 4076294 4068273 4060819 4054498 4049068 4043826 
3986.522 4038258 4032189 4026145 4020803 4016908 4014675 4014105 4014901 
3990.380 4017105 4021082 4027522 4037079 4049846 4065029 4081056 4095732 
3994.237 4107148 4113986 4115865 4113420 4107802 4100503 4093078 4086968 
3998.095 4083813 4084983 4091648 4104041 4121104 4140345 
##END=
