##TITLE=eSUN_ABS+_Black_Filament_r1_ATR-Corrected
##JCAMP-DX=5.01  $$ Nicolet v. 1
##DATATYPE=INFRARED SPECTRUM
##ORIGIN=Curtin University
##OWNER=Nicolet
##LONGDATE=2024/07/18
##TIME=10:25:58
##SPECTROMETER/DATA SYSTEM=Nicolet iS50
##DATA PROCESSING=
Ratio against background
%Transmittance->Absorbance
ATR Correction
Truncated
ElementMultiply or ElementDivide
##COMMENTS=
Number of sample scans: 32
Collection length: 47.27 sec
Sample gain: 1.0
Background collected on: Thu Jul 18 10:22:40 2024 (GMT+08:00);
Number of background scans: 32
Background gain: 1.0
Sample spacing:  1.000
Number of scan points: 16672
Resolution points: 8192
Number of FFT points: 65536
Apodization: N-B strong;
Phase correction: Mertz;
Laser frequency: 15798.3 cm-1
Number of rejected sample scans: 0
Number of rejected background scans: 0
Bench serial number: AUP1200105;
##RESOLUTION=4.000
##XUNITS=1/CM
##YUNITS=ABSORBANCE
##FIRSTX=400.163452
##LASTX=4000.187744
##FIRSTY=0.023547
##MAXX=4000.187744
##MINX=400.163452
##MAXY=0.380623
##MINY=0.007517
##XFACTOR=1.000000
##YFACTOR=1.000000E-009
##NPOINTS=7468
##DELTAX=0.482125
##ZPD=8192
##XYDATA=(X++(Y..Y))
400.163 23547402 24118712 24345926 24168250 23618102 22802848 21863490 
403.538 20932396 20102104 19415694 18875946 18465786 18167828 17975744 
406.913 17892220 17921234 18056112 18277330 18555242 18859796 19170472 
410.288 19481196 19798028 20129352 20476098 20823862 21143704 21398594 
413.663 21554532 21591506 21510610 21334942 21105158 20870530 20679198 
417.038 20568224 20556082 20636948 20779994 20935184 21044890 21059024 
420.412 20949134 20716368 20390154 20017202 19645584 19309342 19019786 
423.787 18768310 18537716 18317692 18115076 17954684 17868646 17881230 
427.162 17994938 18185994 18413736 18637090 18834380 19012128 19201548 
430.537 19441208 19753668 20127250 20511956 20832136 21009214 20991152 
433.912 20771390 20391180 19927330 19468084 19089074 18835710 18718618 
437.286 18720410 18807786 18944134 19096352 19236842 19342630 19395266 
440.661 19384192 19310464 19191306 19057620 18947498 18894144 18916116 
444.036 19011044 19159166 19332458 19506812 19671218 19829140 19991956 
447.411 20168380 20353736 20526464 20653104 20700436 20648402 20500144 
450.786 20282226 20036980 19810500 19639698 19544246 19526406 19574322 
454.161 19669796 19793122 19925518 20048606 20142720 20187712 20166398 
457.535 20071010 19908682 19703404 19493282 19320992 19224114 19224882 
460.910 19325532 19509264 19746498 20003592 20251014 20469280 20649056 
464.285 20791462 20904292 20997612 21081002 21161248 21241200 21319956 
467.660 21393602 21456752 21504820 21536396 21554122 21564518 21575848 
471.035 21594712 21623310 21657850 21690762 21713942 21723898 21723978 
474.409 21725066 21740500 21780548 21845872 21924764 21994976 22030584 
477.784 22011100 21929976 21798590 21644594 21504774 21414848 21400050 
481.159 21468842 21612492 21809266 22031542 22253690 22457272 22633040 
484.534 22780044 22902000 23004248 23090912 23163358 23220686 23259832 
487.909 23277408 23271244 23242344 23196338 23144992 23104966 23095498 
491.284 23133772 23229292 23379904 23570254 23773474 23957296 24091624 
494.658 24154740 24138432 24048908 23903556 23726124 23541174 23370628 
498.033 23232046 23138468 23099008 23118784 23197502 23327398 23492608 
501.408 23669856 23832178 23955144 24022826 24032698 23997012 23939998 
504.783 23891704 23880464 23926406 24037476 24209000 24426864 24672910 
508.158 24930518 25188448 25442846 25695492 25950970 26212004 26476812 
511.532 26737472 26981772 27197024 27375390 27518460 27639400 27761578 
514.907 27914132 28124154 28410190 28776518 29212198 29694236 30194372 
518.282 30686492 31153936 31592768 32011918 32429338 32866762 33343886 
521.657 33874192 34462964 35106564 35793976 36508420 37229716 37936352 
525.032 38607968 39228228 39787708 40286592 40736076 41157620 41580252 
528.406 42035820 42552760 43149648 43830176 44580128 45368856 46153944 
531.781 46889700 47537872 48076604 48506692 48851812 49152768 49457212 
535.156 49807632 50230880 50733344 51301248 51908392 52525144 53128700 
538.531 53708844 54269028 54822432 55385136 55968524 56574856 57194976 
541.906 57810848 58400180 58942668 59425064 59845088 60211980 60544392 
545.281 60866068 61199952 61563548 61964548 62401176 62864348 63342592 
548.655 63827320 64315564 64810744 65319084 65844872 66385508 66929756 
552.030 67458616 67950312 68385440 68751672 69044640 69266344 69421960 
555.405 69515816 69550280 69525624 69442552 69303304 69112120 68873232 
558.780 68588672 68256880 67873544 67434528 66939040 66391588 65800444 
562.155 65172756 64508400 63795760 63011892 62128016 61118912 59972480 
565.529 58695676 57314296 55866672 54394348 52933300 51509872 50140904 
568.904 48838960 47617384 46493308 45485640 44610260 43873040 43266320 
572.279 42769716 42355816 41998928 41682588 41402324 41162992 40971092 
575.654 40825848 40712848 40604400 40464696 40259964 39967708 39582968 
579.029 39118712 38600564 38059296 37522488 37009576 36530772 36087848 
582.404 35678376 35296684 34936148 34587940 34241312 33884148 33505314 
585.778 33098534 32665872 32218788 31777386 31366006 31007980 30719944 
589.153 30508348 30368218 30285134 30238534 30205480 30164514 30097960 
592.528 29994004 29847252 29658726 29436358 29192226 28941860 28699960 
595.903 28478380 28283480 28115102 27967872 27833150 27701498 27565984 
599.278 27423076 27273142 27119712 26968474 26825116 26694624 26580302 
602.652 26482952 26401116 26330890 26267284 26205584 26143246 26081558 
606.027 26025636 25983454 25962398 25966518 25993794 26035790 26080048 
609.402 26113800 26128654 26123508 26104656 26082910 26069132 26069780 
612.777 26084152 26105498 26124114 26132448 26129152 26121074 26121754 
616.152 26148198 26215516 26332320 26497650 26699990 26917626 27122256 
619.527 27282312 27368816 27360972 27251222 27048650 26778416 26476930 
622.901 26183968 25932854 25742768 25615220 25536970 25486640 25444570 
626.276 25400146 25354638 25318306 25303942 25318400 25358726 25411838 
629.651 25460052 25488392 25490968 25473532 25450284 25437750 25447308 
633.026 25481316 25532504 25588312 25636312 25669002 25685110 25688020 
636.401 25681278 25665536 25637424 25591280 25523438 25435646 25336816 
639.775 25240966 25162614 25111782 25090476 25091916 25103868 25113396 
643.150 25112420 25100426 25085074 25078988 25095906 25146100 25233260 
646.525 25353576 25496988 25649616 25797138 25927748 26033978 26114002 
649.900 26171098 26212384 26246936 26283520 26329426 26389562 26466528 
653.275 26561488 26674948 26806876 26956916 27123812 27305180 27497748 
656.650 27698058 27903668 28114110 28331442 28559788 28803966 29068866 
660.024 29357834 29672414 30012392 30375802 30759258 31158026 31566292 
663.399 31978212 32388940 32796938 33204514 33617892 34044960 34492300 
666.774 34961376 35447068 35937340 36417244 36873528 37299580 37698580 
670.149 38082696 38470028 38878780 39322860 39808508 40333604 40890336 
673.524 41467976 42056356 42647508 43237184 43823836 44409036 44996776 
676.898 45593296 46206604 46845408 47517404 48227940 48979708 49773320 
680.273 50610028 51493692 52433436 53443484 54542200 55749112 57082356 
683.648 58556316 60181760 61966820 63918344 66044420 68355736 70867240 
687.023 73600528 76587664 79875224 83530704 87647488 92349200 97790840 
690.398 104159088 111667944 120552320 131057856 143424832 157865888 
693.290 174534512 193485360 214624880 237657584 262035168 286924224 
696.183 311215232 333595872 352706624 367357344 376750176 380623008 
699.076 379255296 373342528 363802336 351593024 337585696 322501824 
701.969 306897792 291176160 275609568 260366416 245538016 231163296 
704.861 217250816 203796096 190794416 178246992 166162992 154558208 
707.754 143451648 132863504 122813296 113319304 104399096 96069856 88348080 
711.129 81248224 74780760 68949456 63749216 59163860 55165960 51717924 
714.504 48773840 46283560 44196112 42463100 41040384 39888524 38971260 
717.878 38254216 37703080 37283216 36961144 36706876 36496788 36315224 
721.253 36155616 36018772 35910664 35839064 35811168 35831844 35903076 
724.628 36024684 36195188 36412504 36674756 36979860 37325768 37709912 
728.003 38129812 38582700 39067176 39582800 40131228 40715912 41341928 
731.378 42015184 42741796 43527328 44376176 45291156 46273556 47322556 
734.752 48435196 49605432 50824192 52078864 53354880 54636328 55909444 
738.127 57164448 58397856 59613124 60819956 62031724 63263012 64526612 
741.502 65832712 67188800 68600968 70075880 71622232 73251048 74975416 
744.877 76808592 78762624 80846488 83065512 85420752 87909736 90526992 
748.252 93265104 96116216 99073488 102132824 105293432 108557864 111930504 
751.627 115413848 119005848 122695824 126462848 130274936 134090232 
754.519 137859504 141527360 145034288 148317520 151311776 153951440 
757.412 156174032 157925408 159165152 159870944 160040576 159690896 
760.305 158854224 157572416 155891024 153854864 151504496 148875632 
763.197 145999216 142903696 139617296 136170320 132596928 128935024 
766.090 125225320 121508664 117822752 114199176 110661024 107222256 
768.983 103888272 100657880 97524872 94480648 91515520 88619816 85784720 
772.358 83004016 80274320 77597000 74977808 72426160 69953288 67568992 
775.732 65279172 63084544 60980264 58958680 57012616 55138812 53339220 
779.107 51621696 49996488 48472964 47055664 45742224 44523852 43387888 
782.482 42321576 41315624 40365768 39472040 38636188 37858344 37134656 
785.857 36456804 35814424 35198008 34602320 34028096 33481040 32968394 
789.232 32495942 32063932 31666740 31295110 30939368 30593920 30259630 
792.606 29943088 29654190 29401446 29187828 29009434 28856538 28717326 
795.981 28582206 28447772 28317692 28201876 28112508 28060616 28052882 
799.356 28091064 28172842 28293542 28449550 28638880 28862154 29121748 
802.731 29420550 29761418 30145446 30571792 31037892 31538996 32068528 
806.106 32618414 33180814 33748320 34316348 34883460 35452168 36027996 
809.481 36618136 37229412 37866624 38530832 39218584 39921308 40626384 
812.855 41317940 41978956 42593952 43150648 43642316 44067652 44429348 
816.230 44732092 44979856 45174480 45316608 45408196 45455580 45473128 
819.605 45482816 45512508 45590492 45740512 45978456 46311532 46742072 
822.980 47271984 47907424 48660164 49544756 50572072 51741488 53035740 
826.355 54419432 55844052 57256244 58608340 59866064 61011312 62039888 
829.729 62954336 63755488 64436256 64979100 65358640 65548696 65530492 
833.104 65299764 64870260 64273944 63554920 62761664 61938080 61117016 
836.479 60316832 59542488 58790144 58053448 57329764 56623276 55945360 
839.854 55311188 54734848 54224852 53781172 53395484 53053680 52739276 
843.229 52437028 52134212 51820172 51485156 51118432 50708684 50245056 
846.604 49719892 49131764 48486424 47796172 47076848 46343552 45606852 
849.978 44869844 44128652 43374324 42596556 41787900 40946508 40077728 
853.353 39192852 38306504 37433908 36587100 35774148 34998728 34261820 
856.728 33564452 32909046 32300532 31745236 31248438 30811992 30431702 
860.103 30097974 29796840 29514102 29238008 28962600 28688570 28422152 
863.478 28172996 27951452 27766134 27622818 27523454 27466064 27444982 
866.852 27451420 27474038 27501190 27523430 27535988 27540522 27545104 
870.227 27562174 27604962 27683354 27801918 27959078 28149366 28366462 
873.602 28605856 28866094 29148384 29453934 29783048 30133694 30502774 
876.977 30888572 31292156 31718176 32173012 32661792 33185490 33739772 
880.352 34315996 34905588 35502992 36109620 36732360 37381348 38064724 
883.727 38784504 39533932 40297872 41056136 41786844 42470036 43088768 
887.101 43628328 44075328 44416472 44637592 44725340 44668292 44459100 
890.476 44095576 43582664 42932964 42167792 41317376 40419312 39515252 
893.851 38645880 37845192 37136160 36528884 36022936 35612456 35293140 
897.226 35067232 34945532 34945420 35085936 35382020 35840508 36459652 
900.601 37230676 38142300 39183384 40345432 41620880 43001756 44477588 
903.975 46034964 47658352 49331900 51040516 52768436 54497296 56202140 
907.350 57849880 59399860 60807112 62027840 63025272 63773124 64257168 
910.725 64473868 64428584 64133608 63606844 62871880 61957072 60894320 
914.100 59716084 58451968 57125816 55754664 54350140 52921380 51478280 
917.475 50033812 48604348 47207352 45858700 44570028 43347708 42193804 
920.849 41107848 40089624 39139888 38260248 37451500 36712092 36037340 
924.224 35420020 34852996 34331688 33855952 33430762 33064258 32765564 
927.599 32541286 32393098 32316982 32303282 32338928 32409858 32503106 
930.974 32609076 32722026 32840088 32963880 33094686 33232954 33376556 
934.349 33521272 33661384 33791892 33910788 34020804 34129212 34246688 
937.724 34384504 34551452 34751428 34982684 35238688 35509984 35787372 
941.098 36063192 36333300 36596480 36853596 37106792 37358096 37609484 
944.473 37862624 38119200 38381236 38651624 38933660 39231660 39550996 
947.848 39898200 40280920 40706944 41183548 41716168 42307292 42956220 
951.223 43660452 44417268 45226792 46094748 47033592 48062516 49205104 
954.598 50485300 51923560 53532588 55316340 57270376 59385292 61649920 
957.972 64054772 66593184 69259936 72046592 74936744 77901648 80898896 
961.347 83873344 86762488 89501768 92031048 94297632 96258056 97877096 
964.722 99127136 99987864 100446736 100501544 100161472 99447704 98391600 
968.097 97032080 95411448 93573080 91558272 89406488 87153912 84834224 
971.472 82477376 80109936 77754944 75433000 73164200 70969280 68870632 
974.847 66891076 65050864 63364760 61837464 60463772 59229444 58115408 
978.221 57103716 56181740 55344548 54594432 53937000 53377180 52915192 
981.596 52544628 52253948 52029032 51856796 51727896 51637856 51587152 
984.971 51579048 51618256 51709744 51857276 52063540 52329872 52656664 
988.346 53041528 53480604 53966904 54490772 55039152 55595336 56139212 
991.721 56647956 57098220 57469292 57746532 57924932 58010628 58019700 
995.095 57974964 57902572 57827764 57774428 57766288 57830020 57998348 
998.470 58310112 58806328 59523296 60484272 61691332 63122780 64734584 
1001.845 66467428 68255632 70035856 71752928 73362704 74831984 76136824 
1005.220 77262816 78206368 78977608 79602864 80127816 80617504 81156928 
1008.595 81849640 82816760 84191224 86109016 88690896 92017144 96096328 
1011.970 100835048 106017176 111302320 116252960 120387456 123257344 
1014.862 124527056 124037416 121831776 118138272 113315616 107780888 
1017.755 101940464 96140448 90642224 85618952 81168304 77329768 74102440 
1021.130 71458472 69352288 67728208 66525980 65685928 65154060 64884148 
1024.505 64837256 64978740 65272988 65679476 66149368 66627032 67052468 
1027.880 67365568 67511840 67445416 67132280 66552080 65699740 64586656 
1031.255 63241244 61707308 60040724 58304612 56561952 54870212 53276636 
1034.630 51816004 50510792 49371944 48401380 47593344 46935164 46409324 
1038.006 45994452 45668112 45409952 45203656 45039072 44911424 44820100 
1041.381 44765396 44746792 44761460 44804600 44870272 44953180 45049416 
1044.756 45155744 45269316 45386036 45499752 45603224 45689408 45753708 
1048.131 45796036 45821520 45839240 45861340 45899496 45963220 46058392 
1051.507 46187252 46349248 46543244 46767912 47023996 47313052 47637136 
1054.882 47996632 48389208 48808756 49246596 49692800 50138888 50580564 
1058.257 51019120 51461080 51916608 52396712 52909520 53459116 54044160 
1061.632 54659424 55297336 55950432 56612500 57278124 57943148 58603096 
1065.008 59253304 59889176 60507000 61104936 61682416 62239224 62773420 
1068.383 63280516 63753320 64184136 64567564 64904100 65202840 65481984 
1071.758 65767424 66090988 66489040 67001180 67671304 68548136 69684096 
1075.133 71131248 72932704 75112776 77664320 80539592 83645232 86844368 
1078.509 89966256 92821144 95220480 96997344 98025152 98230536 97600432 
1081.884 96180744 94068200 91397640 88325520 85014960 81620968 78279616 
1085.259 75100920 72164200 69519704 67189584 65174104 63457132 62012612 
1088.634 60810000 59818800 59011284 58364320 57859492 57482280 57221252 
1092.010 57066852 57010524 57044260 57159836 57349708 57606292 57923880 
1095.385 58298604 58729088 59216792 59764484 60374308 61044780 61767580 
1098.760 62525308 63291072 64030952 64707568 65285748 65737860 66046572 
1102.135 66206960 66224524 66113724 65894640 65591244 65229832 64837456 
1105.510 64440816 64062492 63717760 63411436 63135816 62872060 62593528 
1108.886 62272024 61884344 61416584 60866708 60242708 59559684 58834304 
1112.261 58081852 57313700 56537420 55758832 54983476 54218500 53472952 
1115.636 52756456 52078176 51444412 50858348 50319188 49823532 49366368 
1119.011 48942572 48548356 48182280 47845700 47542792 47279900 47064304 
1122.387 46903016 46801436 46761068 46780028 46851924 46967728 47116768 
1125.762 47289000 47477292 47678652 47894776 48131800 48398208 48702980 
1129.137 49052304 49448296 49887636 50361964 50860328 51371764 51887908 
1132.512 52405500 52926528 53457868 54008888 54588704 55204536 55859820 
1135.888 56555048 57288796 58059336 58866872 59714548 60608432 61557316 
1139.263 62570728 63657940 64826356 66080628 67423208 68854200 70373368 
1142.638 71981096 73679264 75472120 77365880 79368120 81487160 83731104 
1146.013 86108504 88628016 91300080 94137296 97154104 100366528 103790816 
1149.389 107440520 111326480 115453608 119821552 124423640 129247368 
1152.282 134276000 139489488 144869232 150402144 156086096 161934704 
1155.175 167979696 174268976 180860080 187810128 195161680 202929712 
1158.068 211089408 219567664 228237104 236917024 245377472 253349360 
1160.961 260539408 266651632 271411040 274589664 276026560 275641792 
1163.854 273438336 269496960 263962656 257031376 248935168 239930864 
1166.747 230288928 220282480 210175072 200209216 190595456 181505456 
1169.640 173069584 165378384 158488880 152430832 147214464 142834704 
1172.533 139273920 136503712 134484368 133166224 132491248 132395624 
1175.426 132812408 133673312 134910832 136458880 138254768 140241536 
1178.319 142372496 144615344 146956784 149404576 151988128 154756608 
1181.212 157774336 161116416 164862752 169092768 173879712 179284144 
1184.105 185347920 192088032 199492224 207515984 216082656 225086176 
1186.999 234395184 243857616 253306592 262565760 271455264 279800032 
1189.892 287435904 294218400 300027648 304771872 308388992 310845984 
1192.785 312137696 312284864 311330688 309337184 306379008 302538432 
1195.678 297899136 292544032 286552736 280001856 272966688 265522304 
1198.571 257745120 249713408 241508016 233212528 224912400 216694240 
1201.464 208642752 200839584 193360192 186272912 179638976 173513248 
1204.357 167944240 162974720 158640128 154967008 151970752 149654816 
1207.250 148011216 147022368 146664208 146910192 147732704 149105312 
1210.143 151002032 153396688 156261264 159566112 163280016 167370848 
1213.036 171807008 176556048 181584976 186857280 192331472 197961584 
1215.929 203697504 209488832 215286880 221047424 226730272 232297248 
1218.822 237710432 242930192 247916864 252633840 257051824 261152416 
1221.715 264927984 268379504 271511424 274327264 276825824 279002656 
1224.608 280852928 282375232 283574912 284465248 285066656 285402016 
1227.501 285495360 285368000 285038368 284522688 283835008 282987520 
1230.395 281992480 280860896 279604416 278235744 276768128 275216256 
1233.288 273594464 271914912 270185664 268411632 266594208 264734064 
1236.181 262833088 260895792 258928832 256939056 254931360 252907424 
1239.074 250866000 248804672 246722752 244624096 242515888 240408288 
1241.967 238308832 236219552 234133792 232036640 229906848 227721856 
1244.860 225461920 223113280 220668240 218123280 215476912 212725744 
1247.753 209862832 206878336 203760816 200500544 197091952 193536304 
1250.646 189841328 186020912 182091904 178072144 173977024 169819200 
1253.539 165608176 161352112 157059408 152740784 148410608 144086160 
1256.432 139787120 135533824 131344768 127236872 123224104 119317800 
1259.325 115527768 111862984 108332600 104946248 101714656 98648464 95757816 
1262.700 93050704 90531272 88198072 86043864 84056168 82217904 80511400 
1266.076 78920184 77432048 76040024 74742976 73543800 72446920 71455448 
1269.451 70569616 69784984 69093456 68484376 67946648 67470304 67047632 
1272.826 66673040 66343276 66055752 65808416 65599316 65425940 65286204 
1276.201 65177740 65098220 65044804 65014280 65003448 65009684 65031812 
1279.577 65070004 65126368 65202892 65300472 65418264 65552288 65697036 
1282.952 65846644 65997220 66148208 66302820 66466728 66645400 66841856 
1286.327 67054456 67276616 67498056 67707376 67894672 68053536 68181672 
1289.702 68279096 68346392 68382072 68380984 68335072 68234616 68071248 
1293.078 67840336 67542944 67185672 66779444 66337020 65870592 65390044 
1296.453 64902180 64411440 63920440 63431756 62948732 62475740 62018332 
1299.828 61582836 61176420 60805912 60478244 60199264 59973420 59803212 
1303.203 59687952 59625184 59610172 59637588 59702148 59799524 59926056 
1306.579 60077244 60247136 60426144 60600684 60754280 60868564 60926384 
1309.954 60914032 60823044 60651632 60403856 60088816 59719216 59310092 
1313.329 58877160 58435768 58000088 57581796 57189584 56828500 56499904 
1316.704 56202116 55931264 55682144 55450192 55231684 55024500 54828584 
1320.080 54645644 54478164 54328508 54198596 54088164 53995384 53916356 
1323.455 53846380 53781456 53719024 53659020 53603884 53557088 53521580 
1326.830 53498680 53486660 53482052 53480312 53477412 53471212 53462036 
1330.205 53451308 53440260 53429616 53418052 53403696 53385452 53364760 
1333.581 53345644 53335024 53340096 53366488 53416812 53489492 53580620 
1336.956 53685992 53802624 53930960 54074392 54237960 54426660 54643216 
1340.331 54887236 55155224 55441492 55739952 56044128 56349100 56651416 
1343.706 56948084 57237812 57520284 57795832 58065960 58331940 58595032 
1347.082 58855592 59112976 59366056 59613468 59853904 60086992 60312384 
1350.457 60529992 60740164 60943088 61139832 61332824 61525644 61722356 
1353.832 61927272 62142560 62369424 62608040 62859036 63127144 63422560 
1357.207 63761672 64166404 64661064 65267764 66001736 66866816 67852832 
1360.583 68934264 70069752 71205136 72276328 73214408 73953160 74435576 
1363.958 74622416 74496672 74066552 73364016 72439704 71355664 70177552 
1367.333 68965464 67769400 66625640 65556556 64571852 63673212 62855908 
1370.708 62113096 61437724 60823376 60265540 59760692 59305800 58897256 
1374.083 58529308 58193620 57878624 57570344 57254604 56919504 56558680 
1377.459 56173020 55772268 55373520 54998556 54669388 54404660 54215664 
1380.834 54105312 54068856 54095440 54172052 54284472 54420052 54566480 
1384.209 54711120 54838872 54931988 54970416 54934892 54810120 54588104 
1387.584 54270524 53867752 53397016 52878504 52331132 51770648 51208104 
1390.960 50650728 50102576 49566676 49046144 48544332 48064740 47611900 
1394.335 47189704 46802720 46455168 46150940 45892568 45680840 45514340 
1397.710 45389736 45302212 45248088 45224780 45232720 45274884 45355928 
1401.085 45480984 45654884 45881636 46164896 46507460 46911896 47378324 
1404.461 47903888 48480372 49093844 49725080 50352200 50952932 51507952 
1407.836 52002400 52426280 52773960 53042152 53229184 53334908 53360632 
1411.211 53310672 53193016 53018732 52801868 52557900 52302000 52048108 
1414.586 51807612 51588780 51395776 51228300 51080592 50943172 50803484 
1417.962 50649604 50472188 50268536 50043188 49808016 49579720 49377124 
1421.337 49217632 49116384 49085128 49132596 49265420 49488788 49806776 
1424.712 50222540 50738972 51359292 52087008 52926688 53882668 54957720 
1428.087 56151008 57457016 58865016 60360532 61927236 63548944 65211832 
1431.463 66904472 68618048 70346192 72084232 73829592 75581800 77342464 
1434.838 79114216 80900368 82703680 84526608 86372088 88244728 90152592 
1438.213 92107136 94122936 96215992 98402320 100696920 103114264 105668928 
1441.588 108376928 111255200 114319976 117583744 121052824 124724104 
1444.481 128586544 132622752 136813600 141143376 145603648 150197680 
1447.375 154942128 159865552 165002592 170380160 175994048 181780336 
1450.268 187584336 193137760 198057824 201874928 204092848 204272192 
1453.161 202112912 197516976 190609536 181722192 171343504 160054224 
1456.054 148456432 137106976 126461920 116842560 108423304 101248344 
1458.947 95261232 90343544 86347472 83121336 80522424 78423464 76713536 
1462.322 75297552 74095944 73044072 72091520 71200912 70345248 69506544 
1465.697 68672728 67837384 66999184 66162332 65336788 64536468 63776932 
1469.073 63071372 62424516 61830080 61267572 60703976 60098072 59408376 
1472.448 58602328 57664884 56603736 55449868 54251960 53068092 51955404 
1475.823 50961020 50115800 49432464 48907728 48527700 48274396 48131960 
1479.198 48090660 48149084 48313004 48593972 49006708 49566696 50290116 
1482.573 51192504 52289156 53596784 55133132 56918304 58975712 61333300 
1485.949 64026444 67102672 70627440 74690416 79408272 84920224 91370600 
1489.324 98878488 107493744 117147296 127606896 138454032 149093328 
1492.217 158803616 166828304 172490608 175310816 175095920 171979888 
1495.110 166401136 159021872 150615104 141942752 133659184 126250968 
1498.003 120020304 115099984 111488896 109092112 107757592 107304104 
1500.896 107541952 108286064 109364568 110624208 111931792 113172304 
1503.789 114245224 115059104 115528632 115574520 115128096 114137912 
1506.682 112578536 110453944 107798824 104673344 101155152 97332376 93296008 
1510.058 89135736 84937312 80778776 76728528 72842432 69162016 65714248 
1513.433 62512660 59560576 56853692 54383144 52136600 50100132 48258032 
1516.808 46593756 45091148 43734316 42510044 41407144 40416696 39531304 
1520.183 38743772 38046792 37432036 36890248 36412576 35990240 35616748 
1523.559 35286528 34996084 34742484 34522452 34331000 34161416 34004700 
1526.934 33852128 33695768 33531730 33360750 33189446 33027504 32886318 
1530.309 32775548 32700996 32663282 32658528 32680168 32720856 32774266 
1533.684 32836300 32903920 32975864 33050194 33125002 33198364 33268504 
1537.060 33334292 33395626 33452228 33504036 33549920 33588428 33618584 
1540.435 33640112 33655096 33667296 33680940 33700608 33729636 33769592 
1543.810 33820644 33881904 33951660 34027956 34108512 34190844 34271988 
1547.185 34349132 34421040 34488132 34552780 34619896 34695000 34784588 
1550.561 34893656 35027324 35189528 35383672 35611704 35872884 36161464 
1553.936 36465484 36766504 37042080 37268644 37425660 37498796 37481076 
1557.311 37372812 37180084 36911712 36579884 36197816 35781520 35349548 
1560.686 34921888 34518840 34157364 33848580 33595344 33391986 33226650 
1564.062 33083770 32949052 32812368 32669530 32522056 32375724 32237828 
1567.437 32116090 32016564 31943898 31901422 31891062 31913452 31968024 
1570.812 32052234 32162864 32295798 32447446 32614574 32795292 32988410 
1574.187 33194668 33416058 33657544 33927996 34240916 34614432 35069540 
1577.563 35628104 36309380 37126040 38081000 39164160 40350248 41597312 
1580.938 42848976 44037876 45092708 45946308 46545660 46858544 46879276 
1584.313 46629984 46156940 45523844 44802576 44063764 43369336 42767852 
1587.688 42293836 41968096 41799672 41787864 41923480 42190136 42567212 
1591.063 43031216 43560420 44137724 44753884 45408700 46111500 46879716 
1594.439 47737164 48711048 49831232 51126708 52623252 54338808 56278616 
1597.814 58428836 60751400 63180908 65624824 67967864 70081424 71835104 
1601.189 73110904 73815544 73891544 73323600 72140568 70411968 68240912 
1604.564 65750956 63072348 60327756 57620856 55029532 52606000 50378520 
1607.940 48358340 46546180 44936352 43520596 42287980 41224612 40313488 
1611.315 39534632 38867116 38291708 37792796 37360136 36988304 36674052 
1614.690 36415032 36205096 36035156 35892940 35765548 35641700 35514592 
1618.065 35381512 35243744 35103668 34963420 34823736 34684892 34547296 
1621.441 34414436 34291956 34188388 34112020 34068584 34059048 34079724 
1624.816 34122100 34177728 34238864 34302584 34370416 34448012 34542200 
1628.191 34659504 34804328 34978968 35183140 35416896 35680900 35978472 
1631.566 36314736 36697756 37136756 37641320 38219384 38873844 39600032 
1634.942 40382592 41193992 41995324 42741004 43384204 43882912 44205984 
1638.317 44335568 44267544 44011148 43586260 43021780 42352424 41615860 
1641.692 40849752 40087836 39357528 38678196 38060468 37506532 37013144 
1645.067 36573680 36181032 35830232 35518396 35244804 35009624 34811868 
1648.443 34649656 34518972 34415980 34336740 34278860 34240848 34221584 
1651.818 34219404 34231804 34254944 34284760 34318552 34354428 34391928 
1655.193 34431408 34472916 34515024 34554960 34589788 34616568 34634004 
1658.568 34642640 34645440 34646968 34652656 34667684 34696692 34742572 
1661.944 34806336 34886492 34980056 35082188 35188140 35294160 35398392 
1665.319 35500088 35599880 35696716 35787344 35865084 35921500 35948088 
1668.694 35940468 35900292 35836200 35762660 35695244 35647152 35624856 
1672.069 35626928 35645120 35667800 35683608 35685560 35671768 35645552 
1675.445 35613088 35579720 35548484 35518572 35486592 35448636 35403016 
1678.820 35351416 35300300 35258564 35236020 35240056 35273140 35331564 
1682.195 35406216 35483900 35551204 35596876 35615396 35608244 35583264 
1685.570 35551704 35525924 35515556 35525588 35557400 35607772 35672272 
1688.946 35746144 35825588 35907896 35991600 36076948 36164232 36254980 
1692.321 36351324 36456744 36575084 36710540 36866584 37045464 37246756 
1695.696 37468660 37706120 37952896 38201244 38443224 38671120 38879092 
1699.071 39065088 39232040 39388364 39548004 39726376 39939100 40196404 
1702.447 40502848 40856264 41250664 41677200 42128708 42599756 43089496 
1705.822 43600304 44137968 44709088 45321892 45982664 46697164 47468492 
1709.197 48297828 49184576 50128052 51128840 52190924 53321108 54529420 
1712.572 55825384 57216780 58706584 60293816 61974760 63747832 65615960 
1715.948 67589840 69687048 71927344 74328712 76901064 79643160 82544288 
1719.323 85586848 88751288 92020616 95380936 98821704 102333064 105902368 
1722.698 109514968 113151456 116790416 120407528 123977000 127470776 
1725.591 130858120 134106456 137184496 140064736 142726320 145155408 
1728.484 147343552 149283280 150964016 152369168 153478112 154269584 
1731.377 154726928 154842512 154618320 154063360 153189600 152007584 
1734.270 150523856 148740800 146659904 144285040 141624160 138691600 
1737.163 135507120 132096528 128491328 124728200 120848056 116891776 
1740.056 112898240 108898904 104918024 100973528 97082384 93264512 89547216 
1743.432 85964760 82555448 79355840 76395216 73691040 71249592 69067776 
1746.807 67137672 65449060 63993184 62761112 61742368 60923812 60288188 
1750.182 59815244 59484588 59277880 59181912 59190232 59301804 59519828 
1753.557 59850828 60301324 60877904 61587276 62433628 63420860 64551456 
1756.933 65827444 67253032 68835128 70587616 72528384 74679544 77062176 
1760.308 79692064 82574584 85704800 89066840 92640520 96404288 100340816 
1763.683 104436512 108680896 113060560 117555840 122137632 126767384 
1766.576 131398424 135980512 140464112 144802816 148954336 152881200 
1769.469 156549136 159926192 162982096 165689504 168024192 169966960 
1772.362 171503792 172629024 173343904 173658208 173589120 173160224 
1775.255 172398800 171333632 169991664 168396688 166567280 164517152 
1778.148 162256080 159792208 157133984 154291312 151276608 148104640 
1781.042 144791456 141355216 137813952 134187520 130496040 126760288 
1783.935 123000296 119233912 115475424 111735528 108021672 104340096 
1786.828 100698576 97107856 93582432 90138536 86792416 83556680 80439072 
1790.203 77441648 74562984 71800720 69153088 66621132 64208248 61919324 
1793.578 59758712 57729804 55833464 54069016 52433004 50920656 49523860 
1796.953 48232972 47036780 45923700 44883636 43909224 42995252 42139904 
1800.329 41343028 40605436 39929536 39318636 38776544 38306236 37906760 
1803.704 37571104 37284432 37025864 36771832 36503504 36211064 35898156 
1807.079 35579132 35274344 35001156 34767812 34569988 34393400 34219020 
1810.454 34031548 33824040 33599064 33365264 33131354 32899950 32666490 
1813.830 32420826 32153628 31861276 31551354 31240948 30953724 30711700 
1817.205 30530386 30414234 30357382 30346644 30366090 30399828 30434140 
1820.580 30457376 30458792 30430666 30368524 30273346 30151080 30010708 
1823.955 29860300 29703368 29537730 29356474 29153948 28930402 28696826 
1827.331 28473110 28283100 28145882 28069122 28044440 28051202 28061920 
1830.706 28052226 28008014 27926504 27813274 27678182 27527950 27365346 
1834.081 27191618 27011490 26836148 26684960 26578628 26532322 26547092 
1837.456 26606490 26679834 26730796 26730500 26664284 26536274 26365996 
1840.832 26178900 25997608 25835928 25698650 25585342 25495060 25430280 
1844.207 25395680 25393554 25419690 25460860 25499084 25519130 25515052 
1847.582 25496058 25482548 25497222 25554280 25649070 25758664 25847554 
1850.957 25883994 25851712 25760742 25644136 25546872 25507568 25545714 
1854.333 25653076 25798256 25938642 26037270 26075036 26054484 25997764 
1857.708 25936308 25898218 25901884 25951602 26041180 26157100 26283916 
1861.083 26406674 26512872 26592288 26639988 26657604 26655888 26654042 
1864.458 26675812 26741080 26860428 27027540 27220534 27406820 27554704 
1867.833 27642496 27667436 27644400 27602640 27573806 27583546 27642402 
1871.209 27745366 27874314 28004498 28112416 28182552 28210950 28206828 
1874.584 28189784 28187062 28225512 28326852 28499268 28737120 29016988 
1877.959 29306252 29567356 29768626 29890904 29929782 29895322 29806286 
1881.334 29683348 29544586 29401508 29261422 29129430 29011814 28916788 
1884.710 28854518 28832526 28852840 28907476 28979496 29044362 29075818 
1888.085 29051680 28961276 28808340 28613086 28408508 28231944 28115818 
1891.460 28078632 28117704 28210584 28321112 28411508 28454012 28439944 
1894.835 28380764 28302778 28234634 28197338 28195734 28220268 28251904 
1898.211 28273662 28277850 28269792 28260684 28264926 28288258 28324966 
1901.586 28360838 28378660 28366088 28318592 28239296 28134634 28008850 
1904.961 27861938 27690562 27494778 27281120 27065454 26867426 26704466 
1908.336 26583370 26497422 26428028 26354746 26262616 26149480 26024014 
1911.712 25900726 25787716 25683292 25572024 25435876 25261698 25052486 
1915.087 24828386 24622864 24468342 24383672 24365280 24385930 24403452 
1918.462 24375288 24271962 24087940 23843580 23579534 23348168 23200130 
1921.837 23172954 23282110 23513592 23828580 24168380 24468888 24676114 
1925.213 24760740 24722516 24585614 24381564 24134540 23842918 23483444 
1928.588 23021016 22433358 21731644 20973064 20248808 19663008 19295294 
1931.963 19176324 19277216 19524394 19828562 20122814 20381256 20624528 
1935.338 20898226 21241998 21661316 22117608 22534936 22830952 22943336 
1938.714 22856766 22606668 22270006 21941296 21709134 21638970 21764544 
1942.089 22083776 22569324 23165354 23797924 24379688 24827964 25079106 
1945.464 25110356 24944706 24657022 24348446 24125598 24067034 24206096 
1948.839 24526888 24976396 25484738 25989764 26449914 26849142 27187706 
1952.215 27473986 27709422 27885382 27975882 27945716 27752718 27359748 
1955.590 26750292 25941840 24999094 24041398 23223882 22715534 22646350 
1958.965 23060632 23884104 24923454 25910592 26578418 26734880 26338568 
1962.340 25511240 24513094 23670652 23289284 23571274 24569406 26171756 
1965.716 28146808 30192568 32013424 33371470 34132652 34268208 33841180 
1969.091 32971344 31805680 30485464 29129704 27832990 26671716 25702852 
1972.466 24972034 24495516 24267196 24239148 24348102 24524984 24743476 
1975.841 25026156 25455418 26129758 27118612 28397152 29831144 31205118 
1979.217 32296528 32955576 33152192 32971290 32573726 32119114 31704038 
1982.592 31327724 30895554 30265624 29321790 28028316 26476314 24861166 
1985.967 23446016 22482512 22156196 22533980 23562932 25079876 26854194 
1989.342 28618142 30116154 31133050 31532902 31282682 30469844 29281636 
1992.718 27979034 26829402 26043912 25723172 25837100 26242672 26739442 
1996.093 27139072 27327000 27287644 27098374 26882214 26761404 26806112 
1999.468 27017916 27326898 27623610 27783306 27691686 27257770 26426700 
2002.843 25180548 23553070 21632422 19576202 17593130 15921045 14773634 
2006.219 14287168 14483581 15256682 16410813 17723032 19008192 20173902 
2009.594 21222458 22236690 23324960 24572018 25988262 27490772 28904344 
2012.969 29996668 30534718 30349826 29397966 27788684 25773224 23699558 
2016.344 21927140 20731830 20229596 20352388 20869002 21478348 21908320 
2019.719 22024502 21856810 21587242 21459802 21682192 22340552 23366586 
2023.095 24552954 25646758 26417490 26735176 26592640 26085812 25364488 
2026.470 24576306 23821652 23156802 22589888 22115074 21717454 21384648 
2029.845 21092868 20805308 20473500 20065168 19584418 19092490 18704890 
2033.220 18564016 18788576 19427542 20424698 21633548 22840600 23833184 
2036.596 24447468 24616810 24369932 23821698 23124410 22440302 21897002 
2039.971 21576550 21502820 21657980 21989540 22431826 22915572 23389384 
2043.346 23818386 24192398 24525100 24857306 25246608 25769584 26498164 
2046.721 27494038 28775396 30298238 31933688 33480204 34687892 35321012 
2050.097 35218440 34347316 32811158 30846762 28767538 26912188 25569232 
2053.472 24919360 24984556 25626266 26580734 27539192 28236906 28527176 
2056.847 28407860 28001208 27497312 27081470 26874374 26898600 27080802 
2060.222 27293032 27401496 27316506 27014776 26543792 25993762 25466462 
2063.598 25044336 24774558 24664878 24698144 24840604 25059164 25317040 
2066.973 25580096 25808668 25962850 26007628 25922318 25710606 25404590 
2070.348 25058896 24741738 24518056 24438276 24525660 24779396 25173094 
2073.723 25669220 26218904 26774616 27292518 27734482 28073110 28290680 
2077.099 28381042 28350056 28216182 28007530 27759976 27514076 27307624 
2080.474 27171730 27121262 27156184 27253958 27377606 27481684 27526184 
2083.849 27485156 27356692 27159072 26928378 26700978 26505352 26346684 
2087.224 26210678 26063808 25867272 25587832 25207420 24727744 24171646 
2090.600 23577174 22995404 22482144 22096556 21891118 21907456 22163146 
2093.975 22644824 23302734 24055202 24800132 25440818 25901630 26150646 
2097.350 26198856 26097152 25915942 25731826 25606244 25581002 25670040 
2100.725 25866736 26145014 26468156 26788968 27061094 27240014 27294444 
2104.101 27211202 27002456 26704174 26369162 26057102 25819656 25689500 
2107.476 25675056 25758866 25908692 26085560 26256280 26399476 26512816 
2110.851 26603830 26690488 26787282 26903152 27029894 27148492 27224302 
2114.226 27220406 27099964 26840554 26436012 25904250 25283012 24626546 
2117.602 23995168 23445216 23017182 22730342 22576954 22528676 22542010 
2120.977 22570180 22574012 22532098 22441884 22317482 22178696 22043328 
2124.352 21914474 21777872 21605106 21363096 21024098 20579366 20037408 
2127.727 19425258 18775172 18118922 17477082 16865072 16297156 15795901 
2131.103 15396559 15145728 15083311 15230151 15567156 16034383 16540058 
2134.478 16986230 17294864 17436532 17425902 17314368 17158154 16993742 
2137.853 16820128 16604418 16297782 15864929 15305010 14657358 13997699 
2141.228 13414362 12981941 12739680 12679793 12755422 12885096 12983730 
2144.604 12976201 12826202 12545233 12203344 11908754 11793708 11970893 
2147.979 12494627 13327593 14338649 15320408 16043443 16306130 16000690 
2151.354 15133684 13830891 12295704 10766041 9443347 8461032 7853373 7575766 
2155.211 7516921 7555396 7590575 7586870 7598869 7787389 8384429 9653088 
2159.069 11776901 14784710 18493410 22557380 26536140 30014218 32677696 
2162.444 34354200 35021572 34782248 33821980 32374054 30680702 28972126 
2165.819 27451566 26296386 25635832 25532040 25958390 26793382 27827282 
2169.195 28807112 29487566 29697938 29376314 28590742 27508380 26353816 
2172.570 25344416 24645478 24338248 24427168 24845302 25491506 26239276 
2175.945 26972902 27591734 28038396 28298496 28411684 28458358 28537418 
2179.320 28729420 29076214 29557046 30102022 30607318 30983638 31176974 
2182.696 31174818 30996632 30669318 30194184 29559644 28745770 27769380 
2186.071 26700750 25667242 24823250 24298942 24151550 24341492 24745238 
2189.446 25211676 25613538 25907594 26133524 26398042 26808462 27423162 
2192.821 28215486 29087476 29908058 30572702 31037792 31338454 31551878 
2196.197 31752578 31960246 32127920 32151460 31922330 31378734 30543808 
2199.572 29526818 28493500 27604556 26973766 26629432 26529122 26584748 
2202.947 26716424 26881744 27094098 27403540 27870084 28516342 29309416 
2206.322 30154016 30911892 31439568 31625516 31418000 30843232 29994390 
2209.698 29013264 28061450 27290712 26816208 26705268 26964106 27551676 
2213.073 28381648 29339856 30302522 31152728 31797838 32177132 32270458 
2216.448 32100320 31725396 31233036 30725474 30309354 30071528 30072306 
2219.823 30326610 30812568 31464298 32197468 32921224 33563796 34087200 
2223.198 34493612 34821144 35134716 35496384 35957264 36536484 37226808 
2226.574 37999160 38824768 39688620 40605424 41616108 42782252 44165956 
2229.949 45817872 47761204 49989832 52470648 55151460 57961152 60815060 
2233.324 63608772 66224264 68530928 70404496 71747416 72511464 72711784 
2236.699 72429600 71791680 70942880 70009040 69069976 68144896 67201304 
2240.075 66174352 64995596 63616112 62024616 60246248 58338980 56379932 
2243.450 54455220 52642764 51004900 49573196 48348276 47293620 46347144 
2246.825 45434884 44498392 43508456 42480044 41463260 40524392 39716684 
2250.200 39059912 38527944 38063280 37598248 37092320 36548336 36018588 
2253.576 35588948 35341636 35325884 35534544 35903236 36328924 36699860 
2256.951 36927036 36960084 36794760 36459844 36006344 35488980 34963600 
2260.326 34478388 34075176 33785488 33625172 33589216 33652236 33773164 
2263.701 33909228 34027264 34118712 34196140 34286428 34411592 34577884 
2267.077 34764120 34931540 35036532 35050288 34972984 34833100 34676352 
2270.452 34547676 34472808 34449888 34453304 34448300 34409836 34335552 
2273.827 34248304 34188552 34195880 34296624 34490636 34754600 35050700 
2277.202 35339656 35590092 35787780 35930868 36027660 36089880 36130576 
2280.578 36164232 36208408 36281144 36401908 36580572 36815844 37087476 
2283.953 37364948 37612112 37800912 37917448 37968012 37971536 37952704 
2287.328 37927476 37898144 37852652 37769484 37629492 37426916 37171512 
2290.703 36889444 36613328 36373952 36190128 36064624 35986268 35936480 
2294.079 35896356 35851496 35796128 35730092 35656624 35579816 35502828 
2297.454 35428876 35361532 35307488 35272444 35261372 35273188 35300160 
2300.829 35328968 35343556 35329944 35281956 35203192 35104732 35003780 
2304.204 34916712 34854440 34821556 34813576 34822916 34839688 34858208 
2307.580 34877684 34903900 34946828 35019088 35131000 35288388 35491384 
2310.955 35731956 35997752 36273184 36542592 36793816 37018964 37215760 
2314.330 37384984 37531448 37660864 37778640 37890648 38001684 38116432 
2317.705 38239300 38375948 38534300 38725312 38964524 39267824 39646752 
2321.081 40098932 40598504 41091396 41496428 41719124 41671536 41294760 
2324.456 40577904 39564336 38346012 37047440 35800720 34721068 33884744 
2327.831 33319048 33002786 32878972 32876928 32931578 32997898 33055470 
2331.206 33103164 33148170 33197098 33249404 33299174 33337214 33359774 
2334.582 33369138 33374910 33389084 33422366 33479352 33558208 33650792 
2337.957 33746376 33833828 33903068 33945156 33953192 33922268 33852272 
2341.332 33748256 33622956 33494402 33383704 33309224 33281494 33300464 
2344.707 33354186 33421266 33477928 33501442 33476188 33396196 33266436 
2348.083 33099986 32915096 32730564 32562140 32418918 32302656 32208710 
2351.458 32130092 32060608 31998418 31948752 31920466 31923228 31961874 
2354.833 32030806 32115232 32192196 32238514 32236080 32178442 32071528 
2358.208 31930804 31775218 31621840 31479552 31349472 31225566 31099214 
2361.583 30961928 30808716 30638288 30452734 30257302 30059810 29870904 
2364.959 29703090 29569588 29480908 29440924 29445630 29482952 29535538 
2368.334 29585726 29620506 29634288 29629980 29614666 29597572 29584350 
2371.709 29578474 29580528 29590420 29609136 29638546 29678970 29727268 
2375.084 29774610 29809256 29817576 29792336 29733780 29652254 29565672 
2378.460 29495692 29460792 29472932 29535292 29641744 29778700 29928148 
2381.835 30068494 30179818 30243474 30249028 30196188 30096810 29975608 
2385.210 29862336 29785068 29761634 29793284 29864504 29948374 30016240 
2388.585 30047144 30036344 29994736 29945764 29915940 29925480 29982890 
2391.961 30082180 30206156 30330928 30432324 30490808 30492866 30432824 
2395.336 30312214 30140576 29933516 29713014 29503910 29332106 29218932 
2398.711 29180748 29222996 29342942 29528958 29762798 30022156 30284054 
2402.086 30526450 30733248 30895062 31011922 31094040 31158308 31223830 
2405.462 31308350 31421654 31564518 31727348 31894866 32047502 32167386 
2408.837 32239676 32255016 32210830 32112032 31971042 31809170 31651386 
2412.212 31523860 31446222 31425894 31455490 31513706 31570948 31600426 
2415.587 31585288 31523946 31429668 31325288 31233918 31172472 31147240 
2418.963 31154770 31187318 31236240 31295088 31360320 31426906 31488810 
2422.338 31534936 31556434 31548898 31519428 31486220 31476092 31516544 
2425.713 31625006 31800948 32025058 32261822 32470938 32616776 32680106 
2429.088 32661692 32580250 32465984 32351274 32263764 32218084 32215666 
2432.464 32247226 32296258 32344804 32378734 32390472 32380164 32355380 
2435.839 32327086 32309934 32314916 32351028 32420386 32520510 32642930 
2439.214 32774828 32900366 33002786 33065114 33075150 33025936 32920688 
2442.589 32771934 32601010 32433558 32295618 32207306 32179676 32215170 
2445.965 32307484 32445964 32618288 32810782 33010486 33202264 33370462 
2449.340 33497956 33570480 33579932 33527456 33423930 33288430 33142004 
2452.715 33003922 32888092 32799650 32738682 32702010 32687380 32694466 
2456.090 32724384 32778646 32854672 32946688 33042942 33130594 33196840 
2459.466 33233776 33238110 33213172 33165518 33104804 33039522 32975658 
2462.841 32913442 32849782 32775656 32679952 32551230 32384828 32182358 
2466.216 31958376 31737552 31550788 31429392 31396374 31458520 31604770 
2469.591 31807058 32025896 32219890 32355190 32412726 32391030 32303124 
2472.967 32173994 32030060 31894184 31780824 31694706 31632628 31587180 
2476.342 31549562 31515318 31484600 31461644 31453230 31467884 31509106 
2479.717 31579028 31672410 31780996 31893856 32000926 32092456 32162670 
2483.092 32209098 32232900 32236438 32224808 32202296 32174188 32145638 
2486.468 32122758 32112100 32121378 32155208 32216646 32302662 32405130 
2489.843 32510434 32604054 32673820 32715366 32733106 32742158 32763728 
2493.218 32818686 32920078 33069830 33252802 33443116 33609916 33724236 
2496.593 33769924 33746312 33667380 33558892 33448740 33361960 33314164 
2499.969 33310338 33347440 33417008 33510462 33620368 33738964 33858384 
2503.344 33966216 34046200 34079300 34050320 33950772 33786180 33575992 
2506.719 33352756 33153362 33012774 32954104 32985024 33095996 33264108 
2510.094 33460866 33659184 33838128 33986264 34100120 34181644 34233740 
2513.469 34259124 34258480 34232644 34182116 34109136 34016084 33907280 
2516.845 33785700 33657128 33529554 33415702 33332110 33296578 33323262 
2520.220 33416674 33568164 33756168 33950736 34122300 34247908 34317932 
2523.595 34335620 34312156 34259072 34183796 34087424 33967980 33827264 
2526.970 33677700 33543046 33454802 33442960 33527084 33706116 33961064 
2530.346 34258188 34560868 34839848 35078300 35272440 35427512 35549192 
2533.721 35639200 35692468 35702640 35665792 35586320 35476452 35355616 
2537.096 35244120 35157504 35101936 35076744 35075676 35089632 35110632 
2540.471 35133284 35153772 35169916 35180236 35186652 35192104 35201824 
2543.847 35219720 35245892 35271636 35282232 35258264 35184728 35058652 
2547.222 34893168 34717368 34570532 34488648 34495000 34590424 34754056 
2550.597 34949604 35136184 35281844 35369436 35401872 35396068 35376904 
2553.972 35366372 35379168 35417564 35472240 35527984 35565644 35570512 
2557.348 35533836 35457580 35352344 35238416 35138096 35075920 35069136 
2560.723 35127836 35250944 35429824 35649560 35892740 36141324 36378552 
2564.098 36587380 36750484 36850856 36873864 36812512 36670816 36465640 
2567.473 36226060 35987316 35783788 35643296 35581432 35600068 35690620 
2570.849 35837160 36020188 36219336 36412952 36579184 36695724 36744632 
2574.224 36715296 36610396 36448784 36261672 36087380 35960568 35905316 
2577.599 35927548 36017100 36151680 36308212 36467652 36621512 36769176 
2580.974 36914700 37058696 37195696 37312228 37393516 37428640 37416588 
2584.350 37367628 37301292 37239716 37199364 37186548 37197740 37221592 
2587.725 37249004 37275536 37308096 37360012 37447772 37582240 37765600 
2591.100 37987488 38229852 38469236 38684480 38860276 38987848 39064944 
2594.475 39093296 39077592 39025304 38944848 38848708 38751280 38668520 
2597.851 38615136 38604128 38643372 38736456 38881636 39071220 39292476 
2601.226 39526084 39746428 39926604 40041836 40076152 40028244 39913744 
2604.601 39762016 39610536 39493328 39434560 39440072 39501028 39595388 
2607.976 39698456 39789392 39856296 39896788 39916348 39924344 39931180 
2611.352 39945192 39974344 40024848 40101200 40203952 40328016 40461376 
2614.727 40585904 40681224 40731120 40728752 40679196 40599064 40512268 
2618.102 40441344 40401784 40398068 40422500 40459540 40492348 40508256 
2621.477 40503652 40485084 40467324 40467740 40503004 40581528 40702520 
2624.853 40854760 41020224 41177472 41307464 41398700 41449000 41465632 
2628.228 41461860 41453940 41454760 41471224 41503764 41547344 41594652 
2631.603 41639068 41677364 41709692 41739496 41771220 41809908 41859480 
2634.978 41922568 42001788 42097816 42209460 42333304 42462828 42588776 
2638.354 42700816 42788840 42846764 42871840 42865144 42831920 42779060 
2641.729 42714188 42644664 42577568 42518716 42472944 42442412 42427976 
2645.104 42426612 42434252 42445992 42458268 42468924 42479024 42488852 
2648.479 42499600 42510792 42521268 42528364 42532456 42534732 42539088 
2651.854 42549744 42569336 42597592 42629416 42657508 42674384 42675108 
2655.230 42658388 42627436 42587772 42544728 42502212 42460412 42417040 
2658.605 42368984 42313520 42250176 42179132 42101756 42018036 41926800 
2661.980 41825848 41712328 41584244 41440756 41283880 41117460 40947516 
2665.355 40781384 40627660 40495204 40392008 40323360 40290924 40291620 
2668.731 40317852 40360300 40409624 40459520 40507420 40553132 40598588 
2672.106 40643964 40687332 40723480 40747516 40755244 40746800 40725780 
2675.481 40698420 40671232 40647608 40627560 40607780 40583948 40553676 
2678.856 40517960 40481504 40451464 40434836 40435856 40454808 40488488 
2682.232 40530824 40574832 40615444 40649256 40675348 40694536 40708852 
2685.607 40721232 40733508 40746452 40760308 40773608 40784340 40790272 
2688.982 40791592 40789680 40787760 40789440 40797768 40813116 40833076 
2692.357 40853132 40869140 40878212 40880908 40879256 40877416 40877896 
2695.733 40880392 40882528 40880956 40870956 40852072 40825496 40795204 
2699.108 40766200 40742732 40728248 40725236 40734452 40756924 40791724 
2702.483 40836276 40884172 40926612 40954788 40962456 40949536 40922772 
2705.858 40895436 40882308 40895064 40938296 41007080 41089364 41170196 
2709.234 41236088 41279504 41299592 41300428 41289168 41272228 41255828 
2712.609 41243340 41238940 41245716 41266080 41300604 41345680 41393924 
2715.984 41436224 41464928 41476200 41472284 41460516 41449968 41447612 
2719.359 41455520 41469964 41483292 41487368 41476708 41450988 41413684 
2722.735 41370292 41327812 41291024 41263380 41247600 41245168 41257324 
2726.110 41282868 41318040 41356136 41389740 41412964 41424412 41428916 
2729.485 41434552 41451052 41484132 41533532 41592696 41651684 41702364 
2732.860 41740668 41769052 41794148 41823564 41860044 41901404 41939688 
2736.236 41966136 41973996 41962608 41936452 41903716 41871900 41845616 
2739.611 41826848 41813708 41804988 41800300 41800500 41806816 41818124 
2742.986 41830928 41838568 41835936 41820128 41792716 41759732 41729480 
2746.361 41709100 41702480 41710172 41730316 41761404 41802396 41854444 
2749.737 41918116 41991812 42070736 42147600 42215528 42268836 42306564 
2753.112 42331180 42346812 42355832 42358900 42353640 42339116 42316724 
2756.487 42292424 42275320 42274664 42294748 42334328 42386236 42441480 
2759.862 42492564 42539412 42588164 42647924 42725636 42820916 42925540 
2763.238 43024976 43104708 43156476 43181848 43192320 43204796 43234464 
2766.613 43288948 43367296 43458792 43548340 43622212 43669776 43685936 
2769.988 43670320 43626336 43560056 43480432 43400584 43337000 43307116 
2773.363 43326736 43404868 43540684 43723260 43934828 44155272 44366860 
2776.739 44559372 44729048 44877028 45006440 45118228 45209316 45275188 
2780.114 45311644 45317300 45295504 45255420 45208812 45168040 45142836 
2783.489 45138880 45157140 45194356 45245288 45303808 45365212 45427988 
2786.864 45491828 45558384 45628616 45701256 45773260 45839044 45893044 
2790.240 45932188 45957980 45977260 45999608 46035228 46089796 46163592 
2793.615 46250988 46344180 46435384 46523164 46610884 46706712 46818088 
2796.990 46948384 47093292 47240368 47375176 47483720 47559416 47605032 
2800.365 47631276 47655008 47692076 47754828 47850156 47978540 48135292 
2803.740 48314064 48506252 48703368 48896800 49078812 49243096 49385568 
2807.116 49505624 49605876 49690272 49764132 49831808 49897576 49965404 
2810.491 50040332 50128196 50235300 50365368 50519964 50695112 50884836 
2813.866 51082516 51283784 51490320 51708520 51948444 52218868 52524308 
2817.241 52862880 53224460 53595328 53960484 54308480 54633344 54936504 
2820.617 55226052 55514876 55818632 56154868 56537516 56978320 57481872 
2823.992 58047288 58667736 59333380 60034600 60765276 61525168 62319280 
2827.367 63155384 64041168 64982624 65981464 67038060 68150416 69317208 
2830.742 70536840 71805792 73117368 74462784 75829864 77209784 78600496 
2834.118 80007944 81448576 82943576 84514128 86175440 87934496 89790352 
2837.493 91737376 93771096 95889920 98095848 100393368 102784144 105266392 
2840.868 107834440 110482648 113209320 116020016 118929144 121955856 
2843.761 125120912 128439800 131920560 135559568 139340160 143231184 
2846.654 147180832 151114448 154931104 158505184 161697568 164370400 
2849.547 166407952 167734192 168324000 168204320 167446448 166149952 
2852.440 164424896 162379952 160110496 157698576 155211120 152702832 
2855.333 150216304 147783136 145424192 143150768 140967824 138877776 
2858.227 136881856 134983232 133183968 131482480 129873096 128345352 
2861.120 126887264 125490856 124155304 122888192 121704440 120619784 
2864.013 119644616 118781400 118021408 117349720 116748976 116205056 
2866.906 115708728 115256104 114845824 114475944 114142016 113837936 
2869.799 113558104 113299504 113062632 112851784 112670960 112522176 
2872.692 112402872 112307144 112227744 112159592 112103704 112066248 
2875.585 112058040 112090896 112173288 112309928 112501808 112746560 
2878.478 113043096 113393616 113804152 114282424 114837248 115471800 
2881.371 116186104 116973848 117825520 118730904 119681688 120673176 
2884.264 121704448 122777464 123893128 125051064 126247240 127474544 
2887.157 128724728 129990520 131269336 132563456 133879216 135225184 
2890.050 136608896 138032160 139490224 140972128 142462544 143946832 
2892.943 145413680 146859872 148287392 149705824 151126064 152559248 
2895.836 154014768 155499424 157019216 158580048 160188064 161850912 
2898.729 163574288 165361408 167211744 169121104 171081680 173086944 
2901.623 175131376 177214064 179338560 181512992 183750592 186066352 
2904.516 188476576 190997744 193642288 196420240 199334192 202382208 
2907.409 205558976 208859264 212282128 215833840 219529136 223391024 
2910.302 227441792 231700640 236173200 240848032 245694192 250661648 
2913.195 255685024 260689024 265594368 270321856 274798720 278962368 
2916.088 282761792 286161568 289141504 291692928 293817248 295519040 
2918.981 296804000 297676544 298141824 298207968 297892064 297221280 
2921.874 296233728 294973888 293486432 291811264 289975776 287997312 
2924.767 285884512 283642400 281278816 278807328 276250336 273635648 
2927.660 270993856 268353856 265738336 263162576 260633440 258149744 
2930.553 255704704 253286384 250883136 248484512 246082896 243676944 
2933.446 241269072 238863808 236465968 234076160 231689968 229299280 
2936.339 226894992 224470816 222025024 219562528 217090960 214618592 
2939.232 212148464 209678496 207200848 204708432 202198336 199677600 
2942.125 197162576 194677408 192245936 189886160 187604624 185395504 
2945.019 183243152 181128928 179036208 176958528 174897264 172864880 
2947.912 170876256 168946160 167081552 165280816 163533712 161821440 
2950.805 160123904 158422256 156706160 154974480 153235616 151505088 
2953.698 149801776 148139920 146527648 144965520 143448064 141969584 
2956.591 140526144 139120800 137759152 136448288 135191664 133986264 
2959.484 132822960 131692600 130589408 129516680 128487128 127516288 
2962.377 126614840 125780808 124993872 124221360 123422600 122568112 
2965.270 121644312 120660552 119644480 118629952 117645328 116702088 
2968.163 115792160 114893568 113979952 113032352 112047384 111037000 
2971.056 110023248 109029504 108072152 107157216 106278232 105424504 
2973.949 104582520 103744336 102904632 102062440 101215424 100360496 
2976.842 99491280 98602488 97690080 96756024 95806432 94851712 93902080 
2980.218 92966544 92050256 91154288 90278552 89421872 88584048 87765728 
2983.593 86968736 86194376 85443360 84715600 84010776 83329048 82672344 
2986.968 82043264 81445936 80885680 80366464 79893000 79467144 79090584 
2990.343 78762000 78480352 78242568 78047376 77892680 77779104 77708880 
2993.719 77684768 77711808 77795736 77943120 78162328 78461152 78847552 
2997.094 79325480 79893592 80541568 81250872 81992608 82732792 83434064 
3000.469 84062632 84592208 85006104 85299112 85474992 85544264 85519656 
3003.844 85412552 85229992 84975040 84645992 84240344 83756632 83199040 
3007.219 82579120 81914936 81232040 80557104 79919096 79341712 78844680 
3010.595 78442176 78142912 77952376 77871976 77899272 78028928 78252640 
3013.970 78562768 78954648 79432176 80008256 80707608 81561632 82604368 
3017.345 83864784 85361328 87098544 89067432 91248456 93614664 96136488 
3020.720 98785104 101529920 104338784 107174560 109993360 112741568 
3023.614 115358928 117779544 119938584 121774640 123238432 124295976 
3026.507 124932280 125149640 124966688 124410496 123513192 122305400 
3029.400 120814944 119068208 117092048 114918688 112586568 110140520 
3032.293 107627392 105092104 102571784 100094696 97679888 95339248 93083760 
3035.668 90922072 88867008 86930600 85124696 83457736 81934096 80551792 
3039.043 79305280 78182720 77170024 76248312 75398624 74601920 73843800 
3042.418 73115400 72417336 71756560 71146160 70601064 70133888 69753320 
3045.794 69461960 69259392 69140264 69098752 69129064 69226616 69389016 
3049.169 69616768 69914696 70291968 70758464 71323616 71990920 72756160 
3052.544 73604720 74515912 75467080 76438408 77418872 78404448 79398880 
3055.919 80402952 81414232 82420632 83402656 84336552 85199208 85972080 
3059.295 86642400 87201528 87641064 87950720 88117480 88126704 87967456 
3062.670 87634448 87129536 86463056 85650096 84710888 83667816 82547536 
3066.045 81380480 80200696 79043720 77941496 76918560 75987064 75146712 
3069.420 74386104 73688600 73035400 72412928 71810648 71225848 70661104 
3072.796 70123456 69625976 69185056 68819536 68546448 68376272 68308688 
3076.171 68332176 68426784 68570792 68748448 68954640 69197120 69490424 
3079.546 69847424 70271400 70749856 71254376 71747144 72186680 72537448 
3082.921 72771472 72868288 72812472 72588976 72183896 71586440 70794936 
3086.297 69822232 68697720 67465072 66174284 64874904 63606212 62394636 
3089.672 61250872 60177328 59169068 58221688 57333152 56504676 55740108 
3093.047 55046200 54429084 53895292 53448280 53088320 52809516 52600872 
3096.422 52446912 52331764 52241748 52170284 52117372 52088340 52090364 
3099.798 52126864 52195080 52284264 52379236 52465368 52531452 52573712 
3103.173 52595460 52602348 52599824 52588744 52562252 52507728 52409316 
3106.548 52252672 52028600 51734528 51377428 50971000 50533772 50086504 
3109.923 49650476 49242356 48873228 48546512 48257604 47996344 47748724 
3113.299 47501292 47245704 46981756 46715856 46462524 46236204 46049996 
3116.674 45908952 45808788 45737020 45676140 45609568 45526844 45426784 
3120.049 45317824 45213976 45131904 45082104 45067572 45080304 45105240 
3123.424 45123864 45119804 45083216 45013220 44916880 44805524 44691032 
3126.800 44581884 44481684 44387796 44295580 44199700 44098028 43992460 
3130.175 43889984 43801940 43737648 43705072 43703648 43726996 43759776 
3133.550 43783332 43779572 43736004 43649096 43525916 43381572 43236240 
3136.925 43108680 43012740 42954864 42933132 42940488 42966292 43000048 
3140.301 43032432 43056540 43068636 43068256 43059064 43048380 43047676 
3143.676 43066212 43110980 43181140 43268112 43356388 43429208 43473968 
3147.051 43485684 43470388 43440868 43411228 43391604 43383492 43380116 
3150.426 43371128 43348456 43309616 43263532 43223372 43206264 43224728 
3153.802 43282892 43376228 43492476 43615676 43729520 43819448 43874300 
3157.177 43885860 43851408 43773512 43663520 43539336 43424632 43342872 
3160.552 43309712 43329404 43392224 43476256 43555788 43607100 43618296 
3163.927 43587828 43529100 43459652 43399704 43364968 43363988 43397120 
3167.302 43457884 43535124 43614884 43683404 43728852 43744508 43730124 
3170.678 43693072 43646576 43606248 43586088 43594444 43631340 43691808 
3174.053 43766724 43847208 43928144 44007260 44085540 44162536 44237496 
3177.428 44306496 44364532 44406068 44426724 44423232 44391352 44327032 
3180.803 44227328 44093540 43934256 43766344 43615380 43507056 43462260 
3184.179 43488008 43575496 43700912 43833684 43944700 44015216 44040192 
3187.554 44027776 43992024 43949384 43911204 43883704 43868408 43865984 
3190.929 43876324 43898560 43930084 43963244 43987576 43991816 43968420 
3194.304 43919676 43857584 43803232 43778816 43801808 43879148 44003292 
3197.680 44155376 44310592 44444088 44536044 44576904 44565448 44510632 
3201.055 44426988 44332488 44245528 44179792 44141532 44128456 44129724 
3204.430 44129792 44113528 44073576 44012672 43942760 43881716 43845432 
3207.805 43842048 43867724 43909640 43950040 43975300 43979492 43966988 
3211.181 43949548 43941876 43954180 43990652 44046808 44114956 44184884 
3214.556 44248676 44301492 44341900 44370544 44388420 44397492 44398096 
3217.931 44390772 44373756 44344408 44299412 44236016 44156308 44067876 
3221.306 43984052 43921348 43893656 43907056 43955168 44020268 44078888 
3224.682 44109624 44101444 44056864 43991196 43924748 43875380 43851376 
3228.057 43849208 43858400 43867608 43870292 43869448 43874556 43895792 
3231.432 43938136 43997064 44059876 44111216 44138572 44139848 44121880 
3234.807 44099700 44089244 44102560 44145092 44213748 44299808 44393204 
3238.183 44481868 44556384 44607216 44627812 44615508 44572496 44508196 
3241.558 44438220 44379200 44345004 44339512 44354536 44372000 44369380 
3244.933 44329380 44245868 44127712 43996552 43880120 43804508 43786924 
3248.308 43832168 43935280 44083740 44263588 44460512 44662180 44855384 
3251.684 45023968 45150680 45218568 45215696 45139484 45001028 44822924 
3255.059 44636432 44473396 44360768 44311776 44328136 44397512 44500316 
3258.434 44616200 44727436 44822776 44896636 44947764 44973704 44971208 
3261.809 44933456 44854084 44731844 44573652 44395908 44224824 44089312 
3265.185 44013684 44014044 44089528 44227116 44402284 44588352 44762088 
3268.560 44908632 45023136 45108276 45170736 45216880 45250064 45270272 
3271.935 45275716 45265596 45241816 45210980 45184268 45176144 45200044 
3275.310 45267412 45382764 45541636 45729044 45923152 46096248 46222404 
3278.686 46283288 46273032 46200932 46089516 45968208 45868752 45816316 
3282.061 45825860 45902000 46039396 46226724 46448976 46690672 46935500 
3285.436 47165036 47362476 47512040 47605372 47643656 47640616 47620916 
3288.811 47614712 47650208 47745652 47902680 48107024 48331744 48546752 
3292.187 48729232 48870128 48978224 49076528 49194524 49356956 49575624 
3295.562 49843004 50135268 50418060 50656956 50826108 50913936 50922504 
3298.937 50862676 50748132 50587004 50383160 50137364 49852928 49542196 
3302.312 49227696 48939004 48704168 48540524 48447052 48404632 48380440 
3305.688 48340368 48259960 48132292 47967888 47790544 47625512 47491500 
3309.063 47393492 47323224 47264948 47202012 47122168 47020996 46900296 
3312.438 46764040 46617780 46465480 46313160 46167944 46041640 45946044 
3315.813 45890796 45877624 45900288 45943268 45989556 46025520 46046628 
3319.188 46058992 46075564 46109860 46168576 46247540 46332440 46404180 
3322.564 46445932 46451076 46424380 46379948 46334920 46301832 46283852 
3325.939 46273492 46256536 46219424 46155780 46070600 45979488 45903836 
3329.314 45863228 45867144 45912388 45981348 46047940 46085828 46075512 
3332.689 46010024 45897784 45758620 45621128 45512572 45456332 45464948 
3336.065 45539504 45668716 45834152 46011188 46175156 46305616 46390880 
3339.440 46429108 46429532 46408804 46384996 46373512 46378828 46395700 
3342.815 46408684 46398904 46352984 46266896 46149448 46019612 45900388 
3346.190 45809976 45758908 45745932 45763160 45799748 45849852 45912568 
3349.566 45990996 46087776 46198104 46310196 46405128 46462600 46469048 
3352.941 46422860 46334452 46224572 46116040 46029284 45977272 45966208 
3356.316 45995996 46064812 46170284 46308164 46469992 46641184 46800604 
3359.691 46924680 46993388 46995532 46933732 46823608 46688516 46553388 
3363.067 46438132 46351608 46292560 46251220 46215960 46176544 46129756 
3366.442 46079040 46034872 46010724 46019612 46069276 46158580 46275908 
3369.817 46400532 46507796 46575784 46594092 46567892 46518152 46476008 
3373.192 46472616 46527140 46640080 46791144 46945492 47065728 47123500 
3376.568 47108624 47030552 46913748 46788488 46681572 46608836 46575964 
3379.943 46579716 46611796 46663424 46726860 46794600 46856688 46904220 
3383.318 46928728 46926380 46900776 46862764 46825444 46800960 46794072 
3386.693 46800620 46809136 46806408 46784108 46743360 46693912 46652452 
3390.069 46635660 46654244 46711088 46799276 46908256 47024804 47139084 
3393.444 47243296 47331872 47399680 47441836 47453112 47432892 47384784 
3396.819 47319808 47254344 47205844 47189288 47212144 47272336 47358476 
3400.194 47453256 47538056 47597164 47621488 47610540 47571656 47516452 
3403.570 47460064 47414040 47385692 47374816 47376628 47381704 47382124 
3406.945 47372160 47352756 47329260 47311468 47307908 47326256 47366656 
3410.320 47426324 47497436 47570212 47635064 47684400 47713216 47721708 
3413.695 47713388 47696408 47682224 47682772 47707148 47757948 47828988 
3417.071 47905884 47969372 48002800 47994140 47944392 47864916 47773496 
3420.446 47689764 47627668 47592016 47578816 47579792 47586488 47592956 
3423.821 47599076 47606600 47618108 47632312 47644636 47650176 47645156 
3427.196 47630764 47613772 47603232 47606880 47626244 47655108 47681760 
3430.572 47693624 47681788 47647048 47600560 47560872 47547700 47578344 
3433.947 47660312 47790364 47956312 48139600 48319312 48477448 48600824 
3437.322 48682240 48721424 48723676 48697664 48653748 48602412 48551760 
3440.697 48506516 48468916 48440488 48420656 48410000 48410532 48423676 
3444.073 48450372 48488872 48534328 48580384 48619500 48644468 48649392 
3447.448 48630940 48587944 48520508 48432044 48328460 48219292 48117544 
3450.823 48036904 47989420 47980068 48004956 48051228 48096340 48116756 
3454.198 48092984 48015196 47886808 47724700 47552636 47398520 47284324 
3457.573 47223648 47219952 47265908 47350088 47458656 47580040 47707264 
3460.949 47837012 47967992 48098432 48223568 48335964 48424936 48480388 
3464.324 48495912 48471244 48414908 48341132 48269236 48215820 48193108 
3467.699 48201708 48234752 48276816 48311544 48325136 48311552 48273032 
3471.074 48220124 48165668 48122948 48101124 48103528 48130164 48177128 
3474.450 48240628 48316384 48401920 48494372 48590184 48685916 48778456 
3477.825 48865432 48947204 49024468 49099016 49169660 49232224 49279788 
3481.200 49304008 49298924 49263676 49203628 49127936 49048660 48974368 
3484.575 48909364 48851728 48797188 48742744 48690920 48650044 48632312 
3487.951 48649424 48706036 48795372 48901456 48999924 49069880 49097448 
3491.326 49084756 49047084 49009876 48999432 49034168 49118052 49239988 
3494.701 49376912 49501212 49590244 49632864 49634564 49613992 49599168 
3498.076 49618936 49693560 49828228 50009904 50209748 50389288 50511220 
3501.452 50548280 50492748 50356844 50173284 49981776 49820836 49716244 
3504.827 49675336 49686852 49727404 49769892 49794264 49790900 49763292 
3508.202 49723892 49688212 49669696 49675312 49705932 49757580 49824392 
3511.577 49899148 49975496 50047300 50108648 50155828 50188216 50211348 
3514.953 50235328 50273752 50338924 50440472 50578416 50745216 50925804 
3518.328 51103928 51263316 51392248 51482144 51529972 51533648 51493532 
3521.703 51411764 51295836 51156828 51009824 50872940 50760280 50681044 
3525.078 50636304 50621860 50629388 50652612 50689980 50743780 50819824 
3528.454 50921280 51045968 51183392 51318576 51430444 51502800 51525684 
3531.829 51500524 51438940 51361716 51292108 51251652 51253920 51301848 
3535.204 51386592 51489424 51587552 51660504 51694096 51687080 51646360 
3538.579 51586712 51523896 51468712 51423448 51382904 51338716 51282500 
3541.955 51211956 51132532 51054424 50989780 50947196 50931188 50938484 
3545.330 50963500 50999332 51041608 51085848 51129356 51165832 51187252 
3548.705 51182412 51143424 51065996 50955116 50821856 50683088 50554752 
3552.080 50449016 50370852 50319320 50289048 50273968 50266316 50260108 
3555.456 50247340 50217764 50160172 50064852 49927372 49752020 49554712 
3558.831 49359208 49193388 49081824 49040140 49070036 49158524 49282748 
3562.206 49411872 49518004 49577244 49579200 49524704 49427268 49307732 
3565.581 49190628 49096660 49041100 49027844 49052892 49105768 49175616 
3568.957 49252452 49331376 49409708 49485756 49555832 49613348 49648880 
3572.332 49656924 49633688 49583908 49516636 49443120 49372760 49310460 
3575.707 49254248 49200600 49144728 49088236 49036744 49002240 48996732 
3579.082 49030500 49104180 49212532 49340992 49471704 49583840 49661088 
3582.458 49689592 49664776 49586640 49466200 49318516 49163452 49018912 
3585.833 48899472 48808944 48743280 48690972 48638408 48575764 48499992 
3589.208 48414992 48330832 48258436 48207000 48182184 48189144 48231944 
3592.583 48317848 48453392 48642528 48878180 49142560 49402632 49620748 
3595.958 49759864 49794708 49718956 49548084 49311724 49049752 48799696 
3599.334 48591304 48442188 48360212 48343928 48388424 48486852 48631720 
3602.709 48813824 49021984 49242676 49458764 49651264 49800568 49890716 
3606.084 49910096 49857556 49744056 49592548 49436932 49313000 49253324 
3609.459 49276692 49386456 49566384 49790096 50026980 50250620 50442956 
3612.835 50595804 50707408 50778600 50809864 50801676 50757856 50687660 
3616.210 50609412 50546612 50523280 50557496 50655716 50812172 51010672 
3619.585 51230928 51453244 51663380 51850288 52004896 52120108 52190932 
3622.960 52215500 52200856 52160020 52113344 52076696 52058420 52050200 
3626.336 52033028 51981200 51876948 51719760 51531988 51353632 51227912 
3629.711 51185896 51234192 51349488 51490292 51608644 51668720 51655304 
3633.086 51580696 51474976 51377440 51323180 51335340 51422784 51580448 
3636.461 51794064 52045500 52310984 52566616 52785588 52947780 53037596 
3639.837 53056216 53017472 52949028 52882316 52846400 52856764 52917172 
3643.212 53016416 53139160 53270312 53400004 53522612 53636644 53734840 
3646.587 53807696 53841808 53826168 53757516 53645824 53512972 53385608 
3649.962 53290352 53244864 53252896 53307844 53395096 53499264 53603216 
3653.338 53693300 53755612 53776736 53741864 53644984 53489572 53293548 
3656.713 53087984 52908060 52784240 52730808 52742264 52795592 52860708 
3660.088 52912172 52937080 52941040 52939364 52949588 52978012 53016612 
3663.463 53042160 53028436 52955584 52820072 52636724 52434508 52243696 
3666.839 52086116 51968424 51882232 51809444 51736148 51655924 51575548 
3670.214 51508604 51471156 51469244 51499256 51543084 51579892 51588668 
3673.589 51558232 51487680 51388944 51281524 51187648 51126576 51111280 
3676.964 51141752 51207468 51285148 51345100 51355484 51293228 51150020 
3680.340 50940184 50697968 50471848 50307872 50239176 50270812 50380532 
3683.715 50524300 50652232 50723372 50723208 50662916 50579420 50515944 
3687.090 50510948 50579092 50708668 50861632 50987380 51035556 50972564 
3690.465 50789268 50504484 50158592 49806500 49504244 49299732 49222632 
3693.841 49280048 49455744 49714716 50007892 50284256 50496932 50613476 
3697.216 50618312 50516940 50331976 50100724 49864756 49665428 49532824 
3700.591 49482752 49509692 49591392 49694504 49781948 49826140 49816428 
3703.966 49759248 49679264 49602556 49551280 49532028 49533784 49531484 
3707.342 49501832 49429724 49322140 49205152 49119304 49103268 49181884 
3710.717 49352688 49587064 49835868 50043292 50161956 50164288 50047304 
3714.092 49832956 49556524 49262548 48993808 48785956 48664864 48645924 
3717.467 48730296 48909796 49163148 49462076 49773216 50064400 50306500 
3720.843 50480140 50575472 50594624 50545184 50444712 50313424 50173452 
3724.218 50045812 49949952 49896596 49891720 49929500 49999116 50083536 
3727.593 50167844 50240208 50299076 50350184 50407816 50486364 50597704 
3730.968 50743516 50916548 51096668 51260376 51385848 51459896 51480716 
3734.344 51462080 51424272 51390804 51376864 51386820 51408276 51420660 
3737.719 51397252 51320664 51186276 51008908 50819368 50656268 50559748 
3741.094 50557952 50661156 50863388 51139528 51454312 51768340 52044340 
3744.469 52254208 52382404 52425292 52393200 52302656 52175556 52031644 
3747.844 51890140 51763480 51661536 51587148 51543260 51527704 51540096 
3751.220 51576352 51633920 51706384 51788112 51872300 51954836 52031240 
3754.595 52101880 52166376 52226776 52283208 52336700 52388276 52439472 
3757.970 52493524 52554012 52623136 52698964 52776100 52846436 52899288 
3761.345 52928084 52928948 52903024 52852888 52783296 52694372 52587524 
3764.721 52464160 52329068 52192912 52071548 51979536 51926920 51911788 
3768.096 51921912 51933580 51923604 51874032 51779852 51650840 51507356 
3771.471 51376108 51279000 51232168 51242844 51310144 51428688 51588820 
3774.846 51777660 51976640 52164580 52315392 52410308 52437676 52403532 
3778.222 52326728 52238412 52169848 52145476 52173080 52247228 52349856 
3781.597 52461824 52567612 52661408 52744216 52821492 52895160 52963528 
3784.972 53018200 53050988 53058004 53041444 53010612 52978752 52954776 
3788.347 52942856 52938056 52930528 52909516 52869044 52808848 52737100 
3791.723 52662472 52594064 52534588 52483008 52433112 52381896 52328468 
3795.098 52279952 52247128 52241312 52269492 52332108 52417840 52512176 
3798.473 52597712 52660780 52696060 52707556 52706052 52703776 52710064 
3801.848 52726372 52746720 52760040 52755936 52730872 52688756 52644296 
3805.224 52614260 52615724 52657148 52737640 52846688 52968392 53084540 
3808.599 53183512 53254752 53295912 53303564 53277720 53217568 53128320 
3811.974 53017940 52904264 52806352 52746640 52739868 52792336 52895308 
3815.349 53032112 53177324 53308864 53410024 53475284 53506984 53516492 
3818.725 53515276 53517072 53528664 53551884 53581396 53605288 53607872 
3822.100 53575524 53498960 53382492 53240360 53097280 52977472 52899240 
3825.475 52864304 52860104 52859696 52837564 52776936 52680960 52570808 
3828.850 52479884 52438840 52465604 52554204 52681600 52812564 52916716 
3832.226 52976460 52995844 52993200 52996060 53027644 53101992 53218600 
3835.601 53368052 53532112 53692560 53829812 53927848 53972976 53958736 
3838.976 53886828 53771536 53636128 53510028 53416748 53367740 53355908 
3842.351 53359180 53347876 53298952 53205192 53080900 52956192 52865532 
3845.727 52834680 52869448 52956584 53068740 53175936 53257356 53306284 
3849.102 53328896 53337944 53344764 53354072 53363388 53366252 53359488 
3852.477 53344564 53330808 53327464 53344160 53382076 53440316 53512408 
3855.852 53594020 53682252 53777628 53875676 53968080 54039512 54073072 
3859.228 54053544 53976440 53849656 53693924 53535660 53401404 53308208 
3862.603 53263476 53261672 53292108 53341572 53399380 53458920 53519664 
3865.978 53582680 53651784 53732284 53830408 53950124 54092248 54251760 
3869.353 54415824 54566304 54683840 54753452 54772200 54747880 54699696 
3872.729 54648316 54614684 54607040 54625636 54659224 54695732 54723228 
3876.104 54737072 54737248 54729460 54717416 54704180 54688552 54668528 
3879.479 54640932 54604840 54558904 54503264 54436316 54354348 54253900 
3882.854 54135896 54005912 53878560 53771384 53704584 53693308 53743164 
3886.229 53847796 53992084 54152512 54307000 54435336 54526840 54577916 
3889.605 54595072 54590520 54581436 54585812 54619608 54690704 54801656 
3892.980 54943936 55102264 55254908 55381608 55462732 55488536 55457256 
3896.355 55376884 55263548 55138712 55022792 54933140 54878156 54857456 
3899.730 54859036 54869016 54870732 54855216 54824072 54790120 54770716 
3903.106 54786032 54843296 54939848 55056076 55166060 55243184 55271528 
3906.481 55250136 55193436 55124552 55067560 55038372 55041548 55069876 
3909.856 55110520 55150236 55182608 55206544 55225268 55242252 55257092 
3913.231 55264572 55258520 55233448 55191880 55140792 55094792 55067264 
3916.607 55068420 55100532 55160000 55237728 55325392 55415500 55506168 
3919.982 55594576 55679392 55755632 55815916 55853668 55866308 55856656 
3923.357 55837464 55823368 55831844 55871620 55943124 56033196 56121272 
3926.732 56183432 56200680 56163872 56077156 55956120 55825116 55708476 
3930.108 55627064 55590836 55600340 55646060 55712640 55780040 55832528 
3933.483 55854584 55836792 55774132 55667556 55524196 55360328 55197524 
3936.858 55062568 54981200 54973388 55043720 55181320 55358328 55539572 
3940.233 55687840 55777740 55800620 55769132 55709024 55654304 55631688 
3943.609 55655088 55719408 55806276 55886568 55935528 55935204 55882736 
3946.984 55787024 55667920 55546496 55444368 55376016 55350740 55369400 
3950.359 55429412 55520944 55633200 55749540 55854416 55932664 55974936 
3953.734 55976492 55942844 55885096 55818408 55757920 55715440 55695148 
3957.110 55694752 55704792 55713604 55709564 55686672 55643584 55586948 
3960.485 55527168 55477552 55447840 55443604 55464188 55504016 55553496 
3963.860 55607452 55662372 55723960 55800488 55902548 56035728 56198956 
3967.235 56377988 56552868 56698184 56793408 56824900 56795248 56717040 
3970.611 56613000 56507172 56420484 56363296 56336544 56332224 56337980 
3973.986 56342364 56336828 56318076 56287888 56250628 56211580 56173340 
3977.361 56139452 56109628 56085936 56068764 56061256 56064376 56080428 
3980.736 56108888 56148788 56196612 56250440 56307004 56365496 56424812 
3984.112 56484420 56542408 56596580 56640960 56671004 56679904 56663012 
3987.487 56618400 56547568 56455292 56351660 56248152 56158132 56093224 
3990.862 56061764 56066760 56105092 56167336 56241484 56313604 56371520 
3994.237 56407180 56418496 56408208 56383980 56353988 56329200 56317520 
3997.613 56325952 56359572 56423020 56516328 56640056 56788872 56955680 
##END=
