##TITLE=eSUN_PETG_Black_Filament_r5_ATR-Corrected
##JCAMP-DX=5.01  $$ Nicolet v. 1
##DATATYPE=INFRARED SPECTRUM
##ORIGIN=Curtin University
##OWNER=Nicolet
##LONGDATE=2024/07/10
##TIME=15:26:47
##SPECTROMETER/DATA SYSTEM=Nicolet iS50
##DATA PROCESSING=
Ratio against background
%Transmittance->Absorbance
ATR Correction
Truncated
ElementMultiply or ElementDivide
##COMMENTS=
Number of sample scans: 32
Collection length: 47.29 sec
Sample gain: 1.0
Background collected on: Wed Jul 10 15:25:29 2024 (GMT+08:00);
Number of background scans: 32
Background gain: 1.0
Sample spacing:  1.000
Number of scan points: 16672
Resolution points: 8192
Number of FFT points: 65536
Apodization: N-B strong;
Phase correction: Mertz;
Laser frequency: 15798.3 cm-1
Number of rejected sample scans: 0
Number of rejected background scans: 0
Bench serial number: AUP1200105;
##RESOLUTION=4.000
##XUNITS=1/CM
##YUNITS=ABSORBANCE
##FIRSTX=400.163452
##LASTX=4000.187744
##FIRSTY=0.036381
##MAXX=4000.187744
##MINX=400.163452
##MAXY=1.419731
##MINY=-0.017998
##XFACTOR=1.000000
##YFACTOR=1.000000E-008
##NPOINTS=7468
##DELTAX=0.482125
##ZPD=8192
##XYDATA=(X++(Y..Y))
400.163 3638059 3641563 3651337 3666405 3686371 3709280 3731232 3746764 
404.020 3750274 3737794 3708414 3664999 3613726 3562573 3519407 3490107 
407.877 3477435 3480753 3496896 3521252 3549322 3577789 3605126 3631581 
411.734 3658678 3688339 3722022 3760093 3801366 3843144 3881581 3912434 
415.591 3932028 3938307 3931762 3915677 3895708 3878566 3870111 3873410 
419.448 3887649 3908219 3928237 3940862 3941644 3930118 3909967 3887886 
423.305 3871342 3866143 3874743 3895728 3924683 3956005 3984591 4007217 
427.162 4022786 4031963 4036270 4037470 4037188 4037116 4039277 4046067 
431.019 4059881 4082295 4113108 4149560 4186818 4218393 4237745 4240045 
434.876 4223516 4190041 4144661 4094258 4045698 4004126 3971870 3948242 
438.733 3930319 3914257 3896877 3876799 3854805 3833420 3815682 3803795 
442.590 3798176 3797171 3797793 3796899 3792518 3784612 3774909 3766037 
446.447 3760213 3758238 3759087 3760455 3759725 3755226 3746888 3736235 
450.304 3725712 3717670 3713511 3713356 3716251 3720769 3725572 3729754 
454.161 3732798 3734390 3734367 3732862 3730640 3729434 3731844 3740630 
458.017 3757724 3783109 3814341 3846912 3875377 3895114 3903799 3902196 
461.874 3893948 3884358 3878703 3880727 3891889 3911202 3935907 3962415 
465.731 3987216 4007453 4021356 4028320 4029068 4025576 4020828 4018275 
469.588 4020976 4030660 4047070 4067851 4089201 4107056 4118368 4122077 
473.445 4119291 4112735 4105685 4100914 4100057 4103589 4111335 4123069 
477.302 4139012 4159737 4185848 4217441 4253702 4293018 4333398 4373096 
481.159 4411121 4447363 4482403 4517037 4551737 4586454 4620588 4653327 
485.016 4684078 4712829 4740378 4768369 4799079 4835131 4878984 4932425 
488.873 4996075 5069073 5149137 5233086 5317639 5400532 5481212 5561111 
492.730 5643213 5730970 5827099 5932535 6046188 6165211 6285839 6404333 
496.587 6517541 6622988 6718514 6801736 6869734 6919242 6947253 6951771 
500.444 6932446 6890650 6829185 6751545 6661252 6561469 6454917 6343990 
504.301 6230937 6117780 6006073 5896605 5789251 5683269 5577773 5472453 
508.158 5367969 5265958 5168599 5077859 4994802 4919330 4850308 4786130 
512.015 4725386 4667319 4611894 4559591 4510960 4466321 4425639 4388694 
515.871 4355347 4325642 4299799 4277935 4259816 4244770 4231792 4219918 
519.728 4208628 4198031 4188718 4181348 4176047 4172120 4167873 4161122 
523.585 4149776 4132568 4109493 4081863 4051955 4022467 3995839 3973819 
527.442 3957160 3945585 3937899 3932238 3926358 3918054 3905603 3888161 
531.299 3866055 3840757 3814558 3789930 3768775 3751846 3738463 3726719 
535.156 3714109 3698339 3678083 3653435 3625805 3597505 3570957 3548008 
539.013 3529465 3515051 3503704 3494161 3485465 3477347 3470198 3464723 
542.870 3461430 3460153 3459819 3458700 3454845 3446821 3434172 3417611 
546.727 3398695 3379165 3360198 3341887 3323166 3302316 3277718 3248718 
550.584 3216084 3182006 3149460 3121346 3099539 3084377 3074556 3067501 
554.441 3060156 3049671 3034028 3012376 2984953 2953038 2918611 2883988 
558.298 2851503 2823120 2800108 2782832 2770741 2762570 2756701 2751619 
562.155 2746263 2740191 2733503 2726623 2719965 2713788 2708099 2702706 
566.012 2697319 2691589 2685123 2677465 2668108 2656604 2642751 2626747 
569.869 2609254 2591256 2573782 2557578 2542858 2529362 2516498 2503782 
573.725 2491065 2478638 2467114 2457074 2448828 2442214 2436705 2431684 
577.582 2426690 2421608 2416619 2412071 2408249 2405404 2403773 2403849 
581.439 2406480 2412827 2424021 2440690 2462528 2488201 2515552 2542208 
585.296 2566218 2586578 2603360 2617502 2630303 2643014 2656685 2672153 
589.153 2690418 2712799 2741012 2776842 2821677 2876019 2939250 3009744 
593.010 3085366 3163938 3243685 3323294 3401702 3477635 3549273 3614121 
596.867 3669258 3711728 3739105 3749897 3743600 3720618 3681945 3628900 
600.724 3562972 3485831 3399473 3306394 3209642 3112784 3019669 2934040 
604.581 2859132 2797248 2749405 2715279 2693254 2680858 2675250 2673791 
608.438 2674515 2676272 2678642 2681614 2685227 2689288 2693368 2696946 
612.295 2699731 2701826 2703757 2706259 2709940 2715014 2721181 2727788 
616.152 2734121 2739819 2745017 2750348 2756700 2764906 2775456 2788438 
620.009 2803599 2820604 2839169 2859197 2880699 2903739 2928318 2954415 
623.866 2982069 3011553 3043513 3079127 3120150 3169058 3228980 3303611 
627.723 3396734 3511383 3648533 3805666 3975619 4146282 4301522 4423683 
631.579 4496989 4511175 4464181 4362914 4221896 4060164 3897286 3749807 
635.436 3628816 3539205 3480276 3447524 3434630 3435271 3444276 3458095 
639.293 3474644 3492911 3512448 3533031 3554420 3576273 3598099 3619230 
643.150 3638911 3656371 3671021 3682607 3691341 3697909 3703313 3708657 
647.007 3714865 3722484 3731621 3741978 3753028 3764181 3774973 3785184 
650.864 3794875 3804368 3814122 3824681 3836488 3849787 3864577 3880657 
654.721 3897669 3915276 3933271 3951614 3970421 3989838 4009913 4030478 
658.578 4051198 4071638 4091454 4110593 4129327 4148285 4168304 4190239 
662.435 4214799 4242426 4273247 4307089 4343514 4381878 4421415 4461337 
666.292 4501003 4540086 4578680 4617328 4656857 4698110 4741597 4787314 
670.149 4834716 4883031 4931670 4980720 5031197 5085076 5144834 5212890 
674.006 5290981 5379728 5478577 5586017 5699954 5818154 5938370 6058405 
677.863 6175887 6288183 6392412 6485725 6565736 6630976 6681116 6716931 
681.720 6739985 6752217 6755708 6752524 6744920 6735524 6727405 6723871 
685.577 6728013 6742081 6767048 6802471 6846799 6898071 6954663 7015836 
689.433 7081957 7154193 7234001 7322481 7420001 7526186 7640152 7761039 
693.290 7888408 8022555 8164569 8316242 8479894 8658188 8853973 9070031 
697.147 9308773 9571806 9859545 10170894 10503331 10853192 11216245 11588256 
701.004 11965343 12344078 12721257 13093667 13458021 13811235 14151025 
704.379 14476535 14788669 15089992 15383999 15674168 15963025 16251741 
707.754 16540317 16828436 17116544 17406862 17703786 18014004 18345978 
711.129 18709508 19115358 19575276 20102266 20710840 21417082 22238254 
714.504 23191920 24294920 25562036 27005064 28631892 30445916 32445494 
717.878 34623380 36966192 39453892 42059724 44750408 47486472 50222324 
721.253 52905352 55473800 57853604 59956472 61681140 62921692 63583560 
724.628 63604496 62972908 61734652 59984248 57844752 55444296 52897900 
728.003 50297652 47710624 45181820 42739364 40399380 38169840 36052820 
731.378 34045516 32140922 30328446 28595150 26927510 25313300 23743286 
734.752 22212182 20718690 19264906 17855184 16495024 15190241 13946466 
738.127 12768985 11662699 10632010 9680665 8811340 8025273 7321847 6698484 
741.984 6150679 5672370 5256492 4895628 4582634 4311030 4075260 3870650 
745.841 3693264 3539678 3406812 3291815 3191997 3104994 3028743 2961571 
749.698 2902211 2849684 2803220 2762096 2725546 2692726 2662874 2635378 
753.555 2610064 2587228 2567683 2552481 2542615 2538649 2540509 2547429 
757.412 2558189 2571483 2586313 2602242 2619421 2638358 2659591 2683356 
761.269 2709455 2737372 2766543 2796689 2828060 2861376 2897695 2937967 
765.126 2982803 3032247 3085826 3142779 3202303 3263794 3326934 3391644 
768.983 3457966 3525798 3594845 3664500 3733799 3801549 3866366 3926945 
772.840 3982235 4031676 4075400 4114261 4149661 4183275 4216676 4251014 
776.697 4286984 4324941 4365235 4408535 4455963 4508973 4568974 4636822 
780.554 4712568 4795409 4884121 4977649 5075731 5179262 5290212 5411110 
784.410 5544383 5691768 5854022 6031071 6222453 6427838 6647354 6881468 
788.267 7130511 7393905 7669355 7952266 8235471 8509370 8762427 8981839 
792.124 9154516 9268152 9312443 9280453 9169800 8983608 8730888 8426120 
795.981 8088084 7737896 7396657 7083085 6811605 6591096 6424632 6310013 
799.838 6241035 6209073 6204803 6219547 6246246 6279813 6317009 6355944 
803.695 6395545 6435051 6473707 6510714 6545249 6576567 6604069 6627333 
807.552 6646117 6660416 6670467 6676902 6680703 6683241 6686052 6690570 
811.409 6697864 6708426 6722035 6737943 6755028 6772138 6788381 6803243 
815.266 6816706 6829074 6840849 6852520 6864336 6876297 6888120 6899375 
819.123 6909684 6918964 6927592 6936428 6946734 6959927 6977223 6999368 
822.980 7026495 7058092 7093284 7131079 7170722 7211826 7254435 7298875 
826.837 7345646 7395223 7447999 7504334 7564567 7629071 7698200 7772094 
830.694 7850612 7933179 8018853 8106437 8194788 8283011 8370654 8457725 
834.551 8544616 8631856 8719984 8809292 8899795 8991219 9083051 9174644 
838.408 9265310 9354433 9441510 9526218 9608392 9687968 9764896 9839064 
842.264 9910195 9977866 10041472 10100352 10153882 10201545 10243005 
845.639 10278101 10306916 10329711 10346956 10359338 10367759 10373241 
849.014 10376910 10379793 10382827 10386708 10391928 10398838 10407737 
852.389 10418914 10432681 10449324 10469092 10492130 10518536 10548446 
855.764 10582205 10620474 10664347 10715211 10774687 10844323 10925447 
859.139 11018984 11125574 11245687 11380025 11529785 11696936 11884300 
862.513 12095329 12333865 12603748 12908368 13250563 13632476 14055702 
865.888 14521317 15029840 15580900 16172634 16800954 17458710 18135188 
869.263 18816000 19483420 20117288 20696192 21198938 21605988 21900976 
872.638 22072052 22112976 22023646 21810036 21483334 21058460 20552350 
876.013 19982234 19364320 18713128 18041238 17359572 16677748 16004482 
879.387 15347767 14714852 14112088 13544643 13016322 12529466 12084999 
882.762 11682632 11321083 10998406 10712247 10460041 10239232 10047324 
886.137 9882030 9741126 9622427 9523730 9442712 9376974 9324200 9282254 
889.994 9249410 9224346 9206246 9194580 9188986 9189159 9194680 9205037 
893.851 9219619 9237675 9258311 9280458 9302862 9324184 9343047 9358174 
897.708 9368437 9372742 9369895 9358358 9336165 9301099 9250974 9184234 
901.565 9100365 9000233 8886012 8760840 8628202 8491462 8353401 8216115 
905.422 8081159 7949711 7822831 7701558 7586863 7479598 7380400 7289720 
909.279 7207766 7134573 7069988 7013613 6964785 6922684 6886536 6855889 
913.136 6830843 6812102 6800737 6797775 6803671 6817952 6839259 6865643 
916.993 6895194 6926557 6959298 6993720 7030540 7070224 7112732 7157337 
920.849 7202979 7248679 7293905 7338761 7383716 7429257 7475519 7522154 
924.706 7568528 7614105 7658779 7703080 7747912 7794179 7842304 7891973 
928.563 7942258 7992001 8040338 8087162 8133124 8179475 8227555 8278389 
932.420 8332444 8389699 8449951 8513115 8579481 8649717 8724727 8805461 
936.277 8892787 8987469 9090273 9202040 9323657 9455878 9599186 9753651 
940.134 9918983 10094737 10280663 10476924 10684068 10902824 11133618 
943.509 11376145 11629082 11890101 12156171 12424044 12690720 12953784 
946.884 13211511 13462839 13707311 13944957 14176281 14402290 14624321 
950.259 14843938 15062559 15281123 15499818 15717900 15933682 16144614 
953.633 16347288 16537380 16709630 16857882 16975438 17055742 17093504 
957.008 17085842 17033138 16939610 16813002 16663505 16502458 16340752 
960.383 16187689 16050220 15932922 15838183 15766801 15718463 15692258 
963.758 15686820 15700474 15731114 15776138 15832362 15895985 15962745 
967.133 16028105 16087608 16137221 16173665 16194528 16198255 16184008 
970.508 16151296 16099752 16028936 15938342 15827648 15696844 15546615 
973.882 15378419 15194541 14997977 14792202 14581065 14368472 14158301 
977.257 13954137 13759084 13575593 13405313 13249037 13106848 12978274 
980.632 12862617 12759151 12667306 12586619 12516725 12457038 12406696 
984.007 12364409 12328504 12297077 12268198 12240178 12211791 12182342 
987.382 12151773 12120585 12089547 12059683 12031997 12007403 11986595 
990.756 11970180 11958696 11952721 11952992 11960466 11976283 12001751 
994.131 12038238 12087119 12149542 12226345 12317836 12423754 12543230 
997.506 12674987 12817541 12969592 13130416 13300020 13479295 13669926 
1000.881 13874146 14094508 14333706 14594448 14879611 15192361 15536246 
1004.256 15915340 16334200 16797656 17310736 17878426 18505706 19197598 
1007.630 19959440 20797286 21718370 22731606 23847928 25080162 26442432 
1011.005 27948666 29610088 31431884 33408890 35520876 37727912 39966600 
1014.380 42148648 44163036 45883576 47182500 47948660 48106500 47630244 
1017.755 46548116 44935828 42901804 40569500 38061872 35490356 32948538 
1021.130 30510032 28228924 26141724 24270012 22623160 21200802 19994982 
1024.505 18992034 18174214 17521198 17011556 16623974 16338336 16136576 
1027.880 16002981 15924294 15889515 15889606 15917192 15966466 16032955 
1031.255 16113560 16206244 16309810 16423383 16546084 16676806 16814118 
1034.630 16956500 17102640 17251738 17403528 17558268 17716316 17877784 
1038.006 18042178 18208228 18373966 18536978 18694680 18844630 18984746 
1041.381 19113314 19228904 19330270 19416210 19485498 19536992 19569766 
1044.756 19583408 19578234 19555534 19517506 19467128 19407830 19343006 
1048.131 19275656 19208198 19142454 19079908 19021928 18970086 18926276 
1051.507 18892642 18871340 18864384 18873530 18900252 18945860 19011634 
1054.882 19098702 19207928 19339682 19493672 19669032 19864558 20079306 
1058.257 20313086 20566684 20841830 21140664 21465032 21815852 22192838 
1061.632 22594538 23019002 23464418 23929802 24415194 24921450 25449732 
1065.008 26000986 26575610 27173472 27794450 28438896 29108178 29804656 
1068.383 30531400 31291578 32087782 32921662 33794024 34705156 35655600 
1071.758 36646612 37680496 38760404 39889784 41071720 42308132 43599356 
1075.133 44944068 46339336 47781080 49264456 50784028 52333736 53906776 
1078.509 55495100 57089232 58678240 60250156 61792992 63295640 64749224 
1081.884 66147844 67488824 68772168 69999920 71175200 72301616 73383064 
1085.259 74423728 75428024 76400448 77344968 78264528 79160360 80032096 
1088.634 80878000 81695688 82482568 83236000 83952664 84627792 85254288 
1092.010 85822520 86320552 86735160 87052872 87261120 87348584 87305624 
1095.385 87124544 86800064 86329928 85715600 84962344 84078552 83074480 
1098.760 81960776 80747128 79441688 78051408 76582712 75042552 73439136 
1102.135 71782576 70085104 68360944 66626556 64900256 63202124 61553456 
1105.510 59976168 58492108 57122304 55886380 54801948 53883784 53142948 
1108.886 52585624 52211948 52014856 51979740 52084376 52300216 52594012 
1112.261 52930344 53274016 53592336 53856676 54043372 54133980 54115296 
1115.636 53979028 53721820 53344752 52852892 52254532 51560096 50781284 
1119.011 49930304 49019252 48059936 47063608 46040668 45000380 43950616 
1122.387 42897780 41846968 40802312 39767488 38746016 37741424 36757256 
1125.762 35796784 34862828 33957500 33082194 32237450 31422942 30637392 
1129.137 29878634 29143694 28429214 27731886 27049046 26379126 25721776 
1132.512 25077600 24447818 23833584 23235614 22653986 22088308 21538004 
1135.888 21002730 20482476 19977662 19488884 19016646 18561192 18122428 
1139.263 17700016 17293484 16902400 16526376 16165037 15817940 15484577 
1142.638 15164442 14857195 14562719 14281215 14013100 13758720 13518244 
1146.013 13291363 13077362 12875077 12683173 12500218 12324800 12155555 
1149.389 11991137 11830298 11671919 11515180 11359683 11205451 11052838 
1152.764 10902306 10754111 10608196 10464128 10321282 10179188 10037713 
1156.139 9897400 9759383 9625264 9496909 9376170 9264674 9163819 9074660 
1159.997 8997948 8934148 8883464 8845951 8821620 8810742 8814019 8832720 
1163.854 8868722 8924277 9001729 9103154 9230006 9382976 9561826 9765286 
1167.711 9990995 10235226 10492820 10757089 11020011 11272819 11506747 
1171.087 11713979 11888342 12025807 12124413 12183978 12205499 12190723 
1174.462 12141702 12060750 11950455 11813795 11654168 11475373 11281404 
1177.837 11076368 10864385 10649581 10436147 10228328 10030413 9846394 
1181.212 9679780 9533244 9408428 9305947 9225572 9166483 9127656 9108138 
1185.070 9107199 9124377 9159415 9212108 9282139 9368981 9471823 9589633 
1188.927 9721134 9864989 10019877 10184553 10357936 10538993 10726751 
1192.302 10920258 11118574 11320826 11526374 11734900 11946458 12161520 
1195.678 12380869 12605481 12836356 13074422 13320455 13574977 13838336 
1199.053 14110629 14391778 14681616 14979981 15286890 15602608 15927702 
1202.428 16262978 16609211 16966982 17336536 17717772 18110452 18514430 
1205.803 18930044 19358312 19800820 20259538 20736476 21233242 21750842 
1209.179 22289694 22849680 23430534 24032050 24654370 25298036 25964042 
1212.554 26653758 27368828 28110984 28881832 29682582 30513766 31374982 
1215.929 32264652 33179980 34116928 35070296 36033984 37001228 37965204 
1219.304 38919692 39860080 40784260 41693492 42592616 43489868 44395860 
1222.680 45322404 46281204 47282648 48335220 49445272 50617080 51853208 
1226.055 53154820 54522168 55954964 57452960 59016364 60646248 62344436 
1229.430 64113236 65954440 67868664 69854464 71908400 74025152 76198176 
1232.805 78420112 80682800 82976376 85288240 87601944 89896784 92148408 
1236.181 94330168 96414768 98375920 100189136 101832224 103285624 104532848 
1239.556 105561720 106365488 106943312 107300032 107444976 107390536 
1242.449 107150888 106741904 106181264 105488608 104685248 103792808 
1245.342 102831808 101819912 100771704 99699304 98613576 97525376 96446264 
1248.717 95388016 94361520 93375744 92437032 91549440 90715656 89938208 
1252.093 89220056 88564536 87974456 87450936 86992232 86593328 86246056 
1255.468 85939944 85662648 85400680 85139536 84863952 84558280 84207352 
1258.843 83797640 83318384 82762208 82125360 81406864 80608064 79732112 
1262.218 78783920 77770536 76701248 75587264 74440848 73273776 72096248 
1265.594 70916048 69738696 68568152 67407856 66261472 65133192 64027184 
1268.969 62947100 61895156 60871864 59876104 58905768 57958256 57031272 
1272.344 56122892 55231716 54356492 53496128 52649332 51814776 50991052 
1275.719 50176860 49370848 48571856 47778660 46990288 46206016 45425512 
1279.094 44648956 43876908 43110156 42349532 41595744 40849336 40110812 
1282.470 39380900 38660536 37951032 37253976 36570968 35903432 35252524 
1285.845 34618972 34003312 33405826 32826642 32265652 31722364 31195656 
1289.220 30683724 30183962 29693180 29207764 28724006 28238216 27746982 
1292.595 27247164 26736044 26211504 25672296 25118422 24551332 23974098 
1295.971 23391216 22808160 22230876 21665060 21115716 20586866 20081548 
1299.346 19601930 19149462 18724910 18328240 17958368 17613068 17288856 
1302.721 16981370 16685814 16397725 16113462 15830699 15548453 15266822 
1306.096 14986609 14708848 14434487 14164321 13899165 13640043 13388394 
1309.472 13146234 12915923 12699817 12499797 12316795 12150405 11998834 
1312.847 11859023 11727142 11599075 11471137 11340385 11204921 11063813 
1316.222 10916959 10764702 10607634 10446413 10281765 10114463 9945373 
1319.597 9775513 9605891 9437500 9271169 9107535 8947182 8790719 8638962 
1323.455 8493128 8354727 8225733 8108414 8005322 7919235 7853219 7810560 
1327.312 7794737 7809562 7858978 7947124 8078196 8256376 8485482 8768563 
1331.170 9107221 9500990 9946645 10437847 10965069 11515775 12075075 
1334.545 12626287 13151962 13634755 14058590 14409581 14677148 14854667 
1337.920 14939770 14934286 14843711 14676306 14442164 14152257 13817514 
1341.295 13448310 13054106 12643363 12223608 11801493 11382876 10972863 
1344.671 10575712 10194886 9832933 9491681 9172211 8875006 8600020 8346845 
1348.528 8114788 7903045 7710809 7537359 7382060 7244254 7123077 7017426 
1352.385 6925834 6846691 6778355 6719476 6669122 6626866 6592677 6566712 
1356.243 6549181 6540197 6539812 6548042 6565123 6591590 6628422 6676985 
1360.100 6739032 6816590 6911737 7026465 7162345 7320261 7500128 7700696 
1363.958 7919497 8152980 8396719 8645698 8894663 9138452 9372140 9591360 
1367.815 9792498 9972720 10130168 10263929 10373961 10460961 10526258 
1371.190 10571551 10598776 10609850 10606584 10590457 10562591 10523631 
1374.566 10473872 10413314 10341993 10260126 10168428 10068308 9961881 
1377.941 9851968 9741817 9634894 9534483 9443488 9364250 9298488 9247402 
1381.798 9211671 9191554 9186953 9197426 9222138 9259909 9309243 9368379 
1385.656 9435261 9507791 9583799 9661225 9738269 9813457 9885701 9954239 
1389.513 10018742 10079136 10135655 10188913 10239901 10289923 10340729 
1392.888 10394353 10453033 10519160 10595344 10684431 10789616 10914552 
1396.264 11063356 11240459 11450484 11697915 11986944 12321423 12704924 
1399.639 13141064 13633843 14187799 14808108 15500100 16268425 17115750 
1403.014 18041090 19037940 20092520 21182382 22275732 23332040 24303938 
1406.389 25140520 25791884 26214054 26373806 26252478 25848022 25175238 
1409.765 24263960 23155844 21899872 20547690 19149228 17749206 16384861 
1413.140 15084872 13869421 12750877 11735210 10823289 10012197 9296421 
1416.515 8668711 8120735 7643707 7228909 6868118 6554038 6280543 6042704 
1420.373 5836551 5658841 5506583 5376995 5267435 5175564 5099620 5038550 
1424.230 4991946 4959876 4942494 4939808 4951494 4976926 5015414 5066386 
1428.087 5129542 5204892 5292644 5392910 5505580 5630126 5765671 5911050 
1431.945 6065022 6226371 6394088 6567277 6745186 6926936 7111446 7297361 
1435.802 7483003 7666580 7846388 8021070 8189843 8352626 8509962 8663072 
1439.660 8813779 8964520 9118415 9279111 9450670 9637064 9841654 10066593 
1443.517 10312323 10577558 10859390 11153805 11456323 11762501 12068120 
1446.892 12369114 12661235 12939702 13199000 13433015 13635345 13799830 
1450.268 13921125 13995217 14019914 13995115 13922942 13807604 13654846 
1453.643 13471350 13264021 13039532 12804043 12563188 12322106 12085266 
1457.018 11856338 11637715 11430433 11234077 11047229 10867956 10694495 
1460.393 10525591 10360686 10199741 10042922 9890111 9740788 9593897 9448080 
1464.251 9301935 9154413 9004958 8853547 8700655 8547089 8393799 8241843 
1468.108 8092267 7946000 7803827 7666214 7533288 7404763 7280023 7158296 
1471.966 7038726 6920662 6803602 6687309 6571663 6456576 6341827 6227047 
1475.823 6111721 5995169 5876758 5756020 5632772 5507223 5380010 5252100 
1479.680 5124626 4998700 4875171 4754573 4636971 4522146 4409791 4299758 
1483.538 4192206 4087722 3987226 3891824 3802582 3720386 3645798 3579057 
1487.395 3520060 3468533 3423978 3385828 3353488 3326464 3304470 3287560 
1491.253 3276243 3271438 3274398 3286590 3309488 3344476 3392798 3455599 
1495.110 3534058 3629437 3743252 3877464 4034726 4218781 4434706 4689149 
1498.968 4989841 5344555 5759297 6235686 6768490 7343560 7937025 8516470 
1502.825 9043725 9479403 9788089 9943521 9932712 9758050 9437044 8999309 
1506.682 8481698 7922541 7356580 6811455 6306366 5852419 5454134 5111283 
1510.540 4820585 4577105 4375121 4208832 4072645 3961438 3870740 3796627 
1514.397 3735839 3685697 3644158 3609814 3581852 3559955 3544065 3534107 
1518.255 3529784 3530427 3534974 3542226 3551024 3560424 3569883 3579125 
1522.112 3588134 3596898 3605375 3613452 3620980 3627792 3633801 3638853 
1525.969 3642669 3644803 3644591 3641320 3634304 3623159 3607853 3588782 
1529.827 3566612 3542109 3515980 3488684 3460494 3431514 3401818 3371587 
1533.684 3341106 3310833 3281266 3252874 3226046 3201034 3177948 3156900 
1537.542 3137811 3120605 3105064 3090912 3077848 3065558 3053919 3042969 
1541.399 3032998 3024480 3017909 3013746 3012180 3013115 3016154 3020673 
1545.257 3026055 3031880 3038085 3044968 3053083 3063056 3075242 3089587 
1549.114 3105608 3122444 3139255 3155337 3170532 3185028 3199314 3213864 
1552.971 3228836 3243949 3258537 3271760 3283007 3292081 3299440 3306002 
1556.829 3313018 3321641 3332721 3346652 3363312 3382288 3403062 3425279 
1560.686 3448843 3473941 3500916 3530076 3561600 3595450 3631429 3669339 
1564.544 3709111 3751032 3795811 3844542 3898624 3959488 4028555 4107025 
1568.401 4195913 4296185 4408753 4534623 4674872 4830520 5002409 5191001 
1572.259 5396303 5617624 5853395 6100934 6356008 6612528 6862401 7095726 
1576.116 7301531 7468889 7588152 7652028 7656261 7599769 7484564 7315459 
1579.973 7099730 6846689 6567137 6272436 5973684 5680758 5401662 5142306 
1583.831 4906482 4696160 4511875 4353048 4218224 4105255 4011483 3933879 
1587.688 3869285 3814797 3767902 3726752 3690135 3657344 3627986 3601779 
1591.546 3578380 3557436 3538629 3521877 3507411 3495723 3487435 3483155 
1595.403 3483219 3487724 3496499 3509297 3525885 3546236 3570455 3598786 
1599.260 3631410 3668375 3709479 3754375 3802509 3853287 3906114 3960533 
1603.118 4016200 4073025 4131135 4190878 4252785 4317380 4385095 4456041 
1606.975 4530022 4606588 4685069 4764776 4845075 4925230 5004444 5081581 
1610.833 5155125 5223152 5283496 5333974 5372582 5397624 5407830 5402311 
1614.690 5380670 5343064 5290499 5224865 5149058 5066719 4981772 4897983 
1618.548 4818497 4745655 4680956 4625164 4578541 4541019 4512177 4491349 
1622.405 4477618 4469821 4466719 4467002 4469561 4473504 4478176 4483293 
1626.262 4488814 4494964 4502191 4511015 4521955 4535318 4551130 4569081 
1630.120 4588566 4608873 4629254 4649138 4668125 4685890 4702265 4717094 
1633.977 4730343 4742229 4753289 4764326 4776292 4789966 4805685 4823175 
1637.835 4841741 4860443 4878538 4895825 4912712 4930107 4949124 4970696 
1641.692 4995309 5023002 5053400 5086026 5120364 5155988 5192487 5229516 
1645.550 5266683 5303748 5340722 5377958 5416122 5455911 5497795 5541809 
1649.407 5587509 5634162 5681129 5728199 5775711 5824536 5875778 5930355 
1653.264 5988789 6051187 6117378 6187439 6261743 6340976 6425973 6517382 
1657.122 6615400 6719717 6829802 6945100 7065473 7191153 7322749 7460931 
1660.979 7606188 7758695 7918364 8084911 8257995 8437250 8622128 8811928 
1664.837 9005665 9202307 9401006 9601378 9803525 10008045 10215528 10426299 
1668.694 10640102 10856132 11073337 11290778 11508010 11725257 11943273 
1672.069 12163076 12385756 12612292 12843499 13080068 13322516 13571072 
1675.445 13825461 14084862 14348017 14613555 14880420 15148199 15417178 
1678.820 15688051 15961531 16237858 16516759 16797550 17079614 17362938 
1682.195 17648224 17936834 18230224 18529606 18835620 19148458 19468510 
1685.570 19796962 20136044 20488956 20859336 21250596 21665304 22105336 
1688.946 22572100 23067192 23592838 24152006 24748104 25384748 26065520 
1692.321 26794272 27575874 28416592 29324206 30307012 31372348 32525026 
1695.696 33766724 35096932 36515656 38026440 39638736 41368112 43234072 
1699.071 45256144 47449604 49822880 52377532 55111408 58023452 61117632 
1702.447 64404140 67896792 71607984 75543104 79696560 84050808 88578016 
1705.822 93243088 98005600 102819288 107629920 112373296 116976312 121361744 
1709.197 125455584 129193416 132522472 135399792 137788096 139654864 
1712.090 140976208 141744272 141973152 141698496 140970224 139840992 
1714.983 138357232 136556080 134469360 132130552 129580256 126866456 
1717.876 124039472 121144320 118214928 115272400 112327560 109386024 
1720.769 106452944 103535272 100641760 97781096 94960168 92183256 89452800 
1724.145 86770776 84140008 81564192 79047184 76591696 74198160 71864976 
1727.520 69589216 67368032 65199632 63083344 61018784 59004576 57037280 
1730.895 55111324 53219808 51356284 49516360 47699088 45906992 44145088 
1734.270 42419048 40733348 39089760 37487104 35921828 34389380 32885576 
1737.646 31407762 29955390 28530016 27134890 25774234 24452618 23174282 
1741.021 21942962 20761686 19632826 18558134 17538724 16575252 15667860 
1744.396 14816311 14020060 13278191 12589344 11951586 11362455 10818952 
1747.771 10317943 9856341 9431335 9040462 8681341 8351419 8047897 7767714 
1751.629 7507936 7266195 7040962 6831529 6637626 6458982 6294742 6143467 
1755.486 6003186 5872133 5749069 5633647 5526161 5427028 5336302 5253064 
1759.344 5175662 5102000 5030153 4959002 4888371 4818931 4751630 4687277 
1763.201 4626140 4567942 4512052 4457914 4405254 4354230 4305275 4258898 
1767.058 4215371 4174758 4136741 4100905 4066772 4034001 4002350 3971839 
1770.916 3942497 3914336 3887301 3861014 3834944 3808282 3780460 3751282 
1774.773 3721286 3691790 3664697 3641824 3624393 3612486 3604757 3598951 
1778.631 3592487 3583340 3570670 3554967 3537648 3520361 3504389 3490210 
1782.488 3477538 3465702 3454163 3442645 3431270 3420101 3408927 3397012 
1786.345 3383301 3366863 3347378 3325421 3302437 3280233 3260410 3243945 
1790.203 3230770 3220100 3210718 3201406 3191255 3179739 3166683 3152218 
1794.060 3136801 3121161 3106315 3093475 3083638 3077209 3073768 3072071 
1797.918 3070417 3067330 3062052 3054876 3046933 3039507 3033466 3028603 
1801.775 3023772 3017289 3007867 2995280 2980671 2966331 2954909 2948483 
1805.633 2947934 2952648 2960759 2969856 2977695 2982659 2984095 2982226 
1809.490 2977846 2972076 2965984 2960306 2955187 2950089 2943805 2934799 
1813.347 2921718 2904042 2882694 2860256 2840468 2827559 2824973 2834308 
1817.205 2854710 2882946 2914371 2944178 2968523 2985418 2994695 2997475 
1821.062 2995442 2990199 2982928 2974457 2965479 2956787 2949214 2943531 
1824.920 2940098 2938553 2937898 2936475 2932540 2924551 2911569 2893481 
1828.777 2870959 2845340 2818316 2791625 2766682 2744372 2724863 2707729 
1832.635 2692122 2677150 2662212 2647249 2632708 2619488 2608450 2600248 
1836.492 2594845 2591590 2589164 2586000 2580425 2571052 2556868 2537399 
1840.349 2512765 2483615 2451075 2416802 2382602 2350436 2322019 2298595 
1844.207 2280647 2267895 2259262 2253084 2247495 2240815 2231803 2219886 
1848.064 2205227 2188341 2169908 2150437 2130091 2108734 2086294 2063151 
1851.922 2040354 2019441 2002103 1989455 1981392 1976485 1972295 1966174 
1855.779 1956492 1943069 1927511 1912611 1901126 1894995 1894547 1898867 
1859.636 1906330 1915710 1926572 1939317 1954288 1971065 1987613 2000470 
1863.494 2005665 2000081 1982625 1954958 1920912 1885440 1853002 1826621 
1867.351 1807301 1794455 1786526 1782019 1779693 1778575 1777710 1775881 
1871.209 1771733 1764216 1752950 1738600 1722602 1706612 1691904 1679056 
1875.066 1668047 1658892 1652360 1650203 1654695 1667849 1690031 1719438 
1878.924 1751911 1782147 1805035 1817244 1818054 1809253 1794286 1777133 
1882.781 1761110 1748307 1739618 1735128 1734366 1736558 1740538 1744775 
1886.638 1747564 1747391 1743628 1736641 1727984 1719681 1713491 1710360 
1890.496 1710067 1711777 1714837 1719518 1727089 1739609 1758533 1783826 
1894.353 1813136 1842053 1865008 1876965 1874749 1858004 1829368 1793788 
1898.211 1757216 1725511 1703290 1693371 1696308 1710694 1733150 1759201 
1902.068 1783921 1802920 1813063 1813336 1804497 1789006 1769990 1750633 
1905.926 1733361 1719636 1710099 1704764 1703220 1705161 1710150 1717886 
1909.783 1728223 1741075 1756372 1773776 1792156 1809222 1821615 1825230 
1913.640 1816610 1793917 1758169 1713712 1667308 1626700 1598674 1587488 
1917.498 1594162 1616706 1650956 1692206 1735534 1776710 1811723 1837085 
1921.355 1849639 1847394 1830370 1801237 1765214 1729690 1702198 1689160 
1925.213 1694348 1717928 1756678 1804648 1853916 1896096 1923576 1931079 
1929.070 1916762 1883254 1837270 1788578 1747389 1721751 1715026 1725277 
1932.927 1746198 1769810 1789401 1801986 1808638 1813170 1819245 1828267 
1936.785 1837858 1843053 1838406 1821019 1791552 1754799 1717145 1684362 
1940.642 1659648 1643060 1632777 1627304 1626868 1633704 1650669 1679300 
1944.500 1718054 1761976 1804473 1840067 1866179 1884554 1899840 1917309 
1948.357 1940297 1968689 1999121 2027196 2049216 2064324 2073725 2080010 
1952.215 2083918 2084061 2076087 2055063 2017450 1963862 1899245 1832275 
1956.072 1772822 1729359 1706799 1705863 1723315 1753191 1788230 1821654 
1959.929 1847409 1861711 1863271 1853521 1836314 1817137 1800823 1790264 
1963.787 1784890 1780417 1769894 1746978 1707324 1651748 1584829 1514839 
1967.644 1450110 1397163 1358788 1334049 1318330 1306291 1292598 1273159 
1971.502 1246120 1211919 1173096 1134895 1104475 1090516 1101450 1144671 
1975.359 1224355 1340218 1487141 1656098 1834551 2008530 2164923 2292555 
1979.217 2384629 2438239 2454332 2437132 2392811 2329116 2253674 2173713 
1983.074 2094725 2020326 1951880 1889934 1833875 1784379 1742945 1712098 
1986.931 1694620 1691713 1702153 1721764 1743091 1757631 1757862 1740146 
1990.789 1706116 1662809 1620187 1587987 1571911 1571377 1579546 1585789 
1994.646 1579927 1555808 1513306 1458268 1399217 1343842 1295897 1255083 
1998.504 1217659 1180354 1142490 1107396 1079849 1064337 1060894 1064796 
2002.361 1068189 1063589 1048036 1025150 1003682 993018 997612 1013489 
2006.219 1028596 1027639 999661 945047 875849 811892 771628 764438 786936 
2010.558 825306 862184 886605 898051 908089 933615 988613 1074565 1178836 
2014.898 1276054 1338058 1342678 1282230 1165544 1015292 860095 727388 
2018.755 636122 595237 603222 651783 727393 815114 898430 961968 992386 
2023.095 981085 925376 829893 704605 562640 417439 278872 152396 40599 
2027.434 -56575 -137758 -201165 -244072 -265618 -268350 -259540 -249592 
2031.292 -249899 -267913 -304702 -352388 -396021 -417195 -400650 -339038 
2035.149 -236750 -109086 22109 136220 220403 274567 311602 353329 421938 
2039.489 531438 681091 854545 1024686 1162257 1245648 1268592 1240347 
2043.346 1182461 1119785 1072897 1052416 1059261 1088387 1135058 1198118 
2047.204 1281007 1386811 1513184 1648176 1770650 1856494 1887765 1859414 
2051.061 1782147 1679064 1579610 1511085 1492091 1527830 1610290 1720624 
2054.918 1835683 1933684 1999726 2027268 2017838 1977999 1917797 1847888 
2058.776 1778975 1720378 1679535 1660309 1662583 1681869 1710631 1739658 
2062.633 1761202 1770718 1767847 1756453 1742452 1731740 1728760 1735291 
2066.491 1751376 1776278 1810173 1854041 1909725 1977891 2056922 2141382 
2070.348 2222823 2291156 2337594 2357394 2351325 2325413 2289335 2253016 
2074.206 2224013 2205099 2194656 2187831 2179727 2167413 2151866 2137147 
2078.063 2128605 2129916 2140786 2156071 2167187 2164639 2142038 2098190 
2081.920 2038722 1973999 1916820 1877902 1863112 1871862 1898207 1933090 
2085.778 1967917 1997093 2019411 2037593 2056069 2078310 2105197 2133643 
2089.635 2157997 2171460 2168846 2147827 2110106 2060492 2005807 1952753 
2093.493 1907228 1872965 1851984 1844824 1851143 1869572 1898090 1933086 
2097.350 1969987 2003238 2027744 2039815 2038356 2025208 2005064 1983997 
2101.208 1968147 1962181 1968260 1985676 2011352 2040388 2067636 2088497 
2105.065 2100229 2102452 2097557 2090075 2085732 2089832 2106002 2134639 
2108.922 2173421 2217326 2260664 2298477 2327957 2348546 2361459 2368073 
2112.780 2368844 2362602 2347190 2320378 2281537 2232204 2176501 2119530 
2116.637 2066347 2020163 1981939 1950623 1924091 1899999 1877049 1854388 
2120.495 1831593 1807841 1782027 1753063 1720957 1687372 1655919 1630685 
2124.352 1615088 1609509 1610734 1612096 1605293 1582851 1540803 1479533 
2128.209 1403950 1321211 1239182 1163633 1097668 1041478 993612 951871 
2132.067 914696 881456 852486 828939 812206 803579 803825 812329 826891 
2136.406 843205 856100 859931 851818 831778 804441 776729 756610 748959 
2140.746 754369 767872 781640 786976 778570 755011 719501 676504 629801 
2145.086 579711 523106 454612 370121 268374 153065 30991 -88780 -198016 
2149.425 -290838 -364582 -418749 -455882 -480091 -498582 -520985 -559170 
2153.283 -624658 -726362 -866338 -1039915 -1233328 -1427710 -1601048 
2156.658 -1731414 -1799847 -1792949 -1703019 -1533258 -1297289 -1020622 
2160.033 -735876 -475220 -263407 -111867 -16810 36840 70406 103926 150004 
2164.373 211101 279949 343383 390429 415074 419818 412699 404495 402406 
2168.712 408608 418213 422855 411964 378134 317288 231077 126796 16550 
2173.052 -83826 -155702 -182060 -150132 -57027 88322 264240 440796 585996 
2177.392 674975 695279 650177 556113 438030 321600 227844 168718 147943 
2181.731 162565 207066 274952 361059 459220 561995 659197 740781 797419 
2186.071 825983 830550 822963 820001 838251 888273 970920 1074964 1179659 
2190.410 1259728 1292641 1264285 1173801 1033785 867508 702423 564498 472110 
2194.750 433556 447030 503637 590697 696414 811075 928563 1044333 1154903 
2199.090 1255210 1339516 1401318 1435176 1438674 1413372 1365359 1304868 
2202.947 1244611 1197797 1175111 1182858 1220667 1281504 1352754 1419094 
2206.804 1466396 1485796 1475431 1441545 1395886 1352486 1322958 1314093 
2210.662 1326477 1355761 1394747 1436943 1477551 1514723 1548154 1578061 
2214.519 1603909 1624416 1637678 1642784 1639930 1631478 1620812 1611801 
2218.377 1608011 1612703 1627950 1655422 1695073 1744929 1799947 1852408 
2222.234 1892680 1911673 1903440 1867633 1809980 1741581 1675377 1622836 
2226.092 1591001 1580944 1588315 1606051 1626914 1646482 1663614 1680493 
2229.949 1700772 1727648 1762233 1803459 1847878 1891724 1931821 1967171 
2233.806 1999466 2032511 2071193 2119716 2179473 2248003 2318500 2381504 
2237.664 2426688 2446380 2437476 2403152 2351620 2294129 2241236 2200089 
2241.521 2172772 2156590 2145782 2135281 2122232 2107850 2096312 2093312 
2245.379 2103135 2126847 2161555 2201437 2239226 2268645 2285754 2289775 
2249.236 2282698 2268158 2250149 2232212 2216911 2206016 2200680 2202167 
2253.094 2211908 2231453 2261779 2303199 2354312 2412266 2472456 2529539 
2256.951 2578218 2613921 2633520 2635750 2620938 2590887 2548206 2496507 
2260.808 2439614 2381833 2327222 2279569 2241422 2214255 2197860 2191562 
2264.666 2194208 2205457 2225674 2255788 2296025 2345148 2399389 2453235 
2268.523 2500294 2535623 2557119 2566694 2569339 2571846 2580102 2597518 
2272.381 2624030 2656724 2691029 2722936 2749644 2770541 2786131 2797534 
2276.238 2805280 2809335 2809379 2805711 2799682 2794163 2792820 2799525 
2280.095 2817114 2847084 2888880 2940349 2997805 3056659 3111871 3158701 
2283.953 3193286 3213488 3219249 3212631 3197054 3176397 3153468 3129736 
2287.810 3105022 3078411 3049287 3018501 2988533 2963150 2945807 2938538 
2291.668 2940666 2948974 2958554 2964404 2962930 2953060 2936125 2915193 
2295.525 2893747 2874614 2859086 2847172 2837816 2829795 2822100 2814536 
2299.383 2807455 2801790 2798568 2798763 2802917 2810908 2821611 2833134 
2303.240 2842779 2847890 2846247 2837078 2821141 2800747 2778910 2758797 
2307.097 2742583 2731190 2724249 2720621 2718964 2718384 2718692 2720125 
2310.955 2723312 2728767 2736822 2747534 2760709 2776081 2793258 2811833 
2314.812 2831216 2851004 2870812 2890687 2910929 2931918 2953821 2976529 
2318.670 2999766 3023436 3048207 3076005 3109325 3150650 3200551 3256529 
2322.527 3312138 3357853 3382882 3378107 3338592 3265033 3163965 3046301 
2326.385 2924934 2812192 2717359 2645375 2596293 2566562 2550448 2542182 
2330.242 2537206 2533107 2529204 2526028 2524340 2524561 2526533 2529702 
2334.099 2533342 2537045 2540805 2545099 2550545 2557629 2566320 2576072 
2337.957 2585653 2593522 2598048 2598035 2592987 2583452 2570691 2556622 
2341.814 2543282 2532435 2525198 2522057 2522774 2526821 2533489 2542143 
2345.672 2552300 2563394 2574804 2585766 2595377 2602805 2607442 2609095 
2349.529 2608129 2605310 2601682 2598421 2596564 2596920 2599731 2604902 
2353.386 2611867 2619691 2627374 2634037 2639133 2642652 2645052 2647139 
2357.244 2649797 2653505 2658202 2663189 2667174 2668675 2666290 2659081 
2361.101 2646916 2630356 2610605 2589349 2568449 2549648 2534456 2523812 
2364.959 2518160 2517251 2520335 2526248 2533707 2541596 2549126 2556128 
2368.816 2562836 2569812 2577621 2586657 2596826 2607659 2618344 2628044 
2372.674 2636062 2642131 2646339 2649096 2650966 2652401 2653650 2654730 
2376.531 2655486 2655848 2655853 2655890 2656534 2658439 2662141 2667810 
2380.388 2675221 2683713 2692379 2700173 2706051 2709071 2708524 2703965 
2384.246 2695341 2683196 2668776 2653947 2640915 2631683 2627485 2628405 
2388.103 2633010 2638972 2643402 2644017 2639506 2630111 2617349 2603455 
2391.961 2590630 2580571 2574029 2571084 2571277 2574023 2578763 2584904 
2395.818 2591853 2598830 2605060 2610137 2614238 2618243 2623382 2630643 
2399.676 2640076 2650296 2658449 2661073 2655110 2639194 2614344 2583867 
2403.533 2552824 2526339 2508426 2501070 2503963 2515038 2531209 2549381 
2407.390 2566983 2582019 2593005 2598843 2598618 2592058 2579701 2563133 
2411.248 2544948 2528241 2515729 2509182 2508971 2514133 2522845 2533241 
2415.105 2543748 2553628 2562587 2570368 2576363 2579315 2577448 2568995 
2418.963 2552819 2528929 2498598 2464462 2429684 2397677 2371199 2352193 
2422.820 2341457 2338738 2342841 2351939 2363843 2376336 2387356 2395511 
2426.677 2399943 2400691 2398116 2393012 2386161 2378272 2369795 2361315 
2430.535 2353450 2347032 2343156 2342739 2346195 2353386 2363432 2374959 
2434.392 2386707 2397742 2407643 2416665 2425064 2432789 2439054 2442529 
2438.250 2441458 2434623 2421824 2404367 2384648 2365743 2350348 2339879 
2442.107 2334294 2332141 2331369 2330140 2327819 2325140 2323960 2326679 
2445.965 2335107 2349969 2370227 2393465 2416386 2435534 2448202 2453052 
2449.822 2450229 2441482 2429517 2417458 2408103 2403175 2402866 2406057 
2453.679 2410488 2413515 2413091 2408281 2399659 2388912 2378269 2369613 
2457.537 2363651 2359885 2356618 2351899 2344280 2333527 2320720 2307953 
2461.394 2297663 2291580 2290237 2292936 2297905 2303209 2307179 2308941 
2465.252 2308433 2305821 2301104 2293939 2283331 2268269 2248359 2224504 
2469.109 2199074 2175546 2157757 2148549 2148818 2156948 2169036 2180050 
2472.967 2185358 2182264 2170861 2154254 2137508 2126271 2125004 2135920 
2476.824 2158555 2190039 2226179 2262630 2295567 2322189 2340750 2350258 
2480.681 2350447 2341780 2325665 2304834 2282898 2264025 2251835 2248675 
2484.539 2254794 2268465 2286618 2305732 2322944 2336664 2346634 2353627 
2488.396 2358709 2362730 2366029 2368604 2370192 2370711 2370166 2368802 
2492.254 2366660 2363843 2360307 2356389 2352656 2350205 2350169 2353344 
2496.111 2359952 2369175 2379619 2389586 2397807 2403534 2406606 2407222 
2499.969 2405399 2400875 2393180 2382323 2369158 2355872 2345530 2341465 
2503.826 2346035 2359816 2381092 2406302 2430958 2451212 2464638 2470907 
2507.683 2471578 2469197 2466364 2465036 2465952 2469072 2473774 2479484 
2511.541 2485834 2492850 2500398 2508273 2515682 2521398 2523953 2522203 
2515.398 2515668 2505027 2492192 2480010 2471826 2470653 2478371 2495195 
2519.256 2519406 2547904 2576591 2601601 2619909 2630063 2632166 2627593 
2523.113 2618531 2607591 2597317 2590241 2588467 2593476 2605377 2622737 
2526.970 2642069 2658599 2667103 2663715 2647210 2619809 2586861 2555566 
2530.828 2532686 2522656 2526294 2540916 2561454 2582415 2599650 2611433 
2534.685 2618396 2622645 2626413 2631018 2636493 2641996 2646546 2649797 
2538.543 2652549 2656362 2662822 2672923 2686522 2702362 2718606 2733668 
2542.400 2746621 2757464 2766895 2775742 2784480 2792799 2799815 2804385 
2546.258 2805496 2802851 2796925 2788979 2780633 2773582 2769006 2767573 
2550.115 2769075 2772700 2777142 2781065 2783307 2783252 2780967 2777320 
2553.972 2773654 2771600 2772496 2777117 2785274 2795891 2807087 2816516 
2557.830 2822071 2822186 2816413 2805551 2791495 2776947 2764614 2756984 
2561.687 2755458 2760450 2771257 2786581 2804855 2824690 2844894 2864707 
2565.545 2883589 2900952 2916240 2928889 2938574 2945127 2948616 2949431 
2569.402 2947913 2944375 2939113 2932511 2925164 2918094 2912430 2909310 
2573.260 2909462 2912939 2919122 2926910 2935017 2942488 2948639 2953301 
2577.117 2956449 2958045 2958047 2956415 2953494 2950097 2947445 2946873 
2580.974 2949249 2954542 2961550 2968279 2972621 2973123 2969625 2963356 
2584.832 2956559 2951676 2950326 2952943 2958677 2965732 2972262 2976893 
2588.689 2979288 2980011 2980301 2981534 2984778 2990570 2998736 3008608 
2592.547 3018917 3028101 3034551 3036926 3034523 3027473 3016968 3004870 
2596.404 2993414 2984569 2979547 2978731 2981697 2987696 2995971 3006106 
2600.261 3017821 3030842 3044551 3058054 3070350 3080763 3089355 3097100 
2604.119 3105371 3115419 3127540 3140756 3153065 3162032 3165983 3164738 
2607.976 3159797 3153867 3149838 3149557 3153215 3159249 3165107 3168388 
2611.834 3167896 3164101 3158874 3154693 3153628 3156606 3163075 3171536 
2615.691 3180060 3187226 3192316 3195516 3197471 3198942 3200522 3202575 
2619.549 3205414 3209398 3215060 3222781 3232613 3243870 3255133 3264602 
2623.406 3270505 3271912 3268997 3263109 3256539 3251479 3249785 3252038 
2627.263 3257660 3265111 3272421 3277916 3280830 3281324 3280365 3279459 
2631.121 3280061 3283003 3288478 3295805 3303888 3311508 3317603 3321759 
2634.978 3324057 3324980 3325175 3325045 3324646 3323617 3321408 3317535 
2638.836 3312003 3305299 3298369 3292399 3288427 3287018 3288006 3290570 
2642.693 3293522 3295601 3295887 3294152 3290840 3286994 3283922 3282906 
2646.551 3284911 3290194 3298357 3308384 3318895 3328279 3335256 3338818 
2650.408 3338603 3334762 3327872 3318856 3308633 3298191 3288306 3279703 
2654.265 3273006 3268660 3266891 3267711 3270831 3275554 3280976 3286164 
2658.123 3290195 3292495 3292666 3290652 3286389 3279956 3271399 3260879 
2661.980 3248661 3235424 3222029 3209474 3198622 3189963 3183461 3178491 
2665.838 3174236 3169862 3164969 3159638 3154468 3150324 3147858 3147401 
2669.695 3148787 3151319 3154261 3156968 3159184 3160919 3162526 3164217 
2673.552 3165879 3167143 3167130 3165079 3160375 3152882 3143127 3132131 
2677.410 3121231 3111842 3105192 3102023 3102508 3106267 3112317 3119308 
2681.267 3125746 3130379 3132311 3131477 3128505 3124675 3121473 3120279 
2685.125 3121744 3125714 3131166 3136565 3140255 3140873 3137897 3131560 
2688.982 3122944 3113519 3104860 3098213 3094374 3093527 3095318 3098931 
2692.840 3103353 3107665 3111173 3113609 3115258 3116851 3119289 3123398 
2696.697 3129471 3137209 3145509 3152921 3157921 3159469 3157313 3152115 
2700.554 3145288 3138450 3133035 3129852 3128921 3129635 3131123 3132583 
2704.412 3133592 3134253 3135004 3136557 3139465 3144114 3150534 3158402 
2708.269 3167214 3176261 3184702 3191818 3196704 3198869 3198091 3194616 
2712.127 3189201 3182944 3177018 3172494 3169842 3169131 3169795 3171199 
2715.984 3172715 3174091 3175514 3177521 3180721 3185514 3191863 3199242 
2719.842 3206772 3213416 3218275 3220967 3221528 3220579 3219036 3217853 
2723.699 3217923 3219837 3223775 3229643 3237007 3245211 3253528 3261144 
2727.556 3267461 3271950 3274415 3275021 3274132 3272441 3270610 3269281 
2731.414 3268863 3269402 3270771 3272697 3275035 3277763 3281219 3285738 
2735.271 3291823 3299570 3308680 3318400 3327668 3335343 3340521 3342752 
2739.129 3342089 3339000 3334181 3328362 3322084 3315747 3309764 3304563 
2742.986 3300827 3299408 3301155 3306681 3316098 3328961 3344132 3360263 
2746.844 3375851 3389759 3401229 3410052 3416479 3420997 3424212 3426687 
2750.701 3428846 3430938 3433191 3435716 3438570 3441792 3445362 3449233 
2754.558 3453210 3457112 3460706 3463792 3466212 3467882 3468920 3469433 
2758.416 3469682 3469827 3470067 3470438 3471016 3471848 3473057 3474907 
2762.273 3477699 3481661 3486811 3492717 3498692 3503801 3507043 3507721 
2766.131 3505643 3501093 3494765 3487577 3480367 3473684 3467963 3463372 
2769.988 3460178 3458598 3459030 3461796 3467077 3474742 3484302 3495048 
2773.845 3506158 3516836 3526506 3534666 3540999 3545262 3547242 3546901 
2777.703 3544370 3540009 3534376 3528200 3522184 3516954 3513200 3511495 
2781.560 3512474 3516764 3524740 3536316 3550907 3567121 3583255 3597563 
2785.418 3608901 3616887 3622184 3626093 3630155 3635580 3642806 3651569 
2789.275 3661115 3670541 3679199 3686954 3693951 3700501 3706729 3712588 
2793.133 3718057 3723099 3728008 3733559 3740516 3749453 3760332 3772631 
2796.990 3785251 3797149 3807635 3816634 3824622 3832240 3839908 3847463 
2800.847 3854189 3859164 3861754 3862084 3861118 3860430 3861795 3866381 
2804.705 3874567 3885768 3898807 3912361 3925487 3937707 3949039 3959731 
2808.562 3969890 3979330 3987717 3994644 3999919 4003800 4006768 4009573 
2812.420 4012880 4017102 4022435 4028847 4036332 4044966 4054819 4066055 
2816.277 4078558 4092139 4106323 4120552 4134459 4147812 4160668 4173364 
2820.135 4186279 4199866 4214553 4230784 4248911 4269378 4292384 4318038 
2823.992 4346158 4376301 4407819 4440005 4472307 4504278 4535900 4567296 
2827.849 4599089 4632069 4667316 4706033 4749472 4798478 4853423 4913876 
2831.707 4978609 5045841 5113640 5180491 5245762 5309903 5374442 5441499 
2835.564 5513331 5591884 5678463 5773553 5877089 5988671 6107950 6234644 
2839.422 6368880 6510991 6661635 6821623 6991783 7172860 7365405 7569385 
2843.279 7784345 8009096 8241934 8480898 8723857 8968835 9213998 9457720 
2847.136 9698356 9934301 10163733 10385021 10596447 10796700 10984592 
2850.512 11159270 11320004 11466018 11596644 11711145 11809079 11890248 
2853.887 11954749 12003063 12035625 12052868 12054976 12041993 12013930 
2857.262 11971077 11914136 11844346 11763387 11673123 11575240 11471200 
2860.637 11361948 11248171 11130358 11009219 10885583 10760782 10636364 
2864.013 10513975 10395186 10281193 10172731 10070042 9972932 9880853 
2867.388 9793161 9709325 9628926 9551911 9478425 9408816 9343477 9282763 
2871.245 9226935 9175937 9129784 9088346 9051656 9019814 8993275 8972522 
2875.103 8958205 8950996 8951422 8959947 8976912 9002677 9037444 9081336 
2878.960 9134330 9196139 9265994 9342857 9425278 9511745 9600852 9691488 
2882.818 9782905 9874748 9966771 10058898 10151048 10243151 10335346 
2886.193 10428014 10521951 10618080 10717168 10819472 10924301 11030181 
2889.568 11134799 11235716 11330767 11418631 11498883 11571825 11638165 
2892.943 11698488 11752976 11801562 11843994 11880456 11911717 11939313 
2896.319 11965384 11992097 12021468 12054930 12093240 12136716 12185400 
2899.694 12239203 12298001 12361760 12430315 12503469 12581003 12662889 
2903.069 12749131 12839922 12935227 13034657 13137354 13241939 13346909 
2906.444 13451160 13554318 13656946 13760459 13866606 13976963 14092296 
2909.820 14212409 14336285 14462595 14590189 14718370 14847276 14977562 
2913.195 15110059 15245485 15384126 15525731 15669732 15815145 15960982 
2916.570 16106249 16250113 16391955 16531496 16668729 16803916 16937346 
2919.945 17069064 17198666 17325152 17447080 17563024 17671890 17773360 
2923.321 17868054 17957174 18041936 18123142 18200666 18273480 18340092 
2926.696 18399038 18449456 18491530 18526166 18554730 18578436 18597750 
2930.071 18612484 18621732 18624480 18620144 18608704 18590930 18567878 
2933.446 18540686 18509928 18475520 18436654 18392164 18340976 18282554 
2936.822 18217172 18146202 18071824 17996622 17922902 17852194 17784646 
2940.197 17718984 17652556 17582182 17504674 17417728 17320494 17213670 
2943.572 17099088 16979084 16855852 16730943 16605000 16478221 16350392 
2946.947 16221683 16092670 15964249 15837330 15712413 15589470 15467677 
2950.323 15346062 15223669 15100025 14975400 14850515 14726442 14603843 
2953.698 14483012 14363509 14244454 14124696 14003399 13880107 13754825 
2957.073 13627940 13500153 13372125 13244668 13118471 12994400 12873153 
2960.448 12755300 12641059 12530011 12421370 12313889 12206448 12098067 
2963.823 11988519 11878137 11767653 11657728 11548657 11440034 11330911 
2967.199 11220118 11106657 10990456 10872194 10753522 10636357 10522403 
2970.574 10412651 10306959 10204169 10102459 9999758 9894457 9785608 9673018 
2974.431 9557337 9439679 9321436 9204184 9089395 8978363 8872084 8771074 
2978.289 8675102 8583224 8493711 8404381 8312967 8217602 8117357 8012408 
2982.146 7904223 7795196 7688091 7585665 7489898 7401729 7320952 7246350 
2986.004 7176085 7108231 7041142 6973891 6906142 6838157 6770509 6703741 
2989.861 6638259 6574342 6512157 6451928 6394156 6339380 6288126 6240684 
2993.719 6196690 6155191 6114631 6073237 6029389 5982093 5931193 5877575 
2997.576 5822820 5769056 5718330 5672247 5631718 5596749 5566488 5539359 
3001.433 5513574 5487383 5459539 5429409 5397079 5363232 5328679 5294093 
3005.291 5259712 5225247 5190043 5153294 5114473 5073359 5030321 4985967 
3009.148 4941128 4896601 4853037 4811090 4771562 4735303 4703182 4675744 
3013.006 4652896 4633613 4615805 4596930 4574420 4546486 4512737 4474373 
3016.863 4433755 4393933 4357749 4326969 4302015 4281999 4265059 4249046 
3020.720 4232059 4212752 4190642 4165778 4138710 4110089 4080762 4051691 
3024.578 4023847 3998375 3976187 3957973 3943765 3933099 3924816 3917525 
3028.435 3909878 3901021 3890456 3878523 3865689 3852664 3839833 3827445 
3032.293 3815549 3804200 3793726 3784760 3778110 3774427 3774023 3776485 
3036.150 3780801 3785595 3789458 3791603 3791935 3791304 3791077 3792860 
3040.008 3797970 3807033 3820008 3836382 3855273 3876124 3898666 3923276 
3043.865 3950838 3982489 4019430 4062624 4112507 4168903 4230854 4296940 
3047.722 4365230 4433648 4500241 4563354 4621818 4674893 4722180 4763452 
3051.580 4798450 4826932 4848496 4862860 4869851 4869529 4862382 4849208 
3055.437 4831252 4810102 4787417 4765094 4744754 4727570 4714183 4704647 
3059.295 4698615 4695521 4694981 4696981 4701682 4709506 4720381 4733825 
3063.152 4748611 4763224 4776105 4786413 4794031 4799659 4804333 4808806 
3067.010 4813081 4816219 4816712 4813022 4804291 4790623 4773306 4754098 
3070.867 4734877 4716864 4700651 4686122 4673045 4661324 4651310 4643740 
3074.724 4639268 4638191 4640111 4644226 4649376 4654729 4659755 4664529 
3078.582 4669253 4674009 4678450 4681888 4683265 4681810 4676939 4668535 
3082.439 4656766 4641907 4624051 4603232 4579395 4552701 4523677 4493224 
3086.297 4462397 4432203 4403444 4376573 4352057 4330180 4311450 4296267 
3090.154 4284760 4276358 4269793 4263195 4254533 4242326 4226118 4206831 
3094.011 4186651 4168552 4155653 4150471 4154525 4167901 4189391 4216502 
3097.869 4245936 4273924 4296910 4312306 4318883 4317317 4309873 4300158 
3101.726 4291681 4287339 4288367 4294234 4302821 4311262 4316744 4317264 
3105.584 4311827 4300320 4283381 4261797 4236480 4208546 4179240 4150111 
3109.441 4122679 4098123 4076972 4058835 4042638 4026991 4010852 3993860 
3113.299 3976557 3960153 3946063 3935306 3928338 3924845 3923911 3924486 
3117.156 3925423 3925668 3924170 3920001 3912353 3900724 3885347 3867245 
3121.013 3848266 3830817 3817077 3808824 3806859 3810884 3819935 3832536 
3124.871 3847153 3862300 3876567 3888708 3897282 3901071 3899018 3890745 
3128.728 3876539 3857573 3835543 3812454 3790204 3770233 3753332 3739722 
3132.586 3729044 3720539 3713344 3706627 3699845 3692889 3686050 3679923 
3136.443 3675205 3672353 3671326 3671570 3672017 3671524 3669074 3664198 
3140.301 3656842 3647356 3636319 3624509 3612653 3601543 3592034 3585026 
3144.158 3581127 3580328 3581819 3584101 3585164 3583359 3577818 3568839 
3148.015 3557973 3547234 3538516 3533029 3530743 3530812 3532038 3533436 
3151.873 3534501 3535364 3536065 3536530 3536042 3533505 3527985 3519171 
3155.730 3507727 3495111 3483114 3473196 3465797 3460413 3455790 3450682 
3159.588 3444414 3437135 3429650 3422958 3417734 3414045 3411461 3409564 
3163.445 3408236 3407939 3409479 3413536 3420011 3427878 3435434 3440851 
3167.302 3443054 3442265 3439980 3438587 3440220 3446213 3456172 3468342 
3171.160 3479904 3487977 3490372 3486159 3475637 3460337 3442456 3424465 
3175.017 3408831 3397627 3392222 3393319 3400599 3412822 3428030 3444042 
3178.875 3458679 3470372 3478320 3482511 3483407 3481632 3477770 3472232 
3182.732 3465254 3457139 3448275 3439398 3431277 3424732 3420382 3418541 
3186.590 3419004 3421275 3424520 3427821 3430353 3431663 3431619 3430685 
3190.447 3429579 3429089 3429651 3431243 3433181 3434404 3433784 3430593 
3194.304 3424928 3417622 3410141 3404015 3400502 3400071 3402549 3407112 
3198.162 3412664 3417990 3422026 3423943 3423090 3419193 3412414 3403601 
3202.019 3394058 3385523 3379531 3377038 3378014 3381383 3385515 3388723 
3205.877 3389908 3388850 3386170 3382988 3380328 3378832 3378479 3379183 
3209.734 3380802 3383446 3387496 3393107 3400005 3407266 3413504 3417474 
3213.592 3418642 3417660 3416055 3415967 3418838 3425051 3433570 3442321 
3217.449 3449283 3453100 3453782 3452572 3451230 3451047 3452243 3453722 
3221.306 3453539 3449997 3442284 3431123 3418559 3407272 3399672 3397148 
3225.164 3399791 3406431 3415154 3423913 3430889 3434777 3434929 3431057 
3229.021 3423533 3413267 3401562 3390205 3381006 3375512 3374700 3378692 
3232.879 3386986 3398476 3411837 3425775 3439003 3450457 3459135 3464387 
3236.736 3465948 3464210 3460229 3455796 3452814 3453097 3457648 3466536 
3240.594 3478584 3491827 3503687 3511575 3513276 3507321 3493521 3473086 
3244.451 3448550 3423571 3402168 3387867 3382675 3386450 3396850 3410108 
3248.308 3421861 3428743 3429142 3423627 3414404 3404363 3395864 3390165 
3252.166 3386993 3385244 3383559 3381190 3378312 3375754 3374520 3375185 
3256.023 3377453 3380263 3382122 3381839 3378945 3373939 3367981 3362618 
3259.881 3359167 3358380 3360282 3364420 3369797 3375598 3381045 3385708 
3263.738 3389321 3391870 3393302 3393482 3392254 3389419 3384832 3378769 
3267.595 3371883 3365484 3361146 3360577 3364911 3374449 3388340 3404845 
3271.453 3421690 3436776 3448601 3456775 3461863 3465018 3467385 3469841 
3275.310 3472609 3475356 3477447 3478359 3477680 3475409 3471703 3466938 
3279.168 3461469 3455777 3450440 3446137 3443558 3443340 3445796 3450758 
3283.025 3457673 3465549 3473181 3479345 3483000 3483367 3480197 3473901 
3286.883 3465552 3457010 3450453 3448057 3451297 3460300 3473728 3488869 
3290.740 3502331 3510968 3512779 3507446 3496411 3482300 3468364 3457468 
3294.597 3451566 3451511 3456972 3466730 3479009 3491573 3502203 3509132 
3298.455 3511212 3508589 3502684 3495969 3491427 3491656 3497984 3510153 
3302.312 3526195 3543209 3558265 3569209 3575084 3576200 3573601 3568418 
3306.170 3561471 3553186 3543730 3533623 3523612 3515049 3509079 3506410 
3310.027 3506898 3509432 3512270 3513782 3513001 3509959 3505667 3501880 
3313.885 3500376 3502337 3508113 3517054 3527596 3537680 3545132 3548238 
3317.742 3546129 3538904 3527925 3515455 3504392 3497575 3497170 3504306 
3321.599 3518685 3538990 3563029 3588431 3612942 3634618 3651953 3663850 
3325.457 3669501 3668767 3662053 3650668 3636681 3622611 3610902 3603453 
3329.314 3601103 3603683 3610166 3619141 3629205 3639250 3648551 3656757 
3333.172 3663549 3668712 3672109 3673887 3674452 3674552 3674993 3676465 
3337.029 3679298 3683267 3687656 3691513 3693964 3694338 3692397 3688264 
3340.886 3682303 3675158 3667433 3659808 3652840 3646926 3642158 3638389 
3344.744 3635277 3632403 3629370 3626051 3622390 3618466 3614064 3608819 
3348.601 3602117 3593536 3583168 3571694 3560433 3550934 3544379 3541055 
3352.459 3540187 3540058 3538848 3535270 3529094 3521380 3513937 3508485 
3356.316 3505948 3506007 3507058 3507106 3504361 3498276 3489579 3480275 
3360.174 3472794 3469267 3470757 3477072 3486846 3498151 3508845 3517384 
3364.031 3522832 3525061 3524698 3522690 3520213 3518192 3517097 3516800 
3367.888 3516527 3515087 3511257 3504430 3494801 3483738 3473407 3466355 
3371.746 3464552 3469108 3479651 3494581 3511588 3528145 3542256 3553072 
3375.603 3560421 3565101 3568063 3570189 3572006 3573652 3574884 3575440 
3379.461 3575136 3573970 3572197 3570284 3568727 3568019 3568470 3570231 
3383.318 3573347 3577785 3583454 3590491 3598933 3608838 3620068 3632188 
3387.176 3644358 3655576 3664763 3671223 3674820 3676160 3676372 3676791 
3391.033 3678674 3682527 3688293 3695225 3702182 3708092 3712090 3713840 
3394.890 3713341 3710881 3706850 3701757 3696167 3690747 3686447 3684269 
3398.748 3685368 3690591 3700389 3714810 3733455 3755597 3780247 3806434 
3402.605 3832841 3858044 3880318 3898109 3910034 3915638 3915451 3911313 
3406.463 3905991 3902534 3903736 3911348 3925898 3946739 3972415 4001202 
3410.320 4031825 4063426 4095718 4128733 4162253 4195988 4229285 4261506 
3414.177 4292181 4321169 4348565 4374654 4399415 4422648 4443766 4462339 
3418.035 4478046 4491088 4502101 4511961 4521511 4531249 4541399 4552021 
3421.892 4563453 4576397 4591895 4611177 4634927 4662901 4693745 4725059 
3425.750 4754045 4778146 4795677 4806215 4810245 4808939 4803785 4796024 
3429.607 4786959 4777751 4769773 4764329 4762603 4765115 4771222 4779384 
3433.465 4787163 4792158 4792631 4787922 4778662 4766299 4752416 4738225 
3437.322 4724208 4710281 4696118 4681774 4667676 4654727 4643538 4634112 
3441.179 4625306 4615158 4601221 4581529 4555272 4523132 4487099 4449912 
3445.037 4414135 4381600 4352978 4328150 4306587 4287982 4272583 4261131 
3448.894 4254426 4252788 4255451 4260668 4265734 4268000 4265431 4257495 
3452.752 4245168 4230532 4216093 4203746 4194151 4186461 4178746 4168850 
3456.609 4155326 4137996 4118273 4098466 4081139 4068001 4059560 4054920 
3460.467 4052553 4050608 4047826 4043830 4038843 4033383 4027722 4021681 
3464.324 4014897 4006825 3997514 3987459 3977648 3968838 3961252 3954443 
3468.181 3947266 3938637 3928012 3916015 3904312 3895108 3890291 3890879 
3472.039 3896424 3905064 3914298 3921550 3924705 3922804 3915786 3904442 
3475.896 3890248 3874868 3860125 3847908 3839695 3836444 3838347 3844602 
3479.754 3853722 3863837 3873245 3880893 3886449 3890207 3892712 3894446 
3483.611 3895625 3896306 3896668 3897195 3898801 3902480 3908864 3917679 
3487.469 3927719 3937039 3943455 3945590 3943074 3937115 3929732 3923342 
3491.326 3919980 3920580 3924920 3931828 3939486 3946124 3950352 3951527 
3495.183 3949779 3946080 3941939 3939309 3939852 3944582 3953500 3965489 
3499.041 3978388 3989803 3997734 4001392 4001300 3999398 3998150 3999964 
3502.898 4006234 4017117 4031271 4046670 4060798 4071650 4077806 4078927 
3506.756 4075633 4069343 4062061 4056029 4053089 4054458 4060281 4069725 
3510.613 4081263 4093343 4104912 4115947 4127190 4139715 4154302 4170581 
3514.470 4187021 4201518 4212043 4217734 4219259 4218675 4218607 4221078 
3518.328 4226701 4234413 4242125 4247838 4250555 4251065 4251588 4254856 
3522.185 4263011 4276460 4293659 4311646 4327068 4337559 4342297 4342530 
3526.043 4340817 4340197 4343242 4351375 4364621 4381817 4401185 4420742 
3529.900 4438729 4453856 4465425 4472997 4476643 4476532 4473033 4466774 
3533.758 4458561 4449754 4441971 4437176 4437178 4443319 4455660 4473098 
3537.615 4493125 4512387 4527358 4535329 4534860 4526201 4510847 4491312 
3541.472 4470335 4450637 4434487 4424024 4420845 4426014 4439742 4460945 
3545.330 4487104 4514774 4540047 4559691 4571933 4576865 4576179 4572550 
3549.187 4568411 4565324 4563448 4561912 4559162 4554011 4545940 4535344 
3553.045 4523340 4511382 4500730 4492418 4487098 4485112 4486544 4491240 
3556.902 4498547 4507468 4516467 4523961 4528532 4529170 4525594 4518337 
3560.760 4508368 4496916 4485232 4474297 4464600 4456176 4448528 4440709 
3564.617 4431513 4419861 4405059 4387324 4367789 4348359 4331394 4319046 
3568.474 4312481 4311946 4316444 4324372 4333739 4342938 4350498 4355515 
3572.332 4357174 4355011 4348682 4338408 4324978 4309790 4294443 4280359 
3576.189 4268124 4257373 4246643 4234230 4218464 4198690 4175135 4149275 
3580.047 4123012 4098219 4076517 4058966 4046259 4038838 4036932 4040570 
3583.904 4049157 4061452 4075458 4088860 4099411 4105610 4106979 4104079 
3587.761 4098235 4090950 4083408 4076339 4069892 4063980 4058615 4054288 
3591.619 4051657 4051786 4055628 4063930 4076977 4094564 4116033 4140263 
3595.476 4165676 4190513 4212753 4230679 4242770 4248373 4247533 4241230 
3599.334 4230990 4218925 4207051 4197504 4191988 4191838 4197720 4209648 
3603.191 4226817 4247673 4269972 4291359 4309441 4322653 4330220 4332494 
3607.049 4330689 4326746 4322631 4319940 4319570 4321561 4324978 4328643 
3610.906 4331213 4332148 4331717 4331324 4332960 4338695 4349773 4366002 
3614.763 4385513 4405129 4421043 4430173 4430739 4423182 4409669 4393909 
3618.621 4379762 4370606 4368377 4373485 4384921 4400865 4419060 4437595 
3622.478 4454914 4470017 4482395 4492084 4499120 4503735 4505891 4505415 
3626.336 4501835 4494693 4484026 4470575 4456020 4443108 4434731 4433638 
3630.193 4441105 4456815 4478385 4502043 4523333 4538053 4543265 4538056 
3634.051 4523542 4503040 4480862 4462028 4450501 4448624 4456341 4471189 
3637.908 4488644 4503354 4510326 4506470 4491074 4466097 4435448 4403978 
3641.765 4376190 4355296 4342748 4338584 4341664 4350342 4362871 4377402 
3645.623 4392101 4404953 4413996 4417822 4415958 4409184 4399476 4389529 
3649.480 4381818 4377859 4377679 4380061 4382865 4384004 4382119 4377025 
3653.338 4369415 4360435 4351093 4341960 4332875 4323464 4313342 4302757 
3657.195 4292481 4283834 4278036 4275735 4276586 4279379 4281898 4281977 
3661.052 4277681 4268038 4253010 4233667 4211505 4188443 4165940 4145302 
3664.910 4127279 4112157 4100110 4091028 4084374 4079351 4074863 4069663 
3668.767 4062617 4053324 4042096 4030368 4019983 4012815 4009912 4011337 
3672.625 4016006 4022149 4027970 4032119 4034046 4033889 4032183 4029227 
3676.482 4025184 4019852 4013195 4005799 3998901 3994389 3994075 3999062 
3680.340 4008825 4021592 4034152 4042975 4045093 4038691 4023664 4001414 
3684.197 3974431 3945768 3918481 3895131 3877322 3865641 3859539 3857379 
3688.054 3857006 3856234 3853720 3849215 3843708 3838963 3836722 3837937 
3691.912 3842309 3848701 3855381 3861162 3865815 3870119 3875215 3881728 
3695.769 3889083 3895187 3896975 3891660 3877621 3855371 3827660 3798615 
3699.627 3772618 3753407 3743077 3742085 3749438 3763111 3780378 3798342 
3703.484 3813839 3823987 3826520 3820570 3807050 3788739 3769633 3753956 
3707.342 3744952 3743855 3749636 3759557 3770147 3778325 3782541 3782567 
3711.199 3779585 3775317 3771288 3768655 3767772 3768727 3771269 3774972 
3715.056 3779317 3783701 3787281 3789486 3790016 3789158 3787581 3786194 
3718.914 3785587 3785813 3786341 3786403 3785355 3783245 3780681 3778595 
3722.771 3777645 3777907 3778472 3778040 3775496 3770629 3764610 3759702 
3726.629 3758849 3764530 3777936 3798870 3825491 3855249 3885259 3913093 
3730.486 3936949 3955697 3968623 3975624 3976797 3972748 3964514 3953566 
3734.344 3941590 3930258 3920889 3914459 3911413 3911817 3915315 3921135 
3738.201 3928290 3935510 3941476 3945132 3945881 3943914 3940117 3935964 
3742.058 3932763 3931656 3932900 3936074 3940140 3943659 3945426 3944637 
3745.916 3941038 3935110 3927884 3920950 3916125 3915369 3920135 3931048 
3749.773 3947489 3967704 3988843 4007977 4022621 4031319 4033826 4031004 
3753.631 4024065 4014409 4002863 3990182 3976795 3963484 3951395 3941929 
3757.488 3936339 3935467 3939276 3947092 3957551 3969277 3980969 3991745 
3761.345 4001120 4009003 4015406 4020610 4024882 4028606 4031960 4034815 
3765.203 4036586 4036310 4032900 4025640 4014757 4001366 3987307 3974653 
3769.060 3964799 3958115 3953605 3949811 3945337 3939711 3933622 3928760 
3772.918 3926907 3928983 3934429 3941221 3946657 3948276 3944987 3937673 
3776.775 3928704 3921451 3918901 3922747 3932980 3947821 3964500 3980057 
3780.633 3992115 3999517 4002299 4001847 4000046 3998988 4000179 4004247 
3784.490 4010398 4016769 4020724 4019810 4012377 3998373 3979380 3958172 
3788.347 3937875 3920981 3908687 3900750 3895975 3892843 3890432 3888933 
3792.205 3889273 3892972 3901097 3913988 3931104 3951202 3972814 3994807 
3796.062 4016526 4037814 4058362 4077835 4095392 4109833 4119981 4125035 
3799.920 4124641 4119291 4109808 4097611 4084056 4070681 4058852 4049965 
3803.777 4044989 4044611 4048831 4056954 4067522 4078507 4087762 4093556 
3807.635 4094798 4091385 4084052 4074117 4063262 4052962 4044302 4037840 
3811.492 4033550 4030942 4029199 4027495 4025131 4021678 4017098 4011584 
3815.349 4005447 3999245 3993429 3988636 3985383 3984150 3985262 3988526 
3819.207 3993294 3998413 4002354 4003961 4002521 3998253 3992168 3985925 
3823.064 3981018 3978614 3978882 3981538 3985778 3990890 3996496 4002453 
3826.922 4008906 4015803 4022845 4029537 4035385 4040210 4044385 4048600 
3830.779 4053492 4059321 4065349 4070192 4072123 4069720 4062540 4051415 
3834.636 4038217 4025628 4016071 4011538 4013097 4020803 4034046 4051711 
3838.494 4072132 4093356 4113100 4129096 4139475 4143165 4140384 4132696 
3842.351 4122306 4111640 4102367 4094764 4087864 4079983 4069620 4056226 
3846.209 4040624 4024863 4011279 4001859 3997372 3997076 3999301 4002023 
3850.066 4003674 4003888 4003213 4003035 4004738 4009148 4016096 4024707 
3853.924 4033425 4040915 4046380 4049646 4051239 4051995 4052592 4053636 
3857.781 4055269 4057531 4060344 4063614 4067279 4071313 4075569 4079828 
3861.638 4083928 4087808 4091715 4096304 4102391 4110761 4121784 4134977 
3865.496 4149066 4162201 4172359 4178146 4179022 4175667 4169697 4163095 
3869.353 4157569 4153855 4151613 4149645 4146494 4141147 4133445 4124412 
3873.211 4115628 4108960 4105801 4106642 4111033 4117795 4125401 4132587 
3877.068 4138420 4142477 4144717 4145390 4144812 4143509 4142088 4141127 
3880.926 4141101 4142221 4144067 4145742 4146033 4143660 4137884 4128823 
3884.783 4117347 4105221 4094414 4086571 4082896 4083588 4088264 4096175 
3888.640 4106504 4118618 4131965 4145963 4159753 4172068 4181347 4186069 
3892.498 4185292 4179107 4168703 4156539 4145496 4138445 4137132 4141983 
3896.355 4151823 4164219 4176380 4186097 4192254 4195263 4196735 4198856 
3900.213 4203495 4211487 4222556 4235456 4248573 4260540 4270654 4278928 
3904.070 4285664 4291142 4295056 4296728 4295148 4289571 4279879 4266813 
3907.927 4251819 4236531 4222262 4209877 4199653 4191499 4185509 4182186 
3911.785 4182317 4186871 4196210 4209910 4226487 4243627 4258684 4269464 
3915.642 4274473 4273536 4267395 4257515 4245622 4233223 4221379 4210732 
3919.500 4201599 4194248 4188960 4186400 4187273 4192436 4202395 4217327 
3923.357 4236461 4258133 4279854 4298702 4312034 4318047 4316295 4307886 
3927.215 4295004 4280493 4266806 4255505 4246886 4240212 4234126 4227583 
3931.072 4220251 4212665 4206064 4201960 4201206 4203805 4208756 4214428 
3934.929 4218940 4220967 4220028 4216628 4211944 4207593 4204846 4204397 
3938.787 4206089 4209253 4212510 4214779 4215214 4213776 4211026 4208154 
3942.644 4206661 4207737 4212135 4219910 4230391 4242458 4254862 4266694 
3946.502 4277310 4286641 4294782 4301878 4307890 4312401 4315088 4315642 
3950.359 4314101 4310963 4306885 4302362 4297450 4291596 4283739 4272968 
3954.217 4258943 4242633 4226067 4212250 4204221 4204209 4212823 4228979 
3958.074 4250113 4273043 4294608 4312698 4326126 4334511 4337879 4336240 
3961.931 4329417 4317330 4300341 4279795 4257874 4237389 4220902 4210025 
3965.789 4205030 4204936 4207952 4212491 4217704 4223794 4231719 4242314 
3969.646 4255596 4270189 4283478 4292590 4295243 4290961 4281309 4269670 
3973.504 4260028 4255942 4259037 4268800 4282644 4296789 4307399 4312015 
3977.361 4309944 4302494 4292314 4282699 4276501 4275384 4279417 4287236 
3981.219 4296247 4303583 4306552 4303556 4294215 4279758 4262498 4245519 
3985.076 4231785 4223691 4222227 4227230 4237096 4249563 4262115 4272788 
3988.933 4280498 4285270 4287942 4289964 4292678 4296735 4302270 4308648 
3992.791 4314837 4320119 4324249 4327512 4330639 4334392 4338919 4343950 
3996.648 4348344 4351055 4351362 4349483 4346638 4344677 4345377 4349733 
4000.506 4357446 
##END=
