##TITLE=eSUN_PLA+_White_Filament_r3_ATR-Corrected
##JCAMP-DX=5.01  $$ Nicolet v. 1
##DATATYPE=INFRARED SPECTRUM
##ORIGIN=Curtin University
##OWNER=Nicolet
##LONGDATE=2024/07/11
##TIME=10:00:30
##SPECTROMETER/DATA SYSTEM=Nicolet iS50
##DATA PROCESSING=
Ratio against background
%Transmittance->Absorbance
ATR Correction
Truncated
ElementMultiply or ElementDivide
##COMMENTS=
Number of sample scans: 32
Collection length: 47.27 sec
Sample gain: 1.0
Background collected on: Thu Jul 11 09:55:11 2024 (GMT+08:00);
Number of background scans: 32
Background gain: 1.0
Sample spacing:  1.000
Number of scan points: 16672
Resolution points: 8192
Number of FFT points: 65536
Apodization: N-B strong;
Phase correction: Mertz;
Laser frequency: 15798.3 cm-1
Number of rejected sample scans: 0
Number of rejected background scans: 0
Bench serial number: AUP1200105;
##RESOLUTION=4.000
##XUNITS=1/CM
##YUNITS=ABSORBANCE
##FIRSTX=400.163452
##LASTX=4000.187744
##FIRSTY=0.069128
##MAXX=4000.187744
##MINX=400.163452
##MAXY=1.177920
##MINY=-0.019076
##XFACTOR=1.000000
##YFACTOR=1.000000E-008
##NPOINTS=7468
##DELTAX=0.482125
##ZPD=8192
##XYDATA=(X++(Y..Y))
400.163 6912771 6817510 6700355 6570840 6441124 6323462 6225460 6148235 
404.020 6087821 6037953 5993557 5952237 5913852 5878137 5842194 5798963 
407.877 5738457 5650554 5529200 5375408 5198448 5014266 4841820 4698480 
411.734 4595819 4536820 4515433 4517923 4526197 4521753 4490163 4424374 
415.591 4326639 4207783 4084425 3974234 3890920 3840115 3817581 3810350 
419.448 3800972 3773233 3717854 3635565 3537029 3439241 3360262 3313579 
423.305 3304403 3328346 3373265 3422836 3461184 3476800 3464751 3426953 
427.162 3370684 3306029 3243247 3190530 3152740 3130997 3123344 3125861 
431.019 3134219 3144827 3155653 3165825 3175475 3184282 3191012 3193516 
434.876 3189566 3177929 3159481 3137450 3116728 3102396 3098132 3104860 
438.733 3120778 3141921 3163813 3182743 3196721 3205373 3209203 3208685 
442.590 3203750 3193995 3179484 3161657 3143745 3130191 3125338 3131627 
446.447 3148415 3171672 3195115 3212119 3217918 3211080 3193705 3170245 
450.304 3145693 3123518 3104573 3087147 3068076 3044396 3014871 2980581 
454.161 2944626 2910854 2882580 2861304 2846519 2836073 2827208 2817678 
458.017 2806566 2794471 2783141 2774649 2770614 2771538 2776665 2784140 
461.874 2791638 2796840 2798101 2794312 2786157 2774807 2761967 2749470 
465.731 2738879 2731112 2726325 2723862 2722447 2720505 2716504 2709292 
469.588 2698310 2683597 2665792 2645863 2624977 2604327 2584978 2567796 
473.445 2553272 2541439 2531796 2523292 2514532 2504118 2491044 2475060 
477.302 2456815 2437701 2419437 2403425 2390346 2379854 2370815 2361712 
481.159 2351265 2338848 2324642 2309401 2293938 2278731 2263693 2248288 
485.016 2232016 2214805 2197353 2180920 2166802 2155652 2146947 2138929 
488.873 2129157 2115442 2096883 2074514 2051256 2031087 2017747 2013324 
492.730 2017466 2027254 2038070 2044701 2043552 2033017 2014010 1989485 
496.587 1963400 1939535 1920594 1907836 1901242 1900001 1903146 1909833 
500.444 1919474 1931484 1945081 1959127 1972292 1983350 1991566 1996925 
504.301 2000072 2001946 2003321 2004332 2004326 2002025 1995966 1985043 
508.158 1968943 1948311 1924647 1899992 1876521 1856234 1840762 1831175 
512.015 1828000 1831021 1839270 1850951 1863607 1874446 1880918 1881217 
515.871 1874727 1862098 1845072 1825901 1806891 1789909 1776214 1766504 
519.728 1761100 1760060 1763284 1770350 1780441 1792247 1804133 1814346 
523.585 1821410 1824311 1822698 1816525 1806464 1793147 1777281 1759588 
527.442 1740909 1722130 1704148 1687671 1673041 1660170 1648694 1638168 
531.299 1628398 1619495 1611955 1606287 1602840 1601610 1602261 1604434 
535.156 1607971 1613074 1620164 1629504 1640767 1652817 1663892 1672165 
539.013 1676536 1677237 1676016 1675636 1678982 1687962 1702772 1721682 
542.870 1741534 1758705 1770141 1774090 1770377 1760089 1745076 1727327 
546.727 1708637 1690446 1673919 1659913 1648971 1641199 1636144 1632850 
550.584 1630125 1626912 1622667 1617468 1611942 1606869 1602772 1599691 
554.441 1597193 1594631 1591616 1588062 1584653 1582189 1581353 1582308 
558.298 1584683 1587698 1590586 1592937 1594889 1596998 1599928 1604032 
562.155 1609216 1614820 1619993 1623996 1626534 1627846 1628584 1629551 
566.012 1631457 1634774 1639776 1646621 1655459 1666476 1679667 1694636 
569.869 1710408 1725411 1737715 1745439 1747323 1743134 1733912 1721779 
573.725 1709546 1700038 1695455 1696891 1704138 1715874 1730110 1744799 
577.582 1758387 1770136 1780259 1789594 1799254 1810145 1822653 1836495 
581.439 1850833 1864489 1876301 1885269 1890756 1892546 1890886 1886490 
585.296 1880606 1874923 1871435 1872062 1878235 1890415 1907823 1928499 
589.153 1949726 1968726 1983461 1993138 1998437 2001174 2003640 2007793 
593.010 2014677 2024055 2034678 2044789 2052890 2058333 2061606 2064207 
596.867 2068118 2075101 2086051 2100653 2117436 2134248 2148999 2160279 
600.724 2167918 2172914 2177092 2182398 2190210 2200842 2213535 2226779 
604.581 2239006 2249218 2257448 2264751 2272846 2283518 2298002 2316609 
608.438 2338715 2363029 2388074 2412617 2435926 2457780 2478362 2498007 
612.295 2517065 2535861 2554729 2574126 2594638 2616945 2641702 2669313 
616.152 2699807 2732702 2767050 2801477 2834398 2864203 2889554 2909633 
620.009 2924374 2934604 2941969 2948672 2957100 2969279 2986497 3009014 
623.866 3036138 3066457 3098285 3130046 3160576 3189260 3215896 3240587 
627.723 3263514 3284825 3304643 3323025 3340033 3355769 3370322 3383794 
631.579 3396290 3407953 3419043 3429967 3441256 3453444 3466897 3481615 
635.436 3497215 3512942 3527951 3541580 3553656 3564609 3575404 3587193 
639.293 3600980 3617156 3635392 3654680 3673702 3691325 3707009 3721019 
643.150 3734295 3748032 3763179 3779997 3797948 3815893 3832651 3847523 
647.007 3860762 3873477 3887340 3903864 3923769 3946630 3970933 3994557 
650.864 4015519 4032566 4045581 4055456 4063686 4071839 4081106 4092106 
654.721 4104986 4119689 4136194 4154572 4174909 4197127 4220795 4245139 
658.578 4269246 4292283 4313816 4333812 4352601 4370583 4388036 4404985 
662.435 4421288 4436813 4451675 4466270 4481242 4497198 4514533 4533212 
666.292 4552825 4572747 4592397 4611402 4629708 4647476 4665004 4682575 
670.149 4700433 4718761 4737738 4757530 4778210 4799671 4821582 4843379 
674.006 4864437 4884196 4902401 4919077 4934539 4949216 4963587 4978099 
677.863 4993244 5009634 5027994 5049017 5073028 5099714 5128019 5156149 
681.720 5182065 5204020 5221164 5233817 5243453 5252223 5262405 5275808 
685.577 5293436 5315431 5341339 5370270 5401179 5432965 5464458 5494488 
689.433 5522094 5546790 5568992 5590158 5612772 5639904 5674588 5719113 
693.290 5774590 5840759 5916278 5999105 6087024 6177900 6269764 6360637 
697.147 6448302 6530098 6602993 6663818 6709724 6738614 6749503 6742660 
701.004 6719535 6682440 6634226 6577833 6516018 6451123 6385064 6319359 
704.861 6255296 6194072 6136861 6084797 6038859 5999731 5967676 5942502 
708.718 5923573 5909859 5899963 5892088 5883852 5872363 5854329 5826407 
712.575 5785799 5730876 5661622 5579750 5488288 5390859 5290779 5190309 
716.432 5090284 4990251 4889006 4785201 4678022 4567400 4454078 4339296 
720.289 4224541 4111272 4000866 3894676 3794020 3700183 3614306 3537111 
724.146 3468791 3408917 3356633 3310924 3270997 3236596 3208177 3186906 
728.003 3174418 3172520 3182797 3206287 3243254 3293141 3354666 3426117 
731.860 3505801 3592378 3685223 3784507 3890998 4005694 4129316 4261815 
735.717 4402132 4548174 4697046 4845496 4990411 5129296 5260529 5383515 
739.574 5498666 5607156 5710636 5810847 5909252 6006726 6103397 6198756 
743.431 6291989 6382429 6470024 6555612 6640907 6728132 6819449 6916360 
747.287 7019334 7127654 7239788 7353819 7468079 7581548 7693999 7805901 
751.144 7917975 8030791 8144346 8257812 8369480 8476857 8576880 8666187 
755.001 8741391 8799294 8837117 8852628 8844305 8811454 8754297 8674037 
758.858 8572845 8453730 8320256 8176129 8024663 7868317 7708439 7545301 
762.715 7378486 7207506 7032498 6854678 6676398 6500880 6331549 6171304 
766.572 6021987 5884082 5756820 5638443 5526689 5419162 5313718 5208730 
770.429 5103288 4997337 4891709 4787878 4687645 4592538 4503204 4419151 
774.286 4338763 4259801 4180171 4098678 4015502 3932159 3851000 3774387 
778.143 3703913 3639885 3581338 3526433 3473052 3419396 3364328 3307404 
782.000 3248656 3188362 3126831 3064338 3001200 2937843 2874825 2812709 
785.857 2751938 2692711 2634965 2578489 2523143 2469047 2416666 2366789 
789.714 2320282 2277928 2240229 2207334 2179073 2155080 2134908 2118116 
793.571 2104302 2093033 2083846 2076161 2069317 2062687 2055699 2048011 
797.428 2039554 2030576 2021591 2013231 2006083 2000495 1996452 1993571 
801.285 1991223 1988719 1985562 1981518 1976824 1971881 1967180 1963043 
805.141 1959614 1956875 1954758 1953305 1952677 1953062 1954529 1956808 
808.998 1959301 1961133 1961455 1959743 1955998 1950801 1945072 1939841 
812.855 1935848 1933413 1932356 1932176 1932197 1931823 1930599 1928258 
816.712 1924775 1920328 1915370 1910654 1907098 1905655 1906974 1911083 
820.569 1917213 1923864 1929119 1931120 1928576 1921133 1909394 1894651 
824.426 1878540 1862446 1847368 1833670 1821248 1809766 1798836 1788216 
828.283 1777851 1767869 1758561 1750376 1743909 1739869 1739009 1742011 
832.140 1749361 1761228 1777456 1797564 1820953 1846958 1874942 1904361 
835.997 1934875 1966342 1998974 2033380 2070597 2111991 2159006 2212848 
839.854 2274168 2342817 2417912 2497986 2581337 2666360 2751772 2836624 
843.711 2920184 3001696 3080205 3154505 3223282 3285285 3339621 3385924 
847.568 3424415 3455885 3481700 3503704 3524292 3546396 3573394 3608867 
851.425 3656362 3718944 3798956 3897836 4016201 4154035 4310970 4486434 
855.282 4679771 4890020 5115832 5355264 5605771 5864398 6128020 6393709 
859.139 6658827 6921094 7178405 7428641 7669607 7898987 8114683 8315006 
862.995 8498978 8666340 8817434 8952995 9073792 9180561 9273949 9354649 
866.852 9423511 9481689 9530544 9571470 9605707 9634136 9657138 9674598 
870.709 9685896 9689940 9685218 9669751 9641233 9597111 9534787 9451847 
874.566 9346244 9216317 9060814 8878863 8670027 8434572 8173796 7890499 
878.423 7589140 7275777 6957546 6641789 6335105 6042568 5767331 5510824 
882.280 5273300 5054554 4854696 4674257 4514177 4375278 4257779 4160961 
886.137 4083203 4022331 3976180 3942979 3921559 3911230 3911354 3920954 
889.994 3938447 3961562 3987672 4014091 4038537 4059385 4075785 4087622 
893.851 4095370 4099818 4101841 4102169 4101185 4098871 4094860 4088658 
897.708 4079981 4069073 4056883 4044973 4035211 4029259 4028149 4032014 
901.565 4040248 4051808 4065767 4081629 4099489 4119786 4142848 4168581 
905.422 4196175 4224283 4251389 4276230 4298119 4316989 4333131 4346864 
909.279 4358172 4366646 4371656 4372674 4369604 4362935 4353653 4342914 
913.136 4331670 4320382 4308947 4296856 4283400 4267936 4250002 4229408 
916.993 4206103 4180116 4151615 4120901 4088562 4055500 4022888 3991993 
920.849 3963956 3939502 3918765 3901184 3885547 3870222 3853381 3833435 
924.706 3809372 3781064 3749418 3716231 3683949 3655004 3631291 3613698 
928.563 3601911 3594616 3589968 3586159 3581943 3576903 3571422 3566289 
932.420 3562412 3560410 3560508 3562555 3566291 3571443 3577925 3585804 
936.277 3595177 3606090 3618443 3632022 3646605 3661996 3678130 3695081 
940.134 3712975 3732010 3752438 3774553 3798757 3825533 3855354 3888649 
943.991 3925682 3966522 4011098 4059261 4110904 4166020 4224624 4286707 
947.848 4352105 4420484 4491375 4564341 4639106 4715699 4794390 4875595 
951.705 4959590 5046263 5134924 5224257 5312340 5396817 5475139 5544740 
955.562 5603241 5648660 5679536 5695092 5695356 5681184 5654232 5616786 
959.419 5571598 5521577 5469668 5418556 5370615 5327701 5291059 5261277 
963.276 5238151 5220857 5208049 5198196 5189810 5181706 5173090 5163546 
967.133 5152860 5140774 5126935 5110745 5091533 5068715 5041994 5011587 
970.990 4978161 4942772 4906659 4870993 4836637 4804132 4773709 4745456 
974.847 4719488 4696095 4675816 4659297 4647180 4639850 4637361 4639388 
978.703 4645392 4654782 4667198 4682526 4700944 4722732 4748086 4776989 
982.560 4809206 4844390 4882300 4922922 4966518 5013484 5064118 5118413 
986.417 5175941 5235921 5297487 5360036 5423277 5487517 5553364 5621503 
990.274 5692375 5765990 5841896 5919369 5997646 6076182 6154715 6233315 
994.131 6312167 6391559 6471678 6552655 6634679 6717992 6803019 6890359 
997.988 6980607 7074369 7172101 7274108 7380554 7491474 7606856 7726708 
1001.845 7851103 7980215 8114360 8254000 8399720 8552172 8711946 8879469 
1005.702 9054943 9238382 9429640 9628615 9835382 10050266 10273950 10507406 
1009.559 10751859 11008624 11279037 11564350 11865484 12183039 12517099 
1012.934 12867343 13233137 13613839 14009012 14418669 14843279 15283507 
1016.309 15739848 16212194 16699578 17200012 17710934 18229666 18753758 
1019.683 19281554 19812038 20344658 20878822 21413640 21947764 22479676 
1023.058 23008182 23532906 24054670 24575474 25098128 25625712 26161060 
1026.433 26706434 27263630 27834276 28420216 29023830 29648042 30295962 
1029.809 30970386 31673244 32405070 33164910 33950444 34758256 35584232 
1033.184 36423992 37273072 38127044 38981308 39830936 40670292 41492836 
1036.559 42291108 43056880 43781744 44457840 45078600 45639236 46136792 
1039.934 46569752 46937368 47238888 47473212 47638880 47734596 47760160 
1043.310 47716876 47608040 47438612 47214668 46942768 46629520 46281344 
1046.685 45904640 45506044 45092452 44670884 44248100 43830128 43422008 
1050.060 43027548 42649528 42290036 41950612 41632512 41336764 41064076 
1053.435 40814824 40589128 40387004 40208592 40054404 39925520 39823772 
1056.811 39751728 39712708 39710716 39750384 39836636 39974548 40168996 
1060.186 40424292 40743968 41130672 41586004 42110620 42704088 43365044 
1063.561 44091092 44878892 45724320 46622800 47569604 48560096 49590016 
1066.936 50655412 51752536 52877700 54027384 55198384 56388356 57596028 
1070.312 58821500 60065852 61330624 62617184 63926220 65257644 66611020 
1073.687 67986040 69382648 70800728 72238928 73693160 75155344 76613120 
1077.062 78050512 79449664 80793224 82066000 83255432 84351056 85343192 
1080.437 86221560 86975072 87592680 88064952 88385752 88552824 88567400 
1083.813 88432952 88153720 87734312 87180032 86497984 85698256 84794280 
1087.188 83802192 82739272 81622208 80465504 79280800 78076792 76859896 
1090.563 75634856 74405528 73175296 71947504 70725480 69512680 68312560 
1093.938 67128376 65962736 64817244 63692152 62586432 61498004 60424340 
1097.313 59362912 58311868 57270120 56237488 55214520 54202300 53202344 
1100.689 52216452 51246484 50294268 49361392 48449036 47557896 46688552 
1104.064 45841692 45018524 44221116 43452364 42715764 42014940 41353128 
1107.439 40733008 40156380 39624424 39137812 38696924 38301800 37952016 
1110.814 37646556 37383576 37160528 36974336 36821632 36699180 36604084 
1114.190 36533864 36486520 36460404 36454228 36467080 36498476 36548348 
1117.565 36617152 36705656 36814900 36946108 37100464 37279108 37482928 
1120.940 37712304 37966616 38243796 38539956 38849188 39163768 39474712 
1124.315 39772572 40048216 40293456 40501344 40666156 40783168 40848436 
1127.691 40858856 40812112 40707052 40543772 40323700 40049220 39723220 
1131.066 39348464 38927080 38460264 37948208 37390420 36786132 36134836 
1134.441 35436776 34693104 33906128 33079132 32216156 31321750 30400726 
1137.816 29458052 28498834 27528378 26552194 25576082 24605978 23647820 
1141.192 22707244 21789364 20898568 20038534 19212278 18422296 17670832 
1144.567 16959992 16291805 15668099 15090303 14559223 14074820 13636114 
1147.942 13241245 12887727 12572646 12293022 12046063 11829328 11640888 
1151.317 11479276 11343466 11232658 11146125 11083055 11042364 11022691 
1154.693 11022457 11040108 11074376 11124445 11190169 11272010 11370908 
1158.068 11488087 11624853 11782441 11962122 12165231 12393421 12648828 
1161.443 12934089 13252418 13607475 14003278 14444093 14934462 15479136 
1164.818 16083218 16752188 17491874 18308430 19208270 20197920 21283830 
1168.194 22472222 23768892 25179014 26706926 28355802 30127410 32021666 
1171.569 34036236 36166076 38402968 40735208 43147544 45621012 48133036 
1174.944 50657528 53164892 55622184 57993448 60240596 62324708 64207960 
1178.319 65855788 67238912 68335000 69129632 69617144 69800672 69692072 
1181.695 69311456 68685904 67847696 66832036 65674752 64410232 63070036 
1185.070 61682080 60270280 58854616 57451224 56072860 54729076 53426904 
1188.445 52171348 50966020 49813596 48716108 47674988 46691020 45764132 
1191.820 44893380 44077020 43312752 42598056 41930552 41308284 40729712 
1195.196 40193692 39699272 39245324 38830428 38452660 38109668 37798768 
1198.571 37517276 37262628 37032668 36825644 36640112 36474784 36328156 
1201.946 36198400 36083256 35979976 35885604 35797052 35711516 35626424 
1205.321 35539432 35448336 35350924 35244812 35127528 34996492 34849232 
1208.697 34683540 34497580 34289976 34059788 33806520 33530032 33230608 
1212.072 32908806 32565520 32201836 31818966 31418294 31001242 30569472 
1215.447 30124846 29669532 29205858 28736290 28263116 27788342 27313534 
1218.822 26839894 26368230 25899166 25433186 24970774 24512386 24058524 
1222.198 23609770 23166854 22730616 22301946 21881702 21470558 21068850 
1225.573 20676658 20293886 19920510 19556714 19203014 18860170 18528932 
1228.948 18209756 17902680 17607174 17322356 17047282 16781188 16523743 
1232.323 16274998 16035378 15805417 15585536 15376022 15176858 14987801 
1235.698 14808366 14637727 14474854 14318500 14167370 14020374 13876782 
1239.074 13736449 13599719 13467297 13339990 13218389 13102780 12993073 
1242.449 12888992 12790164 12696333 12607357 12523186 12443706 12368798 
1245.824 12298240 12231892 12169784 12112090 12059161 12011290 11968651 
1249.199 11931141 11898535 11870550 11847144 11828545 11815294 11808015 
1252.575 11807200 11812977 11825035 11842803 11865617 11893027 11924938 
1255.950 11961595 12003305 12050262 12102230 12158500 12217952 12279247 
1259.325 12341042 12402177 12461765 12519091 12573628 12624881 12672444 
1262.700 12715957 12755154 12789769 12819529 12844002 12862590 12874526 
1266.076 12879023 12875362 12863028 12841718 12811336 12771836 12723181 
1269.451 12665285 12598059 12521474 12435631 12340707 12236970 12124582 
1272.826 12003553 11873691 11734687 11586271 11428313 11260995 11084837 
1276.201 10900568 10709190 10511783 10309503 10103606 9895293 9685825 
1279.577 9476360 9267926 9061430 8857575 8657075 8460662 8269197 8083739 
1283.434 7905404 7735388 7574811 7424669 7285881 7159362 7046109 6947268 
1287.292 6864019 6797468 6748380 6716986 6702842 6704873 6721479 6750915 
1291.149 6791475 6841657 6900208 6966018 7037904 7114500 7194188 7275224 
1295.006 7355946 7434985 7511418 7584790 7654958 7721839 7785213 7844609 
1298.864 7899309 7948534 7991640 8028372 8058905 8083872 8104187 8120879 
1302.721 8134939 8147114 8157912 8167468 8175640 8181944 8185715 8186172 
1306.579 8182714 8175058 8163526 8149020 8132936 8116842 8102054 8089328 
1310.436 8078693 8069476 8060630 8051182 8040530 8028687 8016170 8003849 
1314.293 7992573 7982934 7975178 7969278 7965044 7962315 7961073 7961346 
1318.151 7963182 7966481 7971092 7976819 7983533 7991393 8000676 8011851 
1322.008 8025277 8041040 8058939 8078488 8099150 8120545 8142686 8166032 
1325.866 8191428 8220014 8252927 8291239 8335896 8387661 8447140 8514733 
1329.723 8590562 8674387 8765510 8862818 8965029 9070800 9179062 9289179 
1333.581 9400953 9514664 9630729 9749699 9872042 9998113 10128211 10262610 
1337.438 10401560 10545211 10693622 10846660 11003996 11165184 11329820 
1340.813 11497606 11668463 11842533 12020189 12201841 12387998 12579115 
1344.188 12775725 12978229 13186982 13402104 13623443 13850488 14082390 
1347.564 14318109 14556503 14796497 15037064 15277217 15515815 15751491 
1350.939 15982552 16207241 16423699 16630456 16826350 17010648 17182874 
1354.314 17342534 17488938 17621192 17738294 17839462 17924348 17993382 
1357.689 18047722 18089190 18119908 18142050 18157526 18167828 18174030 
1361.065 18176892 18177026 18174864 18170786 18164804 18156494 18144774 
1364.440 18127852 18103296 18068274 18019852 17955210 17871986 17768174 
1367.815 17642254 17493280 17320978 17126254 16911588 16681598 16443422 
1371.190 16206630 15982872 15785196 15626933 15520726 15477462 15505360 
1374.566 15609249 15790136 16044952 16366637 16744439 17164568 17610958 
1377.941 18066400 18513610 18936432 19320686 19654742 19929660 20138980 
1381.316 20278350 20345240 20338758 20259546 20109804 19893250 19614868 
1384.691 19280692 18897576 18472876 18014276 17529414 17025598 16509293 
1388.067 15985790 15458983 14931442 14404622 13879405 13356513 12837011 
1391.442 12322548 11815467 11318915 10836596 10372639 9931246 9516148 
1394.817 9130350 8775611 8452515 8160516 7898272 7664000 7455846 7271950 
1398.675 7110467 6969472 6846813 6740212 6647458 6566567 6496007 6434881 
1402.532 6382725 6339333 6304592 6278143 6259443 6247641 6241779 6240917 
1406.389 6244199 6250930 6260603 6272841 6287410 6304137 6322933 6343730 
1410.247 6366458 6391016 6417245 6445016 6474189 6504636 6536260 6568937 
1414.104 6602457 6636505 6670706 6704662 6738093 6770900 6803207 6835234 
1417.962 6867286 6899514 6931872 6964186 6996134 7027530 7058393 7089057 
1421.819 7120162 7152512 7186951 7224243 7264962 7309443 7357842 7410091 
1425.677 7466025 7525420 7587988 7653521 7721916 7793227 7867807 7946201 
1429.534 8029175 8117587 8212278 8313953 8423205 8540478 8666243 8801135 
1433.391 8946181 9102970 9273683 9461144 9668599 9899555 10157508 10445683 
1437.249 10766920 11123630 11517690 11950564 12423141 12935629 13487448 
1440.624 14076950 14701365 15356655 16037469 16737130 17447592 18159800 
1443.999 18864068 19550726 20210962 20837362 21424306 21967768 22465018 
1447.375 22914190 23313966 23663550 23962680 24211720 24411506 24563052 
1450.750 24667254 24724658 24735456 24699732 24617594 24489354 24315430 
1454.125 24096200 23831846 23522582 23168988 22772404 22335258 21860936 
1457.500 21353350 20816410 20253572 19667842 19062040 18439234 17803042 
1460.875 17157536 16507098 15855870 15207659 14565863 13933817 13315007 
1464.251 12713163 12132099 11575124 11044706 10542205 10067861 9621294 
1467.626 9201749 8808524 8440976 8098522 7780438 7485822 7213641 6962858 
1471.483 6732408 6521209 6327928 6150833 5987828 5836565 5694916 5561346 
1475.341 5435177 5316575 5206188 5104682 5012292 4928616 4852621 4782960 
1479.198 4718326 4657613 4600144 4545453 4493249 4443275 4395253 4348998 
1483.056 4304429 4261568 4220468 4181174 4143626 4107729 4073449 4040933 
1486.913 4010552 3982791 3958070 3936508 3917806 3901294 3886111 3871483 
1490.771 3856848 3841925 3826501 3810243 3792557 3772520 3749127 3721563 
1494.628 3689444 3652981 3612880 3570128 3525770 3480673 3435504 3390821 
1498.485 3347149 3305077 3265158 3227808 3193171 3161089 3131173 3102995 
1502.343 3076246 3050878 3026997 3004847 2984537 2966020 2949046 2933192 
1506.200 2918005 2903068 2888072 2872793 2857111 2841025 2824710 2808496 
1510.058 2792856 2778302 2765171 2753450 2742857 2732770 2722563 2711813 
1513.915 2700368 2688379 2676117 2663761 2651180 2638001 2623792 2608227 
1517.772 2591385 2573794 2556227 2539480 2524192 2510540 2498364 2487274 
1521.630 2476818 2466635 2456489 2446238 2435699 2424693 2413122 2401053 
1525.487 2388690 2376457 2364743 2353700 2343175 2332714 2321696 2309751 
1529.345 2296823 2283324 2269940 2257352 2245939 2235634 2225969 2216283 
1533.202 2205989 2194797 2182696 2169933 2156733 2143265 2129623 2115901 
1537.060 2102368 2089480 2077828 2067910 2059907 2053588 2048365 2043491 
1540.917 2038325 2032582 2026224 2019431 2012319 2004807 1996600 1987383 
1544.774 1976938 1965428 1953248 1941069 1929458 1918765 1909070 1900134 
1548.632 1891754 1883723 1876020 1868677 1861774 1855237 1848934 1842706 
1552.489 1836502 1830495 1824971 1820189 1816215 1812751 1809253 1805059 
1556.347 1799761 1793321 1786188 1779052 1772654 1767424 1763336 1760052 
1560.204 1757110 1754273 1751619 1749575 1748617 1749029 1750685 1753032 
1564.062 1755258 1756645 1756787 1755748 1754031 1752286 1751047 1750536 
1567.919 1750632 1750946 1751052 1750667 1749738 1748364 1746733 1744983 
1571.776 1743072 1740870 1738255 1735260 1732144 1729379 1727694 1727709 
1575.634 1729871 1734283 1740595 1748112 1755965 1763315 1769607 1774641 
1579.491 1778583 1781844 1784898 1788077 1791478 1794950 1798231 1800997 
1583.349 1803124 1804664 1805914 1807202 1808798 1810864 1813308 1816073 
1587.206 1818995 1822037 1825260 1828743 1832597 1836814 1841305 1845939 
1591.063 1850657 1855480 1860524 1865977 1872002 1878671 1885959 1893771 
1594.921 1902034 1910722 1919877 1929588 1939904 1950809 1962196 1973908 
1598.778 1985764 1997579 2009202 2020418 2030981 2040606 2049058 2056197 
1602.636 2062160 2067283 2072032 2076849 2081965 2087313 2092529 2097100 
1606.493 2100593 2102891 2104241 2105262 2106772 2109568 2114191 2120806 
1610.351 2129168 2138676 2148565 2158052 2166549 2173723 2179699 2184906 
1614.208 2190089 2196031 2203385 2212457 2223109 2234803 2246843 2258553 
1618.065 2269580 2279905 2289750 2299386 2308850 2317860 2325838 2332116 
1621.923 2336248 2338187 2338376 2337647 2336901 2336849 2337860 2339890 
1625.780 2342695 2345929 2349316 2352693 2355916 2358728 2360749 2361470 
1629.638 2360517 2357736 2353479 2348454 2343627 2339927 2337946 2337753 
1633.495 2338947 2340818 2342645 2343929 2344592 2344981 2345628 2347019 
1637.353 2349336 2352289 2355181 2357092 2357145 2354778 2349920 2343083 
1641.210 2335078 2326873 2319204 2312440 2306534 2301165 2296012 2290968 
1645.067 2286310 2282623 2280505 2280305 2281880 2284543 2287337 2289320 
1648.925 2289917 2289249 2287892 2286731 2286569 2287813 2290272 2293428 
1652.782 2296596 2299359 2301749 2304237 2307513 2312149 2318307 2325669 
1656.640 2333518 2341015 2347467 2352582 2356480 2359750 2363151 2367521 
1660.497 2373581 2381761 2392336 2405218 2420177 2436754 2454353 2472359 
1664.354 2490129 2507072 2522657 2536420 2548042 2557280 2564149 2568978 
1668.212 2572406 2575338 2578673 2583190 2589234 2596671 2604967 2613555 
1672.069 2622062 2630621 2639852 2650687 2664045 2680421 2699701 2721158 
1675.927 2743654 2766075 2787575 2807868 2827010 2845404 2863447 2881372 
1679.784 2899276 2917100 2934829 2952426 2970059 2987933 3006320 3025535 
1683.642 3045962 3068089 3092446 3119457 3149332 3181831 3216289 3251728 
1687.499 3287022 3321303 3354121 3385581 3416285 3447072 3478885 3512393 
1691.356 3548115 3586346 3627273 3670999 3717552 3766859 3818484 3871871 
1695.214 3926374 3981527 4037362 4094474 4153999 4217303 4285583 4359634 
1699.071 4439640 4525204 4615637 4710223 4808516 4910456 5016410 5126930 
1702.929 5242615 5364003 5491490 5625485 5766325 5914422 6070185 6233885 
1706.786 6405705 6585591 6773509 6969484 7173817 7387250 7610827 7845768 
1710.644 8093184 8353723 8627371 8913356 9210277 9516493 9830385 10150933 
1714.501 10477827 10811512 11152937 11503135 11862689 12231380 12608045 
1717.876 12990694 13377051 13765198 14154169 14544313 14937273 15335722 
1721.251 15742776 16161542 16594759 17044838 17513972 18004562 18519386 
1724.627 19061776 19635430 20244306 20892384 21583786 22322950 23114756 
1728.002 23964766 24878890 25863108 26923108 28064132 29291332 30610516 
1731.377 32029090 33556316 35203128 36980768 38898916 40963824 43177352 
1734.752 45537504 48040204 50681840 53460948 56378596 59436564 62634276 
1738.128 65965580 69416440 72964648 76581544 80234864 83891288 87517736 
1741.503 91081168 94547472 97881192 101046264 104008176 106735888 109202968 
1744.878 111387288 113269864 114834496 116069296 116969192 117538680 
1747.771 117792000 117750600 117438472 116877304 116084192 115072272 
1750.664 113853944 112444112 110861800 109128640 107265600 105289576 
1753.557 103211688 101038184 98773296 96422800 93996080 91506680 88970840 
1756.933 86405408 83826032 81246624 78679752 76137504 73632112 71175888 
1760.308 68780464 66455740 64209260 62046032 59968816 57978712 56075520 
1763.683 54257976 52523768 50869556 49291476 47785692 46349092 44979660 
1767.058 43676524 42439120 41266320 40155496 39102084 38099860 37141684 
1770.434 36220488 35330096 34465592 33623160 32799668 31992024 31196976 
1773.809 30410934 29630438 28852410 28074578 27295520 26514586 25731554 
1777.184 24946352 24158800 23368706 22575978 21780994 20984922 20189878 
1780.559 19398904 18615606 17843858 17087146 16348448 15629983 14933421 
1783.935 14260110 13611276 12988280 12392413 11825023 11287066 10779124 
1787.310 10301216 9852795 9432808 9039855 8672307 8328489 8006846 7706298 
1791.167 7426007 7165483 6924236 6701558 6496220 6306494 6130226 5965231 
1795.025 5809587 5661960 5521634 5388498 5262707 5144489 5033958 4931016 
1798.882 4835422 4746777 4664606 4588235 4516728 4448845 4383158 4318274 
1802.740 4253127 4187219 4120835 4054933 3990826 3929972 3873538 3822111 
1806.597 3775640 3733360 3694044 3656121 3618008 3578501 3536974 3493686 
1810.454 3449684 3406629 3366220 3329706 3297278 3268140 3240632 3212925 
1814.312 3183779 3153089 3122032 3092686 3067207 3047029 3032144 3021077 
1818.169 3011427 3000702 2987080 2970086 2950244 2928726 2906438 2883694 
1822.027 2860018 2834484 2806141 2774603 2740033 2703076 2664536 2625076 
1825.884 2585101 2544970 2505233 2466962 2431556 2400573 2375174 2355639 
1829.741 2341217 2330275 2320608 2310132 2297259 2281120 2261633 2239268 
1833.599 2214804 2189130 2163026 2137122 2111689 2086699 2061623 2035856 
1837.456 2008896 1980734 1952148 1924544 1899750 1879206 1863544 1852160 
1841.314 1843323 1834820 1824547 1811264 1794692 1775416 1754299 1731965 
1845.171 1708600 1684157 1658846 1633811 1611038 1593186 1582553 1580023 
1849.029 1584378 1592223 1598734 1599182 1590234 1571048 1543506 1511406 
1852.886 1479321 1451246 1429481 1414482 1405075 1399204 1394819 1390382 
1856.743 1385148 1378979 1372149 1364991 1357692 1350308 1342776 1334985 
1860.601 1326820 1318239 1309321 1300512 1292609 1286979 1285224 1288988 
1864.458 1299214 1315645 1336460 1358373 1377100 1388586 1389832 1380075 
1868.316 1360927 1336020 1310101 1287639 1271598 1262973 1260698 1262503 
1872.173 1265941 1269361 1272298 1275438 1279815 1286196 1294284 1302724 
1876.031 1309476 1312605 1310920 1304354 1293815 1280648 1266079 1250803 
1879.888 1235010 1218795 1202669 1188044 1176892 1171443 1173356 1182880 
1883.745 1198699 1218177 1237912 1254603 1265678 1269524 1265386 1253277 
1887.603 1233564 1207243 1175972 1142425 1110099 1083068 1064978 1058363 
1891.460 1063915 1080279 1104484 1132669 1160801 1185602 1204537 1216153 
1895.318 1219642 1214993 1202901 1184946 1163319 1140972 1120432 1103487 
1899.175 1090409 1079939 1069728 1057490 1042097 1024396 1007206 994643 
1903.032 990607 997515 1014907 1039704 1066553 1089619 1103992 1107151 
1906.890 1099498 1083954 1065061 1047624 1035432 1030467 1032681 1040337 
1910.747 1050608 1060493 1067304 1069409 1066103 1057717 1045411 1030539 
1914.605 1014775 999668 986502 976383 969844 967048 967465 969907 972511 
1918.944 973039 969185 959428 943271 921870 897774 874684 856304 845276 
1923.284 842275 845725 851914 856386 855453 847598 834298 819886 810084 
1927.624 810332 823346 848452 880966 913838 939470 952345 950377 935819 
1931.963 914015 891754 874670 865723 863932 865099 863152 852399 829270 
1936.303 794257 751887 710079 678212 664813 674917 708706 760862 821658 
1940.642 879278 922901 945363 945058 926055 896623 866028 842162 829000 
1944.982 825658 827673 829017 824260 810565 787988 758796 725915 691864 
1949.322 657427 622115 584802 544723 502230 458892 417199 380082 350188 
1953.661 329939 321110 325434 343574 375451 419320 472091 529376 586761 
1958.001 640801 690309 735896 780147 825433 872340 918789 959990 989070 
1962.340 999397 986260 948363 887792 810275 723192 634325 550391 476199 
1966.680 414057 365072 329572 308518 305085 324221 371896 453317 568926 
1971.020 712624 870286 1021332 1142472 1213956 1225130 1179373 1093644 
1974.877 996387 920572 895040 937444 1048702 1212102 1398334 1573277 1707168 
1979.217 1782181 1794710 1753401 1675174 1579502 1485253 1406622 1352657 
1983.074 1326319 1326094 1346686 1381302 1422621 1464033 1499358 1523600 
1986.931 1531998 1521398 1490005 1439032 1372866 1299231 1227717 1168726 
1990.789 1130240 1116571 1127104 1156525 1195321 1232505 1256512 1257252 
1994.646 1227340 1162833 1064012 935856 787879 633585 488195 366823 280882 
1998.986 235718 229305 252338 290483 327890 350729 350568 325510 280207 
2003.325 223672 166688 119614 91319 87763 113432 171137 261779 384555 535541 
2008.147 707102 887521 1062295 1216212 1334841 1407466 1427660 1394034 
2012.005 1309774 1182384 1022467 844591 665910 505664 382613 311924 301630 
2016.344 350512 446587 570150 697397 806611 882407 919058 919007 891072 
2020.684 844678 788082 725714 659310 590747 523721 464492 420995 400170 
2025.023 405253 434567 482168 539631 598796 652844 697815 730299 747900 
2029.363 748112 730399 697227 655320 614647 586842 579776 595433 627673 
2033.703 665588 696819 713416 714591 706765 699160 699985 712301 733508 
2038.042 757911 780335 799073 817497 841937 878098 927416 985778 1043801 
2042.382 1090887 1117948 1121276 1102094 1065884 1020310 973971 935929 
2046.239 916248 925591 973826 1065028 1193807 1342042 1481252 1579413 
2050.097 1611353 1566866 1455302 1301826 1141484 1008649 928426 909788 
2053.954 944149 1008633 1074646 1117146 1122471 1090761 1033881 969264 
2057.812 913880 879294 869912 883282 913702 954302 999523 1045527 1089785 
2062.151 1129802 1162995 1186281 1197076 1193696 1176092 1145260 1103234 
2066.009 1052364 995545 935842 877258 824349 781988 754225 743395 748996 
2070.348 768007 795317 825604 854191 879069 900566 920954 943015 969045 
2074.688 999278 1032296 1065264 1095300 1120477 1140619 1157128 1172405 
2078.545 1188307 1205209 1221250 1232815 1235043 1223819 1197019 1155772 
2082.403 1104215 1048992 997455 955986 928559 915962 915650 923136 932917 
2086.742 940077 940972 933927 918598 895793 866581 832327 794243 754214 
2091.082 714758 679434 652262 637051 635989 648961 672487 700554 725746 
2095.421 741548 744218 734376 716820 699477 690455 695945 718117 754659 
2099.761 799395 844530 882301 907300 917158 912592 896555 873225 846732 
2104.101 820628 797474 779155 766339 759119 756654 757707 760922 765505 
2108.440 771731 781386 796967 821502 856746 902649 956342 1012412 1063769 
2112.780 1102941 1123392 1120997 1094282 1045004 977155 896853 810764 725868 
2117.119 647935 581251 527853 487911 459843 441486 430866 427252 430886 
2121.459 443173 465092 496534 535103 576240 613448 639842 649253 637771 
2125.799 604093 549935 479003 396357 307382 217596 131064 51377 -19465 
2130.138 -80915 -133929 -180461 -223235 -264466 -304852 -342944 -374828 
2133.996 -394804 -397287 -378964 -340984 -289929 -237727 -198798 -187352 
2137.853 -213072 -278467 -377277 -495685 -614897 -716117 -784173 -811901 
2141.710 -800308 -758469 -699359 -636116 -578222 -530318 -491634 -459564 
2145.568 -432564 -412609 -406669 -425605 -480434 -579194 -722596 -903638 
2149.425 -1106962 -1312289 -1498042 -1645575 -1742157 -1784616 -1778663 
2152.801 -1739450 -1687816 -1646891 -1635794 -1665297 -1731767 -1817171 
2156.176 -1888933 -1907638 -1835534 -1649743 -1352094 -974426 -570418 
2159.551 -202741 80217 255604 330070 330661 292199 245172 209933 193854 
2163.891 194831 204906 215800 220982 216558 199723 168499 119036 47831 
2168.230 -47523 -165622 -300591 -441403 -574799 -686457 -765893 -807098 
2172.088 -810624 -781996 -730738 -666923 -599149 -532100 -466808 -399432 
2175.945 -324844 -237879 -137321 -26292 85856 187375 264910 309177 316803 
2180.285 292711 248481 199298 159031 136879 133534 144017 158875 169573 
2184.624 170959 163650 151588 141277 137891 144300 160223 183781 212275 
2188.964 244245 279192 317772 359735 404170 448754 490138 524794 550182 
2193.303 563709 564154 550267 521386 477317 419613 351607 279034 209506 
2197.643 151921 114847 105829 129999 189638 283104 404572 543525 686062 
2201.983 815709 917286 979378 998011 977004 927993 866114 806997 761393 
2206.322 734764 726511 732358 747659 769725 797804 832638 874044 919789 
2210.662 964666 1002853 1029191 1041832 1042348 1034837 1023372 1010518 
2214.519 995620 976411 950526 918394 884006 854744 838684 842061 866685 
2218.859 909900 965259 1025452 1084296 1138622 1187294 1230658 1268360 
2222.716 1298905 1319929 1329656 1328182 1318456 1305515 1295305 1292371 
2226.574 1298677 1312996 1332180 1351899 1369152 1381936 1389848 1393184 
2230.431 1392263 1386865 1376914 1362534 1345427 1328324 1315102 1309204 
2234.289 1313366 1327865 1351076 1379554 1408834 1434239 1452153 1459954 
2238.146 1457137 1444599 1425328 1403319 1383587 1370475 1367298 1375275 
2242.003 1393375 1418648 1447143 1474655 1498049 1514827 1523977 1524659 
2245.861 1516370 1498298 1470012 1431724 1385368 1334890 1286334 1246809 
2249.718 1223102 1219710 1237619 1273620 1321255 1371847 1417443 1452608 
2253.576 1475845 1489514 1498426 1507585 1519936 1535111 1550067 1560389 
2257.433 1562964 1557437 1546838 1536152 1530321 1531134 1536535 1540606 
2261.291 1535958 1516869 1482031 1435665 1386921 1346666 1324589 1325753 
2265.148 1349627 1390477 1439841 1489067 1531709 1564554 1587718 1603280 
2269.005 1614036 1622565 1630633 1638986 1647758 1656518 1664571 1671142 
2272.863 1675923 1679267 1682389 1687176 1695508 1708115 1724190 1740949 
2276.720 1754693 1761976 1761205 1753533 1742954 1734785 1734199 1744168 
2280.578 1764911 1793769 1826668 1859552 1889855 1916586 1940218 1961435 
2284.435 1980224 1995518 2005434 2007990 2002099 1988003 1967371 1942646 
2288.292 1916702 1891930 1870260 1852806 1840148 1832085 1827769 1825355 
2292.150 1822436 1816367 1805036 1787766 1765834 1742219 1721029 1706063 
2296.007 1699736 1702082 1710885 1722195 1731813 1736159 1733764 1724888 
2299.865 1711637 1696684 1682704 1671457 1663712 1659259 1657404 1657153 
2303.722 1657849 1658942 1660073 1660917 1661016 1659810 1656847 1651924 
2307.580 1645196 1637308 1629371 1622550 1618145 1617013 1619738 1626582 
2311.437 1637585 1652526 1671044 1692338 1715197 1737923 1758696 1775993 
2315.294 1789168 1798804 1806789 1815488 1827217 1843199 1863305 1886249 
2319.152 1910648 1935988 1963382 1995233 2034169 2080917 2132640 2182232 
2323.009 2219280 2232545 2213047 2156889 2066565 1950533 1821310 1692614 
2326.867 1576629 1481635 1410941 1363308 1334001 1316966 1306525 1298537 
2330.724 1290718 1282349 1273766 1265571 1258602 1253454 1250778 1250880 
2334.582 1253824 1258971 1265146 1270760 1274385 1275025 1272629 1268091 
2338.439 1262893 1258658 1256586 1257198 1260276 1264964 1270236 1274960 
2342.296 1278248 1279400 1278012 1274013 1267787 1260143 1252315 1245633 
2346.154 1241184 1239385 1239876 1241493 1242669 1241900 1238279 1231607 
2350.011 1222490 1211881 1200921 1190416 1181034 1173069 1166883 1162760 
2353.869 1161074 1161888 1164919 1169388 1174167 1177938 1179640 1178712 
2357.726 1175113 1169078 1160970 1150970 1138833 1124051 1106230 1085202 
2361.583 1061442 1035939 1010140 985569 963580 945167 930931 921127 915795 
2365.923 914669 917324 922954 930463 938562 946062 952188 957016 961269 
2370.263 966427 974069 985419 1000805 1019518 1039893 1059811 1077262 
2374.120 1090851 1100186 1105635 1108150 1108701 1107939 1106190 1103476 
2377.978 1099989 1096366 1093680 1093336 1096371 1103057 1112546 1122797 
2381.835 1131321 1135883 1135387 1130324 1122759 1115712 1112144 1114150 
2385.692 1122238 1135380 1151584 1168501 1184387 1198376 1210572 1221500 
2389.550 1231672 1240992 1248713 1253527 1254165 1249814 1240584 1227676 
2393.407 1213064 1199258 1188554 1182774 1182811 1188477 1198691 1211753 
2397.265 1225530 1238188 1248360 1255400 1259571 1261634 1262717 1263792 
2401.122 1265479 1267892 1270724 1273421 1275482 1276584 1276792 1276233 
2404.979 1275239 1274236 1273805 1274650 1277682 1283889 1294032 1308228 
2408.837 1325632 1344299 1361407 1373703 1378445 1374050 1360676 1340287 
2412.694 1316292 1292706 1273340 1260625 1255266 1255962 1259785 1263034 
2416.552 1262200 1255020 1241183 1222609 1203139 1187531 1180244 1184088 
2420.409 1199385 1223576 1251980 1278810 1298791 1308404 1306632 1294729 
2424.267 1275701 1252977 1229477 1207037 1186399 1167764 1151377 1138027 
2428.124 1129072 1125856 1129317 1139199 1154084 1171631 1189449 1205467 
2431.981 1218641 1228716 1236006 1240761 1242933 1242322 1238748 1232650 
2435.839 1225244 1218423 1214075 1213392 1216099 1220573 1224263 1224702 
2439.696 1220479 1211945 1201086 1190738 1183619 1181153 1183104 1187668 
2443.554 1192397 1195130 1194784 1191620 1186964 1182445 1179326 1177886 
2447.411 1177462 1176841 1174850 1170734 1164638 1157523 1150832 1146388 
2451.269 1145834 1150354 1160609 1176226 1195919 1217376 1237413 1252755 
2455.126 1260483 1258919 1248035 1229539 1206559 1182794 1161742 1145930 
2458.983 1136495 1133234 1134947 1139949 1146584 1153609 1160225 1166226 
2462.841 1171668 1176782 1181791 1186547 1190577 1192958 1192538 1188211 
2466.698 1179411 1166361 1150373 1133754 1119180 1109281 1105728 1108920 
2470.556 1117970 1130946 1145550 1159690 1172032 1182085 1190063 1196544 
2474.413 1202017 1206588 1210065 1211828 1211483 1208856 1204476 1199389 
2478.271 1195089 1193154 1194541 1199326 1206157 1212559 1215388 1211699 
2482.128 1199752 1180024 1155412 1130679 1111522 1102989 1107969 1126240 
2485.985 1154827 1188438 1221264 1248276 1266373 1274710 1274590 1268478 
2489.843 1259276 1249619 1241547 1236569 1235481 1238568 1245432 1254773 
2493.700 1264595 1272524 1276650 1275935 1271003 1264002 1257953 1255610 
2497.558 1258514 1266327 1276831 1286771 1292970 1293487 1288296 1279120 
2501.415 1268683 1259711 1254058 1252144 1253249 1255907 1258869 1261386 
2505.272 1263493 1265752 1268726 1272676 1277358 1282211 1286678 1290509 
2509.130 1293962 1297702 1302674 1309633 1319080 1330974 1344651 1358975 
2512.987 1372153 1382215 1386859 1384197 1373121 1353840 1328143 1299252 
2516.845 1271185 1247923 1232233 1225237 1226189 1232932 1243039 1254416 
2520.702 1266214 1278684 1292733 1309047 1327417 1346338 1363272 1375269 
2524.560 1379809 1375541 1362653 1342697 1318272 1292419 1268207 1248251 
2528.417 1234425 1227907 1228836 1236360 1248594 1263038 1276845 1287569 
2532.274 1293680 1294776 1291693 1286197 1280266 1275701 1273667 1274640 
2536.132 1278325 1283958 1290641 1297462 1303835 1309376 1314333 1319248 
2539.989 1324907 1331931 1340501 1349841 1358367 1363836 1364222 1358373 
2543.847 1346745 1331488 1316142 1304546 1299826 1303487 1315073 1332532 
2547.704 1352923 1373564 1392507 1408842 1422490 1433518 1441776 1446793 
2551.562 1447965 1445035 1438685 1430457 1422868 1418423 1419145 1425852 
2555.419 1437845 1453105 1468826 1482049 1490401 1492597 1488858 1480813 
2559.276 1471141 1463152 1459929 1463591 1474538 1491510 1511538 1530896 
2563.134 1545943 1554192 1554794 1548599 1537670 1524412 1510909 1498342 
2566.991 1487082 1477043 1468216 1461146 1456867 1456787 1462072 1473244 
2570.849 1489714 1509965 1531842 1553015 1571338 1585269 1593904 1596876 
2574.706 1594475 1587478 1577129 1565133 1553549 1544533 1539903 1540884 
2578.563 1547911 1560201 1576362 1594222 1611605 1626508 1637616 1644450 
2582.421 1647240 1646879 1644502 1641351 1638295 1635899 1634405 1633727 
2586.278 1633701 1633980 1634224 1633815 1632153 1628610 1622865 1615194 
2590.136 1606511 1598469 1593037 1591888 1595938 1604930 1617395 1631164 
2593.993 1643990 1654213 1661204 1665300 1667530 1668931 1670141 1671149 
2597.851 1671407 1670284 1667501 1663292 1658478 1654196 1651512 1651066 
2601.708 1652946 1656787 1662003 1667895 1673904 1679521 1684298 1687878 
2605.565 1689978 1690562 1689911 1688698 1687774 1687928 1689626 1692895 
2609.423 1697306 1702193 1706986 1711331 1715267 1719071 1723079 1727519 
2613.280 1732427 1737627 1742873 1747980 1752905 1757663 1762292 1766738 
2617.138 1770780 1774251 1776921 1778738 1779868 1780469 1780708 1780586 
2620.995 1779837 1778092 1775048 1770583 1764986 1758963 1753583 1750029 
2624.853 1749344 1752254 1758821 1768547 1780390 1792786 1804294 1813472 
2628.710 1819628 1822617 1823164 1822294 1821450 1821678 1823659 1827484 
2632.567 1832712 1838721 1844804 1850560 1855955 1861184 1866761 1873086 
2636.425 1880514 1889109 1898694 1908807 1918676 1927393 1933845 1937170 
2640.282 1936687 1932352 1924713 1914873 1904301 1894491 1886647 1881337 
2644.140 1878510 1877516 1877342 1876838 1875104 1871550 1866044 1858886 
2647.997 1850781 1842540 1835072 1829003 1824697 1821951 1820284 1818865 
2651.854 1816956 1814064 1810054 1805275 1800271 1795623 1791661 1788394 
2655.712 1785484 1782457 1778776 1774173 1768548 1762002 1754593 1746316 
2659.569 1737079 1726721 1715134 1702345 1688515 1673885 1658670 1642906 
2663.427 1626628 1609693 1592253 1574523 1557192 1541039 1527013 1515857 
2667.284 1507956 1503367 1501731 1502477 1504836 1508020 1511250 1513854 
2671.142 1515176 1514750 1512252 1507680 1501277 1493571 1485360 1477595 
2674.999 1471255 1467194 1465968 1467767 1472271 1478610 1485508 1491528 
2678.856 1495320 1495976 1493376 1487969 1480887 1473497 1467032 1462328 
2682.714 1459720 1458920 1459371 1460353 1461165 1461275 1460465 1458600 
2686.571 1455816 1452435 1448828 1445544 1442927 1441129 1440016 1439173 
2690.429 1438024 1436178 1433502 1430300 1427143 1424690 1423355 1423167 
2694.286 1423693 1424291 1424383 1423725 1422533 1421331 1420708 1420971 
2698.144 1421976 1423316 1424295 1424485 1423690 1422178 1420357 1418618 
2702.001 1417041 1415409 1413331 1410465 1406791 1402653 1398767 1395878 
2705.858 1394521 1394860 1396670 1399460 1402651 1405779 1408509 1410531 
2709.716 1411609 1411524 1410185 1407845 1405149 1403080 1402793 1405171 
2713.573 1410379 1417783 1425863 1432654 1436351 1435741 1430685 1422073 
2717.431 1411564 1401180 1392743 1387512 1385980 1387949 1392691 1399278 
2721.288 1406579 1413654 1419710 1424207 1426943 1427899 1427402 1425892 
2725.146 1423887 1421799 1419875 1418206 1416802 1415644 1414870 1414818 
2729.003 1415873 1418466 1422854 1428956 1436343 1444282 1451802 1458025 
2732.860 1462251 1464123 1463629 1461209 1457367 1452770 1447953 1443390 
2736.718 1439404 1436243 1434228 1433563 1434385 1436612 1439878 1443458 
2740.575 1446323 1447487 1446142 1442010 1435430 1427404 1419312 1412560 
2744.433 1408235 1406891 1408343 1411832 1416260 1420505 1423500 1424735 
2748.290 1423972 1421475 1417752 1413520 1409443 1406140 1403942 1403017 
2752.147 1403189 1404210 1405693 1407370 1409130 1411058 1413263 1415829 
2756.005 1418645 1421444 1423708 1424974 1424900 1423595 1421513 1419467 
2759.862 1418355 1418973 1421720 1426523 1432810 1439756 1446354 1451777 
2763.720 1455385 1456946 1456375 1453902 1449779 1444429 1438298 1431859 
2767.577 1425790 1420600 1416828 1414736 1414304 1415089 1416394 1417393 
2771.435 1417352 1415907 1413133 1409623 1406382 1404469 1404779 1407711 
2775.292 1413137 1420529 1428948 1437519 1445479 1452418 1458167 1462837 
2779.149 1466427 1469012 1470489 1470781 1469879 1468017 1465649 1463477 
2783.007 1462256 1462584 1464901 1469328 1475616 1483355 1492013 1500982 
2786.864 1509684 1517660 1524582 1530290 1534897 1538728 1542383 1546451 
2790.722 1551372 1557270 1563789 1570131 1575314 1578389 1578830 1576561 
2794.579 1572237 1566786 1561296 1556563 1553125 1550915 1549830 1549694 
2798.437 1550580 1552914 1557212 1563935 1573237 1584836 1598104 1612065 
2802.294 1625863 1638839 1650587 1660796 1669201 1675442 1679292 1680693 
2806.151 1680162 1678781 1678117 1679830 1685023 1693946 1705665 1718324 
2810.009 1729781 1738266 1742901 1744116 1743300 1742238 1742555 1745142 
2813.866 1750009 1756438 1763466 1770412 1777076 1783856 1791330 1800162 
2817.724 1810560 1822507 1835522 1849054 1862630 1876002 1889163 1902206 
2821.581 1915274 1928528 1941996 1955775 1969816 1984035 1998165 2011883 
2825.438 2024835 2036785 2047786 2058203 2068671 2079877 2092346 2106269 
2829.296 2121381 2137168 2153077 2168735 2184037 2199146 2214281 2229651 
2833.153 2245239 2260997 2276981 2293519 2311270 2331212 2354114 2380323 
2837.011 2409528 2440725 2472419 2503134 2531840 2558181 2582586 2606013 
2840.868 2629722 2654857 2682382 2712935 2746953 2784702 2826446 2872471 
2844.726 2922842 2977606 3036528 3099142 3164538 3231442 3297977 3361846 
2848.583 3420238 3470240 3509060 3534359 3544695 3539502 3519113 3484794 
2852.440 3438297 3382030 3318632 3251119 3182457 3115508 3052567 2995153 
2856.298 2943869 2898550 2858491 2822994 2791660 2764526 2741980 2724515 
2860.155 2712237 2704732 2701032 2699869 2700043 2700759 2701777 2703317 
2864.013 2705984 2710426 2717159 2726515 2738727 2754062 2772823 2795478 
2867.870 2822441 2854105 2890486 2931434 2976372 3024509 3074804 3126073 
2871.728 3177202 3227296 3275961 3323457 3370664 3418962 3469682 3523724 
2875.585 3581030 3640521 3700344 3758298 3812495 3861746 3905689 3944495 
2879.442 3978409 4007319 4030617 4047163 4055976 4056615 4049669 4036565 
2883.300 4019453 4000404 3981056 3962167 3943701 3925230 3906371 3887212 
2887.157 3868346 3850897 3835902 3824178 3816074 3811470 3809856 3810748 
2891.015 3813665 3818310 3824409 3831745 3840052 3849035 3858594 3868879 
2894.872 3880256 3893318 3908713 3926718 3947296 3969866 3993466 4017039 
2898.729 4039603 4060451 4079415 4096758 4113255 4129930 4147932 4168358 
2902.587 4191985 4219163 4249651 4282692 4317078 4351573 4385032 4416845 
2906.444 4446960 4475975 4504866 4534789 4566730 4601435 4639291 4680582 
2910.302 4725592 4774890 4829292 4889852 4957564 5032995 5116154 5206132 
2914.159 5301348 5399588 5498287 5594855 5686916 5772500 5849930 5918081 
2918.017 5976115 6023679 6060794 6087935 6106004 6116171 6119862 6118535 
2921.874 6113593 6106219 6097523 6088307 6079240 6070801 6063151 6056221 
2925.731 6049758 6043423 6036976 6030404 6024197 6019249 6016943 6018849 
2929.589 6026507 6041311 6064158 6095490 6135318 6183279 6238833 6301412 
2933.446 6370641 6446443 6529169 6619594 6718846 6828282 6949115 7082218 
2937.304 7227764 7385311 7553459 7730115 7912728 8098179 8283323 8464618 
2941.161 8638842 8802678 8953169 9087823 9204594 9302007 9379042 9434961 
2945.019 9469303 9481670 9471902 9440164 9387291 9314794 9224986 9120629 
2948.876 9004774 8880223 8749171 8613165 8473153 8329726 8183529 8035701 
2952.733 7887853 7742230 7601118 7466737 7340570 7223075 7113838 7011652 
2956.591 6914798 6821561 6730656 6641230 6553006 6466195 6381178 6298580 
2960.448 6218984 6143158 6071868 6005891 5945806 5891897 5843673 5800096 
2964.306 5759602 5720451 5681219 5641339 5601008 5561363 5523924 5490168 
2968.163 5461037 5436592 5416041 5398041 5381199 5364403 5347255 5330188 
2972.021 5314234 5300996 5292107 5288931 5292345 5302495 5318862 5340394 
2975.878 5365830 5394138 5424867 5458371 5495867 5538873 5588967 5647117 
2979.735 5713380 5786976 5866576 5951123 6040252 6134846 6236902 6348949 
2983.593 6473628 6612667 6766648 6934757 7115140 7305418 7503193 7706506 
2987.450 7913758 8123763 8335493 8547600 8758539 8966213 9168124 9361423 
2991.308 9542896 9709346 9857547 9984842 10089136 10169327 10225320 10258142 
2995.165 10269532 10261797 10237449 10198801 10147831 10085906 10013681 
2998.540 9931204 9838048 9733613 9617402 9489561 9350924 9203191 9048664 
3002.398 8889745 8728418 8565971 8402707 8238166 8071550 7902079 7729408 
3006.255 7553851 7376083 7197209 7018240 6840303 6664430 6491747 6323468 
3010.113 6160884 6005094 5856650 5715531 5580885 5451371 5325533 5202125 
3013.970 5080371 4960086 4841540 4725148 4611338 4500384 4392528 4288064 
3017.827 4187449 4091277 4000247 3914922 3835364 3761306 3692189 3627315 
3021.685 3566147 3508247 3453490 3401608 3352359 3305067 3258876 3212819 
3025.542 3166201 3118577 3070176 3021541 2973597 2927204 2882997 2841313 
3029.400 2802142 2765164 2729948 2695847 2662379 2629023 2595664 2562314 
3033.257 2529494 2497901 2468610 2442379 2419781 2400632 2384121 2368868 
3037.115 2353181 2335586 2315191 2291883 2266462 2240402 2215476 2193252 
3040.972 2174895 2160807 2150731 2143869 2139117 2135449 2131913 2127925 
3044.829 2123044 2117034 2109863 2101553 2092357 2082555 2072761 2063569 
3048.687 2055647 2049488 2045522 2043588 2043428 2044490 2046066 2047530 
3052.544 2048357 2048228 2047123 2045022 2042189 2038729 2034836 2030592 
3056.402 2025895 2020538 2014337 2007125 1999068 1990577 1982567 1976263 
3060.259 1973117 1974302 1980461 1991142 2004967 2019520 2031956 2039573 
3064.116 2040606 2034668 2023079 2008384 1993809 1982531 1976685 1977027 
3067.974 1982991 1992900 2004670 2016496 2027088 2035742 2042301 2046528 
3071.831 2048141 2046623 2041620 2033090 2021870 2009251 1996971 1986539 
3075.689 1978845 1973808 1970600 1968063 1965205 1961642 1957809 1954606 
3079.546 1952904 1953055 1954696 1956681 1957525 1955946 1951184 1943157 
3083.404 1932485 1919965 1906592 1893186 1880533 1869349 1860527 1854824 
3087.261 1852853 1854781 1860072 1867543 1875784 1883354 1889162 1892655 
3091.118 1893833 1892861 1890081 1885720 1880194 1874075 1868307 1864117 
3094.976 1862754 1864895 1870553 1878647 1887388 1894811 1899270 1900076 
3098.833 1897529 1892700 1886974 1881414 1876508 1872049 1867567 1862668 
3102.691 1857319 1852145 1848242 1846746 1848410 1853369 1860897 1869669 
3106.548 1878037 1884351 1887338 1886367 1881584 1873823 1864503 1855276 
3110.406 1847780 1843187 1842051 1844103 1848319 1853039 1856484 1857064 
3114.263 1853879 1846822 1836906 1825953 1816315 1810474 1810273 1816405 
3118.120 1828225 1843526 1859222 1871832 1878662 1878313 1871337 1859904 
3121.978 1847262 1836588 1830433 1829635 1833715 1840881 1849047 1856302 
3125.835 1861450 1864163 1864839 1864076 1862683 1861204 1860177 1860055 
3129.693 1861266 1864055 1868622 1874600 1881369 1887951 1893451 1897058 
3133.550 1898403 1897389 1894195 1889178 1882759 1875338 1867609 1860320 
3137.407 1854452 1850817 1850047 1852198 1856952 1863491 1871034 1878949 
3141.265 1886888 1894766 1902499 1909739 1915893 1920212 1921827 1920431 
3145.122 1916234 1909964 1902922 1896289 1891093 1887851 1886639 1887223 
3148.980 1889258 1892340 1896101 1900180 1904250 1908088 1911631 1915133 
3152.837 1919218 1924512 1931579 1940502 1950722 1960956 1969634 1975166 
3156.695 1976454 1972989 1965298 1954475 1942110 1930029 1919919 1913163 
3160.552 1910789 1913024 1919424 1928704 1939019 1948307 1954728 1957258 
3164.409 1955748 1951250 1945356 1939791 1935841 1933848 1933313 1933149 
3168.267 1932304 1930064 1926801 1923538 1922073 1924101 1930766 1942259 
3172.124 1957553 1974612 1990920 2004068 2012300 2015221 2013669 2009630 
3175.982 2005590 2003865 2005911 2011919 2020889 2030984 2040207 2047069 
3179.839 2051016 2052471 2052515 2052398 2052923 2054133 2055461 2055912 
3183.697 2054585 2051245 2046533 2041734 2038691 2039042 2043883 2053312 
3187.554 2066357 2080994 2094725 2104922 2109510 2107340 2098471 2084074 
3191.411 2066411 2048079 2031729 2019477 2012751 2011949 2016902 2026809 
3195.269 2040532 2056765 2073993 2090562 2104804 2115265 2120942 2121735 
3199.126 2118557 2113172 2108054 2105508 2107246 2113735 2124136 2136328 
3202.984 2147675 2155468 2157927 2154349 2145420 2132920 2119253 2106758 
3206.841 2097486 2092537 2092409 2096997 2105892 2118601 2134490 2152848 
3210.698 2172586 2192268 2210217 2224811 2234976 2240386 2241663 2240073 
3214.556 2236989 2233407 2229715 2225513 2220303 2213878 2206835 2200721 
3218.413 2197552 2199030 2205904 2217451 2231540 2245114 2255331 2260127 
3222.271 2258881 2252144 2241531 2228778 2215448 2202646 2191090 2181322 
3226.128 2173788 2168945 2166978 2167671 2170536 2174880 2180181 2186397 
3229.986 2194115 2204064 2216867 2232208 2249036 2265250 2278597 2287189 
3233.843 2290188 2288057 2282461 2275785 2270633 2269381 2273686 2284412 
3237.700 2301468 2323667 2348801 2373815 2395216 2409910 2415850 2412671 
3241.558 2401820 2386007 2368521 2352134 2338574 2328344 2321051 2316041 
3245.415 2312930 2311634 2312207 2314147 2316318 2316738 2313417 2305084 
3249.273 2291978 2275970 2260341 2248617 2243500 2246066 2255508 2269618 
3253.130 2285453 2300440 2312880 2322112 2328409 2332548 2335734 2339075 
3256.988 2343974 2351530 2362536 2376849 2393310 2409590 2422779 2430181 
3260.845 2430233 2423118 2410966 2397086 2385193 2378200 2377375 2382313 
3264.702 2391113 2401137 2409943 2415792 2418019 2417121 2414163 2410577 
3268.560 2407694 2406298 2406510 2407724 2408993 2409261 2407940 2405241 
3272.417 2402243 2400612 2402091 2407707 2417474 2430080 2443552 2455749 
3276.275 2465144 2471229 2474344 2475304 2474917 2473424 2470560 2465882 
3280.132 2459289 2451247 2442914 2435708 2430757 2428392 2428240 2429305 
3283.990 2430658 2431646 2432257 2432758 2433292 2433594 2433010 2430708 
3287.847 2426310 2420195 2413701 2408535 2406383 2407900 2412844 2420051 
3291.704 2428081 2435848 2443007 2449791 2456511 2463033 2468491 2471329 
3295.562 2470091 2463986 2453613 2440749 2428060 2418091 2412520 2411973 
3299.419 2415760 2422751 2431758 2442114 2453452 2465730 2478568 2491166 
3303.277 2502321 2510706 2515406 2516085 2513288 2508048 2501636 2495079 
3307.134 2489087 2483820 2479119 2474551 2469725 2464396 2458619 2452841 
3310.991 2447953 2445219 2445854 2450597 2459294 2470529 2481768 2489983 
3314.849 2492368 2487255 2474908 2457351 2438025 2420887 2409435 2405995 
3318.706 2411320 2424609 2443877 2466487 2489566 2510382 2526750 2537422 
3322.564 2542048 2541464 2537249 2531464 2525980 2521997 2519896 2519207 
3326.421 2519214 2519276 2519248 2519400 2520304 2522195 2524862 2527450 
3330.279 2528905 2528496 2525987 2521961 2517484 2513466 2510515 2508564 
3334.136 2507072 2505422 2503502 2501615 2500605 2501214 2503814 2508046 
3337.993 2513044 2517830 2521728 2524727 2527343 2530253 2533762 2537495 
3341.851 2540431 2541067 2538312 2531656 2521469 2508891 2495318 2482035 
3345.708 2469967 2459701 2451654 2446425 2444589 2446610 2452458 2461320 
3349.566 2471494 2480678 2486602 2487740 2483816 2475950 2466613 2458833 
3353.423 2455548 2458896 2469569 2486578 2507517 2528919 2546889 2558018 
3357.281 2560151 2552707 2536872 2515168 2490915 2467191 2446260 2429424 
3361.138 2416820 2408074 2402803 2400803 2402302 2407484 2416350 2428041 
3364.995 2441199 2453908 2464228 2470843 2473205 2471608 2466991 2460603 
3368.853 2453554 2446708 2440622 2435521 2431498 2428620 2426844 2426316 
3372.710 2427129 2429373 2433187 2438365 2444330 2450057 2454126 2455216 
3376.568 2452483 2445973 2437106 2428089 2421551 2419609 2423016 2430956 
3380.425 2441357 2451398 2458651 2461714 2460686 2456729 2451676 2447135 
3384.282 2444121 2442770 2442673 2443169 2443654 2443728 2443163 2441833 
3388.140 2439739 2436924 2433777 2430984 2429354 2429403 2431062 2433235 
3391.997 2434278 2432144 2425725 2415006 2401633 2388223 2377600 2371628 
3395.855 2370672 2373365 2377327 2380226 2380862 2379598 2378104 2378431 
3399.712 2382236 2389375 2398222 2405892 2409521 2407238 2399124 2387099 
3403.570 2374465 2364797 2360936 2364160 2374194 2389266 2406948 2424659 
3407.427 2440221 2451942 2458879 2460421 2456451 2447299 2433861 2417779 
3411.284 2401177 2386501 2376016 2371366 2373091 2380518 2391866 2404633 
3415.142 2416346 2424808 2428798 2427898 2422601 2413863 2402763 2390314 
3418.999 2377459 2364913 2353423 2343819 2336815 2333057 2332717 2335407 
3422.857 2340172 2345444 2349612 2351199 2349490 2344506 2337307 2329553 
3426.714 2323318 2320393 2321804 2327530 2336304 2345888 2353514 2356719 
3430.572 2353887 2344887 2331149 2315307 2300606 2290083 2285785 2288405 
3434.429 2297254 2310440 2325573 2340168 2352016 2359610 2362094 2359324 
3438.286 2351889 2341016 2328531 2316542 2307131 2301805 2301503 2306121 
3442.144 2314923 2326785 2340644 2355737 2371589 2387819 2403822 2418463 
3446.001 2430126 2436954 2437481 2430856 2417519 2398910 2377220 2355040 
3449.859 2334680 2317881 2305700 2298474 2295904 2297130 2300855 2305545 
3453.716 2309771 2312278 2312613 2311157 2309073 2307929 2309170 2313715 
3457.573 2321576 2332070 2343917 2355989 2367402 2377759 2386862 2394523 
3461.431 2400438 2404140 2405303 2404309 2402277 2401095 2402887 2409287 
3465.288 2420601 2435571 2451621 2465552 2474536 2477169 2473869 2466619 
3469.146 2458399 2452045 2449429 2450950 2455581 2461428 2466447 2469281 
3473.003 2469448 2467720 2465559 2464837 2467262 2473960 2485214 2500476 
3476.861 2518415 2537181 2554818 2569625 2580485 2587175 2590431 2591646 
3480.718 2592732 2595356 2600867 2609655 2621416 2635329 2650234 2665298 
3484.575 2679944 2693902 2707124 2719421 2730395 2739336 2745586 2748754 
3488.433 2749146 2747972 2747128 2748849 2755235 2767606 2786249 2810344 
3492.290 2838245 2867786 2896858 2923500 2946258 2964078 2976379 2983132 
3496.148 2984831 2982679 2978435 2974237 2972047 2973260 2978363 2986708 
3500.005 2996924 3007403 3016939 3024940 3031760 3038215 3044956 3052089 
3503.863 3059059 3064562 3067223 3066164 3061312 3053555 3044361 3035142 
3507.720 3026752 3019330 3012276 3004792 2996464 2987554 2978914 2971744 
3511.577 2966908 2964349 2963012 2961010 2956146 2946842 2932492 2913830 
3515.435 2892648 2871156 2851488 2834879 2821569 2810724 2800935 2790656 
3519.292 2778558 2763965 2746815 2727514 2707022 2686397 2666707 2648938 
3523.150 2633849 2621847 2612929 2606730 2602608 2599768 2597474 2595393 
3527.007 2593335 2591478 2589966 2588858 2587915 2586568 2584210 2580304 
3530.865 2574685 2567457 2559050 2549844 2539934 2528856 2515776 2499729 
3534.722 2480157 2457023 2431376 2405036 2380216 2359094 2343111 2333016 
3538.579 2328477 2328449 2331469 2335967 2340548 2344167 2346130 2346176 
3542.437 2344433 2341248 2337169 2332635 2327730 2322240 2315377 2306605 
3546.294 2295637 2283044 2270401 2259938 2254018 2254098 2260060 2269986 
3550.152 2280465 2287533 2287963 2280331 2265712 2247220 2229311 2216296 
3554.009 2211173 2214914 2226315 2242620 2260413 2276599 2288892 2296152 
3557.866 2298103 2294956 2287141 2275268 2260041 2242645 2224696 2208300 
3561.724 2195660 2188583 2188149 2194276 2205807 2220660 2236344 2250404 
3565.581 2260849 2266550 2267252 2263565 2256747 2248356 2240047 2233224 
3569.439 2228727 2226820 2227025 2228358 2229643 2229764 2228035 2224482 
3573.296 2219798 2215041 2211436 2209896 2210555 2213040 2216379 2219322 
3577.154 2220751 2219909 2216456 2210380 2201778 2190828 2177663 2162546 
3581.011 2145995 2128876 2112103 2096495 2082484 2069710 2057162 2043540 
3584.868 2027822 2009864 1990759 1972807 1958883 1951733 1952934 1962623 
3588.726 1979070 1999234 2019682 2037029 2049018 2054767 2054705 2050374 
3592.583 2043968 2037609 2032912 2030676 2030538 2031293 2031047 2027915 
3596.441 2020547 2008263 1991401 1971000 1948314 1924576 1900810 1877876 
3600.298 1856881 1839492 1827787 1824132 1830294 1846746 1872121 1903235 
3604.156 1935778 1965325 1988510 2003718 2011127 2012436 2009824 2005335 
3608.013 2000324 1995300 1990226 1984969 1979299 1972974 1965666 1956865 
3611.870 1946125 1933395 1919318 1905347 1893519 1885518 1882024 1882372 
3615.728 1884600 1885966 1884520 1879520 1872262 1865330 1861733 1863752 
3619.585 1871828 1884652 1899581 1913738 1925168 1933393 1939422 1945404 
3623.443 1953478 1965433 1982050 2003027 2027078 2052271 2075819 2094761 
3627.300 2106354 2108705 2101542 2086860 2068715 2052298 2042835 2043801 
3631.157 2056090 2077940 2105629 2134807 2161849 2184667 2202806 2216837 
3635.015 2227391 2234845 2238831 2238957 2235318 2229076 2222220 2217270 
3638.872 2216219 2219985 2228278 2239925 2253497 2267967 2282944 2298403 
3642.730 2314223 2329841 2344165 2356154 2365303 2372272 2378741 2386622 
3646.587 2397437 2410991 2425569 2438322 2446501 2448924 2446571 2442522 
3650.445 2440904 2445366 2457508 2476463 2499211 2521624 2539876 2551676 
3654.302 2556491 2555524 2550951 2545096 2539905 2536695 2536180 2538583 
3658.159 2543634 2550510 2557684 2562949 2563730 2557844 2543871 2521797 
3662.017 2493164 2460757 2427918 2397959 2373297 2355532 2344874 2340722 
3665.874 2341671 2345862 2351521 2357022 2361106 2363291 2363540 2362222 
3669.732 2359558 2355241 2348453 2337726 2321592 2299381 2271540 2239833 
3673.589 2207124 2176413 2150019 2128656 2111535 2096349 2080618 2062564 
3677.447 2042039 2020499 2000437 1984433 1973844 1968203 1965239 1961398 
3681.304 1953012 1937697 1914996 1886774 1856599 1828890 1807500 1794797 
3685.161 1791353 1795625 1805037 1816514 1827378 1836008 1841649 1844499 
3689.019 1844962 1843287 1839286 1832464 1822029 1807634 1789563 1768792 
3692.876 1746931 1725846 1707194 1692140 1681289 1674654 1672126 1673309 
3696.734 1678094 1686075 1696670 1708816 1720917 1731101 1737671 1739533 
3700.591 1736512 1729537 1720304 1710809 1702601 1696276 1691475 1686921 
3704.448 1681336 1673679 1663786 1652466 1641255 1631816 1625613 1623467 
3708.306 1625838 1632615 1643790 1659153 1678310 1700270 1722947 1743444 
3712.163 1758218 1764154 1759719 1745532 1724513 1701204 1680529 1666393 
3716.021 1660775 1663242 1671521 1682777 1694310 1704564 1713240 1720774 
3719.878 1727536 1733479 1737766 1739324 1737381 1732258 1725078 1717870 
3723.736 1712394 1709723 1709595 1710789 1711472 1710184 1706375 1700681 
3727.593 1694661 1690237 1689095 1692110 1699396 1710256 1723393 1737159 
3731.450 1749668 1758894 1763171 1761386 1753661 1741420 1727364 1714805 
3735.308 1707110 1706567 1713768 1727666 1745748 1764950 1782345 1795700 
3739.165 1803685 1805559 1801219 1791113 1776055 1757649 1738162 1720365 
3743.023 1707114 1700378 1700973 1708187 1720094 1734237 1748459 1761357 
3746.880 1772251 1780587 1785850 1786934 1782392 1770980 1752533 1728282 
3750.738 1701001 1674497 1652699 1638670 1634034 1638740 1651362 1669555 
3754.595 1690721 1712122 1731203 1745802 1754266 1755850 1750841 1740696 
3758.452 1727629 1713754 1700557 1688150 1675389 1660611 1642583 1621582 
3762.310 1599974 1581711 1571427 1572699 1586941 1612600 1645616 1680399 
3766.167 1711377 1734386 1747374 1750184 1744313 1731829 1715001 1695950 
3770.025 1676720 1659304 1645734 1637615 1635678 1639321 1646500 1654123 
3773.882 1658907 1658361 1651625 1639883 1625891 1613501 1606327 1606899 
3777.740 1616293 1633706 1657296 1684450 1712627 1739463 1763258 1782655 
3781.597 1796575 1804152 1804813 1798314 1785034 1766176 1743538 1719466 
3785.454 1696392 1676472 1661237 1651512 1647160 1647572 1651598 1657869 
3789.312 1665017 1671698 1676731 1679216 1678655 1675176 1669563 1663238 
3793.169 1658054 1655688 1657308 1663144 1672323 1682952 1692874 1700168 
3797.027 1703968 1704629 1703625 1703028 1704604 1709018 1715468 1721920 
3800.884 1725397 1723134 1713513 1696637 1674386 1649994 1627115 1608865 
3804.741 1597193 1592457 1593715 1599036 1606229 1613464 1619643 1624524 
3808.599 1628463 1631945 1635504 1639153 1642587 1645230 1646561 1646476 
3812.456 1645395 1644327 1644676 1647806 1654678 1665317 1678782 1693094 
3816.314 1705686 1713989 1716020 1710742 1698317 1679871 1657319 1632822 
3820.171 1608603 1586683 1568913 1557007 1552359 1555993 1568350 1588741 
3824.029 1615396 1645428 1675190 1701137 1720229 1730925 1733077 1727978 
3827.886 1717867 1705179 1692052 1680090 1670214 1662900 1658290 1656267 
3831.743 1656681 1658967 1662408 1666080 1669189 1671093 1671765 1671513 
3835.601 1671172 1671433 1673030 1676193 1680886 1686698 1693076 1699238 
3839.458 1704309 1707133 1706627 1701892 1692565 1679200 1663389 1647396 
3843.316 1633753 1624300 1619835 1619716 1622197 1625128 1626811 1626552 
3847.173 1624954 1623484 1623971 1627689 1635002 1645189 1656937 1668703 
3851.031 1679402 1688377 1695640 1701255 1705337 1707563 1707570 1704971 
3854.888 1699804 1692623 1684188 1675495 1667070 1659017 1650899 1642082 
3858.745 1632140 1621201 1610274 1601049 1595593 1595844 1602902 1616771 
3862.603 1636033 1658080 1679645 1697416 1708881 1712936 1710083 1702339 
3866.460 1692652 1684115 1679290 1679474 1684758 1694083 1705703 1717858 
3870.318 1728954 1737994 1744405 1747966 1748754 1747040 1743549 1739215 
3874.175 1735424 1733305 1733469 1735618 1738390 1739696 1737382 1729966 
3878.032 1717213 1700356 1681719 1664039 1649771 1640265 1635652 1635102 
3881.890 1637175 1640418 1643856 1646945 1649488 1651577 1653446 1655211 
3885.747 1657237 1659900 1663643 1668753 1675100 1682099 1688749 1693970 
3889.605 1696887 1697202 1695290 1692140 1688925 1686595 1685787 1686439 
3893.462 1688237 1690492 1692631 1694118 1694510 1693416 1690613 1686128 
3897.320 1680442 1674455 1669679 1667459 1668853 1673887 1681689 1690355 
3901.177 1697745 1701911 1701925 1698008 1691322 1683615 1676546 1671227 
3905.034 1668180 1667328 1668553 1671830 1677331 1685278 1695660 1707877 
3908.892 1720738 1732543 1741591 1746662 1747204 1743688 1737147 1729020 
3912.749 1720825 1713677 1708465 1705637 1705284 1707000 1709936 1712637 
3916.607 1713399 1710358 1702414 1689382 1672623 1654354 1637774 1625532 
3920.464 1619477 1619729 1625174 1633534 1642513 1650353 1656212 1660196 
3924.322 1662935 1664990 1666600 1667567 1667732 1667149 1666604 1667308 
3928.179 1670654 1677589 1687945 1700380 1712570 1721844 1726397 1725306 
3932.036 1719438 1710673 1701525 1694205 1690253 1690104 1693182 1698407 
3935.894 1704621 1710639 1715657 1719016 1720215 1718949 1715034 1708692 
3939.751 1700371 1691021 1681681 1673277 1666413 1661236 1657390 1654202 
3943.609 1651041 1647680 1644279 1641656 1641025 1643549 1650060 1660574 
3947.466 1673997 1688440 1701263 1710047 1713230 1710465 1702993 1693035 
3951.323 1683340 1675995 1672088 1671141 1671834 1672541 1672216 1671030 
3955.181 1670083 1671014 1675083 1682316 1691497 1700285 1706452 1708700 
3959.038 1707291 1704147 1702076 1703436 1709409 1719214 1730441 1740041 
3962.896 1745518 1745877 1742082 1736708 1732873 1733256 1739121 1749925 
3966.753 1763774 1778012 1790049 1798118 1801592 1800734 1796621 1790472 
3970.611 1783352 1776138 1769374 1763407 1758541 1755177 1753702 1754593 
3974.468 1757985 1763813 1771611 1780664 1789931 1798442 1805385 1810332 
3978.325 1813268 1814407 1814188 1813075 1811389 1809396 1807349 1805435 
3982.183 1803934 1802992 1802357 1801282 1798725 1793421 1784526 1772028 
3986.040 1757287 1742676 1731292 1725950 1728575 1739261 1756372 1776734 
3989.898 1796556 1812470 1822256 1825322 1822576 1816206 1808713 1802554 
3993.755 1799523 1800489 1805400 1813496 1823374 1833375 1841719 1846773 
3997.613 1847371 1842961 1833865 1821071 1806441 1792023 1779879 
##END=
