##TITLE=Flashforge_PLA_White_Filament_r5_ATR-Corrected
##JCAMP-DX=5.01  $$ Nicolet v. 1
##DATATYPE=INFRARED SPECTRUM
##ORIGIN=Curtin University
##OWNER=Nicolet
##LONGDATE=2024/07/10
##TIME=11:08:56
##SPECTROMETER/DATA SYSTEM=Nicolet iS50
##DATA PROCESSING=
Ratio against background
%Transmittance->Absorbance
ATR Correction
Truncated
ElementMultiply or ElementDivide
##COMMENTS=
Number of sample scans: 32
Collection length: 47.28 sec
Sample gain: 1.0
Background collected on: Wed Jul 10 11:01:56 2024 (GMT+08:00);
Number of background scans: 32
Background gain: 1.0
Sample spacing:  1.000
Number of scan points: 16672
Resolution points: 8192
Number of FFT points: 65536
Apodization: N-B strong;
Phase correction: Mertz;
Laser frequency: 15798.3 cm-1
Number of rejected sample scans: 0
Number of rejected background scans: 0
Bench serial number: AUP1200105;
##RESOLUTION=4.000
##XUNITS=1/CM
##YUNITS=ABSORBANCE
##FIRSTX=400.163452
##LASTX=4000.187744
##FIRSTY=0.064090
##MAXX=4000.187744
##MINX=400.163452
##MAXY=1.086680
##MINY=-0.038660
##XFACTOR=1.000000
##YFACTOR=1.000000E-008
##NPOINTS=7468
##DELTAX=0.482125
##ZPD=8192
##XYDATA=(X++(Y..Y))
400.163 6408977 6393154 6403511 6432067 6464238 6484391 6478738 6438557 
404.020 6361591 6251620 6116478 5965493 5807583 5649923 5497751 5354446 
407.877 5221854 5100423 4989390 4887203 4792033 4702571 4618736 4541601 
411.734 4472765 4413052 4361162 4313085 4262543 4202738 4128588 4038563 
415.591 3935569 3826237 3719168 3622612 3542529 3481500 3438751 3411064 
419.448 3394090 3383534 3375783 3368170 3358963 3347284 3333413 3318857 
423.305 3306249 3298616 3298328 3305873 3319178 3333718 3343748 3344087 
427.162 3331855 3307488 3274614 3238769 3205630 3179307 3161535 3151648 
431.019 3147608 3147082 3148452 3151003 3154786 3159725 3165221 3169962 
434.876 3172405 3171455 3167098 3160601 3154155 3149991 3149455 3152303 
438.733 3156582 3159146 3156532 3146040 3126474 3098477 3064378 3027616 
442.590 2992002 2961002 2937298 2922517 2917195 2920735 2931580 2947168 
446.447 2964262 2979297 2989027 2991220 2985242 2972228 2954795 2936179 
450.304 2919253 2905497 2894528 2884300 2871900 2854756 2831733 2803716 
454.161 2773486 2744856 2721580 2706221 2699622 2700834 2707725 2717653 
458.017 2728194 2737505 2744302 2747674 2746874 2741280 2730633 2715217 
461.874 2696133 2675124 2654197 2634664 2617710 2603084 2589636 2575736 
465.731 2559948 2541480 2520560 2498253 2476299 2456513 2440447 2428988 
469.588 2422271 2419597 2419611 2420516 2420446 2417805 2411633 2401753 
473.445 2388728 2373604 2357476 2341077 2324562 2307524 2289258 2269108 
477.302 2246854 2222802 2197834 2173125 2149992 2129629 2113113 2101319 
481.159 2094864 2093985 2098314 2106709 2117296 2127608 2135160 2137942 
485.016 2134960 2126373 2113418 2098005 2082253 2068043 2056860 2049669 
488.873 2046966 2048716 2054292 2062315 2070706 2076924 2078585 2074109 
492.730 2063418 2048137 2031422 2016939 2008449 2008202 2016540 2031834 
496.587 2051032 2070419 2086544 2096864 2100117 2096304 2086543 2072752 
500.444 2057343 2042938 2031958 2026258 2026749 2033090 2043703 2056111 
504.301 2067517 2075566 2078965 2077845 2073654 2068635 2065215 2065193 
508.158 2069340 2077234 2087522 2098371 2108028 2115226 2119418 2120671 
512.015 2119504 2116530 2112247 2106875 2100416 2092774 2083961 2074165 
515.871 2063818 2053454 2043560 2034415 2026048 2018212 2010576 2002789 
519.728 1994675 1986177 1977365 1968338 1959189 1950012 1940978 1932340 
523.585 1924436 1917509 1911535 1905834 1899606 1891593 1880675 1866295 
527.442 1848787 1829415 1810129 1793002 1779699 1771024 1766877 1766407 
531.299 1768473 1772041 1776394 1781135 1786026 1790699 1794624 1797163 
535.156 1797835 1796497 1793474 1789382 1784861 1780262 1775520 1770233 
539.013 1763990 1756742 1749007 1741763 1736128 1732816 1731808 1732196 
542.870 1732454 1731005 1726763 1719553 1710234 1700363 1691825 1686279 
546.727 1684874 1688101 1695821 1707354 1721575 1736956 1751660 1763746 
550.584 1771480 1773737 1770333 1762170 1751065 1739278 1729038 1721907 
554.441 1718644 1719138 1722726 1728388 1735355 1742875 1750342 1757180 
558.298 1762918 1767262 1770334 1772731 1775482 1779658 1785910 1794056 
562.155 1802945 1810703 1815311 1815349 1810544 1801894 1791410 1781325 
566.012 1773402 1768393 1765974 1765161 1764957 1764956 1765730 1768578 
569.869 1775081 1786325 1802405 1822190 1843628 1864335 1882343 1896566 
573.725 1907084 1914864 1921328 1927790 1935039 1943167 1951742 1960021 
577.582 1967397 1973532 1978464 1982432 1985707 1988357 1990233 1990984 
581.439 1990396 1988520 1985874 1983335 1981981 1982673 1985795 1991071 
585.296 1997732 2004787 2011562 2018001 2024851 2033376 2044858 2059969 
589.153 2078292 2098200 2117237 2132763 2142839 2146763 2145362 2140610 
593.010 2135026 2130871 2129507 2131237 2135498 2141354 2148060 2155412 
596.867 2163745 2173644 2185485 2199064 2213522 2227502 2239627 2248947 
600.724 2255301 2259355 2262391 2265873 2271080 2278741 2289002 2301464 
604.581 2315414 2330036 2344536 2358262 2370759 2381752 2391242 2399541 
608.438 2407322 2415556 2425367 2437783 2453468 2472526 2494452 2518247 
612.295 2542760 2567001 2590513 2613483 2636648 2660964 2687222 2715592 
616.152 2745427 2775333 2803514 2828251 2848477 2864045 2875825 2885406 
620.009 2894677 2905322 2918461 2934515 2953332 2974419 2997242 3021346 
623.866 3046409 3072130 3098136 3123904 3148886 3172572 3194730 3215398 
627.723 3234899 3253659 3272043 3290226 3308234 3325947 3343309 3360302 
631.579 3376998 3393450 3409603 3425256 3440188 3454256 3467608 3480679 
635.436 3494170 3508789 3524997 3542902 3562200 3582405 3603058 3623913 
639.293 3645011 3666493 3688401 3710472 3732088 3752438 3770805 3786908 
643.150 3801071 3814119 3827172 3841217 3856817 3873922 3891989 3910173 
647.007 3927666 3943904 3958722 3972318 3985227 3998194 4012107 4027900 
650.864 4046417 4068202 4093320 4121145 4150354 4179078 4205308 4227244 
654.721 4243804 4254779 4260931 4263793 4265375 4267771 4272928 4282307 
658.578 4296773 4316388 4340417 4367332 4395019 4421105 4443457 4460584 
662.435 4472045 4478502 4481597 4483503 4486444 4492176 4501698 4515120 
666.292 4531789 4550577 4570259 4589817 4608755 4627090 4645326 4664148 
670.149 4684093 4705208 4726877 4747884 4766736 4782113 4793383 4800815 
674.006 4805603 4809437 4813974 4820290 4828623 4838430 4848883 4859297 
677.863 4869520 4879981 4891387 4904189 4918117 4932109 4944626 4954252 
681.720 4960400 4963716 4966098 4970070 4978080 4991591 5010650 5033932 
685.577 5059213 5084147 5106938 5126790 5143932 5159277 5173975 5189005 
689.433 5204930 5221897 5239808 5258504 5277909 5298016 5318806 5340090 
693.290 5361476 5382311 5401845 5419368 5434467 5447083 5457645 5466906 
697.147 5475800 5485218 5495782 5507676 5520612 5533911 5546645 5557842 
701.004 5566651 5572472 5575043 5574461 5571174 5565912 5559632 5553243 
704.861 5547435 5542353 5537431 5531411 5522669 5509646 5491496 5468415 
708.718 5441767 5413713 5386457 5361618 5339467 5318897 5297757 5273503 
712.575 5243947 5207815 5164822 5115430 5060379 5000213 4935151 4865192 
716.432 4790399 4711187 4628416 4543093 4456113 4367799 4277875 4185696 
720.289 4090766 3993252 3894340 3796147 3701293 3612222 3530686 3457382 
724.146 3392125 3334212 3282994 3238302 3200639 3171037 3150820 3141194 
728.003 3143089 3157026 3183160 3221426 3271630 3333456 3406581 3490654 
731.860 3585397 3690567 3806034 3931596 4066843 4210891 4362300 4519012 
735.717 4678551 4838234 4995539 5148269 5294747 5433753 5564565 5686904 
739.574 5801011 5907624 6007991 6103680 6196381 6287472 6377835 6467654 
743.431 6556613 6644128 6729714 6813309 6895377 6976806 7058734 7142234 
747.287 7228172 7317029 7408938 7503638 7600557 7698674 7796624 7892721 
751.144 7985157 8072226 8152555 8225198 8289536 8344951 8390603 8425111 
755.001 8446671 8453322 8443449 8416232 8371950 8311846 8237778 8151578 
758.858 8054632 7947522 7830275 7702669 7564849 7417748 7263238 7103927 
762.715 6942796 6782593 6625462 6472695 6324801 6181674 6042981 5908324 
766.572 5777436 5650162 5526379 5405918 5288536 5173894 5061698 4951758 
770.429 4844109 4738996 4636826 4538057 4443120 4352200 4265221 4181762 
774.286 4101199 4022731 3945627 3869307 3793529 3718417 3644468 3572370 
778.143 3502848 3436369 3372963 3312047 3252505 3192841 3131533 3067408 
782.000 2999989 2929634 2857511 2785249 2714574 2646760 2582375 2521098 
785.857 2461937 2403529 2344629 2284470 2223015 2160922 2099391 2039847 
789.714 1983605 1931658 1884512 1842199 1804393 1770461 1739704 1711368 
793.571 1684811 1659508 1635105 1611406 1588377 1566113 1544832 1524851 
797.428 1506607 1490603 1477375 1467314 1460602 1456951 1455589 1455279 
801.285 1454566 1452084 1447024 1439308 1429929 1420542 1413180 1409630 
805.141 1410981 1417290 1427616 1440244 1453236 1464827 1473857 1479794 
808.998 1482695 1482935 1481002 1477302 1472235 1466217 1459798 1453669 
812.855 1448509 1444778 1442569 1441499 1440881 1439939 1438229 1435812 
816.712 1433335 1431821 1432327 1435501 1441403 1449383 1458383 1467225 
820.569 1475042 1481466 1486749 1491543 1496746 1503103 1511164 1521029 
824.426 1532464 1544873 1557394 1568977 1578610 1585460 1589172 1590035 
828.283 1589083 1587930 1588483 1592444 1600974 1614368 1632201 1653537 
832.140 1677447 1703344 1731257 1761636 1795235 1832519 1873459 1917441 
835.997 1963466 2010589 2058322 2106898 2157276 2210784 2268747 2331932 
839.854 2400367 2473329 2549624 2628010 2707511 2787570 2867950 2948343 
843.711 3028094 3105858 3179705 3247385 3306924 3357023 3397532 3429346 
847.568 3454216 3474198 3491281 3507069 3522867 3539907 3559766 3584592 
851.425 3617239 3660954 3719050 3794483 3889458 4005312 4142601 4301159 
855.282 4480238 4678463 4893801 5123427 5363783 5610722 5859982 6107590 
859.139 6350365 6586059 6813419 7031785 7240822 7440004 7628551 7805271 
862.995 7968754 8117619 8250710 8367305 8467109 8550251 8617113 8668187 
866.852 8703871 8724339 8729552 8719209 8693011 8650753 8592518 8518730 
870.709 8430140 8327597 8211935 8083755 7943468 7791301 7627527 7452595 
874.566 7267286 7072641 6869986 6660793 6446704 6229457 6011000 5793373 
878.423 5578676 5368795 5165300 4969197 4781060 4601241 4430222 4268924 
882.280 4118863 3981997 3860373 3755674 3668819 3599821 3547901 3511751 
886.137 3489890 3480780 3482876 3494437 3513440 3537526 3564284 3591576 
889.994 3617880 3642439 3665147 3686138 3705429 3722578 3736750 3746954 
893.851 3752568 3753652 3751123 3746529 3741635 3737855 3735898 3735578 
897.708 3735990 3735812 3733712 3728677 3720294 3708818 3695239 3681101 
901.565 3668322 3658757 3653752 3653638 3657512 3663383 3668538 3670402 
905.422 3667295 3658978 3646762 3633026 3620519 3611425 3606828 3606527 
909.279 3609321 3613586 3617838 3621150 3623183 3624046 3624062 3623492 
913.136 3622526 3621261 3619844 3618471 3617305 3616377 3615479 3614156 
916.993 3611912 3608323 3603277 3596962 3589841 3582383 3574961 3567731 
920.849 3560717 3553919 3547444 3541490 3536288 3531918 3528277 3525010 
924.706 3521744 3518266 3514783 3511825 3510253 3510819 3513953 3519567 
928.563 3527147 3535897 3545132 3554488 3564021 3574156 3585482 3598498 
932.420 3613457 3630300 3648629 3667855 3687256 3706086 3723707 3739743 
936.277 3754185 3767510 3780702 3795046 3811888 3832188 3856312 3883733 
940.134 3913291 3943324 3972176 3998562 4021908 4042367 4060782 4078462 
943.991 4096905 4117591 4141815 4170578 4204549 4244000 4288843 4338567 
947.848 4392318 4448962 4507239 4565947 4624142 4681298 4737476 4793242 
951.705 4849482 4907069 4966398 5026956 5087127 5144150 5194560 5234649 
955.562 5261179 5271824 5265390 5241732 5201391 5145278 5074503 4990313 
959.419 4894369 4788893 4676809 4561500 4446454 4334684 4228420 4128886 
963.276 4036527 3951333 3873197 3802119 3738224 3681482 3631550 3587647 
967.133 3548772 3514005 3482906 3455681 3433143 3416298 3405899 3401993 
970.990 3403844 3410025 3418921 3429136 3439882 3451042 3463015 3476371 
974.847 3491591 3508856 3528094 3549104 3571793 3596276 3622906 3652260 
978.703 3684929 3721427 3761994 3806470 3854271 3904298 3955083 4004933 
982.560 4052352 4096314 4136657 4174120 4210295 4247166 4286664 4330141 
986.417 4378108 4430187 4485417 4542594 4600573 4658625 4716372 4773725 
990.274 4830666 4887127 4942953 4997970 5052198 5105846 5159442 5213654 
994.131 5269238 5326779 5386664 5449016 5513750 5580704 5649773 5721006 
997.988 5794682 5871350 5951705 6036490 6126350 6221623 6322322 6428108 
1001.845 6538430 6652755 6770804 6892702 7019106 7151063 7289923 7437025 
1005.702 7593565 7760431 7938207 8127151 8327315 8538661 8761159 8994965 
1009.559 9240603 9499072 9771831 10060717 10367621 10694054 11040732 
1012.934 11407253 11792123 12192977 12607142 13032204 13466556 13909578 
1016.309 14361578 14823270 15295282 15777563 16269037 16767688 17270628 
1019.683 17774600 18276396 18773102 19262312 19742132 20211178 20668570 
1023.058 21114002 21547730 21970734 22384590 22791470 23194008 23595274 
1026.433 23998732 24408212 24827946 25262404 25715950 26192608 26695644 
1029.809 27227434 27789346 28381956 29005230 29658752 30341688 31052760 
1033.184 31789806 32549598 33327642 34118224 34914540 35709160 36494264 
1036.559 37261976 38004588 38714744 39385708 40011640 40587808 41110624 
1039.934 41577528 41986500 42335664 42622928 42845952 43002732 43092196 
1043.310 43115000 43073852 42973604 42820516 42621636 42383868 42113400 
1046.685 41815512 41494656 41154732 40799528 40432940 40059192 39682780 
1050.060 39308272 38939960 38581564 38235720 37903840 37586076 37281564 
1053.435 36988916 36706824 36434584 36172404 35921476 35683848 35462288 
1056.811 35260104 35081236 34930412 34813420 34737020 34708964 34737524 
1060.186 34831016 34997260 35243164 35574500 35995756 36510176 37119784 
1063.561 37825284 38626064 39520140 40504132 41573492 42722720 43945672 
1066.936 45235892 46586796 47991876 49444836 50939644 52470756 54033064 
1070.312 55621876 57232504 58859980 60498620 62142040 63783576 65417056 
1073.687 67037584 68641936 70228168 71794552 73337848 74852288 76329096 
1077.062 77757296 79125032 80421544 81637680 82765880 83798704 84727656 
1080.437 85542208 86230536 86781112 87184800 87436376 87534840 87482520 
1083.813 87283888 86944368 86470584 85870760 85155488 84337848 83432704 
1087.188 82455288 81419632 80337808 79219784 78074000 76908056 75729104 
1090.563 74543648 73357128 72173432 70994816 69822544 68657424 67500696 
1093.938 66354204 65220220 64100780 62997164 61909568 60837376 59779580 
1097.313 58735312 57704192 56686068 55680788 54687648 53705216 52731700 
1100.689 51765324 50805092 49851276 48905616 47971072 47051328 46150244 
1104.064 45271368 44417684 43591544 42794796 42028984 41295592 40596380 
1107.439 39933508 39309664 38727940 38191644 37703764 37266500 36880828 
1110.814 36546276 36260964 36021996 35825888 35669112 35548468 35461228 
1114.190 35405216 35378608 35379880 35407700 35461080 35539344 35642264 
1117.565 35770076 35923280 36102440 36308052 36540328 36799092 37083752 
1120.940 37393168 37725556 38078256 38447564 38828468 39214656 39598472 
1124.315 39971196 40323260 40644740 40925736 41157128 41331024 41441500 
1127.691 41484896 41460008 41367864 41211160 40993640 40719256 40391712 
1131.066 40014116 39588876 39117724 38601668 38041268 37436528 36787280 
1134.441 36093468 35355552 34574840 33753764 32895860 32005602 31088158 
1137.816 30149152 29194474 28230208 27262568 26297808 25342008 24400926 
1141.192 23479774 22583172 21715094 20879100 20078340 19315646 18593516 
1144.567 17914074 17278994 16689438 16146077 15649156 15198430 14793208 
1147.942 14432241 14113669 13835122 13593827 13387010 13212143 13067318 
1151.317 12951304 12863444 12803414 12770849 12765069 12784964 12829044 
1154.693 12895593 12982866 13089220 13213226 13353619 13509408 13679898 
1158.068 13864884 14064798 14280643 14513974 14766490 15039833 15335232 
1161.443 15653601 15995654 16362378 16755375 17177204 17631426 18122478 
1164.818 18655468 19235944 19869744 20562928 21321856 22152910 23062318 
1168.194 24055920 25138912 26315802 27590800 28968086 30452246 32048360 
1171.569 33761328 35594928 37550332 39624496 41809248 44090472 46448260 
1174.944 48857300 51287556 53704684 56070596 58343804 60480596 62436660 
1178.319 64169656 65642224 66824864 67698216 68254552 68497808 68442968 
1181.695 68114168 67542456 66762848 65811444 64722960 63529100 62257708 
1185.070 60933184 59576888 58207880 56843096 55497360 54182780 52908556 
1188.445 51680952 50503724 49378888 48307504 47290124 46327020 45417904 
1191.820 44561692 43756368 42999248 42287464 41618684 40991448 40405252 
1195.196 39860104 39355864 38891624 38465456 38074492 37715608 37385984 
1198.571 37083700 36807764 36557876 36333744 36134632 35958832 35803660 
1201.946 35665720 35541336 35426904 35319212 35215496 35113596 35011668 
1205.321 34908192 34801736 34690852 34573828 34448604 34312680 34163308 
1208.697 33997796 33813876 33610044 33385590 33140552 32875326 32590318 
1212.072 32285724 31961498 31617672 31254584 30873344 30475766 30064392 
1215.447 29642072 29211694 28775746 28336266 27894742 27452276 27009690 
1218.822 26567706 26126974 25688204 25252134 24819582 24391448 23968668 
1222.198 23552206 23142964 22741752 22349222 21965962 21592558 21229552 
1225.573 20877496 20536784 20207534 19889428 19581830 19283896 18994878 
1228.948 18714496 18443126 18181700 17931526 17693758 17469046 17257190 
1232.323 17057248 16867758 16687262 16514622 16349293 16191225 16040640 
1235.698 15897644 15761979 15633018 15509880 15391774 15278196 15169092 
1239.074 15064774 14965723 14872354 14784819 14702989 14626531 14555065 
1242.449 14488274 14425974 14368023 14314327 14264594 14218430 14175314 
1245.824 14134692 14096126 14059454 14024840 13992868 13964558 13941213 
1249.199 13924243 13914894 13914001 13921657 13937227 13959438 13986693 
1252.575 14017555 14051041 14086987 14125878 14168683 14216346 14269489 
1255.950 14328161 14391819 14459638 14530681 14604163 14679532 14756276 
1259.325 14833805 14911172 14987241 15060742 15130660 15196455 15258211 
1262.700 15316446 15371780 15424460 15474020 15519120 15557742 15587477 
1266.076 15606152 15612100 15604362 15582667 15547164 15498146 15435858 
1269.451 15360321 15271445 15169074 15053120 14923576 14780608 14624390 
1272.826 14455238 14273535 14079839 13874897 13659577 13434812 13201477 
1276.201 12960289 12711853 12456743 12195652 11929497 11659496 11387018 
1279.577 11113505 10840189 10568049 10297792 10030033 9765484 9505222 
1282.952 9250809 9004197 8767655 8543492 8333777 8140194 7963882 7805494 
1286.809 7665277 7543188 7439046 7352526 7283261 7230831 7194704 7174344 
1290.667 7169102 7178324 7201229 7236934 7284254 7341715 7407440 7479278 
1294.524 7554909 7632044 7708662 7783081 7854105 7920968 7983218 8040657 
1298.382 8093262 8141130 8184501 8223762 8259368 8291867 8321691 8349117 
1302.239 8374184 8396694 8416282 8432550 8445174 8453965 8458948 8460320 
1306.096 8458354 8453381 8445744 8435776 8423819 8410253 8395470 8379897 
1309.954 8363843 8347576 8331226 8314889 8298664 8282749 8267483 8253333 
1313.811 8240805 8230310 8222080 8215976 8211607 8208333 8205443 8202383 
1317.669 8198838 8194905 8190981 8187744 8185903 8186129 8188812 8194028 
1321.526 8201538 8210858 8221370 8232461 8243645 8254669 8265587 8276823 
1325.384 8289122 8303502 8321173 8343341 8371082 8405143 8445852 8493043 
1329.241 8546168 8604398 8666853 8732747 8801534 8872978 8947096 9024061 
1333.098 9104147 9187538 9274350 9364629 9458316 9555399 9655859 9759717 
1336.956 9866970 9977605 10091567 10208779 10329173 10452813 10579808 
1340.331 10710458 10845138 10984272 11128286 11277597 11432545 11593422 
1343.706 11760436 11933683 12113099 12298331 12488909 12684199 12883610 
1347.082 13086791 13293700 13504563 13719696 13939166 14162505 14388503 
1350.457 14615236 14840271 15061116 15275490 15481530 15677814 15863134 
1353.832 16036323 16196091 16341136 16470397 16583304 16679914 16760902 
1357.207 16827216 16879876 16919612 16946938 16962328 16966480 16960678 
1360.583 16946720 16926766 16902920 16876768 16849168 16820126 16789000 
1363.958 16754748 16716118 16671766 16620147 16559413 16487230 16400936 
1367.333 16297723 16175020 16031080 15865324 15678813 15474455 15257265 
1370.708 15034305 14814569 14608607 14427991 14284496 14189215 14151537 
1374.083 14178385 14273427 14436768 14664853 14950687 15284249 15652986 
1377.459 16042581 16437621 16822558 17182656 17504930 17778716 17996016 
1380.834 18151342 18241530 18265242 18222778 18115712 17946768 17719550 
1384.209 17438338 17107894 16733249 16319865 15873581 15400705 14907710 
1387.584 14400876 13885790 13366927 12847476 12329516 11814331 11303011 
1390.960 10796749 10297193 9806354 9326671 8860716 8411182 7980740 7571912 
1394.817 7186950 6827666 6495208 6189951 5911434 5658562 5429731 5223039 
1398.675 5036500 4868180 4716133 4578491 4453374 4338971 4233609 4135919 
1402.532 4044936 3960215 3881687 3809526 3743861 3684527 3630950 3582150 
1406.389 3536884 3494019 3452734 3412717 3374145 3337538 3303437 3272240 
1410.247 3243993 3218440 3195200 3173919 3154538 3137291 3122663 3111228 
1414.104 3103393 3099220 3098413 3100297 3104032 3108841 3114132 3119692 
1417.962 3125666 3132514 3140841 3151208 3163994 3179357 3197213 3217385 
1421.819 3239707 3264143 3290855 3320143 3352370 3387860 3426889 3469634 
1425.677 3516304 3567242 3622920 3683876 3750679 3823654 3902920 3988356 
1429.534 4079718 4176880 4279984 4389490 4506187 4630995 4764932 4909121 
1433.391 5064859 5233851 5418300 5620950 5844919 6093454 6369523 6675783 
1437.249 7014508 7387757 7797600 8246085 8735048 9265676 9837915 10450125 
1441.106 11098865 11779028 12484095 13206521 13938001 14669779 15392877 
1444.481 16098586 16778790 17426442 18035712 18601918 19121336 19591070 
1447.857 20009090 20374482 20687592 20950168 21164854 21334638 21461994 
1451.232 21548540 21594806 21600648 21565632 21489434 21371776 21212284 
1454.607 21010204 20764446 20474030 20138818 19760136 19340988 18885758 
1457.982 18399326 17886206 17350018 16793538 16219154 15629458 15027665 
1461.358 14417624 13803607 13189933 12580703 11979763 11390833 10817470 
1464.733 10263056 9730474 9221814 8738224 8280033 7846998 7438769 7055069 
1468.590 6695809 6360823 6049653 5761292 5494285 5246855 5017316 4804225 
1472.448 4606613 4423807 4255171 4099989 3957256 3825758 3704222 3591529 
1476.305 3486823 3389470 3299042 3215226 3137716 3066238 3000607 2940683 
1480.163 2886317 2837360 2793361 2753545 2716893 2682283 2648641 2615354 
1484.020 2582304 2549889 2518840 2489910 2463607 2439948 2418457 2398365 
1487.877 2378808 2359127 2339117 2318952 2299154 2280249 2262605 2246239 
1491.735 2230844 2215918 2201006 2185877 2170682 2155792 2141770 2129023 
1495.592 2117693 2107637 2098457 2089738 2081240 2072958 2065045 2057697 
1499.450 2051001 2044753 2038582 2032080 2025082 2017766 2010759 2004811 
1503.307 2000606 1998396 1997819 1997981 1997722 1995934 1992040 1986168 
1507.165 1979087 1971931 1965847 1961536 1959206 1958445 1958591 1958830 
1511.022 1958594 1957614 1955900 1953680 1951229 1948700 1946092 1943197 
1514.879 1939737 1935437 1930177 1924050 1917408 1910709 1904510 1899259 
1518.737 1895143 1892145 1889921 1888054 1886040 1883557 1880414 1876636 
1522.594 1872362 1867754 1862924 1857956 1852913 1847965 1843404 1839610 
1526.452 1836967 1835706 1835771 1836777 1838080 1838915 1838573 1836636 
1530.309 1833061 1828070 1822237 1816202 1810628 1806058 1802821 1801111 
1534.167 1800878 1801883 1803745 1805943 1807901 1809148 1809313 1808294 
1538.024 1806218 1803427 1800346 1797389 1794828 1792737 1791090 1789768 
1541.881 1788669 1787811 1787210 1786839 1786525 1785916 1784435 1781464 
1545.739 1776450 1769146 1759728 1748747 1737088 1725687 1715338 1706474 
1549.596 1699122 1692957 1687462 1682175 1676842 1671522 1666426 1661865 
1553.454 1657965 1654644 1651589 1648374 1644624 1640163 1635119 1629749 
1557.311 1624392 1619292 1614526 1610080 1606002 1602466 1599876 1598750 
1561.168 1599498 1602223 1606549 1611652 1616450 1619867 1621237 1620415 
1565.026 1617871 1614423 1610988 1608200 1606431 1605526 1605206 1605157 
1568.883 1605182 1605314 1605743 1606609 1607976 1609728 1611688 1613660 
1572.741 1615574 1617489 1619608 1622134 1625179 1628771 1632745 1636897 
1576.598 1641004 1644814 1648138 1650736 1652339 1652683 1651536 1648903 
1580.456 1644981 1640290 1635526 1631398 1628550 1627366 1627969 1630264 
1584.313 1634008 1638892 1644545 1650545 1656424 1661651 1665781 1668578 
1588.170 1670087 1670751 1671290 1672504 1675084 1679312 1685055 1691797 
1592.028 1698872 1705697 1712013 1717846 1723493 1729225 1735058 1740645 
1595.885 1745346 1748390 1749222 1747780 1744627 1740842 1737809 1736893 
1599.743 1739085 1744758 1753697 1765152 1778089 1791434 1804370 1816257 
1603.600 1826872 1836255 1844695 1852561 1860356 1868441 1877061 1886261 
1607.458 1895774 1905196 1914015 1921843 1928624 1934620 1940487 1947071 
1611.315 1955241 1965497 1977937 1992128 2007249 2022310 2036430 2048964 
1615.172 2059721 2068847 2076795 2084085 2091192 2098403 2105801 2113264 
1619.030 2120555 2127375 2133464 2138631 2142845 2146207 2149033 2151717 
1622.887 2154763 2158581 2163427 2169269 2175831 2182548 2188712 2193636 
1626.745 2196766 2197817 2196777 2193922 2189724 2184737 2179454 2174273 
1630.602 2169423 2164988 2160996 2157471 2154522 2152281 2150997 2150795 
1634.459 2151686 2153410 2155519 2157406 2158506 2158449 2157127 2154697 
1638.317 2151555 2148120 2144800 2141847 2139363 2137421 2136065 2135359 
1642.174 2135358 2135973 2136993 2138008 2138522 2138240 2137109 2135561 
1646.032 2134423 2134705 2137298 2142603 2150336 2159645 2169275 2177999 
1649.889 2184975 2189994 2193505 2196458 2200000 2205017 2211946 2220489 
1653.747 2229762 2238616 2246016 2251390 2254859 2257203 2259672 2263588 
1657.604 2269937 2279028 2290333 2302604 2314270 2323951 2330922 2335407 
1661.461 2338484 2341774 2346886 2354852 2365927 2379471 2394364 2409405 
1665.319 2423692 2436855 2448992 2460413 2471452 2482270 2492816 2503065 
1669.176 2513166 2523537 2534832 2547699 2562515 2579143 2596938 2614867 
1673.034 2631857 2647042 2660052 2671079 2680801 2690248 2700541 2712796 
1676.891 2727914 2746524 2768889 2794850 2823795 2854693 2886316 2917454 
1680.749 2947201 2975120 3001328 3026346 3050868 3075597 3101016 3127450 
1684.606 3155041 3183924 3214211 3246062 3279522 3314505 3350824 3388146 
1688.463 3426182 3464808 3504028 3543965 3584791 3626539 3669170 3712584 
1692.321 3756844 3802170 3849126 3898350 3950476 4005880 4064578 4126271 
1696.178 4190600 4257378 4326834 4399526 4476364 4558195 4645591 4738643 
1700.036 4837087 4940437 5048372 5160857 5278343 5401692 5531913 5670072 
1703.893 5817117 5973756 6140541 6317817 6505779 6704440 6913760 7133489 
1707.750 7363568 7604030 7855300 8118218 8394046 8684303 8990678 9314647 
1711.608 9657376 10019520 10401275 10802319 11222055 11659825 12115238 
1714.983 12588438 13080239 13592169 14125988 14683287 15264888 15870424 
1718.358 16498424 17146880 17813972 18498910 19202448 19926768 20674934 
1721.734 21450060 22254552 23089704 23955970 24853412 25782386 26743874 
1725.109 27739394 28770422 29838038 30942560 32083864 33261966 34477808 
1728.484 35733356 37031616 38375700 39768180 41210748 42704612 44251280 
1731.859 45853516 47515296 49241248 51034696 52896112 54822064 56805992 
1735.235 58840404 60919504 63041268 65207528 67422344 69688944 72007000 
1738.610 74371136 76771160 79194200 81627016 84057456 86474200 88864896 
1741.985 91214024 93501656 95704312 97797040 99756024 101560424 103192272 
1745.360 104635552 105875064 106896840 107689712 108247808 108571672 
1748.253 108668040 108546960 108218936 107692720 106975464 106074288 
1751.146 104998648 103761624 102378952 100866760 99238928 97505528 95673472 
1754.522 93747880 91734832 89642640 87482200 85265984 83006816 80716712 
1757.897 78406760 76087848 73771040 71468032 69190880 66951160 64759184 
1761.272 62623568 60551508 58548732 56620068 54769092 52997828 51306336 
1764.647 49692512 48152556 46681984 45276628 43933544 42651244 41429232 
1768.023 40267016 39163032 38114024 37114904 36159232 35240128 34351084 
1771.398 33486518 32642076 31814518 31001404 30200752 29410700 28629286 
1774.773 27854406 27083784 26315280 25546966 24777534 24006502 23234110 
1778.148 22461286 21689280 20919410 20152838 19390552 18633722 17883862 
1781.524 17143116 16414419 15701188 15007201 14336075 13690908 13074017 
1784.899 12486737 11929253 11400888 10900101 10425056 9973808 9544934 
1788.274 9137455 8751226 8386469 8043625 7722916 7424137 7146469 6888634 
1792.132 6649074 6426268 6219006 6026417 5847918 5683046 5531177 5391522 
1795.989 5262862 5143942 5033341 4929754 4832026 4739099 4650080 4564120 
1799.846 4480466 4398643 4318591 4240686 4165795 4095033 4029443 3969725 
1803.704 3915946 3867458 3823074 3781278 3740568 3699682 3657768 3614400 
1807.561 3569528 3523425 3476580 3429713 3383614 3339163 3297010 3257515 
1811.419 3220527 3185418 3151213 3116861 3081563 3045132 3008036 2971307 
1815.276 2936324 2904446 2876621 2853197 2833837 2817748 2803763 2790878 
1819.134 2778232 2765275 2751695 2737223 2721441 2703843 2683791 2660735 
1822.991 2634321 2604731 2572632 2539225 2505933 2474135 2444923 2418788 
1826.848 2395493 2374300 2353994 2333221 2310752 2285670 2257571 2226553 
1830.706 2193238 2158647 2123954 2090323 2058508 2028628 2000076 1971606 
1834.563 1941662 1908948 1872944 1834297 1794809 1757032 1723507 1695982 
1838.421 1674696 1658406 1644649 1630701 1614539 1595590 1574862 1554590 
1842.278 1537317 1524874 1517630 1514285 1512221 1508413 1500435 1487095 
1846.135 1468774 1447057 1424065 1401839 1381639 1363869 1348031 1333291 
1849.993 1318702 1303702 1288237 1272866 1258549 1246658 1238504 1235084 
1853.850 1236772 1243014 1252269 1262197 1270071 1273400 1270662 1261697 
1857.708 1247783 1231421 1215640 1203175 1195826 1193997 1196747 1202064 
1861.565 1207590 1211134 1211247 1207507 1200274 1190531 1179343 1167467 
1865.423 1155016 1141551 1126419 1109295 1090591 1071863 1055582 1044583 
1869.280 1041151 1046239 1058800 1076136 1094446 1110041 1120420 1124898 
1873.137 1124552 1121468 1117747 1114496 1111501 1107535 1101172 1091858 
1876.995 1080492 1069423 1061566 1059342 1063322 1071885 1081280 1086917 
1880.852 1084442 1071463 1047981 1016646 981751 948085 919686 898881 885816 
1885.192 878737 874586 870079 862531 850892 835805 819513 805035 795248 
1889.531 791703 794099 800304 807037 811110 810525 805229 797012 788790 
1893.871 783321 782114 784899 789917 794824 797779 798312 797309 796534 
1898.211 797492 800540 804416 806769 805072 797951 785867 771241 757710 
1902.550 748997 747532 753991 766877 783428 800296 814352 823097 824798 
1906.890 818332 803070 779073 747618 711280 674455 642403 620525 612485 
1911.229 619421 638756 664842 690036 706728 709208 695156 666026 626457 
1915.569 582669 541022 506307 481324 466916 462675 467534 480351 499592 
1919.909 523059 547640 569453 584602 590430 586589 575374 561096 548539 
1924.248 540937 538460 538120 535012 524472 504904 478581 451580 431521 
1928.588 424307 431499 449416 469711 482578 480061 458892 421273 374069 
1932.927 325821 283997 252776 232341 219910 211472 203546 194182 183329 
1937.267 172453 163657 159380 161955 173455 194920 225650 262320 298941 
1941.607 327187 338922 327498 290742 231453 157068 77830 3763 -57154 -100500 
1946.428 -125262 -132739 -125434 -106098 -77732 -43644 -7892 25153 51373 
1950.768 68533 76405 77194 73989 69591 64757 57875 45457 24800 -4586 -39223 
1956.072 -71927 -93426 -95606 -74553 -33280 18125 64059 87779 75913 23711 
1960.894 -63503 -170629 -277674 -364809 -418959 -437145 -427322 -404151 
1964.751 -384455 -379000 -389480 -406707 -414899 -398207 -347981 -267160 
1968.609 -170627 -80495 -19000 -450 -27919 -91906 -175519 -259867 -331095 
1972.948 -381379 -410285 -419139 -408174 -373147 -306457 -200518 -53094 
1976.806 129190 328924 521561 679391 779748 808695 763946 652575 490796 
1981.145 300038 106086 -64721 -188666 -249910 -243680 -178603 -74799 40680 
1985.485 141327 207413 231429 218212 182505 142403 113394 102739 108222 
1989.824 119431 123085 107680 68701 9661 -58647 -122400 -168975 -191804 
1994.164 -190973 -173873 -151066 -133234 -127071 -134434 -151899 -173848 
1998.021 -194976 -212971 -228732 -246678 -271479 -306807 -353442 -409961 
2001.879 -473550 -542002 -613787 -688307 -762746 -831087 -882320 -902188 
2005.736 -877034 -799231 -672110 -511195 -340886 -188827 -77297 -19082 
2009.594 -14447 -54999 -127161 -218202 -318529 -422802 -526564 -624803 
2013.451 -709402 -770112 -797344 -786169 -740134 -672348 -602957 -554808 
2017.309 -547050 -589578 -679728 -803443 -938409 -1061140 -1152717 -1203658 
2021.166 -1215788 -1200519 -1173123 -1147445 -1129715 -1117268 -1099211 
2024.541 -1062169 -995870 -898679 -779206 -655149 -546715 -471697 -439458 
2028.399 -450194 -496115 -566668 -651613 -744249 -840770 -937764 -1028731 
2032.256 -1103549 -1149347 -1155670 -1118068 -1042601 -943545 -841251 
2035.631 -754091 -693715 -661242 -648495 -641337 -625612 -591725 -538129 
2039.489 -470798 -401877 -345066 -311893 -307404 -329587 -368253 -408423 
2043.346 -433565 -430008 -390170 -314778 -211418 -91754 32779 154639 271852 
2047.686 386229 500323 612497 715072 794548 836386 829697 772328 671906 
2052.025 544869 412242 295022 208741 161000 149508 164868 194256 226487 
2056.365 254782 278615 301281 327851 361494 402003 444894 482638 507146 
2060.705 512435 496305 461906 416492 370463 334165 315441 317381 337866 
2065.044 369948 404758 433186 449464 452019 443863 430933 420588 419081 
2069.384 430470 455836 494049 541807 594669 647103 693315 727034 743139 
2073.723 738345 712932 671106 620585 570823 530842 506642 499597 506323 
2078.063 520435 534618 543508 545242 542082 538879 541341 552880 573796 
2082.403 600318 626234 644467 649936 640856 619421 590519 560200 533202 
2086.742 511587 494196 477793 458369 433293 402080 366769 330392 295965 
2091.082 264572 235503 206854 177034 146452 118555 99181 95050 111207 149354 
2095.904 206686 277052 352554 425989 492158 548249 592900 625434 644668 
2100.243 649365 639055 615208 581634 544212 509127 481254 462337 451134 
2104.583 443971 437121 428803 420335 415965 421460 441375 477246 525949 
2108.922 580296 630330 666203 680421 670171 637682 590035 536942 488753 
2113.262 453669 435954 434786 445227 459316 468981 467932 453829 428143 
2117.602 395871 363067 335043 314454 300638 289784 276468 255070 221373 
2121.941 173260 111427 38658 -40331 -119900 -194155 -258107 -308724 -345963 
2126.281 -372568 -393894 -415800 -443435 -479010 -521684 -567856 -613620 
2130.138 -656299 -696301 -737341 -784732 -842874 -912683 -989870 -1065595 
2133.996 -1128120 -1167169 -1176625 -1157348 -1116855 -1068040 -1025809 
2137.371 -1004361 -1014208 -1060480 -1142569 -1254207 -1384545 -1520042 
2140.746 -1646728 -1753119 -1831458 -1879250 -1898303 -1893595 -1871031 
2144.121 -1836285 -1794051 -1749435 -1707869 -1676574 -1662441 -1671514 
2147.497 -1705869 -1763946 -1840992 -1932007 -2034390 -2149870 -2283208 
2150.872 -2438899 -2617001 -2810080 -3003899 -3181553 -3329033 -3441264 
2154.247 -3523888 -3591211 -3658016 -3732320 -3807614 -3862910 -3865982 
2157.622 -3786155 -3604501 -3326748 -2981568 -2614196 -2269790 -1980462 
2160.998 -1758554 -1600488 -1492455 -1419662 -1368570 -1330622 -1300052 
2164.373 -1273497 -1248204 -1222404 -1193312 -1159504 -1119526 -1073564 
2167.748 -1024240 -977776 -943242 -931732 -952159 -1008422 -1095718 -1200695 
2171.605 -1303870 -1386345 -1434597 -1446020 -1428163 -1395369 -1361320 
2174.981 -1333398 -1309357 -1280014 -1234779 -1170005 -1091688 -1015562 
2178.356 -959997 -938790 -953388 -992401 -1034215 -1056232 -1042950 -992899 
2182.213 -917663 -836670 -769048 -726070 -707837 -706678 -711290 -713624 
2186.071 -710784 -706065 -704588 -710434 -723023 -738394 -749487 -751372 
2189.928 -741315 -720701 -692897 -661964 -629976 -597840 -565440 -533333 
2193.786 -503240 -477942 -460001 -450670 -448647 -451078 -454219 -455869 
2197.643 -455006 -452569 -449630 -446400 -441282 -431561 -414555 -390042 
2201.500 -360049 -329683 -304867 -290818 -289834 -301238 -321972 -348388 
2205.358 -376962 -405504 -432005 -454108 -467395 -466362 -445128 -400191 
2209.215 -332240 -247832 -158240 -77629 -18928 8698 3078 -31451 -84710 
2213.555 -144019 -196876 -234123 -250886 -247236 -227296 -197603 -165271 
2217.412 -136413 -114478 -100069 -90499 -81100 -66273 -41855 -6136 38947 
2221.752 88227 134368 170650 192332 198486 191943 178625 164919 156394 
2226.092 156000 164472 180267 201744 227749 258139 293078 332144 373170 
2230.431 412510 445711 469503 483010 488660 490915 494717 502464 512715 
2234.771 519875 516510 496077 456641 402714 344867 297060 272789 280576 
2239.110 321767 389683 472060 553990 622110 667167 685823 680172 656569 
2243.450 623325 588822 559544 539064 527115 520562 513483 499593 474011 
2247.790 435489 387573 338591 299710 282542 295277 340542 413685 504152 
2252.129 597684 680275 741501 777026 789086 785385 775830 770000 773713 
2256.469 788461 810945 835488 855798 867576 869294 862916 852375 842080 
2260.808 835316 833213 834743 837423 838562 836880 832687 828022 825565 
2265.148 827822 835788 849097 865868 883892 901403 917575 932618 947881 
2269.488 964764 984619 1008210 1035641 1066339 1099047 1131999 1163118 
2273.345 1190127 1211457 1226308 1235268 1240071 1243136 1246752 1252295 
2277.202 1259957 1268754 1277219 1284533 1290780 1297618 1307400 1322577 
2281.060 1344581 1373557 1407969 1445607 1483996 1521402 1556823 1590064 
2284.917 1621068 1649476 1674400 1694477 1708254 1714759 1713817 1706241 
2288.775 1693602 1678013 1661494 1645796 1631807 1619735 1608817 1597764 
2292.632 1584933 1569103 1549865 1528106 1506004 1486691 1473425 1468724 
2296.490 1473457 1486588 1505082 1524846 1541630 1552041 1554192 1548079 
2300.347 1535114 1517780 1498761 1480451 1464559 1452053 1443012 1437065 
2304.204 1433378 1431090 1429530 1428582 1428710 1431017 1436767 1447166 
2308.062 1462629 1482611 1505409 1528625 1549640 1566353 1577740 1584013 
2311.919 1586592 1587561 1588998 1592662 1599575 1610139 1624293 1641854 
2315.777 1662553 1686059 1711649 1738107 1763894 1787487 1808372 1827705 
2319.634 1848639 1875968 1914653 1967821 2034740 2109509 2181297 2236394 
2323.491 2261339 2246510 2188358 2090650 1963204 1819748 1674800 1541037 
2327.349 1427047 1336630 1269110 1220880 1187293 1164158 1148788 1139896 
2331.206 1136890 1139133 1145237 1153087 1160246 1164568 1164590 1160136 
2335.064 1151728 1140657 1128424 1116572 1106532 1099526 1096331 1097215 
2338.921 1101609 1108112 1114673 1119097 1119696 1115778 1107811 1097259 
2342.779 1086109 1076061 1068192 1062627 1058811 1055959 1053404 1051005 
2346.636 1048966 1047822 1047841 1049055 1051134 1053606 1055938 1058035 
2350.493 1059897 1061838 1064079 1066620 1069209 1071303 1072366 1072018 
2354.351 1070086 1066733 1062331 1057383 1052181 1046976 1041659 1035883 
2358.208 1029054 1020527 1009605 995805 979002 959361 937386 913726 888908 
2362.548 863400 837501 811417 785463 760341 736975 716517 700064 688461 
2366.887 681938 680088 682050 686715 692971 700059 707427 714980 722767 
2371.227 730968 739791 749378 759809 771069 782890 794851 806295 816508 
2375.567 824901 831179 835570 838797 841873 845913 851709 859504 868947 
2379.906 879151 888914 897194 903226 906800 908202 908027 906960 905479 
2384.246 903757 901748 899228 896077 892351 888464 884950 882392 881062 
2388.585 880928 881705 883001 884536 886305 888545 891537 895178 898956 
2392.925 901729 902286 899724 894136 886921 880545 877976 881844 893418 
2397.265 912185 935821 960794 983296 1000291 1010045 1012544 1009133 1001938 
2401.604 993278 985226 979397 976974 978737 985237 996630 1012711 1032520 
2405.944 1054514 1076400 1095778 1110337 1118623 1120355 1116635 1109605 
2409.801 1102008 1096193 1093547 1093733 1094937 1094243 1088807 1076794 
2413.659 1058194 1034961 1010407 988102 970777 959491 953679 951558 951408 
2417.998 952205 954092 957971 964836 974504 985520 994971 999713 997425 
2422.338 987715 972412 955444 941518 935117 939128 954542 980200 1013244 
2426.677 1049689 1084992 1114572 1134422 1141675 1135263 1116296 1087977 
2430.535 1055230 1023325 996427 976845 964171 956049 949152 940699 929420 
2434.875 916250 903621 894790 892354 897709 910568 929487 952199 976547 
2439.214 1000731 1023444 1043665 1060557 1073323 1081340 1084349 1082674 
2443.072 1077188 1069247 1060216 1051516 1044050 1038373 1034568 1032382 
2446.929 1031169 1030324 1029061 1026888 1023675 1019804 1016112 1013624 
2450.786 1013249 1015417 1019873 1025775 1032015 1037610 1042042 1045301 
2454.644 1047798 1049976 1051932 1053273 1053249 1050924 1045580 1037100 
2458.501 1025765 1012337 997523 982081 966355 950823 935936 922601 911978 
2462.841 905317 903314 905927 911901 919155 925118 927639 925711 919816 
2467.180 911719 904047 899251 898833 902861 910142 918665 926613 932996 
2471.520 938167 943465 950723 961300 975785 993470 1012953 1032456 1050693 
2475.860 1066837 1080710 1092227 1101047 1106461 1107730 1104262 1096535 
2479.717 1085776 1074201 1063843 1056204 1051411 1048634 1046097 1042205 
2483.574 1036101 1027910 1018370 1008710 999771 992184 986282 982715 982515 
2487.914 986923 996833 1011974 1030246 1048228 1061645 1067110 1063290 
2491.771 1051541 1035453 1019945 1009194 1005703 1009343 1018148 1029102 
2495.629 1039552 1047794 1053442 1056762 1058378 1058390 1056839 1053607 
2499.486 1049127 1044169 1039979 1037218 1035971 1035158 1033441 1029513 
2503.344 1023348 1016125 1010350 1008576 1012607 1022582 1036978 1053010 
2507.201 1067749 1078997 1085935 1089149 1090182 1090702 1092155 1095179 
2511.059 1099574 1104342 1107967 1108457 1103943 1092908 1075124 1051699 
2514.916 1025672 1001071 982337 972742 973593 983643 999623 1017111 1032081 
2519.256 1041842 1045531 1043818 1038276 1030455 1021721 1012908 1004869 
2523.113 998540 994984 995065 998741 1004858 1011249 1015395 1015361 1010510 
2527.453 1001964 991962 983386 978154 977225 980016 985236 991566 998348 
2531.792 1005759 1014680 1025791 1039338 1054520 1069751 1082989 1092400 
2535.650 1096612 1095149 1088236 1076787 1062084 1045866 1030044 1016680 
2539.507 1007515 1003851 1006004 1013459 1024844 1038342 1052043 1064313 
2543.365 1074180 1081320 1085858 1088602 1090673 1093358 1097911 1105218 
2547.222 1115230 1127175 1139312 1149834 1157178 1160863 1161509 1160781 
2551.079 1160326 1161356 1163558 1165633 1165528 1161542 1153262 1141978 
2554.937 1130332 1121633 1118585 1122526 1133110 1148562 1166316 1183951 
2558.794 1199565 1212280 1221683 1227951 1231296 1232266 1231537 1230112 
2562.652 1229056 1229433 1231665 1235427 1239672 1242887 1243809 1241962 
2566.509 1237879 1233192 1230018 1230429 1235737 1246107 1260426 1276526 
2570.366 1291668 1303225 1308978 1308068 1300786 1288870 1274951 1262149 
2574.224 1253079 1249440 1251443 1258141 1267682 1278221 1288349 1297661 
2578.081 1306442 1315287 1324395 1333291 1340643 1344735 1344147 1338451 
2581.939 1328469 1316432 1305033 1297119 1294581 1298063 1306778 1318956 
2585.796 1332292 1344620 1354204 1360330 1363144 1363571 1363139 1363445 
2589.654 1365853 1371310 1379794 1390532 1402041 1412467 1419984 1423450 
2593.511 1422532 1418035 1411814 1406287 1403866 1406287 1414196 1426683 
2597.368 1441616 1456121 1467319 1473323 1473736 1469881 1464324 1460117 
2601.226 1459593 1463863 1472126 1482341 1491661 1497750 1499339 1496836 
2605.083 1491944 1487147 1484736 1486122 1491508 1499934 1509668 1518890 
2608.941 1526004 1530299 1531809 1531391 1530411 1530449 1532976 1539120 
2612.798 1549338 1563370 1580095 1597963 1615049 1629542 1640093 1645936 
2616.656 1647171 1644466 1639147 1632937 1627526 1624498 1624744 1628398 
2620.513 1634669 1642079 1648735 1653031 1654111 1652166 1648308 1644262 
2624.370 1641627 1641373 1643589 1647651 1652597 1657678 1662716 1668137 
2628.228 1674610 1682536 1691632 1701069 1709686 1716317 1720747 1723425 
2632.085 1725618 1728644 1733229 1739420 1746242 1752474 1757138 1760040 
2635.943 1761985 1764472 1769142 1776982 1788119 1801410 1815027 1826775 
2639.800 1834725 1837726 1835449 1828528 1818217 1806205 1794313 1784091 
2643.657 1776589 1772081 1769949 1768910 1767327 1763768 1757571 1749094 
2647.515 1739767 1731631 1726620 1725990 1729762 1736761 1744913 1751919 
2651.372 1755877 1755848 1751804 1744689 1735760 1726347 1717448 1709565 
2655.230 1702768 1696899 1691651 1686742 1681742 1676240 1669637 1661361 
2659.087 1650759 1637463 1621430 1603059 1583121 1562741 1543037 1524893 
2662.945 1508757 1494699 1482257 1470929 1460116 1449559 1439242 1429431 
2666.802 1420369 1412261 1404947 1398132 1391449 1384711 1378077 1372006 
2670.659 1367276 1364424 1363622 1364504 1366112 1367246 1366847 1364234 
2674.517 1359441 1353114 1346183 1339663 1334271 1330134 1327053 1324501 
2678.374 1321796 1318551 1314533 1309884 1304974 1300341 1296523 1293998 
2682.232 1293018 1293556 1295343 1297788 1300323 1302355 1303489 1303741 
2686.089 1303408 1302994 1303066 1304101 1306343 1309640 1313614 1317725 
2689.947 1321251 1323543 1324051 1322376 1318356 1312232 1304555 1296270 
2693.804 1288534 1282465 1278840 1278004 1279541 1282579 1285853 1288142 
2697.661 1288481 1286416 1282144 1276279 1269771 1263550 1258349 1254549 
2701.519 1252158 1250898 1250298 1249959 1249621 1249246 1248926 1248949 
2705.376 1249380 1250310 1251593 1253094 1254613 1256152 1257663 1259275 
2709.234 1260860 1262182 1262788 1262178 1260151 1256788 1252761 1249005 
2713.091 1246493 1245833 1246936 1249084 1251179 1252128 1251396 1249271 
2716.948 1246700 1244992 1245250 1247855 1252437 1257877 1262818 1266149 
2720.806 1267457 1267026 1265600 1264074 1262931 1262324 1261919 1261266 
2724.663 1260139 1258728 1257564 1257549 1259351 1263382 1269506 1277130 
2728.521 1285462 1293641 1301011 1307139 1311934 1315349 1317540 1318559 
2732.378 1318454 1317304 1315165 1312164 1308529 1304629 1300818 1297547 
2736.236 1295136 1293806 1293640 1294482 1296076 1298075 1300212 1302285 
2740.093 1304212 1305883 1307215 1308051 1308097 1307050 1304615 1300664 
2743.950 1295194 1288472 1280848 1272853 1265041 1258127 1252783 1249627 
2747.808 1249037 1251124 1255485 1261440 1268125 1274647 1280453 1285404 
2751.665 1289647 1293541 1297354 1301095 1304486 1307076 1308458 1308484 
2755.523 1307292 1305268 1302773 1300064 1297207 1294146 1290861 1287576 
2759.380 1284751 1282915 1282473 1283418 1285353 1287502 1289169 1289959 
2763.238 1289906 1289511 1289403 1289859 1290844 1291726 1291776 1290574 
2767.095 1288167 1285351 1283156 1282591 1284104 1287314 1291100 1294071 
2770.952 1295131 1293705 1290022 1284870 1279114 1273505 1268349 1263646 
2774.810 1259341 1255667 1253153 1252590 1254713 1259877 1267806 1277691 
2778.667 1288269 1298404 1307231 1314358 1319848 1323887 1326670 1328307 
2782.525 1328733 1327882 1325874 1323008 1319916 1317328 1315923 1316291 
2786.382 1318749 1323346 1329793 1337616 1345993 1354074 1360934 1365899 
2790.240 1368585 1369298 1368693 1367863 1367978 1369898 1374075 1380369 
2794.097 1388257 1396954 1405777 1414218 1422026 1429143 1435521 1441106 
2797.954 1445772 1449521 1452361 1454676 1456936 1459666 1463364 1468238 
2801.812 1474316 1481346 1488989 1496842 1504689 1512313 1519498 1526065 
2805.669 1531711 1536230 1539545 1541986 1544125 1546868 1551092 1557410 
2809.527 1566012 1576372 1587613 1598538 1608232 1616343 1623098 1629363 
2813.384 1636067 1643982 1653280 1663423 1673334 1681726 1687728 1691054 
2817.241 1692252 1692419 1692879 1694797 1698667 1704395 1711366 1718842 
2821.099 1726122 1733035 1739496 1745807 1752234 1758816 1765523 1772109 
2824.956 1778451 1784577 1790620 1796874 1803501 1810596 1818112 1825964 
2828.814 1834105 1842696 1851947 1862125 1873345 1885551 1898363 1911313 
2832.671 1924098 1936478 1948520 1960414 1972419 1984638 1997016 2009455 
2836.529 2021872 2034418 2047457 2061458 2076966 2094252 2113459 2134552 
2840.386 2157514 2182595 2210363 2241714 2277734 2319469 2367741 2423053 
2844.243 2485658 2555589 2632776 2716726 2806557 2900451 2995637 3088286 
2848.101 3173804 3247451 3304762 3342339 3358359 3352804 3327393 3285475 
2851.958 3231502 3170543 3107578 3047017 2992083 2944710 2905307 2873369 
2855.816 2847895 2827916 2813105 2803857 2801183 2806053 2819005 2839600 
2859.673 2866236 2896591 2927740 2957382 2983817 3006700 3026660 3045143 
2863.531 3063839 3084255 3107522 3134238 3164697 3199061 3237472 3280304 
2867.388 3327858 3380309 3437448 3498552 3562425 3627525 3692319 3755668 
2871.245 3816931 3876271 3934185 3991546 4048911 4106331 4163079 4217948 
2875.103 4269361 4315928 4356676 4391153 4419527 4442078 4458968 4469884 
2878.960 4474351 4471442 4460582 4441669 4415356 4383030 4346548 4307901 
2882.818 4268778 4230277 4192883 4156524 4120815 4085283 4049730 4014343 
2886.675 3979734 3946948 3917370 3892437 3873413 3861019 3855276 3855288 
2890.532 3859476 3865731 3872076 3876921 3879574 3880290 3880057 3880407 
2894.390 3882794 3888328 3897415 3909772 3924649 3941007 3957770 3974321 
2898.247 3990275 4005731 4021073 4036930 4053933 4072522 4092868 4114861 
2902.105 4137900 4161188 4183761 4204855 4223938 4241100 4256795 4272009 
2905.962 4287947 4305944 4327219 4352861 4383742 4420599 4463857 4513897 
2909.820 4570820 4634607 4704894 4781421 4863722 4951524 5044564 5142670 
2913.677 5245388 5352051 5461136 5570511 5677237 5778048 5869548 5948977 
2917.534 6014400 6065150 6101721 6125666 6139013 6144169 6143294 6138499 
2921.392 6131497 6123904 6117202 6112754 6111680 6114721 6122135 6133760 
2925.249 6149144 6168077 6190528 6217064 6248614 6286123 6330243 6380777 
2929.107 6436807 6496753 6558808 6621681 6684777 6748549 6814360 6884134 
2932.964 6959949 7043639 7136632 7239960 7354136 7479445 7615662 7762261 
2936.822 7918113 8081864 8251878 8426611 8604731 8785209 8966999 9148916 
2940.679 9329094 9504908 9673102 9829988 9971996 10096234 10200506 10283602 
2944.536 10344974 10384674 10403089 10401160 10380322 10342507 10290077 
2947.912 10225625 10151497 10069726 9981793 9888941 9792530 9694231 9596083 
2951.769 9500351 9408913 9322814 9242004 9165496 9091954 9020416 8950785 
2955.626 8884035 8821715 8765354 8715364 8670682 8628568 8585377 8537273 
2959.484 8481588 8417082 8344488 8265844 8183952 8101564 8020518 7941714 
2963.341 7865060 7789556 7713832 7636483 7556302 7472417 7384670 7293324 
2967.199 7199248 7103468 7007178 6911377 6816933 6724561 6635066 6549435 
2971.056 6468937 6394899 6328376 6269757 6218659 6173704 6133214 6095491 
2974.914 6059608 6025499 5994248 5967406 5946766 5933612 5928726 5932237 
2978.771 5943923 5963541 5991109 6026770 6070916 6123781 6185655 6256650 
2982.628 6337151 6427715 6529402 6643405 6770825 6912327 7067875 7236420 
2986.486 7416183 7604854 7799808 7998366 8198165 8396820 8592305 8782613 
2990.343 8965833 9139959 9303053 9452827 9586918 9702860 9798405 9871867 
2994.201 9922282 9949915 9955899 9941976 9910129 9862020 9798678 9720740 
2998.058 9628544 9522693 9404346 9275113 9137203 8992601 8842871 8688824 
3001.916 8530664 8368289 8201701 8031435 7858505 7684348 7510296 7337045 
3005.773 7164760 6992712 6819862 6645396 6469034 6291488 6114451 5940072 
3009.630 5770750 5608351 5453986 5307651 5168564 5035319 4906509 4780945 
3013.488 4658152 4538091 4421369 4308524 4199867 4095266 3994219 3895876 
3017.345 3799582 3705159 3612945 3523786 3438738 3358634 3283643 3213360 
3021.203 3146730 3082482 3019566 2957358 2895753 2835202 2776359 2719814 
3025.060 2666079 2615397 2567978 2523946 2483471 2446736 2413923 2384868 
3028.917 2359396 2336946 2316831 2298216 2280087 2261280 2240550 2216638 
3032.775 2188678 2156383 2120552 2082870 2045923 2012476 1984827 1964128 
3036.632 1950083 1940946 1934248 1927262 1918007 1905705 1890703 1874176 
3040.490 1857861 1843084 1830768 1821207 1814250 1809621 1807056 1806402 
3044.347 1807629 1810277 1813848 1817285 1819559 1819693 1817053 1811537 
3048.205 1803530 1793832 1783160 1772228 1761509 1751433 1742337 1734592 
3052.062 1728637 1724719 1722942 1722886 1723866 1724937 1725148 1723820 
3055.919 1720882 1716568 1711617 1706757 1702551 1699310 1696929 1694989 
3059.777 1693111 1690759 1687677 1683660 1678830 1673381 1667901 1663025 
3063.634 1659648 1658460 1659934 1663867 1669548 1675674 1680743 1683508 
3067.492 1683361 1680527 1676086 1671325 1667633 1665742 1665685 1666750 
3071.349 1667908 1668139 1666844 1663962 1660006 1655740 1652009 1649555 
3075.207 1648917 1650361 1653943 1659332 1665981 1672716 1678090 1680512 
3079.064 1678667 1671925 1660677 1646336 1631052 1617139 1606540 1600239 
3082.921 1598080 1598982 1601248 1603236 1603838 1602558 1599828 1596353 
3086.779 1593249 1591128 1590382 1590672 1591459 1591863 1591158 1588972 
3090.636 1585345 1580639 1575537 1570694 1566512 1563200 1560685 1558834 
3094.494 1557583 1557058 1557591 1559390 1562373 1566021 1569297 1571057 
3098.351 1570325 1566893 1561537 1555879 1552151 1552361 1557810 1568615 
3102.208 1583678 1600796 1617464 1631235 1640451 1644236 1642721 1636768 
3106.066 1627794 1617296 1606795 1597283 1589435 1583231 1578234 1573788 
3109.923 1569331 1564852 1560830 1558287 1558278 1561493 1567744 1575699 
3113.781 1583281 1588088 1588313 1583129 1573212 1560399 1547229 1536061 
3117.638 1528641 1525461 1526105 1529361 1533946 1538783 1543434 1547804 
3121.496 1552405 1557646 1563988 1571567 1580227 1589487 1598845 1607483 
3125.353 1614720 1619958 1622713 1622628 1619774 1614361 1606744 1597520 
3129.210 1587497 1577649 1569184 1563309 1561272 1563790 1570949 1581953 
3133.068 1595220 1608438 1619257 1625580 1626198 1620939 1610696 1597316 
3136.925 1583135 1570276 1560579 1555066 1553843 1556185 1560865 1566430 
3140.783 1571797 1576281 1579871 1583010 1586434 1590460 1595067 1599496 
3144.640 1602724 1603444 1600970 1595035 1586314 1576051 1565628 1556489 
3148.498 1549796 1546266 1546482 1550888 1559772 1573241 1590953 1612000 
3152.355 1634938 1657781 1678635 1695966 1708796 1716942 1720772 1721003 
3156.212 1718449 1713861 1707969 1701451 1695036 1689362 1684873 1681421 
3160.070 1678551 1675214 1670338 1663012 1652948 1640571 1626960 1613506 
3163.927 1601566 1592211 1586004 1582967 1582784 1584819 1588361 1592531 
3167.785 1596649 1600194 1603072 1605568 1608447 1612656 1619023 1627732 
3171.642 1638422 1649743 1660068 1667662 1671428 1671086 1667486 1662288 
3175.500 1657716 1655881 1658731 1667271 1681739 1701223 1723914 1747213 
3179.357 1768239 1784291 1793538 1795433 1790932 1782287 1772368 1763751 
3183.214 1758186 1755824 1755662 1755725 1754131 1749630 1742208 1733010 
3187.072 1723896 1716896 1713605 1714549 1719418 1726901 1735199 1742526 
3190.929 1747371 1748813 1746818 1741973 1735616 1729268 1724472 1722407 
3194.787 1723578 1727890 1734679 1743123 1752535 1762443 1772763 1783431 
3198.644 1794381 1805314 1815767 1825268 1833602 1840852 1847418 1853523 
3202.501 1859136 1863481 1865311 1863321 1856748 1845890 1832404 1818926 
3206.359 1808469 1803370 1804664 1811622 1822157 1833407 1842797 1848742 
3210.216 1851014 1850494 1848605 1846759 1845817 1845878 1846673 1847792 
3214.074 1849278 1851638 1855737 1862428 1872092 1884232 1897695 1910687 
3217.931 1921436 1928633 1931938 1931903 1929878 1927582 1926712 1928245 
3221.789 1932571 1939106 1946737 1953828 1958767 1960198 1957349 1950143 
3225.646 1939501 1926959 1914740 1905261 1900700 1902437 1910821 1924761 
3229.503 1942134 1959993 1975297 1985569 1989503 1987183 1979984 1970232 
3233.361 1960640 1953577 1950662 1952616 1959157 1969244 1981564 1994694 
3237.218 2007371 2018628 2027810 2034383 2038083 2038735 2036544 2031858 
3241.076 2025482 2018288 2011429 2005604 2001270 1998113 1995466 1992121 
3244.933 1987118 1979889 1970684 1960485 1951057 1944234 1941577 1943884 
3248.791 1950994 1961882 1974915 1988258 2000449 2010349 2017521 2021963 
3252.648 2024045 2024246 2023256 2021642 2020093 2019025 2018689 2019021 
3256.505 2019528 2019476 2017958 2014447 2008952 2002328 1996042 1992120 
3260.363 1992601 1998779 2011141 2028770 2049717 2071365 2091014 2106600 
3264.220 2117240 2123197 2125893 2127096 2128377 2130405 2132698 2133760 
3268.078 2132030 2126101 2116047 2103056 2089578 2078241 2071059 2068560 
3271.935 2069789 2072448 2074063 2072872 2068499 2062123 2055909 2052149 
3275.792 2052221 2056124 2062418 2068825 2073129 2073842 2070818 2065093 
3279.650 2058517 2053142 2050709 2052190 2057842 2067092 2078816 2091329 
3283.507 2102809 2111410 2115785 2115499 2111192 2104563 2098009 2093819 
3287.365 2093640 2097739 2105034 2113526 2121015 2125717 2126858 2124559 
3291.222 2119690 2113083 2105433 2096973 2087970 2078952 2071085 2065961 
3295.080 2065444 2070731 2081859 2097380 2114636 2130369 2141594 2146422 
3298.937 2144484 2136941 2125945 2114093 2103792 2096707 2093495 2093989 
3302.794 2097260 2101941 2106680 2110298 2112028 2111681 2109488 2105838 
3306.652 2101199 2095757 2089569 2082778 2075775 2069481 2065400 2065089 
3310.509 2069696 2079368 2092896 2107709 2120912 2129687 2132727 2130229 
3314.367 2124064 2116683 2110403 2106395 2104528 2103529 2101872 2098564 
3318.224 2093804 2088810 2085375 2085042 2088570 2095471 2104562 2114270 
3322.082 2123591 2132010 2139750 2147045 2153874 2159407 2162483 2161924 
3325.939 2157293 2149317 2139862 2131512 2126674 2126903 2132349 2141860 
3329.796 2153491 2165036 2174927 2182189 2186718 2188671 2188439 2186098 
3333.654 2181750 2175460 2167599 2158895 2150312 2142849 2137268 2133874 
3337.511 2132544 2132695 2133643 2134580 2134843 2133793 2130878 2125839 
3341.369 2118675 2109791 2100231 2091286 2084463 2080785 2080827 2084286 
3345.226 2090140 2097099 2103970 2109910 2114838 2119160 2123608 2128788 
3349.083 2135130 2142578 2150771 2159215 2167369 2174782 2181035 2185633 
3352.941 2188057 2187650 2183915 2176422 2165306 2151141 2135056 2118494 
3356.798 2103204 2090732 2082377 2078782 2080017 2085362 2093679 2103286 
3360.656 2112670 2120193 2124949 2126385 2124643 2120290 2114330 2107803 
3364.513 2101874 2097392 2095011 2094859 2096743 2100053 2103965 2107650 
3368.371 2110602 2112444 2113279 2113286 2112580 2111002 2108018 2102857 
3372.228 2094940 2083973 2070487 2055638 2041103 2028596 2019520 2014570 
3376.085 2013747 2016348 2021298 2027339 2033303 2038099 2041068 2041791 
3379.943 2040595 2038274 2036305 2036277 2039669 2046937 2057480 2069392 
3383.800 2080204 2087472 2089680 2086895 2080616 2073311 2067541 2064979 
3387.658 2066104 2070132 2075653 2081153 2085834 2089537 2092626 2095237 
3391.515 2097233 2097679 2095492 2089690 2080328 2068410 2055931 2045091 
3395.373 2037694 2034435 2034759 2037170 2039776 2041081 2040400 2037950 
3399.230 2034756 2032007 2030913 2032069 2035465 2040576 2046568 2052459 
3403.087 2057472 2061056 2062972 2063219 2062104 2059776 2056348 2051696 
3406.945 2045543 2037683 2028241 2017801 2007599 1999056 1993727 1992303 
3410.802 1994864 2000267 2006874 2012899 2017138 2019234 2019932 2020584 
3414.660 2022750 2027464 2035092 2045110 2056509 2068015 2078491 2087065 
3418.517 2093287 2096775 2097335 2094655 2088675 2079314 2067078 2052735 
3422.375 2037459 2022709 2010059 2000615 1995228 1993991 1996227 2000419 
3426.232 2004624 2006817 2005465 2000026 1991375 1981524 1973364 1969508 
3430.089 1971731 1980070 1992906 2007220 2019754 2027831 2030375 2028043 
3433.947 2022988 2018047 2015724 2017229 2022348 2029463 2036420 2041289 
3437.804 2043065 2042070 2039572 2037363 2036910 2038789 2042646 2047255 
3441.662 2051206 2053367 2053365 2051710 2049360 2047299 2046301 2046287 
3445.519 2046793 2046987 2046255 2044249 2041119 2037119 2032575 2027311 
3449.376 2021096 2013640 2005035 1995964 1987796 1982071 1980111 1982381 
3453.234 1988374 1996675 2005502 2013218 2018986 2022761 2025156 2026877 
3457.091 2028519 2029881 2030455 2029541 2026677 2021929 2015902 2009501 
3460.949 2003680 1999136 1996242 1995159 1996216 1999808 2006646 2017267 
3464.806 2032010 2050412 2071419 2093237 2113830 2131192 2143876 2150981 
3468.664 2152550 2149317 2142783 2134801 2127505 2122891 2122509 2127085 
3472.521 2136587 2150038 2165886 2182324 2197635 2210335 2219289 2223711 
3476.378 2223282 2218120 2208958 2197362 2185506 2175870 2170640 2171057 
3480.236 2177242 2187933 2201062 2214500 2226690 2237163 2246620 2256326 
3484.093 2267770 2281913 2299156 2319162 2341427 2365286 2390294 2415911 
3487.951 2441528 2466145 2488658 2507866 2523060 2534344 2542504 2548901 
3491.808 2555041 2561996 2570365 2579996 2590737 2602129 2614102 2626587 
3495.666 2639688 2653170 2666552 2679148 2690287 2699458 2706497 2711366 
3499.523 2714360 2715560 2715108 2713262 2710636 2708139 2706882 2707621 
3503.380 2710498 2714629 2718277 2719420 2716460 2708876 2697624 2684786 
3507.238 2672939 2664199 2659716 2659135 2661133 2663759 2665238 2664491 
3511.095 2661057 2655148 2647106 2637168 2625510 2612193 2597452 2581547 
3514.953 2565095 2548404 2531828 2515060 2497744 2479537 2460356 2440687 
3518.810 2421643 2404514 2390581 2380412 2373855 2369666 2365890 2360371 
3522.667 2351355 2338057 2321095 2302364 2284768 2271081 2263318 2261695 
3526.525 2264648 2268919 2270748 2267084 2256598 2240117 2220383 2200944 
3530.382 2185012 2174157 2168164 2165007 2162145 2157289 2149427 2138643 
3534.240 2126147 2113234 2100840 2089240 2078361 2067896 2058058 2049299 
3538.097 2042320 2037526 2034737 2033019 2031358 2028770 2025017 2020406 
3541.955 2015902 2012097 2009255 2006745 2003712 1999368 1993727 1987561 
3545.812 1982333 1979389 1979551 1982451 1986983 1991493 1994658 1995632 
3549.669 1994413 1991181 1986054 1978815 1969108 1956765 1942393 1927708 
3553.527 1915179 1907379 1905874 1910568 1919474 1929027 1935505 1935684 
3557.384 1928248 1913663 1894085 1872284 1851162 1832757 1818408 1808532 
3561.242 1803334 1802659 1806341 1813895 1824616 1837181 1850120 1861773 
3565.099 1870872 1876601 1878804 1878042 1875305 1871826 1868884 1867378 
3568.957 1867774 1870013 1873486 1877151 1880087 1881455 1881038 1879243 
3572.814 1876813 1874646 1873401 1873054 1873091 1872721 1871018 1867302 
3576.671 1861269 1852884 1842350 1829763 1815386 1799495 1782653 1765642 
3580.529 1749382 1734584 1721392 1709288 1697458 1685266 1672772 1661223 
3584.386 1652900 1650206 1654906 1667040 1684583 1703707 1720014 1729657 
3588.244 1730899 1724219 1712246 1698661 1686792 1678540 1674112 1672003 
3592.101 1669990 1665992 1658791 1648329 1635530 1621886 1609010 1598105 
3595.958 1590002 1584811 1582158 1581190 1580619 1578977 1574924 1567547 
3599.816 1556999 1544124 1530813 1519163 1511064 1507543 1508648 1513455 
3603.673 1520674 1528884 1537133 1544745 1551478 1556983 1561005 1563109 
3607.531 1563535 1562935 1562854 1565140 1571473 1582484 1597280 1613448 
3611.388 1627699 1636719 1638280 1631786 1618371 1600189 1579814 1559279 
3615.246 1539902 1522422 1507564 1496490 1490918 1492690 1502837 1520892 
3619.103 1544451 1569571 1591757 1607273 1614518 1614163 1609165 1603243 
3622.960 1600122 1601742 1608493 1618983 1630981 1642327 1651687 1658742 
3626.818 1664208 1669215 1675171 1683023 1693576 1707001 1722911 1740322 
3630.675 1757716 1772877 1783541 1787745 1784489 1774269 1759165 1742622 
3634.533 1728755 1721398 1723478 1736312 1759396 1790789 1827341 1865288 
3638.390 1900999 1931417 1954671 1970107 1978721 1982464 1983948 1985641 
3642.248 1989435 1996176 2005963 2018088 2031856 2046718 2062074 2077215 
3646.105 2091040 2101759 2107462 2106540 2098735 2085465 2069963 2056297 
3649.962 2048410 2048705 2057345 2072165 2089613 2105437 2116386 2120124 
3653.820 2116171 2105077 2088410 2068231 2047044 2027681 2013200 2006029 
3657.677 2007865 2018685 2036618 2058132 2079150 2095827 2105812 2108498 
3661.535 2105162 2097854 2088871 2079752 2071381 2063697 2056540 2049701 
3665.392 2043193 2036843 2030332 2022650 2013096 2001117 1987350 1973495 
3669.250 1962124 1955636 1955290 1960225 1967772 1973943 1974781 1967612 
3673.107 1951792 1928825 1901605 1873520 1847429 1825005 1806508 1791027 
3676.964 1777045 1762864 1746919 1728113 1706224 1681708 1656144 1631746 
3680.822 1611263 1596937 1589889 1589395 1593189 1597712 1599425 1595640 
3684.679 1585553 1570162 1552007 1533887 1518426 1507033 1500114 1497066 
3688.537 1496991 1498790 1501405 1503847 1505068 1503931 1499437 1491212 
3692.394 1479887 1466794 1454019 1443354 1436120 1432293 1430862 1429726 
3696.251 1426812 1420078 1408326 1391047 1368736 1342468 1314134 1286120 
3700.109 1261487 1243389 1234703 1237014 1250426 1272979 1301392 1331289 
3703.966 1358835 1380996 1396418 1405181 1408659 1408607 1406833 1404711 
3707.824 1403221 1402895 1403945 1406309 1409642 1413210 1416172 1417770 
3711.681 1417619 1416141 1414364 1413791 1416060 1422177 1432395 1445806 
3715.539 1460813 1475266 1486914 1493857 1494846 1489283 1477565 1460872 
3719.396 1441241 1421210 1403489 1390254 1382910 1381373 1384662 1390899 
3723.253 1398309 1405608 1412537 1419417 1427009 1435600 1444592 1452477 
3727.111 1457413 1457726 1452730 1442959 1430319 1417228 1406142 1398794 
3730.968 1396094 1398083 1404424 1414385 1427282 1441979 1456919 1469854 
3734.826 1478161 1479388 1472085 1456561 1435064 1411454 1390226 1375304 
3738.683 1369260 1372460 1383358 1398972 1415829 1430653 1441043 1445632 
3742.541 1444167 1437409 1426733 1414166 1401947 1392128 1386087 1384188 
3746.398 1385868 1389590 1393475 1395696 1395111 1391294 1384658 1376078 
3750.255 1366469 1356607 1347044 1338382 1331397 1327369 1327727 1333703 
3754.113 1345926 1363710 1385477 1408596 1430318 1448244 1460913 1467959 
3757.970 1470145 1468839 1465622 1462039 1459273 1458279 1459522 1463041 
3761.828 1468410 1474635 1480284 1483745 1483885 1480299 1473629 1465296 
3765.685 1457276 1451118 1447514 1445974 1445064 1442969 1438279 1430527 
3769.542 1420555 1410053 1400909 1394536 1391425 1390922 1391920 1393056 
3773.400 1393801 1394420 1395885 1399419 1405830 1414980 1425623 1435790 
3777.257 1443460 1447230 1446947 1443773 1440079 1438633 1441735 1450651 
3781.115 1465181 1483585 1502856 1519566 1530247 1532276 1524310 1506572 
3784.972 1480974 1450565 1419294 1390917 1368599 1354134 1347613 1347785 
3788.830 1352538 1359457 1366897 1374023 1381214 1389420 1399695 1412228 
3792.687 1426387 1440272 1451525 1457632 1457069 1449579 1436519 1420349 
3796.544 1404367 1391604 1384193 1382872 1386855 1393910 1401159 1405425 
3800.402 1404282 1396523 1382526 1364259 1344770 1327412 1314942 1309050 
3804.259 1309952 1316560 1326843 1338223 1348486 1355867 1359447 1359161 
3808.117 1355772 1350587 1345325 1341691 1341390 1345353 1353899 1366102 
3811.974 1380334 1394278 1405691 1412941 1415325 1413069 1407333 1399479 
3815.832 1390987 1382926 1376113 1371122 1368617 1369172 1373210 1380491 
3819.689 1390108 1400354 1409174 1414778 1416438 1414637 1411086 1407955 
3823.546 1407085 1409269 1413881 1419248 1423339 1424605 1422623 1418199 
3827.404 1413185 1409526 1408732 1411237 1416508 1423328 1430189 1435989 
3831.261 1439998 1442100 1442307 1440644 1437033 1431269 1423250 1413178 
3835.119 1401874 1390671 1381298 1375537 1374736 1379498 1389352 1402620 
3838.976 1416778 1428926 1436407 1437409 1431428 1419362 1403276 1385852 
3842.833 1369672 1356672 1347765 1342734 1340771 1340798 1341929 1343729 
3846.691 1346120 1349193 1352934 1357050 1360986 1364140 1366047 1366719 
3850.548 1366582 1366534 1367516 1370325 1375451 1382702 1391371 1400146 
3854.406 1407778 1413055 1415395 1414735 1411922 1408310 1405355 1404345 
3858.263 1405990 1410046 1415664 1421412 1425936 1428307 1428357 1426509 
3862.121 1423642 1420580 1417879 1415590 1413508 1411114 1408256 1405048 
3865.978 1402033 1399960 1399579 1401317 1405175 1410532 1416435 1421356 
3869.835 1424003 1423094 1418033 1409039 1397095 1383880 1371478 1361687 
3873.693 1355724 1353965 1355764 1359867 1364942 1369851 1374087 1377716 
3877.550 1381125 1384536 1387999 1391139 1393463 1394634 1394743 1394307 
3881.408 1394208 1395250 1397835 1401978 1407082 1412395 1417009 1420028 
3885.265 1420905 1419147 1414648 1407422 1398078 1387732 1377955 1370592 
3889.123 1366995 1367918 1372765 1379784 1386623 1390981 1391439 1388101 
3892.980 1382421 1376818 1373919 1375598 1382377 1393374 1406653 1419701 
3896.837 1430228 1436642 1438292 1435591 1429750 1422345 1415055 1409145 
3900.695 1405592 1404462 1405392 1407560 1410068 1412237 1413938 1415377 
3904.552 1417078 1419602 1422987 1426647 1429590 1430511 1428416 1422847 
3908.410 1414326 1404067 1393818 1385344 1380029 1378593 1380879 1386224 
3912.267 1393647 1402014 1410423 1418167 1424815 1430249 1434545 1437653 
3916.125 1439845 1441239 1442045 1442209 1441758 1440522 1438368 1435114 
3919.982 1430746 1425460 1419727 1414334 1410289 1408457 1409509 1413391 
3923.839 1419411 1426115 1431666 1434242 1432582 1426409 1416509 1404547 
3927.697 1392597 1382560 1375788 1372873 1373750 1378001 1385102 1394660 
3931.554 1406494 1420222 1435321 1450767 1465219 1477205 1485472 1489350 
3935.412 1488914 1484900 1478360 1470437 1461893 1453112 1444052 1434398 
3939.269 1424045 1413071 1402070 1392039 1384114 1379412 1378593 1381764 
3943.126 1388347 1397250 1407131 1416698 1425082 1431755 1436794 1440056 
3946.984 1441669 1441225 1438367 1432752 1424431 1414366 1404116 1395829 
3950.841 1391499 1392514 1399072 1409950 1423062 1435730 1445508 1450666 
3954.699 1450671 1445971 1438006 1428652 1419851 1413322 1410189 1410930 
3958.556 1415161 1421946 1429778 1437017 1442419 1445228 1445602 1444322 
3962.414 1442737 1442238 1443883 1448257 1455453 1465314 1477338 1491049 
3966.271 1505891 1521096 1535709 1548430 1558130 1563826 1565051 1561950 
3970.128 1555131 1545272 1533034 1518763 1502539 1484560 1465397 1446244 
3973.986 1428762 1414689 1405513 1401660 1402587 1406835 1412585 1417938 
3977.843 1421963 1424341 1425777 1427345 1430204 1435151 1442413 1451699 
3981.701 1462212 1472940 1482834 1490840 1496226 1498457 1497427 1493519 
3985.558 1487760 1481480 1476344 1473805 1474955 1479931 1487934 1497245 
3989.416 1505652 1510901 1511537 1507038 1498310 1487259 1476392 1467938 
3993.273 1463673 1463916 1468163 1475188 1483483 1491980 1500026 1507326 
3997.130 1513573 1518138 1519898 1517328 1509372 1495666 1477401 1457194 
##END=
