##TITLE=Flashforge_PLA_White_Filament_r3_ATR-Corrected
##JCAMP-DX=5.01  $$ Nicolet v. 1
##DATATYPE=INFRARED SPECTRUM
##ORIGIN=Curtin University
##OWNER=Nicolet
##LONGDATE=2024/07/10
##TIME=10:55:10
##SPECTROMETER/DATA SYSTEM=Nicolet iS50
##DATA PROCESSING=
Ratio against background
%Transmittance->Absorbance
ATR Correction
Truncated
ElementMultiply or ElementDivide
##COMMENTS=
Number of sample scans: 32
Collection length: 47.27 sec
Sample gain: 1.0
Background collected on: Wed Jul 10 10:53:13 2024 (GMT+08:00);
Number of background scans: 32
Background gain: 1.0
Sample spacing:  1.000
Number of scan points: 16672
Resolution points: 8192
Number of FFT points: 65536
Apodization: N-B strong;
Phase correction: Mertz;
Laser frequency: 15798.3 cm-1
Number of rejected sample scans: 0
Number of rejected background scans: 0
Bench serial number: AUP1200105;
##RESOLUTION=4.000
##XUNITS=1/CM
##YUNITS=ABSORBANCE
##FIRSTX=400.163452
##LASTX=4000.187744
##FIRSTY=0.063854
##MAXX=4000.187744
##MINX=400.163452
##MAXY=1.179998
##MINY=-0.031775
##XFACTOR=1.000000
##YFACTOR=1.000000E-008
##NPOINTS=7468
##DELTAX=0.482125
##ZPD=8192
##XYDATA=(X++(Y..Y))
400.163 6385369 6279494 6166852 6053485 5941549 5832501 5728201 5632235 
404.020 5549805 5485765 5442050 5415172 5395816 5370217 5324137 5247225 
407.877 5136747 4998879 4847472 4700105 4573228 4477658 4416271 4383779 
411.734 4369150 4359068 4342090 4311546 4266968 4213316 4159006 4112605 
415.591 4079983 4062319 4055730 4052363 4042853 4019158 3977072 3917298 
419.448 3845001 3767833 3693531 3627624 3572322 3526321 3485886 3446271 
423.305 3403368 3354792 3300699 3243763 3188720 3141291 3106863 3088856 
427.162 3087537 3099318 3117389 3133155 3138670 3129053 3104306 3069517 
431.019 3033503 3006092 2995145 3004276 3032354 3073970 3121620 3167868 
434.876 3207042 3235888 3253334 3259562 3255267 3241223 3218532 3188872 
438.733 3154730 3119012 3084402 3052575 3023898 2997721 2973267 2950620 
442.590 2931262 2917735 2912681 2917299 2930397 2948174 2965298 2976517 
446.447 2978489 2970712 2955494 2936652 2917917 2901515 2887620 2874802 
450.304 2861282 2846190 2830361 2816228 2806978 2805137 2811563 2824868 
454.161 2841778 2857854 2868745 2871019 2862849 2844147 2816480 2782694 
458.017 2746351 2711016 2679584 2653535 2632646 2614987 2597662 2577794 
461.874 2553795 2526155 2497783 2472771 2456193 2451437 2459373 2477928 
465.731 2502798 2528624 2550623 2565623 2572534 2571903 2565056 2553211 
469.588 2536960 2516369 2491511 2463032 2432517 2402183 2374279 2350253 
473.445 2330257 2313096 2296861 2279754 2260924 2240768 2220780 2202818 
477.302 2188326 2177741 2170484 2165323 2161106 2157342 2154374 2153099 
481.159 2154332 2158078 2163294 2167943 2169717 2166777 2158488 2145653 
485.016 2130240 2114623 2100851 2090022 2082162 2076510 2072079 2068203 
488.873 2064831 2062387 2061478 2062401 2064873 2067981 2070555 2071559 
492.730 2070621 2068172 2065393 2063532 2064045 2067411 2073154 2079924 
496.587 2085904 2089414 2089444 2085976 2079993 2073075 2066828 2062257 
500.444 2059354 2057018 2053502 2047014 2036571 2022508 2006731 1992373 
504.301 1983102 1982096 1991245 2010574 2038194 2070676 2103895 2133783 
508.158 2157141 2171976 2177663 2174658 2164235 2148072 2128023 2105929 
512.015 2083606 2062704 2044721 2030788 2021566 2017001 2016292 2017903 
515.871 2019778 2019690 2015686 2006474 1991783 1972388 1950038 1927027 
519.728 1905787 1888296 1875814 1868611 1866072 1866850 1869208 1871299 
523.585 1871474 1868427 1861344 1849786 1834146 1815158 1793996 1772161 
527.442 1751382 1733407 1719862 1711991 1710458 1715082 1724734 1737349 
531.299 1750171 1760228 1764993 1763005 1754348 1740665 1724801 1710011 
535.156 1699037 1693298 1692596 1695247 1698820 1700915 1700004 1695765 
539.013 1689004 1681189 1673868 1668157 1664578 1663126 1663531 1665486 
542.870 1668754 1673050 1677917 1682600 1686188 1687830 1687081 1684087 
546.727 1679552 1674356 1669184 1664116 1658593 1651631 1642429 1630863 
550.584 1617863 1605256 1595315 1589934 1589959 1594802 1602584 1610711 
554.441 1616775 1619301 1618284 1615072 1612127 1611959 1616468 1626270 
558.298 1640611 1657591 1674805 1690007 1701737 1709532 1713885 1715844 
562.155 1716520 1716676 1716565 1716042 1714844 1712920 1710610 1708558 
566.012 1707447 1707607 1708779 1710107 1710495 1709045 1705571 1700815 
569.869 1696362 1694200 1696195 1703513 1716373 1734028 1755062 1777692 
573.725 1800172 1820933 1838701 1852526 1861913 1866901 1868204 1867160 
577.582 1865593 1865322 1867777 1873540 1882288 1892908 1903942 1914057 
581.439 1922418 1928710 1933033 1935628 1936646 1936115 1934153 1931186 
585.296 1928158 1926462 1927714 1933255 1943739 1958829 1977311 1997297 
589.153 2016774 2033961 2047687 2057463 2063513 2066586 2067862 2068759 
593.010 2070734 2075001 2082278 2092487 2104658 2117034 2127484 2134046 
596.867 2135546 2131952 2124530 2115492 2107494 2102904 2103260 2108901 
600.724 2119006 2131858 2145412 2157808 2167820 2175146 2180392 2184798 
604.581 2189917 2197116 2207264 2220549 2236503 2254274 2272938 2291856 
608.438 2310847 2330175 2350407 2372138 2395732 2421170 2448096 2475864 
612.295 2503736 2530972 2556944 2581155 2603318 2623431 2641886 2659496 
616.152 2677501 2697279 2720013 2746323 2775976 2807781 2839898 2870223 
620.009 2897019 2919299 2937146 2951598 2964426 2977629 2993046 3011990 
623.866 3035065 3062068 3092087 3123629 3154847 3183807 3208841 3228872 
627.723 3243650 3253832 3260895 3266792 3273582 3282976 3296032 3313079 
631.579 3333751 3357215 3382459 3408519 3434587 3460072 3484565 3507736 
635.436 3529368 3549266 3567406 3583884 3599070 3613522 3627998 3643296 
639.293 3660122 3678885 3699614 3721859 3744774 3767257 3788176 3806699 
643.150 3822439 3835611 3847001 3857742 3869150 3882300 3897909 3916147 
647.007 3936688 3958832 3981786 4004836 4027520 4049681 4071313 4092430 
650.864 4112807 4131905 4148951 4163178 4174176 4182183 4188244 4194059 
654.721 4201559 4212267 4226872 4244937 4265004 4285130 4303570 4319348 
658.578 4332614 4344508 4356786 4371130 4388681 4409667 4433518 4459086 
662.435 4485037 4510156 4533499 4554368 4572257 4586847 4598061 4606217 
666.292 4612139 4617061 4622419 4629497 4639067 4651182 4665225 4680156 
670.149 4694945 4708883 4721801 4734037 4746311 4759419 4774075 4790681 
674.006 4809367 4829826 4851461 4873320 4894276 4913164 4929085 4941661 
677.863 4951176 4958514 4964929 4971652 4979500 4988770 4999271 5010610 
681.720 5022517 5034991 5048330 5062854 5078670 5095463 5112664 5129689 
685.577 5146432 5163452 5181883 5202997 5227538 5255162 5284283 5312401 
689.433 5336915 5355968 5369188 5377747 5383961 5390477 5399338 5411472 
693.290 5426584 5443557 5461126 5478402 5495192 5511808 5528749 5546273 
697.147 5564210 5582021 5599100 5615078 5629994 5644179 5657968 5671361 
701.004 5683905 5694732 5702948 5708020 5710090 5709935 5708656 5707211 
704.861 5705922 5704286 5701097 5694863 5684348 5669003 5649115 5625654 
708.718 5599904 5572983 5545514 5517512 5488411 5457385 5423560 5386162 
712.575 5344634 5298505 5247402 5190968 5128943 5061253 4988137 4910172 
716.432 4828268 4743501 4656925 4569422 4481552 4393476 4305079 4216030 
720.289 4125997 4034799 3942604 3850026 3758197 3668704 3583485 3504580 
724.146 3433868 3372807 3322319 3282698 3253732 3234897 3225625 3225518 
728.003 3234495 3252817 3281052 3319907 3370138 3432426 3507308 3595163 
731.860 3696158 3810157 3936685 4074817 4223083 4379516 4541739 4707153 
735.717 4873114 5037170 5197235 5351669 5499355 5639739 5772809 5899037 
739.574 6019281 6134590 6245946 6354107 6459427 6561827 6660960 6756399 
743.431 6847900 6935556 7019853 7101584 7181740 7261349 7341375 7422757 
747.287 7506335 7592807 7682611 7775750 7871653 7969122 8066542 8162115 
751.144 8254235 8341649 8423468 8498861 8566686 8625168 8671822 8703813 
755.001 8718538 8714352 8691044 8649881 8593199 8523574 8443040 8352536 
758.858 8251938 8140497 8017650 7883768 7740513 7590686 7437637 7284385 
762.715 7132970 6984023 6837037 6690871 6544534 6397793 6251482 6107291 
766.572 5967399 5833719 5707456 5588737 5476685 5369718 5266018 5164066 
770.429 5062966 4962549 4863317 4766009 4671345 4579597 4490420 4402969 
774.286 4316184 4229234 4141891 4054745 3969128 3886718 3809067 3737061 
778.143 3670657 3608795 3549777 3491644 3432655 3371574 3307769 3241107 
782.000 3171735 3099953 3026127 2950787 2874701 2798910 2724637 2653037 
785.857 2584884 2520392 2459143 2400306 2342954 2286466 2230826 2176673 
789.714 2125079 2077173 2033697 1994680 1959352 1926266 1893711 1860208 
793.571 1824916 1787909 1750187 1713461 1679700 1650697 1627659 1610943 
797.428 1600033 1593650 1590071 1587487 1584309 1579481 1572602 1563987 
801.285 1554524 1545488 1538204 1533714 1532649 1534911 1539735 1545908 
805.141 1552043 1556947 1559909 1560766 1559845 1557692 1554765 1551299 
808.998 1547199 1542227 1536217 1529333 1522100 1515373 1510017 1506672 
812.855 1505520 1506272 1508352 1511158 1514290 1517743 1521789 1526859 
816.712 1533251 1540982 1549707 1558882 1567851 1576070 1583132 1588857 
820.569 1593154 1596022 1597551 1597968 1597725 1597504 1598137 1600497 
824.426 1605231 1612639 1622563 1634452 1647536 1660977 1674129 1686653 
828.283 1698585 1710327 1722544 1736116 1751904 1770662 1792823 1818481 
832.140 1847307 1878723 1912083 1946846 1982895 2020455 2060115 2102592 
835.997 2148534 2198343 2252123 2309732 2370833 2435077 2502144 2571776 
839.854 2643817 2718151 2794763 2873730 2955138 3038969 3124885 3212022 
843.711 3298888 3383382 3463122 3535828 3599758 3653996 3698551 3734184 
847.568 3762156 3783968 3801286 3815951 3830182 3846672 3868531 3899070 
851.425 3941403 3998105 4070985 4161168 4269225 4395505 4540238 4703614 
855.282 4885561 5085455 5302023 5533264 5776592 6029088 6287662 6549144 
859.139 6810242 7067477 7317257 7556111 7781046 7989929 8181662 8356020 
862.995 8513322 8653880 8777707 8884470 8973730 9045433 9100244 9139556 
866.852 9165141 9178530 9180448 9170469 9147209 9108841 9053790 8981258 
870.709 8891451 8785355 8664255 8529339 8381459 8221171 8049041 7865944 
874.566 7673251 7472712 7266240 7055533 6841886 6626172 6408974 6190885 
878.423 5972724 5755606 5541012 5330607 5126184 4929579 4742638 4567174 
882.280 4404905 4257380 4125851 4011183 3913924 3834268 3772160 3727247 
886.137 3698779 3685384 3684965 3694719 3711364 3731646 3752830 3773189 
889.994 3792101 3809809 3827014 3844263 3861601 3878471 3893951 3907147 
893.851 3917586 3925381 3931119 3935587 3939362 3942598 3944926 3945626 
897.708 3943912 3939172 3931106 3919837 3905792 3889758 3872757 3856088 
901.565 3841171 3829354 3821578 3818095 3818240 3820545 3823088 3824122 
905.422 3822561 3818417 3812733 3807250 3803741 3803334 3806135 3811144 
909.279 3816603 3820563 3821498 3818773 3812682 3804401 3795458 3787395 
913.136 3781281 3777603 3776152 3776291 3777087 3777643 3777236 3775504 
916.993 3772460 3768401 3763819 3759247 3755052 3751453 3748475 3746039 
920.849 3744102 3742716 3742061 3742338 3743612 3745706 3748153 3750335 
924.706 3751716 3752147 3752021 3752308 3754319 3759260 3767816 3779854 
928.563 3794431 3810094 3825387 3839429 3852193 3864539 3877810 3893301 
932.420 3911636 3932524 3954805 3976877 3997310 4015400 4031368 4046319 
936.277 4061689 4078769 4098197 4119876 4143057 4166798 4190366 4213528 
940.134 4236530 4259970 4284487 4310539 4338314 4367823 4399058 4432071 
943.991 4467059 4504211 4543596 4585211 4628920 4674705 4722783 4773631 
947.848 4827862 4885880 4947638 5012440 5079016 5145889 5211760 5275918 
951.705 5338267 5399102 5458705 5516847 5572447 5623597 5667828 5702533 
955.562 5725292 5734116 5727499 5704228 5663403 5604538 5527799 5434340 
959.419 5326444 5207425 5081273 4952057 4823371 4697963 4577670 4463613 
963.276 4356497 4256942 4165580 4083015 4009586 3945286 3889614 3841822 
967.133 3801143 3766976 3739055 3717323 3701738 3691966 3687234 3686403 
970.990 3688157 3691380 3695468 3700509 3707192 3716608 3729820 3747544 
974.847 3769891 3796367 3825999 3857676 3890414 3923674 3957439 3992147 
978.703 4028518 4067263 4108846 4153401 4200677 4250268 4301744 4354849 
982.560 4409466 4465571 4523003 4581352 4639928 4697853 4754381 4809152 
986.417 4862329 4914581 4966878 5020195 5075123 5131883 5190325 5250223 
990.274 5311466 5374177 5438700 5505374 5574308 5645228 5717531 5790497 
994.131 5863606 5936802 6010524 6085643 6163149 6243892 6328353 6416692 
997.988 6508858 6604741 6704389 6808007 6915842 7028095 7144744 7265652 
1001.845 7390602 7519544 7652755 7790954 7935229 8086920 8247407 8417954 
1005.702 8599520 8792742 8997918 9215102 9444142 9684911 9937369 10201810 
1009.559 10478904 10769688 11075472 11397596 11737214 12094993 12471097 
1012.934 12865181 13276483 13704091 14147000 14604355 15075304 15559097 
1016.309 16054942 16561888 17078796 17604170 18136112 18672418 19210550 
1019.683 19748022 20282718 20813118 21338390 21858336 22372920 22881932 
1023.058 23384554 23879420 24364894 24839724 25303888 25758982 26208516 
1026.433 26657402 27111340 27575910 28055834 28554726 29075106 29618790 
1029.809 30187384 30782706 31406700 32061348 32748080 33467338 34218096 
1033.184 34997604 35801436 36623672 37457228 38294224 39126512 39945992 
1036.559 40744904 41516124 42253168 42950288 43602292 44204520 44752580 
1039.934 45242440 45670384 46033256 46328736 46555752 46714576 46807084 
1043.310 46836444 46806840 46723000 46589784 46411984 46194368 45941720 
1046.685 45659088 45351784 45025232 44684704 44335024 43980424 43624732 
1050.060 43271336 42923564 42584736 42257968 41945784 41649780 41370316 
1053.435 41106652 40857376 40621156 40397404 40186876 39991792 39815772 
1056.811 39663264 39539380 39449452 39399300 39395080 39443800 39553020 
1060.186 39730740 39984740 40322104 40748356 41267364 41881092 42589864 
1063.561 43392624 44287228 45270604 46338852 47487064 48709480 49999412 
1066.936 51349740 52753156 54202740 55692352 57216812 58772052 60354912 
1070.312 61962752 63593136 65243264 66909720 68588176 70273496 71959784 
1073.687 73640856 75310264 76961672 78588560 80184184 81741248 83252120 
1077.062 84708544 86101896 87423096 88662488 89809240 90851280 91775120 
1080.437 92566816 93212640 93701096 94023712 94176088 94157640 93971448 
1083.813 93623480 93122128 92477776 91702624 90809896 89813552 88727272 
1087.188 87564368 86337488 85059104 83741544 82397344 81038536 79676224 
1090.563 78319520 76975328 75647912 74339720 73051576 71783552 70534960 
1093.938 69304712 68090968 66891728 65705048 64529908 63366576 62216740 
1097.313 61082824 59967136 58870716 57792896 56731272 55682832 54644980 
1100.689 53616808 52599460 51595844 50609744 49644636 48702856 47785516 
1104.064 46892740 46024664 45182040 44366848 43582072 42831352 42118348 
1107.439 41446396 40818124 40235668 39700736 39214880 38779248 38394468 
1110.814 38060256 37775248 37536940 37342056 37186864 37067840 36981984 
1114.190 36927084 36901644 36904676 36935376 36992900 37076144 37183796 
1117.565 37314532 37467240 37641304 37836860 38054596 38295696 38561192 
1120.940 38851480 39165628 39500960 39852940 40215388 40580852 40941204 
1124.315 41288104 41613392 41909144 42167812 42382308 42546212 42654136 
1127.691 42702136 42687764 42610152 42469524 42266908 42003604 41681208 
1131.066 41301624 40867368 40381436 39847200 39267744 38645300 37980732 
1134.441 37273712 36523136 35728224 34889476 34009388 33092648 32145684 
1137.816 31175830 30190560 29196722 28200310 27206552 26220292 25246358 
1141.192 24289840 23356080 22450452 21578140 20743678 19950688 19201860 
1144.567 18498968 17843128 17234908 16674612 16162208 15697342 15279199 
1147.942 14906390 14576980 14288573 14038558 13824412 13643956 13495506 
1151.317 13377924 13290460 13232534 13203484 13202393 13228019 13278764 
1154.693 13352896 13448608 13564236 13698359 13849893 14018130 14202833 
1158.068 14404224 14623018 14860319 15117568 15396336 15698199 16024674 
1161.443 16377193 16757263 17166688 17607784 18083676 18598244 19156176 
1164.818 19762836 20424142 21146310 21935692 22798742 23741842 24771230 
1168.194 25892938 27112710 28436058 29868138 31413686 33076766 34860436 
1171.569 36766036 38792660 40936320 43189372 45540236 47972984 50467212 
1174.944 52997852 55534972 58043552 60483808 62812032 64982368 66949360 
1178.319 68670960 70111528 71244064 72051872 72529384 72682328 72527192 
1181.695 72090088 71404400 70508008 69439720 68236400 66930848 65551160 
1185.070 64121020 62660880 61188920 59721784 58274520 56860148 55488960 
1188.445 54168344 52902692 51694160 50543316 49449940 48413560 47433596 
1191.820 46509296 45639576 44822900 44057368 43340836 42671232 42046592 
1195.196 41465224 40925568 40426036 39964884 39540188 39149804 38791588 
1198.571 38463344 38162992 37888556 37638236 37410316 37203200 37015352 
1201.946 36845236 36691276 36551668 36424376 36306972 36196828 36091124 
1205.321 35986920 35881316 35771484 35654736 35528476 35390344 35238108 
1208.697 35069852 34883960 34679068 34454068 34208116 33940564 33651276 
1212.072 33340636 33009734 32660320 32294636 31915056 31523710 31122226 
1215.447 30711668 30292662 29865726 29431442 28990764 28544962 28095486 
1218.822 27643814 27191374 26739430 26289264 25842190 25399602 24962900 
1222.198 24533476 24112354 23700360 23297878 22905128 22522194 22149196 
1225.573 21786256 21433540 21091134 20759050 20437184 20125512 19824010 
1228.948 19532858 19252420 18983034 18725004 18478388 18243038 18018526 
1232.323 17804406 17600202 17405530 17220112 17043664 16875864 16716287 
1235.698 16564466 16419879 16282146 16151012 16026309 15907970 15795751 
1239.074 15689224 15587734 15490520 15396836 15306169 15218362 15133613 
1242.449 15052418 14975373 14902978 14835520 14773053 14715376 14662215 
1245.824 14613202 14568177 14527074 14490029 14457306 14429311 14406434 
1249.199 14389050 14377461 14371845 14372246 14378628 14390887 14408927 
1252.575 14432639 14461941 14496736 14536916 14582293 14632638 14687708 
1255.950 14747244 14810944 14878470 14949378 15023087 15098852 15175799 
1259.325 15253055 15329769 15405184 15478656 15549554 15617296 15681161 
1262.700 15740459 15794469 15842617 15884480 15919748 15948154 15969242 
1266.076 15982306 15986288 15979816 15961443 15929809 15883979 15823399 
1269.451 15748022 15658139 15554233 15436788 15306237 15162914 15007086 
1272.826 14838979 14658807 14466752 14262910 14047265 13819820 13580650 
1276.201 13330178 13069309 12799510 12522781 12241375 11957495 11673059 
1279.577 11389443 11107534 10827841 10550833 10277104 10007566 9743468 
1282.952 9486313 9237660 8999049 8771908 8557577 8357326 8172412 8004031 
1286.809 7853280 7721026 7607830 7513965 7439358 7383753 7346666 7327532 
1290.667 7325590 7339888 7369162 7411767 7465734 7528775 7598499 7672526 
1294.524 7748755 7825416 7901180 7975074 8046442 8114802 8179719 8240805 
1298.382 8297639 8349872 8397228 8439621 8477168 8510167 8539113 8564530 
1302.239 8586908 8606578 8623591 8637679 8648415 8655198 8657575 8655331 
1306.096 8648751 8638524 8625773 8611744 8597669 8584386 8572256 8561058 
1309.954 8550164 8538690 8525850 8511103 8494440 8476266 8457422 8438873 
1313.811 8421601 8406270 8393245 8382427 8373535 8366087 8359653 8353970 
1317.669 8348990 8344856 8341837 8340227 8340183 8341805 8345074 8349943 
1321.526 8356408 8364575 8374632 8386743 8400995 8417267 8435274 8454639 
1325.384 8475111 8496693 8519870 8545561 8575024 8609518 8650048 8697034 
1329.241 8750293 8808981 8871973 8938160 9006777 9077587 9150909 9227421 
1333.098 9307960 9393068 9483042 9577664 9676440 9778747 9884050 9992026 
1336.956 10102583 10215800 10331869 10450929 10573265 10699098 10828909 
1340.331 10963280 11102913 11248393 11400065 11557892 11721517 11890409 
1343.706 12064138 12242591 12426122 12615289 12810692 13012569 13220647 
1347.082 13434039 13651568 13872021 14094505 14318503 14543748 14769931 
1350.457 14996324 15221636 15444021 15661363 15871644 16073129 16264576 
1353.832 16444890 16613141 16768180 16908778 17033830 17142600 17235004 
1357.207 17311684 17373810 17422822 17460088 17486816 17504038 17512762 
1360.583 17514154 17509582 17500494 17488152 17473318 17456118 17435948 
1363.958 17411732 17382018 17345290 17299854 17243888 17175238 17091424 
1367.333 16989694 16867460 16722786 16554940 16364887 16155566 15931991 
1370.708 15701194 15472011 15254773 15060928 14902475 14791201 14737777 
1374.083 14750592 14834775 14991371 15216935 15503763 15840530 16213135 
1377.459 16605969 17002866 17388258 17747920 18069598 18343360 18561586 
1380.834 18718832 18811574 18837910 18797416 18690980 18520740 18289864 
1384.209 18002492 17663448 17278316 16853184 16394708 15909803 15405282 
1387.584 14887354 14361170 13830562 13298108 12765329 12233345 11703248 
1390.960 11176504 10655136 10141607 9638757 9149646 8677402 8225120 7795755 
1394.817 7391936 7015718 6668389 6350235 6060604 5797922 5559944 5344088 
1398.675 5147727 4968478 4804421 4654076 4516341 4390283 4274988 4169384 
1402.532 4072295 3982508 3898932 3820822 3747720 3679400 3615711 3556386 
1406.389 3501052 3449228 3400544 3354863 3312382 3273542 3238732 3208113 
1410.247 3181411 3157876 3136550 3116485 3097118 3078368 3060615 3044539 
1414.104 3030843 3020010 3012229 3007419 3005310 3005574 3007869 3011920 
1417.962 3017494 3024433 3032721 3042442 3053919 3067607 3084024 3103613 
1421.819 3126729 3153529 3184083 3218368 3256372 3298042 3343264 3391870 
1425.677 3443615 3498325 3556066 3617181 3682460 3752941 3829748 3913864 
1429.534 4005926 4106195 4214643 4331129 4455605 4588309 4729797 4881071 
1433.391 5043529 5219095 5410171 5619634 5850753 6106911 6391405 6707213 
1437.249 7057027 7443294 7868442 8334788 8844538 9399129 9998804 10641947 
1441.106 11324880 12041850 12785375 13546702 14316402 15084742 15842223 
1444.481 16579862 17289632 17964672 18599344 19189178 19730680 20221144 
1447.857 20658734 21042574 21372924 21651106 21879194 22059544 22194280 
1451.232 22284948 22332548 22337640 22300508 22221244 22099578 21934778 
1454.607 21725510 21470292 21168034 20818798 20424296 19987838 19513736 
1457.982 19006414 18469836 17907122 17321074 16714694 16091752 15456909 
1461.358 14815477 14172712 13533461 12901725 12280899 11673895 11083470 
1464.733 10512233 9962449 9435865 8933663 8456368 8004259 7577494 7176258 
1468.590 6800641 6450410 6124910 5823015 5543288 5284385 5045215 4825023 
1472.448 4623225 4439090 4271478 4118777 3979033 3850264 3730761 3619260 
1476.305 3514941 3417297 3325956 3240635 3161040 3087039 3018578 2955686 
1480.163 2898347 2846297 2799035 2755871 2716074 2679123 2644765 2613025 
1484.020 2583931 2557314 2532624 2509070 2485718 2461920 2437492 2412846 
1487.877 2388737 2366002 2345199 2326405 2309189 2292904 2276852 2260589 
1491.735 2243982 2227154 2210283 2193609 2177227 2161237 2145783 2131065 
1495.592 2117375 2104923 2093838 2084119 2075549 2067926 2061074 2054888 
1499.450 2049325 2044265 2039511 2034687 2029433 2023458 2016730 2009468 
1503.307 2002039 1994821 1987999 1981518 1975121 1968514 1961579 1954528 
1507.165 1947822 1942048 1937553 1934358 1931943 1929474 1925984 1920667 
1511.022 1913145 1903547 1892521 1880964 1869870 1860040 1852031 1846015 
1514.879 1841916 1839388 1837996 1837294 1836824 1836245 1835344 1833962 
1518.737 1832076 1829625 1826551 1822833 1818356 1813094 1807134 1800627 
1522.594 1793883 1787265 1781188 1775967 1771803 1768792 1766772 1765461 
1526.452 1764419 1763111 1760970 1757560 1752571 1745968 1737967 1729077 
1530.309 1719995 1711523 1704425 1699297 1696368 1695506 1696133 1697334 
1534.167 1698055 1697316 1694406 1689098 1681627 1672637 1662969 1653464 
1538.024 1644815 1637432 1631465 1626896 1623568 1621295 1619851 1618914 
1541.881 1618122 1617021 1615191 1612432 1608708 1604310 1599637 1595008 
1545.739 1590571 1586178 1581442 1575983 1569655 1562683 1555676 1549443 
1549.596 1544698 1541768 1540444 1540098 1539798 1538709 1536271 1532348 
1553.454 1527148 1521155 1514879 1508800 1503334 1498841 1495667 1494142 
1557.311 1494415 1496424 1499706 1503507 1506888 1509013 1509290 1507593 
1561.168 1504193 1499621 1494470 1489263 1484397 1480159 1476754 1474380 
1565.026 1473255 1473503 1475155 1478064 1481953 1486347 1490696 1494475 
1568.883 1497224 1498651 1498623 1497392 1495330 1493054 1491212 1490317 
1572.741 1490646 1492073 1494230 1496554 1498490 1499759 1500395 1500736 
1576.598 1501275 1502386 1504213 1506608 1509250 1511721 1513750 1515208 
1580.456 1516136 1516647 1516879 1516924 1516898 1517044 1517715 1519401 
1584.313 1522541 1527390 1533870 1541515 1549573 1557265 1563979 1569442 
1588.170 1573682 1576949 1579518 1581565 1583129 1584164 1584709 1584957 
1592.028 1585318 1586236 1588077 1591032 1595037 1599882 1605379 1611524 
1595.885 1618522 1626678 1636188 1646979 1658530 1670036 1680568 1689430 
1599.743 1696381 1701744 1706306 1711040 1716820 1724133 1733051 1743239 
1603.600 1754235 1765615 1777096 1788607 1800137 1811627 1822890 1833597 
1607.458 1843400 1852109 1859806 1866972 1874246 1882424 1892109 1903556 
1611.315 1916695 1931117 1946337 1961821 1977245 1992445 2007359 2021938 
1615.172 2036066 2049565 2062208 2073917 2084723 2094847 2104508 2113844 
1619.030 2122723 2130849 2137719 2143048 2146775 2149275 2151288 2153707 
1622.887 2157197 2161986 2167699 2173510 2178380 2181448 2182278 2181031 
1626.745 2178253 2174762 2171279 2168279 2165844 2163858 2162044 2160200 
1630.602 2158232 2156151 2153963 2151573 2148768 2145220 2140604 2134730 
1634.459 2127565 2119301 2110313 2101036 2091922 2083434 2075982 2069989 
1638.317 2065837 2063835 2064106 2066509 2070568 2075498 2080307 2083993 
1642.174 2085731 2084998 2081686 2076096 2068826 2060677 2052508 2045069 
1646.032 2038956 2034541 2031954 2031229 2032250 2034918 2039015 2044414 
1649.889 2050833 2057999 2065434 2072734 2079502 2085491 2090683 2095314 
1653.747 2099824 2104596 2109923 2115886 2122333 2128937 2135431 2141692 
1657.604 2147849 2154315 2161668 2170624 2181699 2195192 2210975 2228558 
1661.461 2247085 2265543 2282929 2298418 2311591 2322462 2331461 2339326 
1665.319 2346957 2355203 2364788 2376143 2389499 2404874 2422027 2440566 
1669.176 2460000 2479668 2498985 2517407 2534696 2550908 2566427 2581860 
1673.034 2597821 2614765 2632758 2651576 2670685 2689666 2708310 2726870 
1676.891 2746028 2766657 2789530 2815100 2843179 2873124 2903932 2934578 
1680.749 2964354 2992981 3020687 3048087 3075838 3104568 3134594 3165978 
1684.606 3198539 3232032 3266311 3301436 3337691 3375469 3415162 3456961 
1688.463 3500637 3545619 3590917 3635402 3678111 3718618 3757292 3795293 
1692.321 3834515 3877102 3924979 3979486 4040954 4108800 4181636 4257751 
1696.178 4335539 4413981 4492747 4572218 4653411 4737605 4826176 4920467 
1700.036 5021529 5130108 5246407 5370176 5500709 5637161 5778816 5925420 
1703.893 6077448 6236077 6403055 6580364 6769649 6971901 7187282 7415246 
1707.750 7654968 7905689 8167193 8439960 8725134 9024259 9339011 9670842 
1711.608 10020851 10389860 10778326 11186631 11614989 12063760 12533267 
1714.983 13024059 13536699 14071892 14630309 15212382 15818147 16447282 
1718.358 17099030 17772808 18468464 19186692 19929280 20698702 21497760 
1721.734 22328900 23193708 24092806 25025920 25992582 26992494 28025914 
1725.109 29093498 30196136 31334576 32509374 33721136 34970932 36260580 
1728.484 37592632 38969956 40395132 41869956 43395648 44973572 46606396 
1731.859 48298736 50057156 51888664 53798856 55789624 57858264 59998184 
1735.235 62201392 64461444 66775872 69146352 71577144 74072200 76632136 
1738.610 79252424 81923544 84632512 87365112 90106872 92842976 95556592 
1741.985 98227104 100829304 103334888 105714712 107941880 109992920 
1744.878 111847792 113488200 114896384 116055368 116950872 117573776 
1747.771 117922008 117999768 117815360 117378512 116698648 115785776 
1750.664 114652456 113315728 111797536 110121832 108311192 106383064 
1753.557 104348456 102213216 99981464 97659000 95256152 92787856 90272256 
1756.933 87728080 85172528 82620112 80082800 77570816 75093528 72659768 
1760.308 70277920 67955416 65698748 63513444 61404468 59376020 57431696 
1763.683 55573648 53802092 52114868 50507800 48975480 47512428 46114124 
1767.058 44777760 43501904 42285844 41128456 40027328 38978228 37975340 
1770.434 37011740 36080352 35174672 34289360 33420506 32565680 31723512 
1773.809 30893424 30074838 29266792 28467422 27673926 26882600 26089478 
1777.184 25290984 24484864 23670502 22849304 22024354 21199756 20380034 
1780.559 19569368 18771320 17988588 17223226 16476917 15751159 15047459 
1783.935 14367338 13712163 13083060 12480977 11906648 11360807 10844238 
1787.310 10357715 9901654 9475823 9078955 8708785 8362271 8036228 7728070 
1791.167 7436291 7160550 6901464 6660023 6436947 6232174 6044820 5873342 
1795.025 5715882 5570498 5435424 5309001 5189719 5076239 4967545 4863172 
1798.882 4763399 4669109 4581587 4501895 4430414 4366548 4308736 4254738 
1802.740 4202302 4149563 4095493 4039895 3983245 3926394 3870301 3815627 
1806.597 3762797 3711739 3662124 3613229 3564391 3515074 3465219 3415362 
1810.454 3366582 3320147 3277064 3237534 3200799 3165144 3128618 3089739 
1814.312 3048296 3005556 2964202 2927444 2898175 2877921 2866528 2862148 
1818.169 2861977 2863136 2863314 2861141 2856040 2847792 2836156 2820712 
1822.027 2800973 2776538 2747451 2714195 2677642 2638642 2598068 2556581 
1825.884 2514900 2473931 2434867 2399176 2368131 2342442 2321975 2305584 
1829.741 2291414 2277314 2261388 2242347 2219620 2193205 2163522 2131164 
1833.599 2096851 2061455 2026082 1991816 1959740 1930416 1903878 1879430 
1837.456 1855985 1832548 1808669 1784629 1761450 1740364 1722339 1707405 
1841.314 1694534 1681821 1667271 1649475 1628313 1605121 1582453 1563027 
1845.171 1548849 1540358 1536096 1533229 1528272 1518320 1501988 1479643 
1849.029 1453344 1425954 1400393 1378582 1361418 1348797 1340213 1335271 
1852.886 1333983 1336634 1343320 1353354 1365174 1376440 1384635 1387810 
1856.743 1385142 1376963 1364361 1348474 1330021 1309065 1285556 1259987 
1860.601 1234095 1211014 1194594 1188273 1193666 1209650 1232390 1256058 
1864.458 1274755 1284005 1282114 1270274 1251961 1231451 1212543 1197354 
1868.316 1186192 1177715 1169907 1160713 1148774 1133557 1115387 1095212 
1872.173 1074529 1055060 1038798 1027717 1023379 1026429 1036325 1050943 
1876.031 1066924 1080056 1086283 1082566 1067744 1043133 1012327 980634 
1879.888 953878 936986 932744 940985 958673 980806 1001976 1017577 1025390 
1884.228 1025633 1020553 1012991 1005318 998300 991374 983078 972386 959525 
1888.567 946330 935714 930564 932467 941290 954929 970548 985437 998266 
1892.907 1009174 1019389 1030304 1042617 1055390 1066530 1073056 1072393 
1896.764 1062868 1044553 1018982 989039 958003 929350 906006 890038 882218 
1901.104 882085 887792 896790 906155 913697 918437 920858 922622 925581 
1905.443 930847 938056 944867 947752 942923 927773 901924 867672 829756 
1909.783 794291 767274 753073 753468 767107 789895 816175 839903 856577 
1914.123 863662 861437 852326 839827 827021 815532 805026 793638 778781 
1918.462 758519 732408 701764 669224 638065 611224 591160 579439 577186 
1922.802 584984 602838 629315 661746 695729 726248 748689 760378 761103 
1927.141 752840 738433 719929 697297 668822 631955 586077 534021 482969 
1931.481 442260 421100 424390 451122 493881 541590 583129 611133 623837 
1935.821 624567 619313 613630 610337 609189 608545 607706 608808 616780 
1940.160 637308 674046 725653 785381 842464 885993 908316 908398 891385 
1944.500 867004 845001 832399 831257 839285 851377 862897 871163 876551 
1948.839 881211 887459 896525 907725 919089 928460 934410 937198 937757 
1953.179 937177 935877 933371 928495 920629 910220 899551 891309 888593 
1957.519 892921 904523 921746 942683 965467 989917 1015346 1041432 1065821 
1961.858 1084495 1091979 1084323 1060981 1027241 992958 971195 973409 
1965.716 1005913 1067023 1146841 1230244 1301740 1349068 1367338 1357849 
1969.573 1326356 1278963 1219334 1148154 1064822 969926 868421 770522 690753 
1973.913 644776 646792 706055 826737 1006232 1235761 1498381 1769168 2014816 
1978.252 2199829 2293989 2282561 2171309 1987415 1772523 1572235 1424114 
1982.110 1348485 1343255 1387600 1449096 1495936 1506991 1476810 1414280 
1985.967 1336152 1258459 1190315 1131313 1074963 1014156 947441 880904 
1989.824 827192 799994 808702 852770 922189 999435 1066540 1109525 1123390 
1994.164 1112518 1088832 1066713 1058223 1068601 1093736 1120439 1129687 
1998.021 1100918 1019548 881059 695171 484560 280255 113611 8521 -25187 7390 
2002.843 88900 197656 314823 430203 541987 654116 769387 885503 992797 
2007.183 1079224 1135332 1161034 1164692 1160681 1160872 1170114 1182528 
2011.040 1185114 1164681 1114415 1038584 951440 871249 813396 783726 777164 
2015.380 780422 778742 760435 720965 662156 590409 512040 433926 362206 
2019.719 305497 273718 278142 325851 417223 541051 677929 803660 897234 
2024.059 945252 946481 908586 846103 773125 701824 640532 596125 574338 
2028.399 579934 613891 670706 735682 787282 802060 762372 662970 514700 
2032.738 342982 182425 66503 21138 58783 177510 362580 590289 830803 1052967 
2037.560 1226606 1328780 1347635 1286797 1164316 1010070 857528 735432 
2041.417 660052 632465 640411 664850 686993 695263 687495 670986 657715 
2045.757 660970 691533 756091 855646 985621 1134829 1285796 1416234 1503941 
2050.097 1531538 1492343 1391740 1246699 1081357 922215 791554 703885 663083 
2054.436 664528 696826 747093 803666 858175 904371 936980 951056 941954 
2058.776 907293 848816 772876 690094 612073 548896 505922 483464 477421 
2063.115 481800 490918 501795 514151 530141 553212 586724 633055 693397 
2067.455 766658 849730 936559 1019193 1088380 1136446 1158908 1156718 
2071.313 1135766 1105686 1075983 1052912 1037611 1025996 1011256 987261 
2075.170 951657 907929 863987 829934 814195 820996 848844 891457 939852 
2079.510 985459 1021645 1045156 1055548 1054529 1044389 1027993 1007768 
2083.367 986513 966404 949311 935921 925555 915513 902368 882035 851791 
2087.707 810424 759142 701011 640380 581783 529068 485029 451344 428894 
2092.046 418296 420531 436973 468959 517135 580262 654765 733975 809416 
2096.386 872190 915201 935019 932860 914154 886989 859399 837315 822880 
2100.725 814838 809188 801850 790020 773541 754339 735623 720325 709977 
2105.065 704762 703869 706323 711943 720992 733819 750195 768822 787355 
2109.405 803630 816205 825189 831680 837164 841776 843903 840034 826207 
2113.744 799645 760513 712023 660218 611624 571759 543145 525285 515392 
2118.084 509955 506020 501977 497311 491464 483143 469881 448365 416271 
2122.423 372756 319692 261082 201812 146121 96358 52573 13509 -22752 -57199 
2127.245 -89995 -120878 -150534 -181256 -217563 -264561 -326544 -404301 
2131.103 -494017 -586558 -669868 -731168 -760917 -755144 -717303 -657369 
2134.960 -589588 -528776 -486681 -469256 -476011 -500028 -531211 -558779 
2138.817 -574816 -576587 -568064 -558479 -559994 -582979 -633220 -707944 
2142.675 -796896 -883798 -952214 -989794 -993257 -969394 -933761 -905907 
2146.532 -903547 -937693 -1010562 -1115120 -1239258 -1369448 -1495738 
2149.907 -1613527 -1723598 -1830145 -1937589 -2048348 -2161340 -2272633 
2153.283 -2378495 -2477315 -2571675 -2667959 -2773194 -2890562 -3013206 
2156.658 -3120285 -3177513 -3142089 -2974791 -2654598 -2191805 -1629484 
2160.033 -1033875 -474245 -6758 337337 550913 646091 644518 571544 450769 
2164.373 303617 148368 1707 -121358 -208732 -253437 -255506 -222988 -169300 
2168.712 -110949 -62686 -34060 -26916 -36584 -53158 -65207 -63143 -42157 
2173.052 -2404 50502 107638 158295 192544 203442 188844 151400 99116 42573 
2177.874 -6010 -37061 -44343 -27658 8536 55400 102178 138302 155505 149225 
2182.696 118588 66526 -318 -72272 -137266 -182244 -194917 -166882 -95623 
2187.035 13355 147533 288802 418253 519596 583531 607805 598204 564148 
2191.375 516744 464388 412724 364397 321127 284980 259488 249184 258705 
2195.714 289776 340178 403614 470347 529761 572809 594109 593799 576551 
2200.054 551154 528354 518776 530595 568156 630300 710783 797788 877046 
2204.394 933878 957728 944661 900349 838398 778435 739441 735223 769401 
2208.733 834294 913084 985471 1033817 1049326 1033528 997326 956058 923723 
2213.073 907927 907807 915847 921743 917187 899921 874589 851276 841191 
2217.412 852966 889182 945962 1013929 1081319 1137048 1173314 1186671 
2221.270 1178532 1153910 1120531 1087022 1061070 1048027 1050020 1064667 
2225.127 1086502 1108052 1122752 1126921 1121283 1110909 1103443 1106184 
2228.985 1123352 1154074 1193040 1231341 1259639 1270795 1261555 1232833 
2232.842 1189090 1136626 1082110 1031095 988020 955492 935061 926877 930301 
2237.182 943516 964496 990696 1019942 1050229 1080155 1108047 1132180 
2241.039 1150356 1160675 1162044 1154964 1142128 1127807 1117415 1115729 
2244.896 1125667 1147774 1179452 1216195 1252206 1281727 1299872 1303344 
2248.754 1290857 1263499 1224536 1179626 1135924 1101274 1082544 1084572 
2252.611 1108730 1152828 1211266 1276429 1339861 1394016 1433056 1453631 
2256.469 1454852 1438687 1409026 1371578 1332831 1299103 1275565 1264854 
2260.326 1266709 1278104 1293824 1307935 1315165 1312277 1298491 1275484 
2264.184 1246919 1217682 1192680 1176531 1172435 1182200 1205648 1241063 
2268.041 1285009 1333648 1382584 1428283 1467839 1499498 1522020 1534962 
2271.898 1538208 1532662 1520421 1505011 1491035 1483579 1486763 1502767 
2275.756 1531078 1568696 1611181 1654040 1694017 1729887 1762196 1792553 
2279.613 1822431 1852577 1882567 1911138 1936876 1958637 1975628 1987451 
2283.471 1993552 1993386 1986286 1972170 1952004 1928003 1903210 1880776 
2287.328 1862893 1850226 1841510 1834111 1825087 1812152 1794414 1772638 
2291.186 1748827 1725644 1705478 1690137 1680385 1676225 1676832 1680989 
2295.043 1687165 1693724 1698985 1701640 1700736 1695991 1687720 1676596 
2298.900 1663626 1649793 1635893 1622563 1610244 1599284 1589701 1581214 
2302.758 1573229 1564969 1555668 1545061 1533575 1522534 1513941 1509992 
2306.615 1512518 1522558 1540033 1563965 1592567 1623677 1655035 1684532 
2310.473 1710343 1731263 1746748 1757129 1763523 1767556 1770740 1774129 
2314.330 1777831 1781309 1783679 1784488 1784211 1784379 1787134 1794627 
2318.188 1808332 1828968 1856637 1891607 1934517 1986199 2046701 2113587 
2322.045 2180994 2239376 2277031 2283015 2250076 2177261 2070339 1940707 
2325.902 1802660 1670263 1554290 1460627 1389780 1338236 1300404 1270972 
2329.760 1246374 1225358 1208230 1195919 1188866 1186766 1188434 1192505 
2333.617 1197766 1203507 1209125 1214034 1217409 1218405 1216533 1212106 
2337.475 1206337 1201130 1198328 1199053 1202995 1208789 1214249 1217474 
2341.332 1217214 1213570 1207325 1199680 1191403 1182645 1173051 1162299 
2345.189 1150577 1138882 1128898 1122401 1120556 1123397 1129637 1137124 
2349.047 1143300 1145967 1143832 1136593 1124925 1110198 1094128 1078566 
2352.904 1065143 1055253 1049615 1048253 1050234 1054021 1057596 1059161 
2356.762 1057334 1051656 1042322 1030041 1015594 999635 982583 964817 946864 
2361.101 929642 914302 901840 892848 887115 883568 880620 876628 870548 
2365.441 862118 852105 841828 832781 826261 822886 822722 825397 830297 
2369.781 836870 844562 852986 861652 870045 877443 883211 886832 888186 
2374.120 887645 886206 885259 886503 891344 900547 913784 929539 945247 
2378.460 958188 966043 967830 964238 957571 950863 947010 947664 952827 
2382.799 960908 969567 976779 981689 985015 988644 994758 1004769 1018523 
2387.139 1034313 1049344 1060867 1067045 1067765 1064509 1059915 1056537 
2390.996 1056261 1059588 1065727 1072893 1079053 1082532 1082494 1078968 
2394.854 1072892 1065571 1058600 1053327 1050723 1051232 1054782 1060741 
2398.711 1068100 1075575 1081872 1085858 1086735 1084188 1078674 1071267 
2402.569 1063786 1058474 1057785 1063622 1077043 1097718 1123867 1152459 
2406.426 1179957 1203045 1219424 1228087 1229447 1224751 1215660 1203675 
2410.283 1189901 1175114 1160016 1145479 1132628 1122713 1116675 1114821 
2414.141 1116644 1120950 1126148 1130726 1133694 1134601 1133604 1131151 
2417.998 1127781 1123867 1119635 1115135 1110447 1105644 1100952 1096623 
2421.856 1093047 1090791 1090611 1093343 1099801 1110247 1124343 1140576 
2425.713 1156614 1169434 1176146 1174476 1163560 1143945 1117658 1087838 
2429.571 1058144 1032301 1013544 1004247 1005666 1017605 1038314 1064703 
2433.428 1092787 1118420 1138272 1150224 1154115 1151178 1143686 1133825 
2437.285 1123423 1113205 1103442 1094018 1085318 1078191 1074083 1074353 
2441.143 1079631 1089455 1102285 1115652 1127088 1134528 1136912 1134165 
2445.000 1127184 1117260 1106188 1095759 1087825 1083959 1085304 1092106 
2448.858 1103446 1117292 1130932 1141674 1147759 1148593 1145173 1139263 
2452.715 1132728 1126732 1121564 1116591 1111370 1105818 1101095 1098976 
2456.573 1101355 1109031 1121187 1135119 1147050 1153245 1151445 1141538 
2460.430 1125770 1107897 1092130 1081730 1078382 1081750 1090091 1100622 
2464.287 1110489 1117068 1118508 1113758 1102755 1086474 1066944 1047064 
2468.145 1029986 1018511 1014341 1017488 1026387 1038216 1049968 1059062 
2472.002 1064306 1065879 1065276 1064573 1065940 1070925 1080261 1093586 
2475.860 1109661 1126317 1140884 1150488 1152720 1146197 1131181 1109705 
2479.717 1085129 1061544 1042512 1030240 1025235 1026306 1031571 1039007 
2483.574 1047467 1056571 1066711 1078011 1090273 1102408 1113250 1121758 
2487.432 1127863 1132497 1137132 1143052 1150493 1158345 1164515 1166701 
2491.289 1163665 1155779 1145312 1135518 1129435 1128685 1132778 1139261 
2495.147 1144803 1146462 1143014 1135402 1126635 1120598 1120898 1129345 
2499.004 1145627 1167041 1189539 1208599 1220789 1224503 1220581 1211753 
2502.862 1202151 1195749 1195342 1201570 1212811 1225678 1236157 1241056 
2506.719 1239095 1231183 1220127 1209412 1201753 1198076 1197415 1197241 
2510.576 1195007 1189382 1181098 1172684 1167768 1169229 1178158 1192917 
2514.434 1209655 1223452 1230075 1227167 1215194 1196920 1176568 1158244 
2518.291 1144705 1136829 1133732 1133291 1133373 1132552 1130523 1128080 
2522.149 1126624 1127557 1131683 1139157 1149456 1161772 1175404 1189982 
2526.006 1205423 1221497 1237791 1252976 1265229 1272377 1272857 1266156 
2529.864 1253476 1237520 1221992 1210286 1204842 1206166 1213022 1222783 
2533.721 1232625 1240247 1244815 1246547 1246597 1246316 1246773 1248524 
2537.578 1251737 1256406 1262481 1269631 1277106 1283283 1285945 1282706 
2541.436 1272080 1254346 1232086 1209787 1192996 1186526 1193304 1213365 
2545.293 1244045 1280864 1318990 1354042 1383205 1404777 1418203 1423167 
2549.151 1419834 1408638 1390953 1369011 1345911 1324843 1308400 1297719 
2553.008 1292350 1290600 1290390 1289983 1288591 1286376 1283971 1282003 
2556.865 1280702 1279950 1279822 1280672 1283658 1289921 1300255 1314061 
2560.723 1329368 1343076 1352083 1354460 1350435 1342257 1333741 1328515 
2564.580 1329005 1335491 1346470 1359184 1371258 1381298 1389412 1396642 
2568.438 1404204 1412733 1422034 1431218 1439682 1447424 1455506 1465457 
2572.295 1478582 1495047 1513560 1531409 1545471 1553138 1553308 1546486 
2576.153 1534799 1520876 1507495 1496447 1488798 1484695 1483847 1485588 
2580.010 1489054 1492979 1496058 1496744 1494085 1487939 1479415 1470455 
2583.867 1463548 1460637 1462645 1468828 1477418 1486081 1492976 1497441 
2587.725 1500318 1503465 1509143 1518902 1533266 1551290 1571031 1590050 
2591.582 1606136 1617813 1624745 1627366 1627110 1625730 1625186 1627067 
2595.440 1632386 1641137 1652397 1664229 1674250 1680117 1680201 1673871 
2599.297 1661692 1645017 1625647 1605101 1584543 1564523 1545600 1528377 
2603.155 1513913 1503659 1498998 1500736 1508833 1522079 1538578 1555908 
2607.012 1572240 1586232 1597523 1606145 1612527 1616850 1619061 1618966 
2610.869 1616536 1612253 1607144 1602630 1600275 1601149 1605608 1613187 
2614.727 1622702 1632679 1641702 1648829 1653716 1656484 1657775 1658274 
2618.584 1658641 1659290 1660476 1662068 1663977 1665992 1668088 1670414 
2622.442 1673305 1677157 1682264 1688546 1695467 1702010 1707002 1709435 
2626.299 1708760 1705346 1700375 1695473 1692550 1692905 1697096 1704748 
2630.156 1714720 1725519 1735765 1744538 1751596 1757223 1762116 1766966 
2634.014 1772289 1778189 1784429 1790299 1794894 1797200 1796313 1791644 
2637.871 1783157 1771515 1758059 1744538 1732860 1724526 1720294 1719942 
2641.729 1722379 1725920 1728910 1730096 1729079 1726192 1722593 1719500 
2645.586 1717981 1718570 1721099 1724840 1728725 1731703 1732980 1732120 
2649.444 1729191 1724506 1718767 1712599 1706634 1701282 1696811 1693132 
2653.301 1690077 1687181 1683989 1680029 1674969 1668676 1661247 1652914 
2657.158 1643900 1634445 1624550 1613991 1602402 1589291 1574355 1557422 
2661.016 1538627 1518435 1497569 1476725 1456629 1437735 1420311 1404403 
2664.873 1390019 1377205 1366148 1357054 1350309 1346091 1344403 1344879 
2668.731 1346920 1349579 1351988 1353235 1352763 1350169 1345452 1338771 
2672.588 1330476 1321015 1310905 1300686 1290893 1281977 1274366 1268204 
2676.446 1263574 1260305 1258236 1257090 1256850 1257606 1259591 1262977 
2680.303 1267801 1273668 1279843 1285176 1288507 1288873 1285923 1279969 
2684.160 1272044 1263586 1256169 1250836 1248155 1247938 1249485 1251860 
2688.018 1254282 1256190 1257415 1257965 1257848 1256965 1255046 1251854 
2691.875 1247328 1241781 1235773 1230106 1225383 1221886 1219443 1217496 
2695.733 1215521 1213193 1210674 1208462 1207341 1207819 1209995 1213392 
2699.590 1217079 1220090 1221772 1221945 1220987 1219550 1218338 1217533 
2703.448 1217026 1216157 1214192 1210452 1204772 1197261 1188579 1179614 
2707.305 1171335 1164666 1160334 1158736 1159795 1162921 1167109 1171090 
2711.162 1173639 1174111 1172622 1170189 1168391 1168889 1172821 1180296 
2715.020 1190292 1200937 1210241 1216585 1219438 1219264 1217405 1215374 
2718.877 1214433 1214995 1216831 1219041 1220796 1221459 1220791 1218912 
2722.735 1216202 1212853 1209011 1204574 1199517 1193974 1188319 1183083 
2726.592 1178922 1176384 1175889 1177648 1181683 1187773 1195610 1204474 
2730.449 1213396 1221198 1226689 1228963 1227745 1223451 1217225 1210495 
2734.307 1204842 1201301 1200470 1202284 1206388 1212316 1219759 1228551 
2738.164 1238603 1249632 1261078 1272015 1281323 1288057 1291588 1291880 
2742.022 1289379 1284876 1279250 1273154 1267019 1261020 1255221 1249770 
2745.879 1245007 1241327 1239302 1239124 1240850 1244002 1247883 1251563 
2749.737 1254287 1255455 1254883 1252745 1249372 1245150 1240253 1234756 
2753.594 1228520 1221489 1213866 1206149 1199186 1193871 1190906 1190423 
2757.451 1191932 1194300 1196318 1196915 1195776 1193242 1190393 1188412 
2761.309 1188166 1189769 1192565 1195233 1196551 1195742 1192843 1188740 
2765.166 1184876 1182492 1182411 1184561 1188202 1192243 1195712 1198051 
2769.024 1199362 1200099 1200771 1201704 1202729 1203309 1202823 1200787 
2772.881 1197154 1192388 1187333 1182851 1179789 1178545 1179289 1181732 
2776.739 1185607 1190459 1195973 1201759 1207565 1213048 1218003 1222187 
2780.596 1225517 1228010 1229722 1230801 1231331 1231386 1231031 1230294 
2784.453 1229276 1228044 1226626 1225010 1223227 1221200 1219163 1217461 
2788.311 1216739 1217817 1221519 1228294 1238294 1250904 1265043 1279310 
2792.168 1292256 1302691 1310063 1314406 1316280 1316516 1315967 1315267 
2796.026 1314651 1313978 1312921 1311087 1308286 1304631 1300600 1296943 
2799.883 1294392 1293630 1295062 1298756 1304534 1311995 1320847 1330670 
2803.740 1341268 1352471 1364130 1375813 1387171 1397651 1406752 1414144 
2807.598 1419770 1423826 1426744 1428957 1430879 1432764 1434743 1436799 
2811.455 1438996 1441552 1444751 1449120 1455150 1463184 1473324 1485339 
2815.313 1498727 1512707 1526486 1539259 1550393 1559442 1566206 1570740 
2819.170 1573317 1574476 1574821 1575128 1576117 1578394 1582338 1588113 
2823.028 1595632 1604653 1614777 1625455 1636156 1646378 1655608 1663474 
2826.885 1669825 1674668 1678182 1680559 1682014 1682509 1681855 1679813 
2830.742 1676172 1671152 1665492 1660364 1657346 1657933 1663154 1673183 
2834.600 1687311 1704006 1721510 1737955 1752158 1763506 1772151 1778758 
2838.457 1784269 1789687 1795986 1803824 1813832 1826205 1840952 1857570 
2842.315 1875333 1893143 1910014 1925276 1938793 1950965 1962568 1974464 
2846.172 1987188 2000809 2014916 2028741 2041805 2053943 2065453 2076987 
2850.030 2089169 2102183 2115673 2128582 2139671 2148033 2153320 2156166 
2853.887 2158089 2160898 2166489 2175992 2189783 2207212 2227184 2248302 
2857.744 2269490 2290099 2310284 2330595 2351949 2375188 2400882 2429104 
2861.602 2459460 2491129 2523116 2554619 2585074 2614500 2643516 2673188 
2865.459 2704809 2739747 2779300 2824154 2874736 2930851 2991916 3057093 
2869.317 3125318 3195719 3267598 3340627 3414856 3490494 3567690 3646274 
2873.174 3725274 3802947 3876873 3944240 4002450 4049563 4084756 4108358 
2877.031 4121824 4126959 4125778 4119746 4109613 4095395 4076571 4052459 
2880.889 4022656 3987342 3947433 3904461 3860454 3817344 3776766 3739584 
2884.746 3705876 3674854 3645394 3616256 3586622 3556406 3526118 3496850 
2888.604 3469852 3446019 3425932 3409560 3396382 3385819 3377300 3370451 
2892.461 3365206 3361651 3359986 3360349 3362968 3367862 3375114 3384477 
2896.319 3395560 3407662 3419888 3431368 3441649 3450711 3459192 3468044 
2900.176 3478330 3490546 3504616 3519711 3534811 3548820 3561460 3573076 
2904.033 3584726 3597520 3612279 3628967 3646891 3664883 3681861 3697449 
2907.891 3712219 3727473 3744847 3765825 3791134 3820490 3852955 3886960 
2911.748 3920874 3953357 3983387 4010436 4034478 4055890 4075648 4095095 
2915.606 4116129 4140595 4170198 4205951 4248072 4295792 4347737 4402163 
2919.463 4457491 4512479 4566607 4619780 4672450 4725220 4778730 4833628 
2923.321 4890219 4948675 5008800 5070201 5132530 5195605 5259701 5325600 
2927.178 5394608 5468080 5547130 5632107 5722678 5817711 5915835 6015939 
2931.035 6117588 6221155 6327729 6438512 6554746 6677113 6805963 6941318 
2934.893 7083353 7232499 7389346 7554560 7728496 7910724 8100199 8295072 
2938.750 8493424 8693200 8892596 9089854 9283224 9470565 9649273 9816261 
2942.608 9968401 10102776 10217164 10310181 10381462 10431511 10461430 
2945.983 10472592 10466593 10444731 10408268 10358038 10294800 10219297 
2949.358 10132532 10036062 9932201 9823871 9714421 9607013 9504241 9407523 
2953.216 9317223 9232447 9151898 9074188 8998519 8924802 8853811 8786688 
2957.073 8724685 8668365 8617574 8571136 8527100 8482751 8435395 8382496 
2960.930 8322087 8253161 8175674 8090505 7999322 7904152 7807156 7710256 
2964.788 7615055 7522634 7433593 7348019 7265658 7185796 7107385 7029265 
2968.645 6950453 6870336 6789237 6708175 6629222 6554588 6486354 6425863 
2972.503 6373464 6328175 6288390 6252092 6217703 6184245 6151777 6121094 
2976.360 6093675 6071165 6055235 6047417 6049068 6061176 6084462 6118978 
2980.218 6164210 6218962 6281645 6350715 6425159 6505064 6591611 6686978 
2984.075 6794100 6915539 7053367 7208332 7379856 7566228 7764901 7972792 
2987.932 8186750 8403431 8619564 8831659 9036360 9230359 9410889 9575676 
2991.790 9723382 9853365 9965548 10060030 10136703 10195017 10234073 
2995.165 10252728 10250136 10226151 10181440 10117754 10037504 9943340 
2998.540 9837731 9722336 9597905 9464350 9321163 9167872 9004474 8831855 
3002.398 8651885 8467034 8280259 8094001 7910215 7729695 7552334 7377079 
3006.255 7202679 7027858 6852043 6675309 6498645 6323566 6151741 5984536 
3010.113 5822800 5666559 5515325 5368003 5223784 5081949 4942465 4805572 
3013.970 4671945 4542065 4416291 4294583 4176665 4062279 3951451 3844531 
3017.827 3742490 3646194 3556494 3473494 3396742 3324968 3256464 3189573 
3021.685 3123014 3056098 2988848 2921744 2855512 2790942 2728654 2669045 
3025.542 2612513 2559207 2509309 2462736 2419219 2378227 2339276 2301826 
3029.400 2265754 2231181 2198597 2168470 2140975 2115856 2092223 2068873 
3033.257 2044723 2019090 1992005 1964233 1937071 1911783 1889451 1870585 
3037.115 1855268 1843182 1833911 1827015 1822129 1818834 1816590 1814724 
3040.972 1812539 1809456 1805145 1799606 1792983 1785377 1776757 1766703 
3044.829 1754991 1741323 1726140 1710309 1695170 1681828 1671152 1662897 
3048.687 1656338 1649930 1642488 1633263 1622480 1611184 1600949 1593270 
3052.544 1589141 1588696 1591271 1595598 1600203 1603529 1604417 1601904 
3056.402 1595618 1585465 1572082 1556420 1540017 1524472 1511291 1501553 
3060.259 1495832 1494150 1496160 1501392 1509519 1520051 1532650 1546497 
3064.116 1560576 1573540 1584034 1590923 1593651 1592287 1587426 1579870 
3067.974 1570460 1559916 1548743 1537432 1526459 1516276 1507335 1499565 
3071.831 1492761 1486242 1479496 1472037 1464134 1456507 1450185 1446045 
3075.689 1444459 1444995 1446509 1447520 1446746 1443561 1438116 1431443 
3079.546 1424995 1420257 1418385 1419938 1424804 1432210 1440950 1449374 
3083.404 1455890 1459030 1457905 1452409 1443367 1432339 1421339 1412134 
3087.261 1406029 1403240 1403356 1405178 1407652 1409848 1411402 1412285 
3091.118 1412671 1412560 1411818 1410060 1407194 1403229 1398641 1394083 
3094.976 1390218 1387368 1385470 1384089 1382750 1380995 1378845 1376447 
3098.833 1374037 1371802 1369733 1367497 1364949 1362079 1359394 1357467 
3102.691 1357148 1358803 1362390 1367225 1372310 1376525 1378880 1378834 
3106.548 1376355 1371608 1365123 1357492 1349401 1341506 1334493 1328852 
3110.406 1324854 1322551 1321787 1322294 1324009 1327016 1331576 1337689 
3114.263 1345045 1352591 1358962 1362530 1362313 1358091 1350947 1342612 
3118.120 1335203 1329952 1327215 1325938 1324410 1320741 1313939 1304232 
3121.978 1293144 1282806 1275442 1272359 1273976 1279387 1287245 1295818 
3125.835 1303776 1310106 1314262 1315981 1315316 1312473 1308122 1303226 
3129.693 1299041 1296780 1297399 1301107 1307415 1315150 1322971 1329422 
3133.550 1333621 1334927 1333067 1327933 1319494 1307632 1292747 1275488 
3137.407 1257365 1240267 1226471 1217719 1215157 1218702 1227298 1239142 
3141.265 1252241 1264851 1276078 1285692 1294078 1301806 1309325 1316542 
3145.122 1322878 1327333 1329052 1327455 1322784 1316027 1308699 1302486 
3148.980 1298746 1297933 1299839 1303284 1306887 1309322 1309923 1308679 
3152.837 1306358 1303942 1302285 1301735 1302082 1302576 1302469 1301117 
3156.695 1298507 1295083 1291732 1289194 1287986 1288013 1288664 1288903 
3160.552 1287800 1284656 1279417 1272549 1265171 1258616 1254218 1252970 
3164.409 1255340 1261162 1269917 1280612 1292487 1304727 1316939 1328828 
3168.267 1340170 1350605 1359474 1365928 1369170 1368752 1364737 1358046 
3172.124 1350144 1342727 1337263 1334493 1334324 1335706 1337151 1337153 
3175.982 1334816 1329971 1323436 1316409 1310454 1306592 1305195 1305925 
3179.839 1307920 1310012 1311317 1311282 1309948 1307603 1304767 1301846 
3183.697 1299061 1296553 1294545 1293377 1293850 1296795 1302938 1312345 
3187.554 1324272 1337067 1348470 1356142 1358439 1354834 1346286 1334960 
3191.411 1323771 1315633 1312650 1315646 1324048 1335925 1348737 1359586 
3195.269 1366248 1367299 1362565 1352974 1340524 1327612 1316719 1309750 
3199.126 1307861 1311011 1318476 1328888 1340792 1353022 1364828 1375845 
3202.984 1385870 1394526 1401212 1404834 1404541 1399549 1389825 1376204 
3206.841 1360274 1344201 1330196 1320158 1315462 1316497 1322890 1333569 
3210.698 1346990 1361405 1375171 1386889 1395848 1401735 1404774 1405404 
3214.556 1404195 1401640 1398353 1394925 1392153 1390962 1392290 1396559 
3218.413 1403349 1411347 1418304 1421868 1420162 1412581 1400201 1385403 
3222.271 1371249 1360349 1354104 1352150 1352762 1353406 1351850 1346819 
3226.128 1338505 1328150 1317674 1308718 1302544 1299629 1299975 1303257 
3229.986 1309209 1317378 1327235 1337723 1347555 1355314 1360005 1361354 
3233.843 1360194 1358103 1357007 1358356 1362813 1369761 1377892 1385430 
3237.700 1391053 1394121 1394957 1394439 1393638 1393206 1393185 1392927 
3241.558 1391409 1387656 1381223 1372282 1361863 1351474 1342873 1337537 
3245.415 1336390 1339541 1346256 1355058 1364210 1371899 1376743 1377991 
3249.273 1375749 1370637 1363903 1356863 1350887 1346943 1345773 1347495 
3253.130 1352048 1358822 1367100 1375850 1384265 1391583 1397487 1401977 
3256.988 1405377 1408169 1410907 1413754 1416832 1419975 1422924 1425458 
3260.845 1427590 1429220 1430457 1431258 1431514 1431070 1429730 1427374 
3264.702 1423990 1419600 1414258 1407986 1400794 1392638 1383638 1373969 
3268.560 1363982 1354068 1344677 1336115 1328907 1323557 1320743 1321036 
3272.417 1324930 1332273 1342289 1353426 1363702 1371242 1374852 1374342 
3276.275 1370511 1365024 1359524 1355174 1352259 1350243 1348105 1344958 
3280.132 1340482 1335062 1329607 1324985 1321711 1319534 1317708 1315278 
3283.990 1311715 1307163 1302544 1299133 1298148 1300096 1304650 1310634 
3287.847 1316477 1320695 1322296 1320950 1317117 1311567 1305213 1298889 
3291.704 1293115 1288241 1284423 1281628 1279856 1278975 1278876 1279481 
3295.562 1280748 1282842 1285972 1290150 1295300 1300969 1306309 1310295 
3299.419 1312130 1311395 1308453 1304273 1300479 1298616 1299954 1304914 
3303.277 1313023 1322848 1332588 1340164 1343853 1342722 1336693 1326594 
3307.134 1314026 1301168 1290309 1283485 1282101 1286713 1296638 1310264 
3310.991 1325235 1338871 1348857 1353584 1352795 1347285 1338870 1329744 
3314.849 1321946 1316773 1314570 1314639 1315728 1316452 1315778 1313240 
3318.706 1309092 1303934 1298507 1293102 1287695 1281853 1275178 1267612 
3322.564 1259834 1253042 1248992 1249329 1255132 1266416 1281972 1299525 
3326.421 1316317 1329467 1336959 1337876 1332739 1323226 1312152 1302412 
3330.279 1296622 1296364 1302054 1312635 1326160 1340048 1351957 1360102 
3334.136 1363677 1362815 1358428 1351674 1343737 1335452 1327265 1319411 
3337.993 1312091 1305472 1299957 1295902 1293421 1292357 1292197 1292138 
3341.851 1291531 1289975 1287602 1284793 1282340 1280647 1279837 1279440 
3345.708 1278786 1277158 1274434 1271127 1268502 1268114 1271318 1278676 
3349.566 1289754 1303042 1316626 1328445 1337277 1342782 1345531 1346554 
3353.423 1346916 1347076 1346888 1345657 1342585 1337280 1329953 1321480 
3357.281 1312949 1305336 1299192 1294213 1289728 1284950 1279328 1272907 
3361.138 1266406 1260611 1256555 1254781 1255455 1258445 1263516 1270488 
3364.995 1279465 1290526 1303718 1318658 1334641 1350494 1365024 1377059 
3368.853 1385707 1390346 1390635 1386324 1377391 1364137 1347420 1328715 
3372.710 1310098 1293902 1282167 1275923 1274955 1277641 1281445 1283625 
3376.568 1282183 1276340 1267119 1256756 1248435 1245011 1248554 1259575 
3380.425 1277084 1298759 1321789 1343211 1360866 1373503 1380986 1383944 
3384.282 1383621 1381158 1377528 1373127 1367966 1361705 1353994 1344830 
3388.140 1334645 1324423 1315695 1310002 1308760 1312664 1321477 1333945 
3391.997 1347970 1361060 1370875 1375711 1375191 1369983 1361857 1352922 
3395.855 1345211 1339906 1337235 1336481 1336274 1335316 1332676 1328319 
3399.712 1322825 1317329 1313003 1310756 1311067 1313857 1318787 1325344 
3403.570 1332985 1341334 1350095 1358916 1367490 1375383 1382094 1387132 
3407.427 1389995 1390317 1387983 1383277 1377019 1370566 1365663 1364008 
3411.284 1366859 1374433 1385765 1398641 1410289 1417956 1419653 1414804 
3415.142 1404301 1389946 1374228 1359216 1346543 1336942 1330560 1327171 
3418.999 1326546 1328482 1332717 1338965 1346931 1356192 1366646 1378386 
3422.857 1391870 1407637 1425804 1445799 1466273 1485208 1500367 1509866 
3426.714 1512716 1508823 1498975 1484386 1466410 1446206 1424898 1403633 
3430.572 1383833 1367185 1355318 1349576 1350500 1357726 1369925 1385389 
3434.429 1402249 1419128 1435013 1449306 1461593 1471307 1477759 1480118 
3438.286 1477817 1470695 1459279 1444616 1428235 1411840 1397122 1385498 
3442.144 1378095 1375502 1377721 1384098 1393436 1404160 1414876 1424432 
3446.001 1432562 1439622 1446604 1454256 1462996 1472281 1481026 1487766 
3449.859 1491437 1491819 1489649 1486484 1484162 1484127 1487154 1493070 
3453.716 1501195 1510687 1520969 1531705 1543034 1554912 1567025 1578586 
3457.573 1588577 1595758 1599443 1599353 1596101 1590577 1584194 1578134 
3461.431 1573394 1570600 1569821 1570782 1572902 1575325 1577214 1578083 
3465.288 1578001 1577722 1578673 1582281 1589943 1601868 1617282 1634178 
3469.146 1649975 1662303 1669614 1671892 1670439 1667612 1666052 1667982 
3473.003 1674508 1685458 1699765 1715485 1730769 1744031 1754351 1761737 
3476.861 1766947 1771353 1776764 1784753 1796383 1811646 1829459 1847675 
3480.718 1863657 1875043 1880489 1880025 1875390 1869352 1865194 1865709 
3484.575 1872782 1887081 1908193 1934834 1965560 1998547 2031938 2063657 
3488.433 2091560 2113709 2128961 2137229 2140128 2140353 2141459 2146717 
3492.290 2158175 2176339 2199971 2226795 2254267 2280351 2304014 2325099 
3496.148 2343864 2360612 2375142 2386759 2394846 2399015 2399735 2398074 
3500.005 2395731 2394141 2394341 2396379 2399656 2403016 2405434 2406107 
3503.863 2404787 2401520 2396660 2390407 2383031 2374662 2365631 2356208 
3507.720 2346996 2338395 2330843 2324587 2319771 2316453 2314740 2314408 
3511.577 2315175 2316213 2316437 2314498 2309497 2301079 2289965 2277630 
3515.435 2265943 2256489 2249976 2245815 2242480 2238021 2230888 2220405 
3519.292 2207140 2192536 2178462 2166408 2157227 2150836 2146598 2143637 
3523.150 2141101 2138399 2135033 2130435 2124154 2115514 2104220 2090411 
3527.007 2074742 2058370 2042505 2028047 2015505 2004904 1995853 1988092 
3530.865 1981632 1976652 1973413 1971822 1971249 1970558 1968384 1963493 
3534.722 1955398 1944313 1931280 1917710 1905027 1894360 1886431 1881490 
3538.579 1879456 1879961 1882378 1885508 1887890 1887850 1883902 1875238 
3542.437 1862080 1845772 1828475 1812589 1800206 1792680 1790535 1793405 
3546.294 1800639 1811346 1824603 1839029 1853128 1864839 1872104 1873465 
3550.152 1868445 1858090 1845077 1832633 1824010 1821328 1824839 1832985 
3554.009 1842957 1851574 1856331 1856083 1851112 1842944 1833558 1824754 
3557.866 1817714 1812914 1810106 1808693 1807959 1807058 1805274 1801782 
3561.724 1795866 1787022 1775336 1761450 1746988 1734077 1725151 1722302 
3565.581 1726693 1738324 1755864 1776829 1798340 1817492 1832213 1841566 
3569.439 1845788 1846133 1844503 1842609 1841948 1843203 1846266 1850361 
3573.296 1854516 1857546 1858504 1856645 1851609 1843287 1831906 1818112 
3577.154 1802758 1787245 1773060 1761510 1753581 1749403 1748307 1748783 
3581.011 1749150 1747754 1743908 1737830 1730849 1724887 1721674 1722182 
3584.868 1726148 1732038 1737388 1739533 1736522 1727585 1713299 1695404 
3588.726 1676017 1657131 1639877 1624411 1610217 1596573 1583095 1569963 
3592.583 1558283 1549378 1544728 1545140 1550663 1560411 1572966 1586127 
3596.441 1597859 1606177 1609607 1607257 1599246 1586668 1571546 1556529 
3600.298 1544281 1536488 1533633 1534260 1535707 1534767 1528981 1517467 
3604.156 1501695 1485028 1471746 1465672 1468968 1481263 1500089 1521469 
3608.013 1541493 1557456 1568534 1575665 1580998 1586429 1593058 1600402 
3611.870 1606758 1609826 1607997 1600749 1589557 1577068 1566899 1562015 
3615.728 1564341 1573855 1589122 1607519 1626503 1644320 1660641 1676495 
3619.585 1693544 1713399 1736512 1761770 1787002 1809332 1826631 1838010 
3623.443 1844474 1848181 1851769 1856936 1863856 1870851 1875258 1874352 
3627.300 1867098 1854320 1839302 1826192 1819196 1820679 1830655 1846865 
3631.157 1865662 1883468 1897992 1908634 1916624 1924215 1933733 1946705 
3635.015 1963436 1982955 2003615 2023381 2040823 2055024 2066066 2074523 
3638.872 2081578 2088537 2096683 2106775 2119157 2133243 2147993 2161832 
3642.730 2173350 2181384 2185822 2187238 2187001 2186604 2187420 2190086 
3646.587 2194430 2199805 2205120 2209701 2213352 2216402 2219688 2224150 
3650.445 2230332 2238318 2247755 2257796 2267914 2277900 2287889 2298385 
3654.302 2309867 2322434 2335485 2347605 2356976 2361849 2361127 2354821 
3658.159 2344209 2331404 2318979 2308828 2301995 2298078 2295674 2292813 
3662.017 2287884 2280146 2270106 2259028 2248713 2240352 2234305 2229735 
3665.874 2225064 2218459 2208661 2195154 2178687 2160629 2142691 2126253 
3669.732 2112105 2100492 2091070 2083174 2076398 2070224 2064222 2057639 
3673.589 2049661 2038993 2024575 2005470 1981602 1953662 1923218 1892377 
3677.447 1863507 1838837 1820229 1808892 1805282 1808897 1818088 1830057 
3681.304 1841203 1847614 1845782 1833484 1810309 1778062 1740394 1702010 
3685.161 1667734 1641289 1624898 1618423 1620263 1627374 1636388 1644146 
3689.019 1648300 1647540 1641629 1631257 1618055 1603960 1591395 1582362 
3692.876 1578108 1578487 1581980 1585735 1586387 1581166 1568771 1550168 
3696.734 1528322 1507623 1492313 1485334 1487470 1497152 1511031 1525361 
3700.591 1537108 1544699 1548442 1549585 1549997 1550918 1552792 1555101 
3704.448 1557051 1557774 1556960 1554609 1550819 1545292 1537494 1526396 
3708.306 1511537 1493129 1472784 1453205 1437592 1428687 1427806 1434281 
3712.163 1445326 1457069 1465476 1467566 1462355 1451033 1436418 1422346 
3716.021 1412495 1409523 1414489 1426676 1443875 1462970 1481027 1495696 
3719.878 1505804 1511673 1514606 1516483 1518957 1522876 1527979 1532909 
3723.736 1535885 1535262 1530228 1520982 1508807 1495445 1482579 1471406 
3727.593 1462461 1455970 1452220 1451896 1456323 1466862 1484401 1508384 
3731.450 1536658 1565406 1590071 1606501 1612193 1606978 1593216 1574929 
3735.308 1556938 1543244 1536569 1537455 1544891 1556455 1569474 1581421 
3739.165 1590544 1595967 1597712 1596391 1593155 1589367 1586091 1583941 
3743.023 1582768 1581632 1579243 1574072 1565430 1553604 1539972 1526713 
3746.880 1516120 1509862 1508627 1511867 1518041 1525208 1531700 1536412 
3750.738 1539131 1540270 1540568 1540741 1541228 1542003 1542804 1542939 
3754.595 1541568 1537647 1530458 1519475 1505061 1488509 1472092 1458474 
3758.452 1450206 1448821 1454436 1465608 1479901 1494602 1507722 1518218 
3762.310 1526239 1532324 1537177 1540924 1543261 1543610 1541679 1537708 
3766.167 1532527 1526765 1520737 1513889 1505161 1493660 1479474 1464238 
3770.025 1451029 1443401 1443774 1452418 1466852 1482387 1493715 1496543 
3773.882 1489315 1473619 1453554 1434369 1420633 1415123 1418118 1427780 
3777.740 1441258 1455181 1466811 1474048 1475626 1471240 1461607 1448725 
3781.597 1435752 1426379 1424235 1431257 1447094 1468630 1490895 1508397 
3785.454 1516905 1514794 1503453 1486476 1468319 1452919 1442430 1436991 
3789.312 1435553 1436584 1438857 1441878 1445597 1449849 1454039 1457026 
3793.169 1457667 1455215 1450073 1443498 1437428 1433513 1432757 1435032 
3797.027 1439516 1445233 1451509 1458309 1466113 1475241 1485590 1496197 
3800.884 1505715 1512693 1516393 1516853 1514947 1511807 1508171 1504202 
3804.741 1499445 1493376 1485893 1477823 1470821 1466973 1467973 1474486 
3808.599 1485635 1499308 1512796 1523192 1528392 1527336 1520290 1508400 
3812.456 1493665 1478277 1464468 1453932 1447703 1445872 1447610 1451160 
3816.314 1454468 1455418 1452731 1445960 1435564 1422767 1409100 1395890 
3820.171 1384298 1375117 1368767 1365519 1365436 1368379 1373992 1381714 
3824.029 1390691 1400220 1409688 1418711 1427251 1435155 1442050 1447284 
3827.886 1449936 1449031 1444184 1435702 1424902 1413921 1405318 1401334 
3831.743 1403572 1412277 1426696 1444899 1464428 1482722 1497675 1507711 
3835.601 1512196 1511245 1505727 1497013 1486708 1476541 1467976 1462194 
3839.458 1459914 1461214 1465710 1472339 1479676 1486116 1490168 1490831 
3843.316 1487793 1481478 1473196 1464269 1456112 1449547 1444921 1442030 
3847.173 1440527 1440193 1441029 1443332 1447282 1452841 1459624 1466782 
3851.031 1473556 1479315 1483852 1487244 1489568 1490540 1489426 1485128 
3854.888 1476823 1464456 1449330 1433751 1420733 1413139 1412594 1419216 
3858.745 1431514 1446859 1462454 1475913 1485931 1492002 1494344 1493304 
3862.603 1489100 1481964 1472219 1460779 1448796 1437894 1429303 1423436 
3866.460 1419970 1417705 1415388 1412218 1408193 1404336 1402093 1402604 
3870.318 1406244 1412058 1418378 1423095 1424825 1423139 1418929 1413864 
3874.175 1409963 1408533 1409912 1413144 1416752 1418884 1418438 1415298 
3878.032 1410343 1405206 1401661 1400773 1402710 1406436 1410267 1412478 
3881.890 1412031 1409146 1405286 1402827 1404104 1410650 1422766 1438937 
3885.747 1456801 1473554 1487195 1496813 1502808 1506347 1508510 1509659 
3889.605 1509209 1505755 1498021 1485526 1469218 1451425 1435385 1424064 
3893.462 1419376 1421477 1428888 1438981 1449117 1457264 1462757 1465933 
3897.320 1468068 1470295 1473200 1476418 1478842 1479234 1476640 1471022 
3901.177 1463263 1455021 1447886 1443044 1440588 1439618 1438596 1435760 
3905.034 1429961 1420938 1409578 1397328 1385990 1376933 1371047 1368540 
3908.892 1369335 1373121 1379794 1389107 1400566 1413047 1424761 1433525 
3912.749 1437283 1434976 1427059 1415622 1403987 1395803 1393816 1399155 
3916.607 1410933 1426627 1442955 1456893 1466513 1471212 1471642 1469124 
3920.464 1465047 1460419 1455789 1451447 1447536 1444385 1442465 1442275 
3924.322 1444183 1448176 1453837 1460312 1466527 1471523 1474434 1474798 
3928.179 1472459 1467808 1461529 1454473 1447415 1440856 1434912 1429058 
3932.036 1422862 1415863 1408259 1400929 1395345 1393216 1395871 1403745 
3935.894 1416198 1431574 1447652 1462117 1473231 1479874 1481911 1479499 
3939.751 1473426 1464548 1453797 1442413 1431501 1422299 1415887 1412833 
3943.609 1413427 1417645 1425132 1435468 1448075 1462109 1476373 1488979 
3947.466 1497828 1500809 1496650 1485364 1468573 1449206 1430997 1417352 
3951.323 1410622 1411533 1419390 1432148 1447472 1462947 1476801 1487871 
3955.181 1495468 1499352 1499508 1496174 1490021 1481870 1472977 1464585 
3959.038 1457937 1453934 1453093 1455519 1460805 1468184 1476452 1484060 
3962.896 1489379 1490964 1488112 1481126 1471329 1460908 1452512 1448448 
3966.753 1450003 1457350 1469433 1484490 1500559 1515984 1529822 1541859 
3970.611 1552360 1561882 1570888 1579605 1587674 1594496 1598875 1599600 
3974.468 1595608 1586510 1573012 1556893 1540930 1528302 1521681 1522450 
3978.325 1530081 1542476 1556272 1567836 1574507 1574884 1569338 1559398 
3982.183 1547366 1535345 1525186 1517874 1514063 1513820 1517186 1523778 
3986.040 1532849 1543348 1553851 1562850 1569106 1572042 1571832 1569288 
3989.898 1565649 1562357 1560397 1560452 1562576 1566115 1570135 1573155 
3993.755 1573746 1570838 1564029 1553786 1541459 1529089 1518734 1512090 
3997.613 1509787 1511399 1515818 1521280 1526370 1530057 1532073 
##END=
