##TITLE=Tecor_PLA+_White_Filament_r1_ATR-Corrected
##JCAMP-DX=5.01  $$ Nicolet v. 1
##DATATYPE=INFRARED SPECTRUM
##ORIGIN=Curtin University
##OWNER=Nicolet
##LONGDATE=2024/07/19
##TIME=08:24:35
##SPECTROMETER/DATA SYSTEM=Nicolet iS50
##DATA PROCESSING=
Ratio against background
%Transmittance->Absorbance
ATR Correction
Truncated
ElementMultiply or ElementDivide
##COMMENTS=
Number of sample scans: 32
Collection length: 47.26 sec
Sample gain: 1.0
Background collected on: Fri Jul 19 08:23:20 2024 (GMT+08:00);
Number of background scans: 32
Background gain: 1.0
Sample spacing:  1.000
Number of scan points: 16672
Resolution points: 8192
Number of FFT points: 65536
Apodization: N-B strong;
Phase correction: Mertz;
Laser frequency: 15798.3 cm-1
Number of rejected sample scans: 0
Number of rejected background scans: 0
Bench serial number: AUP1200105;
##RESOLUTION=4.000
##XUNITS=1/CM
##YUNITS=ABSORBANCE
##FIRSTX=400.163452
##LASTX=4000.187744
##FIRSTY=0.066477
##MAXX=4000.187744
##MINX=400.163452
##MAXY=1.301197
##MINY=-0.031323
##XFACTOR=1.000000
##YFACTOR=1.000000E-008
##NPOINTS=7468
##DELTAX=0.482125
##ZPD=8192
##XYDATA=(X++(Y..Y))
400.163 6647681 6470386 6305033 6167875 6063961 5988656 5929992 5873105 
404.020 5805048 5718171 5611357 5488993 5358716 5228563 5105101 4992286 
407.877 4891733 4803417 4726676 4660441 4603388 4553181 4506270 4457826 
411.734 4402586 4336072 4255879 4162190 4057746 3946632 3833077 3720240 
415.591 3610065 3503641 3402399 3308907 3227164 3161667 3115989 3091010 
419.448 3084111 3089507 3100037 3109300 3113794 3113538 3111620 3112087 
423.305 3117833 3128754 3141492 3150452 3150074 3136878 3110897 3075569 
427.162 3036389 2998924 2967086 2942123 2922939 2907032 2891921 2876004 
431.019 2858932 2841132 2823321 2805519 2787859 2770214 2753019 2737526 
434.876 2725752 2719772 2720929 2728999 2741846 2755648 2765666 2767248 
438.733 2757056 2733825 2698976 2656515 2612595 2574328 2548407 2539437 
442.590 2548633 2573057 2606121 2638977 2662846 2671350 2662274 2637954 
446.447 2604343 2568880 2538184 2516131 2503260 2497242 2494417 2491375 
450.304 2486247 2478945 2470621 2462616 2455560 2448913 2441275 2431071 
454.161 2417357 2400184 2380689 2360549 2341500 2324802 2311181 2300834 
458.017 2293769 2289873 2289011 2290836 2294733 2299743 2304794 2308848 
461.874 2311167 2311319 2309134 2304219 2296862 2287099 2275257 2262104 
465.731 2248943 2237287 2228464 2223080 2220710 2219987 2219044 2216204 
469.588 2210573 2202282 2192314 2181922 2172037 2162800 2153562 2143188 
473.445 2130615 2115268 2097242 2077135 2055729 2033598 2011101 1988408 
477.302 1965842 1944028 1923901 1906362 1891915 1880268 1870365 1860666 
481.159 1849768 1836977 1822673 1808200 1795416 1785971 1780749 1779463 
485.016 1780905 1783232 1784628 1783679 1779655 1772403 1762223 1749657 
488.873 1735366 1720114 1704758 1690238 1677453 1667156 1659820 1655629 
492.730 1654606 1656680 1661790 1669554 1679736 1691378 1702993 1712775 
496.587 1719154 1721342 1719895 1716635 1714219 1715146 1720796 1730669 
500.444 1742387 1752358 1757065 1754316 1744180 1728998 1712668 1699269 
504.301 1691649 1690517 1694377 1700310 1705242 1707220 1706186 1703873 
508.158 1702987 1705971 1713836 1725592 1738426 1748605 1752708 1748744 
512.015 1736803 1718891 1698305 1678525 1662348 1651180 1645021 1642793 
515.871 1642975 1644166 1645467 1646523 1647370 1648129 1648819 1649228 
519.728 1648979 1647687 1645076 1640980 1635383 1628273 1619689 1609723 
523.585 1598642 1586988 1575567 1565102 1556478 1549959 1545158 1541100 
527.442 1536557 1530467 1522368 1512597 1502244 1492745 1485459 1481211 
531.299 1480120 1481636 1484838 1488717 1492400 1495131 1496207 1494846 
535.156 1490293 1482022 1470206 1455949 1441377 1429176 1421970 1421377 
539.013 1427447 1438496 1451555 1463271 1470944 1473298 1470713 1464821 
542.870 1457739 1451099 1445442 1440083 1433479 1423998 1410724 1393969 
546.727 1375413 1357722 1343886 1336392 1336586 1344286 1357813 1374358 
550.584 1390626 1403578 1411094 1412409 1408285 1400706 1392362 1385869 
554.441 1383175 1385073 1391148 1399957 1409819 1419151 1427004 1433222 
558.298 1438393 1443466 1449399 1456789 1465726 1475815 1486423 1496904 
562.155 1506899 1516427 1525909 1535858 1546680 1558262 1569830 1579980 
566.012 1587026 1589491 1586722 1579261 1568893 1558257 1550063 1546257 
569.869 1547419 1552585 1559692 1566411 1571085 1573375 1574377 1576148 
573.725 1580876 1589978 1603599 1620556 1638815 1656238 1671282 1683299 
577.582 1692517 1699646 1705446 1710381 1714632 1718245 1721422 1724676 
581.439 1728762 1734391 1741916 1751029 1760789 1769819 1776787 1780832 
585.296 1781936 1780995 1779686 1779997 1783815 1792312 1805612 1822582 
589.153 1840998 1857902 1870367 1876143 1874341 1865700 1852507 1837969 
593.010 1825453 1817670 1816135 1820999 1831404 1845905 1863044 1881622 
596.867 1900765 1919713 1937645 1953525 1966334 1975215 1979966 1981097 
600.724 1979883 1978005 1977161 1978634 1983092 1990508 2000358 2011775 
604.581 2023801 2035510 2046177 2055341 2062963 2069420 2075563 2082476 
608.438 2091257 2102684 2117041 2134068 2153201 2173854 2195723 2218862 
612.295 2243538 2269892 2297570 2325565 2352383 2376469 2396842 2413519 
616.152 2427755 2441724 2457948 2478484 2504332 2535103 2569161 2604018 
620.009 2637045 2666020 2689628 2707619 2720746 2730516 2738913 2748007 
623.866 2759720 2775536 2796412 2822582 2853602 2888330 2925122 2962017 
627.723 2997002 3028383 3055040 3076661 3093859 3108028 3121054 3134816 
631.579 3150696 3169229 3189965 3211725 3233032 3252669 3270090 3285601 
635.436 3300123 3314783 3330402 3347176 3364595 3381721 3397608 3411670 
639.293 3423962 3435085 3445936 3457326 3469715 3483092 3497148 3511477 
643.150 3525951 3540792 3556608 3574177 3594116 3616599 3641143 3666610 
647.007 3691429 3713994 3733087 3748341 3760428 3770993 3782311 3796617 
650.864 3815502 3839400 3867444 3897744 3927983 3956129 3981036 4002679 
654.721 4022006 4040430 4059228 4079054 4099792 4120687 4140750 4159169 
658.578 4175627 4190394 4204221 4218134 4233185 4250322 4270237 4293245 
662.435 4319195 4347375 4376501 4404935 4431009 4453423 4471673 4486142 
666.292 4497975 4508662 4519582 4531583 4544844 4559040 4573722 4588588 
670.149 4603686 4619374 4636033 4653834 4672619 4691922 4711227 4730190 
674.006 4748782 4767224 4785805 4804679 4823750 4842756 4861500 4880045 
677.863 4898754 4918203 4938850 4960801 4983584 5006353 5028158 5048308 
681.720 5066612 5083333 5098972 5113965 5128428 5142177 5154966 5166822 
685.577 5178264 5190284 5204053 5220463 5239736 5261256 5283750 5305747 
689.433 5326065 5344157 5360201 5374901 5389106 5403514 5418478 5434054 
693.290 5450134 5466697 5483812 5501688 5520540 5540484 5561503 5583504 
697.147 5606331 5629804 5653657 5677452 5700474 5721805 5740443 5755571 
701.004 5766782 5774187 5778302 5779833 5779390 5777299 5773638 5768361 
704.861 5761553 5753563 5744988 5736407 5728049 5719515 5709705 5696981 
708.718 5679635 5656349 5626606 5590894 5550464 5507079 5462520 5418197 
712.575 5374859 5332509 5290470 5247510 5202084 5152555 5097385 5035384 
716.432 4965830 4888580 4804040 4713087 4616853 4516566 4413402 4308378 
720.289 4202397 4096324 3991060 3887658 3787256 3691073 3600271 3515854 
724.146 3438627 3369160 3307854 3255033 3211081 3176454 3151735 3137531 
728.003 3134356 3142488 3161892 3192234 3233002 3283710 3344138 3414436 
731.860 3495148 3586999 3690521 3805704 3931739 4066872 4208683 4354390 
735.717 4501358 4647482 4791338 4932153 5069451 5202761 5331365 5454165 
739.574 5569959 5677730 5777065 5868439 5953254 6033620 6111954 6190506 
743.431 6270971 6354304 6440761 6530173 6622226 6716843 6814322 6915267 
747.287 7020426 7130366 7245219 7364539 7487334 7612324 7738180 7863859 
751.144 7988632 8112013 8233402 8351717 8464954 8570062 8663038 8739331 
755.001 8794505 8824962 8828510 8804680 8754696 8681118 8587179 8476197 
758.858 8351033 8213870 8066225 7909210 7743897 7571544 7393713 7212225 
762.715 7028945 6845592 6663707 6484609 6309568 6139849 5976738 5821353 
766.572 5674408 5535970 5405342 5281166 5161787 5045666 4931786 4819904 
770.429 4710465 4604383 4502611 4405786 4314081 4227096 4144062 4064035 
774.286 3986092 3909450 3833492 3757795 3682088 3606315 3530716 3455823 
778.143 3382432 3311458 3243687 3179526 3118816 3060784 3004147 2947365 
782.000 2888976 2827902 2763691 2696658 2627788 2558515 2490413 2424786 
785.857 2362388 2303253 2246798 2192098 2138301 2085039 2032580 1981804 
789.714 1933828 1889551 1849196 1812208 1777352 1743218 1708832 1674058 
793.571 1639803 1607742 1579777 1557350 1540968 1529922 1522572 1516703 
797.428 1510151 1501261 1489195 1473942 1456266 1437397 1418878 1402263 
801.285 1388968 1380007 1375798 1375986 1379609 1385097 1390619 1394483 
805.141 1395435 1392882 1386873 1377980 1367084 1355200 1343394 1332696 
808.998 1324128 1318615 1316876 1319221 1325454 1334780 1345999 1357670 
812.855 1368492 1377480 1384131 1388411 1390589 1391086 1390335 1388678 
816.712 1386423 1383874 1381380 1379374 1378328 1378706 1380878 1385066 
820.569 1391260 1399144 1408151 1417416 1425939 1432755 1437173 1438972 
824.426 1438531 1436766 1434976 1434490 1436373 1441212 1448998 1459222 
828.283 1471095 1483742 1496441 1508667 1520124 1530675 1540314 1549128 
832.140 1557346 1565381 1573794 1583349 1594908 1609253 1627014 1648593 
835.997 1674142 1703655 1737075 1774387 1815670 1861133 1911017 1965521 
839.854 2024645 2088189 2155682 2226517 2300054 2375688 2452979 2531563 
843.711 2611026 2690757 2769808 2846803 2920078 2987868 3048606 3101183 
847.568 3145173 3180901 3209423 3232457 3252330 3271882 3294380 3323363 
851.425 3362405 3414824 3483349 3569933 3675677 3800942 3945610 4109293 
855.282 4291524 4491668 4708720 4941060 5186205 5440867 5701182 5963187 
859.139 6223295 6478682 6727347 6968015 7199691 7421367 7631699 7828992 
862.995 8011441 8177435 8325990 8456904 8570760 8668765 8752281 8822402 
866.852 8879671 8923867 8954105 8969060 8967300 8947565 8909051 8851320 
870.709 8774372 8678429 8563823 8430950 8280335 8112678 7929057 7730903 
874.566 7520026 7298571 7068851 6833294 6594328 6354295 6115409 5879615 
878.423 5648523 5423402 5205143 4994525 4792287 4599467 4417414 4247820 
882.280 4092512 3953100 3830793 3726109 3638827 3568159 3512898 3471650 
886.137 3443020 3425613 3418127 3419226 3427621 3442018 3461203 3484059 
889.994 3509537 3536634 3564329 3591626 3617623 3641615 3663178 3682152 
893.851 3698569 3712472 3723769 3732205 3737531 3739682 3739019 3736366 
897.708 3732878 3729738 3727785 3727330 3728157 3729830 3732055 3735058 
901.565 3739561 3746658 3757312 3771963 3790368 3811648 3834704 3858666 
905.422 3883144 3908257 3934286 3961219 3988483 4014875 4038888 4059228 
909.279 4075257 4087131 4095656 4101826 4106329 4109254 4110147 4108331 
913.136 4103347 4095231 4084476 4071814 4057711 4042124 4024477 4003925 
916.993 3979839 3952208 3921786 3889875 3857925 3827008 3797605 3769625 
920.849 3742657 3716404 3690874 3666437 3643526 3622320 3602505 3583275 
924.706 3563603 3542673 3520243 3496789 3473428 3451455 3431945 3415379 
928.563 3401598 3389932 3379489 3369524 3359563 3349472 3339406 3329583 
932.420 3320190 3311356 3303105 3295399 3288128 3281143 3274228 3267188 
936.277 3259967 3252771 3246228 3241380 3239533 3242053 3250006 3263899 
940.134 3283482 3307799 3335379 3364541 3393810 3422239 3449666 3476701 
943.991 3504610 3534972 3569307 3608640 3653266 3702626 3755565 3810609 
947.848 3866531 3922722 3979406 4037603 4098779 4164402 4235409 4311907 
951.705 4393000 4476924 4561382 4643839 4721909 4793513 4856996 4911113 
955.562 4955069 4988432 5011184 5023710 5026681 5021039 5007883 4988307 
959.419 4963442 4934400 4902427 4868912 4835429 4803595 4774930 4750500 
963.276 4730751 4715284 4702934 4691876 4680015 4665337 4646264 4621835 
967.133 4591780 4556358 4516152 4471815 4423865 4372591 4318154 4260672 
970.990 4200525 4138384 4075308 4012637 3951727 3893774 3839592 3789485 
974.847 3743403 3701034 3662132 3626647 3594857 3567248 3544426 3526814 
978.703 3514576 3507477 3505030 3506607 3511649 3519839 3531041 3545316 
982.560 3562721 3583212 3606590 3632553 3660807 3691226 3723909 3759158 
986.417 3797355 3838752 3883390 3931079 3981329 4033697 4087904 4143887 
990.274 4201811 4261811 4323845 4387480 4451839 4515819 4578323 4638595 
994.131 4696447 4752290 4807037 4861847 4917834 4975891 5036612 5100294 
997.988 5167128 5237166 5310476 5387029 5466779 5549591 5635392 5724203 
1001.845 5816383 5912581 6013757 6121058 6235567 6358189 6489566 6630059 
1005.702 6779841 6939023 7107714 7286072 7474182 7672079 7879673 8096833 
1009.559 8323533 8559991 8806879 9065280 9336630 9622465 9924208 10242778 
1013.416 10578567 10931267 11300118 11684078 12082106 12493344 12917180 
1016.791 13353172 13800822 14259335 14727463 15203378 15684706 16168727 
1020.166 16652690 17133888 17609954 18078898 18539214 18989886 19430574 
1023.540 19861568 20283872 20699108 21109370 21517042 21924732 22335184 
1026.916 22751456 23177014 23615796 24072156 24550564 25055200 25589580 
1030.291 26156292 26756946 27392316 28062538 28767166 29505100 30274198 
1033.666 31070990 31890446 32726106 33570496 34415840 35254584 36079688 
1037.041 36884412 37661888 38404568 39104116 39751788 40339236 40859556 
1040.417 41307952 41681964 41980948 42205108 42354716 42429636 42429404 
1043.792 42353940 42204400 41983816 41697384 41352216 40956752 40520000 
1047.167 40051000 39558260 39049596 38531912 38011136 37492172 36978804 
1050.542 36473800 35979232 35496616 35027320 34572704 34134204 33713144 
1053.917 33310592 32927188 32563124 32218292 31892704 31587082 31303206 
1057.293 31044356 30815408 30622732 30473796 30376760 30339920 30371224 
1060.668 30477924 30666274 30941438 31307364 31766862 32321674 32972464 
1064.043 33718888 34559660 35492532 36514432 37621520 38809368 40073112 
1067.418 41407496 42806976 44265800 45778012 47337852 48939940 50579680 
1070.794 52253388 53958188 55691616 57451124 59233312 61033840 62847376 
1074.169 64668036 66489856 68307064 70113768 71903496 73668352 75398328 
1077.544 77081192 78702944 80248832 81704232 83055600 84291016 85400376 
1080.919 86375280 87209232 87897512 88436936 88825512 89061752 89144200 
1084.295 89071168 88841648 88456464 87919864 87240616 86432400 85512896 
1087.670 84502008 83419848 82284864 81112568 79915168 78701752 77478744 
1091.045 76250720 75020992 73792200 72566648 71346424 70133600 68929952 
1094.420 67736784 66554784 65383984 64223804 63073540 61932552 60800636 
1097.796 59678096 58565588 57463908 56373608 55294864 54227548 53171380 
1101.171 52126252 51092512 50071160 49063748 48072364 47099300 46146916 
1104.546 45217444 44313056 43435792 42587788 41771360 40989180 40244336 
1107.921 39540252 38880500 38268548 37707384 37199144 36745004 36345084 
1111.297 35998520 35703840 35459088 35261972 35110028 35000484 34930392 
1114.672 34896604 34896076 34926112 34984772 35071128 35185260 35328164 
1118.047 35501356 35706432 35944792 36217324 36524356 36865688 37240548 
1121.422 37647440 38083916 38546212 39028940 39524904 40025212 40519552 
1124.798 40996640 41444808 41852380 42208288 42502336 42725736 42871524 
1128.173 42935056 42914324 42810080 42625584 42365976 42037292 41645520 
1131.548 41195740 40691548 40134840 39526148 38865104 38151152 37384216 
1134.923 36565192 35696264 34780960 33824040 32831248 31809032 30764216 
1138.299 29703770 28634548 27563054 26495382 25437068 24393192 23368468 
1141.674 22367378 21394346 20453920 19550556 18688512 17871586 17102758 
1145.049 16383971 15716013 15098540 14530297 14009371 13533588 13100660 
1148.424 12708391 12354653 12037322 11754221 11503065 11281608 11087749 
1151.800 10919707 10776146 10656139 10559045 10484250 10430919 10397889 
1155.175 10383735 10386963 10406293 10440973 10490927 10556696 10639331 
1158.550 10740104 10860270 11001029 11163476 11348800 11558390 11793954 
1161.925 12057622 12351746 12678987 13042185 13444415 13889058 14380065 
1165.301 14921993 15520105 16180369 16909328 17713886 18601244 19578702 
1168.676 20653684 21833632 23126028 24538214 26077202 27749338 29559800 
1172.051 31512102 33607524 35844440 38217788 40718244 43331324 46036644 
1175.426 48807056 51608120 54398288 57129620 59749680 62204044 64439504 
1178.802 66407300 68066344 69385880 70347616 70946952 71193104 71107992 
1182.177 70723720 70079176 69216264 68176600 66999144 65718764 64365952 
1185.552 62966840 61543548 60114456 58694796 57296868 55930780 54604952 
1188.927 53326600 52102012 50936252 49832852 48793392 47817324 46902292 
1192.302 46044736 45240860 44487496 43782704 43125708 42516600 41955508 
1195.678 41442116 40975040 40551904 40169552 39824556 39513584 39233836 
1199.053 38983000 38759292 38561220 38387372 38236328 38106348 37995448 
1202.428 37901180 37820628 37750508 37687196 37627084 37566644 37502576 
1205.803 37431708 37350984 37257212 37147092 37017240 36864480 36686112 
1209.179 36480212 36245628 35981984 35689352 35368116 35018784 34642092 
1212.554 34239008 33810960 33359792 32887768 32397306 31890944 31371120 
1215.929 30840284 30300862 29755330 29206174 28655776 28106270 27559510 
1219.304 27017062 26480344 25950736 25429630 24918366 24418064 23929412 
1222.680 23452546 22987138 22532614 22088442 21654496 21231052 20818806 
1226.055 20418512 20030766 19655650 19292902 18941960 18602300 18273638 
1229.430 17956140 17650210 17356334 17074806 16805556 16548142 16301961 
1232.805 16066426 15841281 15626602 15422755 15230154 15049084 14879486 
1236.181 14720848 14572376 14433020 14301641 14177166 14058544 13944814 
1239.556 13835078 13728663 13625056 13524061 13425826 13330697 13239114 
1242.931 13151526 13068223 12989397 12915188 12845823 12781648 12723106 
1246.306 12670650 12624584 12584952 12551554 12523988 12501878 12485014 
1249.682 12473438 12467325 12466951 12472376 12483481 12499870 12521008 
1253.057 12546511 12576230 12610337 12649240 12693366 12743033 12798187 
1256.432 12858526 12923545 12992750 13065740 13142239 13221978 13304548 
1259.807 13389155 13474615 13559419 13641939 13720712 13794632 13863024 
1263.183 13925593 13982169 14032561 14076273 14112587 14140481 14158955 
1266.558 14167067 14164081 14149514 14123064 14084530 14033751 13970481 
1269.933 13894512 13805574 13703480 13588126 13459483 13317725 13163203 
1273.308 12996380 12817991 12628856 12429855 12221825 12005493 11781424 
1276.684 11550126 11312117 11068112 10819113 10566410 10311560 10056210 
1280.059 9801942 9550200 9302139 9058725 8820758 8588992 8364242 8147439 
1283.916 7939712 7742361 7556870 7384710 7227350 7086026 6961599 6854597 
1287.774 6765131 6693094 6638237 6600383 6579461 6575436 6588141 6617091 
1291.631 6661248 6718901 6787720 6864950 6947690 7033180 7119030 7203397 
1295.489 7284894 7362562 7435687 7503712 7566201 7622836 7673470 7718204 
1299.346 7757392 7791604 7821520 7847821 7871016 7891406 7909015 7923704 
1303.203 7935241 7943514 7948570 7950743 7950527 7948497 7945148 7940696 
1307.061 7935094 7928082 7919296 7908546 7895843 7881501 7865954 7849648 
1310.918 7832829 7815556 7797716 7779291 7760447 7741747 7724026 7708221 
1314.776 7695056 7684804 7677182 7671492 7666843 7662549 7658335 7654469 
1318.633 7651631 7650652 7652233 7656689 7663886 7673378 7684503 7696631 
1322.490 7709300 7722249 7735482 7749136 7763552 7779187 7796640 7816601 
1326.348 7839828 7867048 7898897 7935859 7978322 8026596 8080886 8141370 
1330.205 8208097 8280897 8359355 8442815 8530532 8621902 8716537 8814501 
1334.063 8916158 9022039 9132554 9247887 9367780 9491704 9619013 9749151 
1337.920 9881863 10017318 10155972 10298567 10445873 10598641 10757425 
1341.295 10922644 11094405 11272638 11457042 11647271 11843032 12044296 
1344.671 12251423 12465164 12686436 12916063 13154462 13401382 13655795 
1348.046 13916141 14180554 14447275 14714757 14981811 15247370 15510240 
1351.421 15768866 16021213 16264850 16497131 16715445 16917444 17101174 
1354.796 17265058 17407950 17529100 17628128 17705106 17760560 17795442 
1358.172 17811078 17809068 17791106 17758934 17714330 17659038 17594856 
1361.547 17523760 17447752 17368882 17289006 17209556 17131260 17053920 
1364.922 16976262 16896086 16810312 16715443 16607873 16484328 16342166 
1368.297 16179699 15996344 15792906 15571769 15337172 15095396 14854984 
1371.673 14626493 14422111 14254925 14137925 14082763 14098695 14191568 
1375.048 14363170 14611040 14928617 15305673 15728943 16182935 16650756 
1378.423 17114984 17558678 17966182 18323960 18620946 18848812 19001784 
1381.798 19076496 19071614 18987590 18826478 18591720 18287980 17921196 
1385.174 17498388 17027640 16517837 15978241 15417932 14845012 14266148 
1388.549 13686240 13108476 12534793 11966424 11404455 10850204 10305382 
1391.924 9772072 9252653 8749659 8265815 7803850 7366515 6956311 6575237 
1395.781 6224496 5904329 5613971 5351976 5116410 4905196 4716409 4548317 
1399.639 4399334 4267890 4152213 4050330 3960067 3879256 3805864 3738335 
1403.496 3675538 3616876 3562109 3511206 3464196 3421057 3381713 3346041 
1407.354 3313994 3285525 3260633 3239243 3221174 3206105 3193569 3183055 
1411.211 3174067 3166275 3159464 3153564 3148642 3144797 3142136 3140780 
1415.069 3140770 3142156 3144846 3148698 3153456 3158904 3164899 3171537 
1418.926 3179115 3188143 3199165 3212634 3228749 3247399 3268331 3291260 
1422.783 3316113 3343056 3372523 3405029 3441006 3480717 3524183 3571432 
1426.641 3622574 3678035 3738524 3804911 3877994 3958264 4045811 4140388 
1430.498 4241730 4349743 4464818 4587860 4720293 4863887 5020553 5192308 
1434.356 5381278 5589783 5820401 6075968 6359520 6674135 7022831 7408382 
1438.213 7833248 8299523 8808661 9361298 9956933 10593683 11268121 11975300 
1442.071 12708870 13461231 14223780 14987279 15742131 16478880 17188694 
1445.446 17863732 18497496 19084800 19621674 20105374 20534294 20908036 
1448.821 21227346 21493986 21710176 21878160 21999686 22075898 22107350 
1452.196 22094520 22038036 21938878 21798078 21616390 21393792 21129488 
1455.572 20822094 20470388 20073944 19633708 19152060 18632608 18079822 
1458.947 17498536 16893930 16271327 15636107 14993556 14348458 13704836 
1462.322 13065855 12434013 11811580 11201087 10605615 10028657 9473775 
1465.697 8944074 8441801 7968186 7523607 7107977 6720967 6362154 6031022 
1469.555 5726675 5447792 5192528 4958671 4743964 4546182 4363450 4194184 
1473.412 4037109 3891153 3755512 3629636 3513249 3406319 3308913 3220989 
1477.270 3142162 3071613 3008136 2950292 2896750 2846514 2799073 2754323 
1481.127 2712535 2674028 2638999 2607449 2579199 2553893 2531200 2510775 
1484.984 2492349 2475567 2460027 2445191 2430411 2415128 2398907 2381641 
1488.842 2363570 2345237 2327373 2310669 2295626 2282364 2270646 2259921 
1492.699 2249555 2238983 2227878 2216235 2204331 2192544 2181304 2170838 
1496.557 2161228 2152341 2143993 2135984 2128222 2120717 2113593 2106998 
1500.414 2101072 2095913 2091573 2088037 2085253 2083053 2081238 2079503 
1504.271 2077551 2075052 2071856 2067911 2063401 2058550 2053679 2049063 
1508.129 2044826 2040972 2037421 2034047 2030723 2027355 2023954 2020551 
1511.986 2017228 2014068 2011117 2008325 2005505 2002342 1998468 1993530 
1515.844 1987424 1980315 1972814 1965744 1960038 1956365 1954881 1955155 
1519.701 1956252 1956982 1956310 1953655 1949096 1943206 1936866 1930890 
1523.559 1925691 1921289 1917347 1913423 1909268 1904948 1900845 1897556 
1527.416 1895599 1895249 1896410 1898603 1901068 1902940 1903441 1901985 
1531.273 1898308 1892556 1885286 1877353 1869903 1863979 1860436 1859561 
1535.131 1861118 1864361 1868259 1871815 1874329 1875551 1875620 1874976 
1538.988 1874085 1873251 1872536 1871800 1870779 1869263 1867221 1864679 
1542.846 1861777 1858558 1854994 1850908 1846098 1840364 1833554 1825666 
1546.703 1816762 1807054 1796856 1786663 1777088 1768804 1762428 1758306 
1550.561 1756406 1756224 1756912 1757469 1757033 1755133 1751748 1747346 
1554.418 1742619 1738238 1734642 1731943 1729945 1728232 1726396 1724008 
1558.275 1720818 1716620 1711328 1704967 1697691 1689918 1682274 1675527 
1562.133 1670532 1667922 1668034 1670768 1675644 1681893 1688673 1695293 
1565.990 1701252 1706416 1710828 1714704 1718306 1721824 1725360 1728850 
1569.848 1732150 1735020 1737256 1738756 1739631 1740213 1741056 1742735 
1573.705 1745799 1750400 1756338 1762958 1769370 1774584 1777893 1778952 
1577.563 1777865 1775076 1771126 1766519 1761618 1756544 1751401 1746251 
1581.420 1741274 1736736 1732985 1730340 1729065 1729290 1731006 1734139 
1585.277 1738513 1743789 1749532 1755197 1760171 1763916 1766136 1766856 
1589.135 1766453 1765594 1765054 1765509 1767336 1770582 1774961 1779970 
1592.992 1785150 1790063 1794523 1798541 1802307 1806107 1810289 1815147 
1596.850 1820915 1827626 1835108 1843008 1850794 1857948 1864122 1869275 
1600.707 1873739 1878184 1883346 1889836 1897902 1907300 1917425 1927437 
1604.564 1936587 1944436 1950917 1956379 1961324 1966326 1971841 1978144 
1608.422 1985381 1993589 2002785 2012887 2023765 2035113 2046539 2057572 
1612.279 2067888 2077323 2086066 2094479 2103024 2112082 2121731 2131706 
1616.137 2141561 2150660 2158534 2164953 2169944 2173788 2176853 2179461 
1619.994 2181903 2184408 2187169 2190418 2194435 2199441 2205503 2212447 
1623.852 2219894 2227201 2233736 2238868 2242262 2243784 2243625 2242080 
1627.709 2239611 2236633 2233535 2230609 2228132 2226250 2225068 2224639 
1631.566 2224950 2225954 2227566 2229664 2232171 2234936 2237798 2240543 
1635.424 2242994 2244925 2246281 2247054 2247419 2247616 2247869 2248329 
1639.281 2248962 2249578 2249847 2249454 2248190 2245976 2242998 2239460 
1643.139 2235635 2231616 2227370 2222728 2217554 2211906 2206102 2200818 
1646.996 2196921 2195245 2196338 2200264 2206559 2214244 2222187 2229222 
1650.854 2234483 2237501 2238307 2237288 2235122 2232564 2230350 2229117 
1654.711 2229280 2231146 2234812 2240207 2247128 2255248 2264184 2273636 
1658.568 2283350 2293195 2303159 2313199 2323319 2333384 2343284 2352901 
1662.426 2362216 2371293 2380308 2389442 2398873 2408692 2418997 2429914 
1666.283 2441614 2454248 2467943 2482597 2497838 2513018 2527446 2540620 
1670.141 2552490 2563490 2574550 2586730 2600865 2617177 2635317 2654305 
1673.998 2673026 2690570 2706590 2721268 2735304 2749478 2764308 2779992 
1677.855 2796363 2813158 2830294 2848022 2866887 2887469 2910102 2934569 
1681.713 2960183 2985900 3010781 3034324 3056716 3078797 3101739 3126635 
1685.570 3154101 3184124 3216120 3249274 3282859 3316575 3350566 3385288 
1689.428 3421346 3459068 3498549 3539472 3581429 3624090 3667412 3711709 
1693.285 3757585 3805665 3856482 3910179 3966528 4025087 4085380 4147223 
1697.143 4210889 4276998 4346651 4420953 4500910 4587066 4679565 4778072 
1701.000 4882043 4990895 5104224 5221951 5344233 5471478 5604081 5742490 
1704.857 5887082 6038223 6196436 6362265 6536548 6720124 6913927 7118670 
1708.715 7334827 7562458 7801230 8050431 8309307 8577094 8853373 9138235 
1712.572 9432253 9736394 10051686 10378958 10718445 11069744 11431799 
1715.948 11803176 12182306 12567890 12958939 13354948 13755669 14161144 
1719.323 14571610 14987530 15409853 15839921 16279767 16731928 17199370 
1722.698 17685418 18193610 18727744 19291862 19890198 20527030 21206668 
1726.073 21933266 22710832 23543412 24435328 25391338 26416596 27516652 
1729.448 28697168 29963898 31322992 32781500 34347984 36032948 37848216 
1732.824 39805976 41916680 44187532 46621436 49217664 51973760 54888032 
1736.199 57961612 61198520 64603872 68180480 71924792 75824128 79855624 
1739.574 83987640 88182544 92399392 96595504 100726344 104744504 108599912 
1742.949 112241456 115620640 118695496 121433624 123812208 125816568 
1745.843 127438024 128673080 129524096 130000720 130119728 129903624 
1748.736 129376544 128560864 127475224 126135648 124558296 122762512 
1751.629 120771968 118613016 116311272 113888272 111359384 108734712 
1754.522 106021608 103228032 100364872 97446944 94491888 91518760 88545936 
1757.897 85590208 82666352 79787328 76964368 74207376 71524712 68923336 
1761.272 66409052 63986928 61661524 59436800 57315628 55299236 53386448 
1764.647 51573860 49856100 48227036 46680760 45212496 43818660 42496456 
1768.023 41242952 40054368 38925552 37850252 36821812 35833984 34881468 
1771.398 33960240 33067072 32199136 31353286 30525846 29712612 28909364 
1774.773 28112280 27318600 26526660 25735932 24946708 24159568 23375050 
1778.148 22593356 21814386 21038028 20264434 19494526 18730226 17974352 
1781.524 17230382 16502023 15792438 15104178 14438741 13796920 13178945 
1784.899 12585065 12015688 11471592 10953707 10462985 9999986 9564757 
1788.274 9156691 8774779 8417732 8084468 7773991 7485676 7218886 6972696 
1792.132 6745594 6535500 6339890 6156299 5982792 5818379 5663050 5517579 
1795.989 5382889 5259461 5146925 5043883 4948211 4857642 4770247 4684882 
1799.846 4601236 4519570 4440436 4364250 4291278 4221626 4155533 4093510 
1803.704 4036223 3984413 3938308 3897549 3860823 3826389 3792292 3757068 
1807.561 3719981 3681204 3641447 3601652 3562383 3523741 3485247 3446239 
1811.419 3406070 3364459 3321477 3277557 3233107 3188565 3144274 3100787 
1815.276 3058951 3020191 2986167 2958571 2938412 2925709 2919046 2915994 
1819.134 2913515 2908820 2899975 2886334 2868301 2847266 2824675 2801708 
1822.991 2778786 2755546 2730906 2703489 2672034 2635860 2595090 2550907 
1826.848 2505252 2460642 2419474 2383661 2353938 2329921 2310036 2292293 
1830.706 2274644 2255810 2235366 2213868 2192228 2171456 2151945 2133615 
1834.563 2115791 2097812 2079172 2059803 2039847 2019468 1998415 1976021 
1838.421 1951312 1923577 1892829 1860148 1827558 1797510 1772141 1752611 
1842.278 1738709 1729025 1721427 1714013 1705460 1695668 1685303 1675608 
1846.135 1667814 1662702 1660506 1660971 1663292 1666440 1668770 1668404 
1849.993 1663007 1650509 1629489 1600084 1564162 1525472 1488789 1458812 
1853.850 1438898 1430141 1431069 1438124 1446642 1452322 1452085 1444875 
1857.708 1431466 1414135 1395665 1378850 1365634 1357131 1353327 1353420 
1861.565 1355822 1358701 1360214 1359003 1354238 1346274 1336096 1325518 
1865.423 1316293 1309973 1307314 1308399 1312460 1318453 1325067 1331092 
1869.280 1335414 1336999 1334900 1328370 1316941 1300807 1280861 1258888 
1873.137 1237198 1218440 1204989 1198580 1199733 1207950 1221383 1237647 
1876.995 1253948 1267865 1277709 1282886 1283626 1280850 1275301 1267351 
1880.852 1256385 1241372 1221169 1195595 1165807 1134547 1105542 1082548 
1884.710 1067975 1062174 1063230 1067852 1072399 1074397 1073169 1069913 
1888.567 1066624 1065140 1065811 1067485 1067700 1064228 1055954 1044097 
1892.425 1031574 1022375 1019929 1025856 1038988 1055994 1072109 1082825 
1896.282 1084953 1077766 1062699 1042997 1022628 1005533 994674 991856 
1900.139 997467 1010724 1029672 1051581 1073195 1091171 1102322 1104481 
1903.997 1096552 1079190 1054566 1026365 998894 976537 962427 957939 961884 
1908.336 970871 980076 984702 981198 968792 949432 927756 909129 898438 
1912.676 898113 907798 924445 943431 960191 971558 976182 974526 967653 
1917.016 956460 940693 919010 889458 850786 803271 749700 695052 645922 
1921.355 608825 588872 587923 603887 630525 658702 677980 679641 658445 
1925.695 614706 554128 486712 423861 375709 348169 341994 352721 373131 
1930.034 395239 413238 424548 430057 432758 436515 443950 456317 472976 
1934.374 492522 513108 533316 551762 567387 578370 583083 579737 567874 
1938.714 547990 522327 493944 466403 442322 423878 411888 407347 411083 
1943.053 424377 448270 483038 526569 574660 620672 657809 680151 684995 
1947.393 673301 650006 621686 595155 574420 560358 549862 538452 521404 
1951.732 496968 465723 431588 398685 370348 346603 325064 301660 273856 
1956.072 241895 211256 190419 189601 215776 270824 348951 438463 523958 
1960.412 591965 632702 643327 626059 587696 536059 480169 427905 386917 
1964.751 362461 357462 369356 391269 411798 419293 405299 370038 321771 
1969.091 276382 250449 255971 294763 358593 431326 497833 548314 584436 
1973.430 615723 657086 719353 806341 911595 1022727 1126307 1215061 1288506 
1977.770 1353421 1416704 1482138 1545403 1597645 1627676 1628005 1596164 
1981.627 1536276 1455981 1365096 1270836 1178292 1088227 999197 907684 
1985.485 810632 705336 592027 473164 356167 251683 173787 135119 144850 
1989.824 203435 301809 421552 540568 637433 698745 720861 711381 684690 
1994.164 658102 645136 653651 683053 727278 775977 819411 849251 861356 
1998.504 854589 831930 797638 757682 716368 676663 638228 598889 554648 
2002.843 503774 446547 388149 335616 296598 274272 266572 263783 253577 
2007.183 223756 169501 94017 8625 -73079 -138548 -182017 -202752 -204981 
2011.522 -192137 -166723 -128095 -77031 -17829 37127 71042 65006 7853 -99567 
2016.344 -239093 -379948 -485402 -525566 -484983 -369848 -204115 -23291 
2020.202 137979 254437 317524 333419 320506 298800 284748 284433 294875 
2024.541 305668 306306 289652 257151 217007 183484 170470 188103 238385 
2028.881 315491 405723 493541 563051 603953 611374 588326 542615 486882 
2033.220 433921 397012 384766 402056 446557 511844 586398 658404 716989 
2037.560 756322 774993 777364 769097 756404 741689 724550 701156 667766 
2041.900 621911 565025 500667 434510 371608 316646 273434 247856 247914 
2046.239 284822 369151 506888 693109 909920 1126386 1306924 1420293 1450013 
2050.579 1398128 1284992 1141477 1001646 893265 833501 824399 854853 903119 
2054.918 944510 957555 930690 863458 766484 656557 552539 469307 415660 
2059.258 392181 393424 409561 431361 451701 468003 480662 492002 503857 
2063.598 516730 529274 540428 549861 560002 574743 598626 634044 680216 
2067.937 732147 782811 824498 852290 864633 864190 855906 845858 838835 
2072.277 838393 846061 862873 888459 921917 960293 998752 1029906 1046372 
2076.616 1041743 1013995 965981 905854 844829 794782 764686 759665 779196 
2080.956 818858 870783 926098 975894 1012444 1029935 1025865 1000801 959367 
2085.296 908672 857437 813147 780811 760877 750437 743878 735915 722792 
2089.635 703986 681302 658257 637929 622766 613719 611564 617025 631512 
2093.975 656343 691981 736451 785816 834102 875675 906058 923849 929518 
2098.314 925384 913487 895790 873510 848632 823856 803183 790112 786423 
2102.654 790166 796075 796518 785168 759217 722089 682297 651280 638763 
2106.994 649771 682148 727995 776191 816805 844031 857948 862844 865548 
2111.333 871791 884875 904264 927230 949795 968730 981871 988958 990309 
2115.673 987191 980457 971097 959389 945216 927098 902921 869497 824350 
2120.012 766334 697447 622722 549940 486844 439404 408766 391173 377907 
2124.352 358390 322745 265584 186891 93250 -5009 -95409 -167692 -215580 
2128.692 -239422 -245232 -244521 -250341 -275154 -326460 -405693 -506557 
2132.549 -617226 -722295 -807736 -863308 -885984 -878785 -849908 -808220 
2136.406 -761630 -714608 -669685 -628119 -593146 -568998 -561750 -575744 
2140.264 -612090 -666159 -729357 -789572 -836263 -861797 -865417 -851242 
2144.121 -828588 -807764 -798476 -806048 -831765 -871283 -917508 -961153 
2147.979 -995482 -1017825 -1032673 -1050623 -1088167 -1161129 -1281645 
2151.354 -1451881 -1664272 -1901081 -2142154 -2368061 -2568156 -2738841 
2154.729 -2883067 -3002114 -3090610 -3132307 -3104270 -2984152 -2766441 
2158.104 -2469138 -2139921 -1840914 -1629428 -1533230 -1542726 -1614883 
2161.480 -1695063 -1733696 -1703425 -1599431 -1437655 -1241557 -1033980 
2164.855 -827571 -626331 -427561 -231302 -43200 122265 247293 315265 319019 
2169.195 261597 156871 22939 -121987 -265702 -401804 -529599 -647927 -753539 
2173.534 -837320 -888860 -898428 -864601 -795868 -712043 -637661 -597194 
2177.392 -605492 -665768 -767092 -889401 -1007221 -1097815 -1143518 -1136053 
2181.249 -1074945 -967244 -823241 -655716 -476686 -298420 -131115 14940 
2185.106 131942 213221 255650 259803 231484 180008 119108 62995 25430 15532 
2189.928 36684 84541 149091 215067 267730 294861 291938 261640 214385 164176 
2194.750 126029 110188 121240 156004 206703 261918 311842 349138 371670 
2199.090 380734 380890 377146 374674 376741 386424 405886 437990 484415 
2203.429 546705 622739 707497 791579 863597 911682 927432 907718 857047 
2207.769 785471 707630 637950 588689 566280 572142 602164 649429 705102 
2212.108 760882 808667 842146 856580 850136 824460 785839 743488 708630 
2216.448 690165 692498 712630 741476 765408 772074 753490 710545 651409 
2220.788 590529 542331 517638 519772 544736 582618 622044 652964 669877 
2225.127 671500 660553 641278 618829 597623 582344 577317 587068 614668 
2229.467 661355 724824 800135 880101 958285 1030176 1095306 1156286 1217614 
2233.806 1282554 1351784 1421438 1484698 1532596 1557890 1556313 1528603 
2237.664 1479448 1417107 1350318 1287306 1233257 1190793 1159281 1136450 
2241.521 1118701 1103171 1087681 1072180 1057877 1047696 1044568 1051191 
2245.379 1068105 1094119 1125271 1156362 1180935 1193635 1190792 1171922 
2249.236 1139318 1098893 1057834 1024266 1004725 1003455 1020995 1055113 
2253.094 1100836 1152818 1205937 1257081 1304713 1348601 1388456 1423572 
2256.951 1452028 1471963 1481900 1482452 1475968 1466587 1458252 1453531 
2260.808 1452062 1451011 1445707 1432150 1408275 1375712 1338919 1304198 
2264.666 1277092 1261194 1256467 1260377 1268518 1277150 1283922 1289014 
2268.523 1294322 1302847 1316992 1338105 1365615 1397853 1432016 1465380 
2272.381 1495513 1520934 1541100 1556710 1569235 1580940 1593953 1609985 
2276.238 1629362 1651388 1673889 1694578 1711424 1724046 1733609 1743061 
2280.095 1755733 1774619 1800734 1832889 1867326 1899159 1923134 1935404 
2283.953 1934362 1921265 1899652 1874756 1852000 1836238 1830428 1835592 
2287.810 1850373 1871790 1895470 1916783 1931442 1936499 1930607 1914737 
2291.668 1891551 1865202 1840251 1820788 1809184 1805942 1809387 1816372 
2295.525 1823044 1826130 1823522 1814597 1800158 1781924 1761803 1741708 
2299.383 1723160 1707614 1696327 1690558 1691168 1698341 1711096 1727544 
2303.240 1744988 1760998 1773939 1783746 1791591 1799479 1809230 1821616 
2307.097 1835923 1850270 1862194 1869822 1872332 1870330 1865442 1859693 
2310.955 1854653 1851233 1849419 1848829 1848934 1849483 1850556 1852582 
2314.812 1856186 1862097 1871099 1884006 1901317 1923254 1949448 1979044 
2318.670 2011183 2045769 2083864 2127995 2181073 2244972 2318420 2395593 
2322.527 2466049 2516539 2534111 2509808 2441331 2333915 2199234 2052785 
2326.385 1910307 1784825 1684322 1611005 1562190 1532153 1514318 1503232 
2330.242 1495237 1488462 1482131 1475649 1468310 1459416 1448645 1436654 
2334.099 1424943 1415691 1410822 1411513 1417667 1427970 1440334 1452439 
2337.957 1462286 1468546 1470421 1467783 1460952 1450650 1438023 1424646 
2341.814 1412257 1402420 1396154 1393576 1393808 1395291 1396114 1394754 
2345.672 1390416 1383327 1374461 1365372 1357494 1351963 1349189 1348890 
2349.529 1350326 1352434 1354298 1355396 1355572 1355226 1354943 1355331 
2353.386 1356628 1358566 1360322 1360830 1359005 1354293 1346794 1337291 
2357.244 1327057 1317255 1308621 1301234 1294210 1286359 1276273 1262898 
2361.101 1245861 1225398 1202429 1178221 1154135 1131470 1111216 1094196 
2364.959 1080695 1070905 1064597 1061494 1061156 1063235 1067494 1073809 
2368.816 1082061 1092238 1104189 1117751 1132598 1148318 1164246 1179492 
2372.674 1192797 1202736 1207914 1207491 1201583 1191573 1180040 1170286 
2376.531 1165443 1167647 1177324 1193144 1212305 1231453 1247541 1258744 
2380.388 1264579 1265929 1264429 1262104 1260554 1261033 1264070 1269738 
2384.246 1277369 1285946 1294032 1300144 1302969 1302015 1297681 1291383 
2388.103 1284954 1280318 1278549 1279897 1283571 1288505 1293818 1299495 
2391.961 1306273 1315503 1328198 1344571 1363371 1382279 1398287 1408728 
2395.818 1411819 1407363 1396427 1381213 1364353 1348422 1335370 1326468 
2399.676 1321976 1321347 1323167 1325448 1325947 1322828 1314976 1302558 
2403.533 1287040 1271148 1257960 1250584 1251189 1260855 1279194 1304648 
2407.390 1334675 1366347 1396570 1422792 1442992 1456250 1462583 1462989 
2411.248 1458842 1451623 1442246 1431107 1418060 1403000 1386259 1369100 
2415.105 1353542 1342033 1336374 1337249 1343663 1353327 1363197 1370800 
2418.963 1374743 1375399 1374349 1373981 1376148 1381811 1390510 1400725 
2422.820 1410449 1417988 1422226 1422998 1420699 1415965 1409193 1400512 
2426.677 1389742 1376778 1361879 1345990 1330473 1317208 1307811 1303408 
2430.535 1304181 1309373 1317406 1326520 1335157 1342418 1348179 1352996 
2434.392 1357381 1361581 1365087 1366673 1364908 1358873 1348566 1335459 
2438.250 1321922 1310828 1304198 1302844 1305819 1311046 1316006 1318993 
2442.107 1319524 1318588 1318029 1319764 1324830 1333267 1344089 1356154 
2445.965 1368767 1382200 1397339 1415346 1436413 1459499 1481957 1500470 
2449.822 1511723 1513955 1507236 1493653 1476583 1459542 1445074 1434409 
2453.679 1427235 1422422 1418762 1415480 1412410 1409868 1407728 1405480 
2457.537 1401606 1394265 1381748 1363277 1339398 1312156 1284441 1259362 
2461.394 1239369 1225955 1219404 1219090 1223902 1232539 1243691 1255923 
2465.252 1267591 1276991 1282375 1282800 1278236 1270220 1261317 1254761 
2469.109 1253383 1258844 1270981 1287987 1306775 1324115 1337252 1344621 
2472.967 1346012 1342109 1334179 1323640 1311820 1300055 1289689 1282193 
2476.824 1278997 1281189 1289082 1302123 1318670 1336590 1353396 1367108 
2480.681 1376364 1380786 1380763 1377399 1372044 1366169 1361018 1357607 
2484.539 1356278 1357200 1359965 1364133 1369253 1375301 1382463 1391289 
2488.396 1402049 1414400 1427294 1438830 1446709 1449014 1444635 1433980 
2492.254 1418619 1401323 1385034 1372340 1364864 1363161 1366857 1374900 
2496.111 1385963 1398832 1412370 1425897 1438971 1451589 1463835 1475853 
2499.969 1487515 1498167 1506588 1511114 1510187 1502987 1489817 1472514 
2503.826 1454090 1437890 1426671 1421917 1423124 1428252 1434267 1438195 
2507.683 1437925 1432972 1424287 1414109 1405242 1400407 1401400 1409102 
2511.541 1422937 1441341 1461821 1481740 1498689 1511061 1518201 1520469 
2515.398 1518834 1514358 1507759 1499137 1488314 1475315 1460638 1445857 
2519.256 1433202 1425026 1423032 1427619 1437431 1449938 1462037 1471135 
2523.113 1475669 1475587 1471826 1466012 1459653 1453818 1449016 1445348 
2526.970 1442663 1440928 1439751 1438872 1437499 1434938 1430574 1424256 
2530.828 1416654 1409091 1403293 1400986 1403334 1411083 1424124 1442198 
2534.685 1464555 1490271 1517978 1545762 1571133 1591429 1604416 1608978 
2538.543 1605512 1596291 1584379 1573309 1565625 1562592 1563785 1567644 
2542.400 1572196 1575862 1577939 1578751 1579281 1580683 1583737 1588564 
2546.258 1594385 1599986 1603723 1604326 1600766 1593136 1582282 1570080 
2550.115 1558817 1550807 1547638 1549850 1556711 1566474 1577100 1586915 
2553.972 1595103 1602016 1608545 1615773 1624026 1632815 1640706 1646012 
2557.830 1647311 1644292 1637599 1628786 1619506 1611221 1604389 1598863 
2561.687 1593826 1588434 1582067 1574569 1566070 1557129 1548331 1540540 
2565.545 1534728 1532068 1533545 1539852 1550552 1564415 1579217 1592463 
2569.402 1602045 1607157 1608504 1608331 1609574 1614873 1625742 1641919 
2573.260 1661297 1680868 1697323 1708398 1713327 1713232 1710493 1708048 
2577.117 1708368 1712780 1720786 1730590 1739314 1744266 1743490 1736756 
2580.974 1725270 1711557 1698423 1688360 1682663 1681518 1684091 1689221 
2584.832 1695996 1704130 1713903 1725778 1739817 1755377 1770963 1784753 
2588.689 1794976 1800776 1802236 1800540 1797343 1794310 1792568 1792439 
2592.547 1793505 1794991 1795919 1795563 1793433 1789574 1784254 1778381 
2596.404 1773171 1770223 1771023 1776616 1786907 1800589 1815082 1827140 
2600.261 1833730 1833037 1825003 1811413 1795446 1780667 1770176 1765869 
2604.119 1768019 1775858 1787753 1802082 1817260 1832138 1845646 1856947 
2607.976 1865230 1869986 1871184 1869403 1865845 1861996 1859200 1858436 
2611.834 1859957 1863512 1868406 1873997 1879652 1885062 1889893 1893951 
2615.691 1896943 1898686 1899318 1899324 1899550 1901047 1904644 1910721 
2619.549 1918937 1928587 1938497 1947908 1956342 1963852 1970870 1977784 
2623.406 1984728 1991383 1997155 2001372 2003590 2003798 2002510 2000504 
2627.263 1998719 1997952 1998761 2001370 2005780 2011654 2018409 2025353 
2631.121 2031510 2036044 2038228 2037998 2035778 2032616 2029941 2028944 
2634.978 2030356 2034149 2039580 2045573 2051061 2055377 2058422 2060685 
2638.836 2062807 2065383 2068601 2072230 2075833 2078886 2081092 2082568 
2642.693 2083697 2085041 2087018 2089807 2093365 2097236 2100832 2103483 
2646.551 2104482 2103213 2099219 2092409 2083014 2071856 2060160 2049371 
2650.408 2040841 2035446 2033160 2033271 2034213 2034279 2031776 2025765 
2654.265 2016065 2003399 1988985 1974344 1960746 1949088 1939629 1932209 
2658.123 1926326 1921257 1916347 1910988 1904561 1896707 1887040 1875327 
2661.980 1861558 1845877 1828713 1810712 1792617 1775255 1759331 1745340 
2665.838 1733498 1723795 1716099 1710185 1705802 1702782 1700892 1699844 
2669.695 1699253 1698680 1697586 1695675 1692846 1689334 1685515 1681964 
2673.552 1678942 1676548 1674378 1672001 1668912 1664967 1660491 1656328 
2677.410 1653369 1652533 1654171 1657962 1662997 1667962 1671532 1672851 
2681.267 1671593 1668171 1663440 1658510 1654345 1651648 1650646 1651131 
2685.125 1652565 1654270 1655487 1655613 1654267 1651466 1647544 1643024 
2688.982 1638585 1634740 1631689 1629414 1627482 1625450 1623028 1620180 
2692.840 1617232 1614644 1612943 1612389 1612841 1614008 1615193 1615917 
2696.697 1615798 1614791 1613095 1611063 1608958 1606997 1605144 1603409 
2700.554 1601636 1599772 1597716 1595361 1592532 1589067 1584784 1579764 
2704.412 1574206 1568656 1563794 1560275 1558573 1558950 1561219 1565006 
2708.269 1569840 1575277 1580925 1586620 1592173 1597463 1602163 1605972 
2712.127 1608435 1609240 1608214 1605474 1601393 1596545 1591568 1587072 
2715.984 1583487 1581040 1579669 1579202 1579290 1579735 1580225 1580679 
2719.842 1581005 1581111 1580880 1580228 1579000 1577114 1574605 1571601 
2723.699 1568340 1565133 1562154 1559649 1557802 1556787 1556797 1558080 
2727.556 1560864 1565105 1570613 1576919 1583237 1588806 1592882 1595108 
2731.414 1595344 1593873 1591081 1587562 1583887 1580577 1578138 1577095 
2735.271 1577777 1580342 1584562 1589886 1595460 1600494 1604298 1606723 
2739.129 1608036 1608881 1609716 1610763 1611672 1611606 1609679 1605404 
2742.986 1598934 1591431 1584561 1580232 1579791 1583682 1591170 1600717 
2746.844 1610397 1618522 1624122 1627084 1627942 1627673 1627072 1626591 
2750.701 1626257 1625812 1624850 1623276 1621259 1619361 1618091 1617958 
2754.558 1619083 1621124 1623389 1624996 1624947 1622676 1617866 1610759 
2758.416 1601916 1592155 1582242 1572902 1564633 1557725 1552297 1548536 
2762.273 1546618 1546656 1548707 1552659 1557987 1563984 1569705 1574305 
2766.131 1577236 1578365 1577971 1576769 1575576 1575041 1575604 1577366 
2769.988 1580123 1583560 1587389 1591406 1595415 1599257 1602692 1605326 
2773.845 1606630 1606182 1603704 1599258 1593329 1586765 1580702 1576259 
2777.703 1574435 1575771 1580270 1587532 1596588 1606330 1615516 1623201 
2781.560 1628760 1631995 1633138 1632766 1631693 1630798 1630819 1632355 
2785.418 1635668 1640722 1647145 1654320 1661562 1668236 1673854 1678294 
2789.275 1681751 1684554 1687189 1690058 1693351 1696973 1700766 1704400 
2793.133 1707716 1710687 1713432 1716301 1719565 1723469 1728098 1733443 
2796.990 1739194 1745013 1750345 1754729 1757610 1758646 1757745 1755289 
2800.847 1751873 1748578 1746571 1746844 1750112 1756490 1765538 1776391 
2804.705 1787870 1798826 1808466 1816298 1822235 1826655 1830066 1833119 
2808.562 1836334 1840202 1844940 1850682 1857495 1865455 1874684 1885394 
2812.420 1897651 1911371 1926082 1940922 1954765 1966444 1975122 1980590 
2816.277 1983376 1984692 1986038 1988807 1993797 2001068 2009974 2019473 
2820.135 2028577 2036734 2043934 2050814 2058239 2067074 2077891 2091006 
2823.992 2106249 2123336 2141937 2161623 2181900 2202215 2221873 2240186 
2827.849 2256628 2270997 2283547 2294977 2306220 2318251 2331769 2347100 
2831.707 2364140 2382508 2401746 2421473 2441582 2462218 2483670 2506427 
2835.564 2530902 2557472 2586302 2617327 2650273 2684680 2719944 2755643 
2839.422 2791528 2827830 2865069 2904173 2946194 2992141 3042848 3099069 
2843.279 3161327 3230396 3307028 3392074 3486077 3589103 3699943 3816133 
2847.136 3933435 4046420 4148686 4233654 4295485 4329929 4334916 4311072 
2850.994 4261412 4191152 4106590 4014482 3920597 3829385 3743326 3663221 
2854.851 3588603 3518560 3452337 3389911 3331939 3279592 3233928 3195328 
2858.709 3163110 3135563 3110180 3084405 3056343 3025267 2991946 2958505 
2862.566 2927849 2902900 2885928 2877888 2878265 2885365 2896792 2910284 
2866.424 2924201 2938220 2952916 2969838 2990719 3017083 3049638 3088322 
2870.281 3132287 3180331 3231104 3283487 3336660 3390168 3443744 3497351 
2874.138 3550931 3604560 3658367 3712372 3766456 3820287 3873145 3923987 
2877.996 3971528 4014494 4051715 4082413 4106276 4123345 4133891 4138480 
2881.853 4137643 4131999 4122137 4108749 4092505 4074283 4054901 4035231 
2885.711 4016061 3998180 3982172 3968510 3957422 3948948 3942882 3938878 
2889.568 3936541 3935618 3935938 3937613 3941008 3946628 3955099 3966986 
2893.426 3982668 4002235 4025337 4051175 4078522 4106022 4132298 4156355 
2897.283 4177914 4197498 4216217 4235670 4257248 4281849 4309683 4340059 
2901.140 4371924 4404087 4435700 4466593 4497035 4527784 4559486 4592735 
2904.998 4627659 4664222 4702266 4741923 4783506 4827708 4875323 4927110 
2908.855 4983665 5045490 5112997 5186880 5268109 5358059 5458203 5569904 
2912.713 5693819 5829621 5975456 6128052 6282820 6434297 6576847 6705329 
2916.570 6815777 6905851 6974800 7023452 7053602 7067547 7067663 7056074 
2920.427 7034716 7005378 6969899 6930312 6888605 6846715 6806104 6767771 
2924.285 6732033 6698978 6668517 6640801 6616195 6595377 6578956 6567282 
2928.142 6560181 6557093 6557191 6559875 6564931 6573005 6585344 6603725 
2932.000 6629994 6665653 6711556 6767962 6834442 6910491 6995596 7089638 
2935.857 7192977 7306280 7430250 7565219 7710828 7866098 8029280 8198296 
2939.715 8371009 8545435 8719486 8891016 9057128 9214213 9357711 9482563 
2943.572 9583940 9658086 9703064 9718958 9707758 9672896 9618089 9546907 
2947.429 9462155 9365656 9258570 9141814 9016249 8883078 8743715 8599839 
2951.287 8453051 8304853 8156623 8009613 7864701 7722788 7584435 7449995 
2955.144 7319782 7194029 7073182 6957789 6848375 6745299 6648393 6556935 
2959.002 6469701 6385424 6303070 6222340 6143785 6068536 5997984 5933029 
2962.859 5873811 5819614 5769047 5720723 5673448 5626926 5581410 5537836 
2966.717 5497113 5460042 5427144 5398653 5374702 5355341 5340479 5329972 
2970.574 5323063 5318704 5315495 5311997 5307317 5301363 5294853 5289378 
2974.431 5286744 5288741 5296613 5311093 5332330 5360259 5394693 5435505 
2978.289 5482641 5536083 5595644 5661181 5732633 5810354 5895206 5988572 
2982.146 6092015 6207113 6334832 6475477 6628451 6792571 6966729 7150078 
2986.004 7342297 7543730 7754688 7975181 8204023 8438686 8675379 8909349 
2989.861 9135599 9349648 9548119 9728909 9891036 10034353 10159059 10265312 
2993.719 10353016 10421852 10471280 10500794 10509982 10498622 10466660 
2997.094 10414419 10342665 10252581 10145982 10025080 9892201 9749561 
3000.469 9598859 9441382 9277830 9108836 8935322 8758570 8580316 8402398 
3004.326 8226409 8053229 7882754 7714225 7546285 7377759 7207959 7036832 
3008.184 6865060 6693627 6523676 6356283 6192177 6031999 5876224 5725444 
3012.041 5580052 5440341 5306445 5178097 5054972 4936551 4822428 4712284 
3015.899 4605842 4502928 4403206 4306452 4212393 4121025 4032506 3947114 
3019.756 3865109 3786476 3710802 3637287 3565108 3493541 3422351 3352123 
3023.614 3283872 3218973 3158745 3104129 3055428 3012372 2973993 2939101 
3027.471 2906185 2873832 2840840 2806350 2770167 2732721 2695121 2658790 
3031.328 2625152 2595159 2568975 2546117 2525519 2506004 2486762 2467537 
3035.186 2448320 2429498 2411011 2392543 2373414 2352971 2330967 2307997 
3039.043 2285475 2265305 2249230 2238336 2232614 2230755 2230616 2229832 
3042.901 2226259 2218756 2207099 2192322 2176116 2160676 2148166 2140269 
3046.758 2137899 2140823 2147617 2156025 2163368 2167202 2165932 2159248 
3050.615 2148094 2134297 2119881 2106469 2094780 2084649 2075380 2066181 
3054.473 2056804 2047682 2039760 2034191 2031725 2032508 2035925 2040804 
3058.330 2045920 2050257 2053267 2054898 2055500 2055412 2055015 2054504 
3062.188 2053993 2053564 2053248 2053097 2053018 2052743 2051798 2049727 
3066.045 2046243 2041334 2035371 2029108 2023275 2018485 2014899 2012242 
3069.903 2009750 2006585 2002108 1996214 1989431 1982883 1978017 1976229 
3073.760 1978276 1984117 1992700 2002248 2010621 2015902 2016829 2013077 
3077.617 2005339 1994950 1983543 1972672 1963362 1956161 1950958 1947648 
3081.475 1945975 1945916 1947640 1951521 1957652 1966066 1976111 1986679 
3085.332 1996192 2002793 2004787 2001031 1991232 1976374 1958398 1940097 
3089.190 1924305 1913349 1908289 1908691 1912926 1918554 1923010 1924609 
3093.047 1922518 1917069 1909288 1900299 1890965 1881629 1872207 1862481 
3096.905 1852565 1843011 1834787 1829089 1826959 1829003 1835190 1844941 
3100.762 1857320 1871101 1885095 1898125 1909045 1916923 1921111 1921399 
3104.619 1918150 1912250 1905043 1897908 1892012 1887984 1885834 1885187 
3108.477 1885291 1885615 1885887 1886252 1887214 1889398 1893329 1899101 
3112.334 1906412 1914448 1921974 1927692 1930492 1929629 1925039 1917369 
3116.192 1907749 1897551 1888021 1879902 1873447 1868320 1863989 1860075 
3120.049 1856464 1853617 1852037 1852240 1854214 1857500 1860965 1863550 
3123.906 1864341 1863003 1859910 1855862 1851707 1847950 1844675 1841483 
3127.764 1837881 1833594 1828959 1824765 1822272 1822700 1826744 1834490 
3131.621 1845248 1857671 1870247 1881333 1889601 1893894 1893469 1887936 
3135.479 1877293 1862108 1843654 1823660 1804241 1787527 1775160 1768089 
3139.336 1766411 1769549 1776567 1786528 1798835 1813076 1829001 1846093 
3143.194 1863457 1879656 1892999 1901962 1905572 1903750 1897299 1887569 
3147.051 1876092 1864116 1852571 1841964 1832782 1825692 1821624 1821459 
3150.908 1825779 1834228 1845473 1857401 1867744 1874872 1878379 1879333 
3154.766 1879748 1881720 1886439 1893534 1901150 1906521 1907173 1901873 
3158.623 1891298 1877824 1864686 1854889 1850066 1850222 1853731 1858251 
3162.481 1861497 1862057 1859558 1854539 1847840 1840257 1832247 1824023 
3166.338 1815743 1807908 1801379 1797197 1796237 1798978 1805220 1814316 
3170.196 1825310 1837468 1850068 1862693 1874887 1886040 1895418 1902177 
3174.053 1905857 1906488 1904751 1901851 1899088 1897563 1897808 1899686 
3177.910 1902622 1905836 1908592 1910366 1910741 1909461 1906342 1901212 
3181.768 1894147 1885659 1876667 1868495 1862534 1859950 1861344 1866653 
3185.625 1875142 1885762 1897146 1908203 1917979 1925777 1931167 1933923 
3189.483 1934098 1931979 1928080 1923054 1917620 1912302 1907379 1902948 
3193.340 1898988 1895456 1892512 1890480 1889692 1890343 1892292 1895154 
3197.198 1898232 1900945 1902897 1904087 1904954 1906423 1909387 1914889 
3201.055 1923640 1935986 1951630 1969626 1988340 2005586 2019103 2026926 
3204.912 2027953 2022353 2011643 1998248 1984860 1973669 1965677 1960506 
3208.770 1956639 1952081 1945257 1935702 1924268 1913005 1904436 1900903 
3212.627 1903734 1912978 1927319 1944582 1962111 1977433 1988676 1994800 
3216.485 1995629 1991938 1985133 1977115 1969743 1964685 1962913 1964537 
3220.342 1968889 1974628 1980271 1984649 1987144 1987875 1987490 1986866 
3224.199 1986741 1987450 1988701 1990017 1990715 1990373 1988968 1986944 
3228.057 1984996 1983892 1984134 1985852 1988667 1991754 1994125 1994770 
3231.914 1993004 1988641 1981996 1973937 1965582 1958127 1952420 1948929 
3235.772 1947535 1947673 1948539 1949525 1950218 1950791 1951669 1953451 
3239.629 1956767 1961804 1968281 1975565 1982666 1988571 1992452 1993816 
3243.487 1992412 1988490 1982495 1975114 1967120 1959353 1952697 1948046 
3247.344 1946307 1948265 1954567 1965368 1980288 1998053 2016580 2033191 
3251.201 2044848 2049053 2044186 2030309 2009312 1984594 1960366 1940813 
3255.059 1928932 1926003 1931308 1942434 1956200 1969469 1979918 1986649 
3258.916 1989965 1991124 1991813 1993324 1996500 2001442 2007711 2014564 
3262.774 2021211 2027004 2031505 2034416 2035551 2034787 2032090 2027462 
3266.631 2021075 2013282 2004575 1995624 1987210 1980111 1974911 1972061 
3270.489 1971626 1973269 1976439 1980336 1984157 1987088 1988393 1987475 
3274.346 1983797 1976905 1966699 1953509 1938324 1922729 1908904 1898949 
3278.203 1894595 1896458 1903960 1915242 1927728 1938886 1946698 1950213 
3282.061 1949673 1946277 1941744 1937784 1935796 1936831 1941417 1949570 
3285.918 1961037 1974991 1990122 2004773 2017020 2025272 2028509 2026850 
3289.776 2021465 2014441 2008136 2004825 2005893 2011773 2021693 2034085 
3293.633 2046880 2057897 2065297 2067836 2065170 2057938 2047581 2036224 
3297.490 2026016 2018799 2015481 2015787 2018543 2022042 2024622 2025373 
3301.348 2024160 2021782 2019158 2017012 2015353 2013405 2010101 2004610 
3305.205 1996863 1987881 1979386 1973377 1971076 1972653 1976840 1981496 
3309.063 1984264 1983552 1979049 1971987 1964745 1960049 1960156 1965993 
3312.920 1977073 1991552 2006716 2019969 2029341 2034003 2034310 2031475 
3316.778 2026967 2022011 2017155 2012175 2006502 1999534 1991294 1982627 
3320.635 1975130 1970653 1970560 1975231 1983520 1993206 2001467 2005789 
3324.492 2004930 1999278 1990720 1982138 1976381 1975427 1979860 1988665 
3328.350 1999675 2010287 2018105 2021620 2020346 2014909 2006740 1997595 
3332.207 1989254 1983139 1980235 1980824 1984649 1990996 1998801 2007001 
3336.065 2014598 2021032 2026134 2030206 2033740 2037332 2041250 2045506 
3339.922 2049561 2052584 2053667 2052088 2047555 2040562 2032197 2023998 
3343.780 2017673 2014582 2015288 2019625 2026469 2034406 2041761 2047240 
3347.637 2050167 2050304 2047989 2043727 2038090 2031664 2025044 2018896 
3351.494 2014053 2011235 2010949 2013165 2017183 2021755 2025324 2026438 
3355.352 2024227 2018656 2010512 2001047 1991795 1984097 1978900 1976702 
3359.209 1977708 1981863 1989008 1998911 2011007 2024553 2038330 2050937 
3363.067 2060746 2066376 2066864 2061881 2052046 2038804 2024419 2011613 
3366.924 2003046 2000901 2006108 2018378 2035948 2056175 2076059 2093176 
3370.781 2105926 2113921 2117669 2118210 2116416 2112750 2107291 2099983 
3374.639 2090926 2080891 2071105 2063074 2057990 2056355 2057659 2060597 
3378.496 2063468 2064773 2063501 2059605 2053481 2045993 2037924 2029796 
3382.354 2021791 2013819 2005810 1997743 1989742 1982148 1975542 1970536 
3386.211 1967895 1968334 1972561 1980759 1992601 2007156 2022775 2037603 
3390.069 2049863 2058345 2062819 2063716 2062083 2059185 2055876 2052610 
3393.926 2049356 2045861 2042035 2038150 2034937 2033378 2034386 2038566 
3397.783 2045773 2055401 2066050 2076051 2083611 2086980 2084888 2076623 
3401.641 2062426 2043653 2022593 2002443 1986588 1977954 1978291 1987478 
3405.498 2003633 2023329 2042553 2057629 2066369 2068516 2065705 2060947 
3409.356 2057447 2057761 2062715 2071372 2081190 2089107 2092280 2089296 
3413.213 2080336 2067234 2052879 2040241 2031639 2028151 2029470 2034278 
3417.071 2040763 2047182 2052281 2055591 2057191 2057526 2057162 2056544 
3420.928 2055926 2055400 2054862 2054301 2053601 2052798 2051902 2051064 
3424.785 2050479 2050411 2051217 2053221 2056502 2060994 2066316 2071732 
3428.643 2076400 2079503 2080429 2078959 2075390 2070483 2065333 2061207 
3432.500 2059076 2059514 2062480 2067384 2073201 2078916 2083616 2086830 
3436.358 2088554 2089043 2088505 2086973 2084193 2079783 2073465 2065402 
3440.215 2056215 2047084 2039292 2033936 2031562 2031963 2034444 2038164 
3444.073 2042486 2047424 2053542 2061699 2072569 2086197 2101730 2117234 
3447.930 2130287 2138489 2139981 2134171 2121844 2105075 2086795 2070182 
3451.787 2057832 2051197 2050417 2054067 2059991 2065895 2069955 2071590 
3455.645 2071276 2070322 2070437 2072851 2077960 2085337 2093935 2102780 
3459.502 2111338 2119689 2128613 2138912 2151180 2165373 2180967 2197091 
3463.360 2212884 2227879 2241912 2254925 2266626 2276442 2283591 2287512 
3467.217 2288110 2286247 2283520 2281737 2282498 2286527 2293405 2302036 
3471.074 2311079 2319716 2327912 2336461 2346333 2358138 2371419 2384636 
3474.932 2395342 2401489 2401868 2396959 2388970 2381272 2377412 2380177 
3478.789 2390635 2408125 2430400 2454561 2477841 2498339 2515398 2529554 
3482.647 2541920 2553515 2564891 2575684 2585082 2592206 2596641 2599033 
3486.504 2601073 2605170 2613665 2628265 2649304 2675751 2705647 2736663 
3490.362 2766800 2795029 2821198 2845704 2869183 2891834 2913457 2933436 
3494.219 2951192 2966263 2978505 2988058 2994979 2999233 3000662 2999233 
3498.076 2995485 2990625 2986568 2985502 2989236 2998756 3013768 3032940 
3501.934 3054179 3075380 3094634 3110803 3122951 3130681 3133411 3130819 
3505.791 3122689 3109424 3092172 3072736 3053439 3036510 3023836 3016413 
3509.649 3014289 3016577 3021690 3027421 3031184 3030353 3022638 3006646 
3513.506 2982153 2950641 2914759 2878141 2844417 2816421 2795709 2782422 
3517.364 2775623 2773713 2775007 2777964 2781135 2782941 2781493 2774889 
3521.221 2761585 2740971 2713821 2682560 2650559 2621514 2598309 2582429 
3525.078 2573613 2570092 2569232 2568490 2565705 2559840 2550657 2538906 
3528.936 2525904 2513387 2503174 2497060 2496213 2501037 2510655 2523228 
3532.793 2536090 2546589 2552591 2553213 2548775 2540786 2531082 2521291 
3536.651 2512320 2504193 2496160 2487338 2476990 2464947 2451568 2437554 
3540.508 2423740 2410686 2398595 2387504 2377292 2368031 2360056 2354058 
3544.365 2350896 2351359 2355913 2364573 2376408 2390121 2403660 2415103 
3548.223 2422525 2424860 2421917 2414648 2404880 2395039 2387704 2385005 
3552.080 2388078 2396889 2409889 2424567 2437587 2445803 2446637 2439130 
3555.938 2423746 2402723 2379351 2357329 2339840 2329026 2325487 2328508 
3559.795 2336223 2346276 2356284 2364330 2369120 2370363 2368431 2364508 
3563.653 2360344 2357750 2358248 2362669 2370726 2381076 2391742 2400779 
3567.510 2406782 2409521 2409678 2408575 2407326 2406318 2404937 2401777 
3571.367 2395517 2385613 2372654 2358455 2345083 2334280 2326361 2320279 
3575.225 2313775 2304696 2291707 2275252 2257424 2241529 2230718 2227134 
3579.082 2231139 2241137 2254303 2267305 2277206 2282172 2281637 2276379 
3582.940 2267892 2258079 2248745 2241192 2235878 2232395 2229562 2225848 
3586.797 2219891 2211051 2199666 2187181 2175647 2167149 2163207 2164197 
3590.655 2169361 2177265 2185980 2193866 2199592 2202411 2201776 2197447 
3594.512 2189335 2177708 2163493 2148272 2134161 2123478 2117855 2117909 
3598.369 2122749 2130104 2136857 2139973 2137091 2127327 2111212 2090789 
3602.227 2068972 2048882 2033337 2024416 2023163 2029652 2042956 2061675 
3606.084 2083949 2107745 2130752 2150884 2165885 2174054 2174187 2166414 
3609.942 2151994 2133861 2115883 2102147 2095963 2099106 2111178 2129965 
3613.799 2152133 2174079 2192974 2207247 2216556 2221373 2222434 2220519 
3617.656 2216268 2210436 2204347 2199607 2198076 2201324 2209853 2223069 
3621.514 2239308 2256380 2272400 2286257 2297682 2307138 2315147 2322073 
3625.371 2328013 2332810 2336790 2340796 2346145 2354216 2365768 2380521 
3629.229 2396792 2412118 2424041 2430788 2431771 2427487 2418926 2407270 
3633.086 2393474 2378294 2362904 2349063 2339290 2336508 2342980 2359592 
3636.944 2385323 2417098 2450662 2481708 2506912 2524715 2535441 2540875 
3640.801 2543405 2545508 2549266 2556079 2566843 2581770 2600347 2621398 
3644.658 2642986 2662985 2679356 2690891 2697428 2700047 2700280 2699789 
3648.516 2699494 2699408 2698708 2696407 2691756 2684779 2676078 2666662 
3652.373 2657378 2648684 2640517 2632840 2625716 2619734 2615882 2615168 
3656.231 2617914 2623666 2630825 2637616 2642153 2643660 2642172 2638981 
3660.088 2635865 2634634 2636559 2642346 2651662 2663659 2676833 2689418 
3663.946 2699476 2705228 2705312 2699381 2688285 2673975 2659033 2646014 
3667.803 2636590 2630931 2627681 2624578 2619015 2609544 2596030 2579904 
3671.660 2563343 2548622 2536766 2527628 2519378 2509668 2496208 2477700 
3675.518 2454256 2427432 2399828 2374360 2353452 2338748 2330621 2328193 
3679.375 2329587 2332168 2333117 2329896 2320796 2305556 2285189 2261961 
3683.233 2238706 2218133 2201877 2190258 2182067 2175098 2166829 2155437 
3687.090 2140243 2122298 2103719 2087588 2076606 2072604 2075724 2084691 
3690.948 2096659 2108321 2116404 2118454 2113498 2102095 2086151 2068519 
3694.805 2052322 2040078 2033424 2032685 2037019 2044976 2054822 2065366 
3698.662 2075902 2086489 2097478 2109116 2121044 2132317 2141120 2145849 
3702.520 2144985 2138016 2125376 2108256 2088325 2067147 2045929 2025579 
3706.377 2006818 1990602 1978277 1971458 1971491 1978875 1992718 2010699 
3710.235 2029482 2045583 2056546 2061471 2061453 2058730 2055970 2055066 
3714.092 2056579 2059700 2062872 2064748 2064842 2063975 2063669 2065596 
3717.949 2070430 2077462 2084709 2089673 2090480 2086868 2080320 2073896 
3721.807 2070905 2073896 2083260 2097413 2112884 2125609 2132086 2130599 
3725.664 2121382 2106684 2089846 2074343 2062828 2056741 2056118 2060000 
3729.522 2066712 2074677 2082482 2089462 2095330 2100536 2105656 2111353 
3733.379 2117979 2125485 2133344 2140691 2146397 2149759 2150501 2149072 
3737.237 2146376 2143578 2141521 2140404 2139588 2138018 2134201 2127293 
3741.094 2117345 2105462 2093751 2084639 2080235 2081571 2088322 2098958 
3744.951 2111119 2122441 2131265 2136997 2139952 2141082 2141270 2141130 
3748.809 2140575 2139315 2136758 2132702 2127361 2121414 2115529 2110411 
3752.666 2106085 2102412 2098752 2094713 2090005 2085006 2080308 2076643 
3756.524 2074615 2074529 2076484 2080559 2086703 2095120 2105899 2119116 
3760.381 2134206 2149996 2164717 2176337 2182818 2182858 2175973 2162958 
3764.239 2145544 2126231 2107876 2093233 2084364 2082432 2087249 2097593 
3768.096 2111064 2124880 2136222 2143012 2144286 2140484 2133265 2124891 
3771.953 2117833 2113913 2114031 2117986 2124628 2132209 2138830 2143019 
3775.811 2143787 2141082 2135574 2128608 2121817 2116825 2114635 2115552 
3779.668 2118904 2123311 2126880 2128167 2126357 2121880 2115994 2110830 
3783.526 2108483 2110758 2118406 2131240 2148105 2167138 2186113 2202616 
3787.383 2214330 2219318 2216280 2205112 2186969 2164613 2141847 2122907 
3791.240 2111230 2108826 2115458 2129105 2146053 2162715 2175906 2184081 
3795.098 2186919 2185362 2180759 2174319 2166832 2158961 2151191 2144133 
3798.955 2138514 2134807 2132820 2131611 2129407 2124561 2115938 2103957 
3802.813 2090391 2078061 2069889 2067765 2071997 2081069 2092327 2102936 
3806.670 2110790 2115210 2116883 2117229 2117471 2118237 2119145 2119170 
3810.528 2117213 2112826 2106468 2099533 2093620 2090200 2089850 2092392 
3814.385 2096906 2102240 2107435 2112003 2115689 2118467 2120272 2120693 
3818.242 2119334 2115809 2110206 2103141 2095562 2088738 2083527 2080239 
3822.100 2078539 2077596 2076396 2074246 2071031 2067571 2065124 2065385 
3825.957 2069740 2078896 2092562 2109456 2127256 2143301 2154931 2160164 
3829.815 2158070 2148996 2134430 2116725 2098606 2082683 2070936 2064548 
3833.672 2063702 2067704 2074975 2083470 2090616 2094096 2091863 2082857 
3837.530 2067400 2047397 2025987 2007343 1995622 1994147 2004390 2025727 
3841.387 2055201 2088245 2119370 2143545 2157125 2158802 2149603 2132776 
3845.244 2112877 2094471 2081262 2075316 2076609 2083581 2093796 2104711 
3849.102 2114815 2123825 2132540 2142511 2154863 2169870 2186432 2202070 
3852.959 2213754 2218663 2215162 2203353 2184905 2162778 2140196 2119992 
3856.817 2104004 2092931 2086541 2083980 2084279 2086611 2090394 2095265 
3860.674 2100785 2106268 2110871 2113597 2113498 2110068 2103371 2094170 
3864.531 2083710 2073468 2064741 2058516 2055219 2054827 2057171 2062046 
3868.389 2069310 2078976 2090930 2104731 2119368 2133633 2145941 2155147 
3872.246 2160510 2161987 2160073 2155584 2149001 2140791 2130928 2119490 
3876.104 2106944 2094357 2083420 2076031 2073753 2077276 2086057 2098419 
3879.961 2112035 2124535 2134097 2139884 2141817 2140481 2136447 2130250 
3883.819 2122083 2112130 2100689 2088398 2076132 2065127 2056441 2050987 
3887.676 2049103 2050961 2056197 2064278 2074318 2085131 2095490 2104221 
3891.533 2110736 2115084 2118167 2121315 2125654 2131705 2138620 2144687 
3895.391 2147723 2145924 2138934 2128085 2116345 2107192 2103647 2107060 
3899.248 2116778 2130345 2144349 2155844 2162800 2164926 2163047 2158494 
3903.106 2152514 2145668 2138007 2129678 2120809 2112699 2106972 2105476 
3906.963 2109405 2118855 2132581 2148410 2163653 2176095 2184341 2188193 
3910.821 2188463 2186422 2183436 2180383 2177658 2175169 2172666 2169833 
3914.678 2166725 2163654 2161109 2159654 2159407 2160252 2161490 2162256 
3918.535 2161667 2159251 2154834 2149036 2142302 2135344 2128226 2120554 
3922.393 2111644 2100916 2088409 2075137 2062956 2054338 2051392 2055238 
3926.250 2065299 2079354 2094190 2106159 2112492 2111895 2104853 2093578 
3930.108 2081023 2070548 2064579 2064543 2070347 2080703 2093450 2106280 
3933.965 2116937 2124033 2126999 2126138 2122358 2116768 2110359 2103815 
3937.823 2097390 2091452 2086556 2083865 2084688 2090441 2101627 2117563 
3941.680 2136122 2154066 2168035 2175484 2175459 2168830 2157991 2145760 
3945.537 2134639 2125951 2119976 2116369 2114787 2115813 2120495 2130358 
3949.395 2146133 2167108 2190728 2213310 2230675 2239914 2240134 2232858 
3953.252 2221441 2209982 2201785 2198509 2199428 2202271 2203801 2201135 
3957.110 2192825 2178856 2160994 2141895 2124452 2111085 2103320 2101676 
3960.967 2105692 2114359 2126164 2139595 2152977 2164941 2173995 2179074 
3964.824 2179579 2175546 2167827 2158257 2148991 2142532 2140582 2143878 
3968.682 2151807 2162468 2173492 2182761 2189074 2192659 2194817 2197363 
3972.539 2201562 2207575 2213937 2218273 2217863 2210915 2197189 2178138 
3976.397 2156577 2135640 2118089 2105671 2098882 2097495 2100845 2108547 
3980.254 2120323 2135989 2154984 2176378 2198448 2219483 2237905 2252750 
3984.112 2263628 2270884 2275078 2276665 2275923 2273120 2268684 2263323 
3987.969 2258095 2254098 2252054 2251951 2253121 2254330 2254201 2251995 
3991.826 2247537 2241417 2234653 2228208 2222580 2217983 2214135 2211104 
3995.684 2208998 2208487 2210296 2214975 2222352 2231758 2241769 2251032 
3999.541 2258338 2263256 2266160 
##END=
