##TITLE=Tecor_ABS_White_Filament_r5_ATR-Corrected
##JCAMP-DX=5.01  $$ Nicolet v. 1
##DATATYPE=INFRARED SPECTRUM
##ORIGIN=Curtin University
##OWNER=Nicolet
##LONGDATE=2024/07/19
##TIME=16:36:03
##SPECTROMETER/DATA SYSTEM=Nicolet iS50
##DATA PROCESSING=
Ratio against background
%Transmittance->Absorbance
ATR Correction
Truncated
ElementMultiply or ElementDivide
##COMMENTS=
Number of sample scans: 32
Collection length: 47.28 sec
Sample gain: 1.0
Background collected on: Fri Jul 19 16:32:32 2024 (GMT+08:00);
Number of background scans: 32
Background gain: 1.0
Sample spacing:  1.000
Number of scan points: 16672
Resolution points: 8192
Number of FFT points: 65536
Apodization: N-B strong;
Phase correction: Mertz;
Laser frequency: 15798.3 cm-1
Number of rejected sample scans: 0
Number of rejected background scans: 0
Bench serial number: AUP1200105;
##RESOLUTION=4.000
##XUNITS=1/CM
##YUNITS=ABSORBANCE
##FIRSTX=400.163452
##LASTX=4000.187744
##FIRSTY=0.011965
##MAXX=4000.187744
##MINX=400.163452
##MAXY=0.450536
##MINY=-0.001607
##XFACTOR=1.000000
##YFACTOR=1.000000E-009
##NPOINTS=7468
##DELTAX=0.482125
##ZPD=8192
##XYDATA=(X++(Y..Y))
400.163 11964584 11927429 11945640 11979795 12004081 12010560 12006722 
403.538 12007883 12024961 12059824 12103305 12139305 12153336 12139321 
406.913 12103478 12064761 12049296 12083686 12185392 12356116 12576945 
410.288 12811099 13010966 13133606 13153630 13073546 12923496 12752862 
413.663 12612028 12536575 12534438 12585042 12649206 12687260 12676521 
417.038 12623386 12560021 12531024 12571346 12689370 12858027 13022917 
420.412 13119335 13094541 12924145 12618169 12215174 11768264 11327311 
423.787 10927686 10585895 10305746 10088079 9941611 9886459 9950921 10160198 
427.644 10523776 11025110 11619348 12238889 12807594 13257032 13542443 
431.019 13651187 13604013 13445729 13232298 13018490 12845558 12736132 
434.394 12695162 12713660 12774422 12856156 12936196 12991545 12999538 
437.769 12940324 12801640 12582743 12298110 11976785 11656849 11377137 
441.143 11167364 11041099 10994913 11012789 11074479 11164601 11277588 
444.518 11416644 11588052 11792443 12019656 12247270 12446658 12591860 
447.893 12669680 12684010 12655082 12611729 12582068 12584654 12625498 
451.268 12700582 12802072 12925730 13073955 13254392 13474610 13734247 
454.643 14019835 14304660 14553667 14732263 14816033 14796074 14681680 
458.017 14495826 14268709 14030217 13804189 13606494 13445502 13324023 
461.392 13241686 13195317 13179579 13187197 13210297 13242621 13282637 
464.767 13333887 13405005 13504433 13635847 13793110 13959239 14110036 
468.142 14221662 14279876 14286215 14258828 14227140 14221282 14261005 
471.517 14348382 14467401 14590417 14690633 14752788 14779825 14791518 
474.892 14816171 14877778 14986155 15131185 15285617 15414094 15485212 
478.266 15481102 15402648 15266933 15100720 14931013 14778028 14650766 
481.641 14547727 14459941 14375012 14281806 14172967 14047133 13909724 
485.016 13772740 13653859 13573209 13549200 13592926 13704267 13869294 
488.391 14063017 14254458 14414833 14524774 14579273 14587514 14568903 
491.766 14545574 14535096 14545569 14574864 14613837 14652670 14686603 
495.140 14720383 14767440 14846374 14973052 15153635 15379258 15625078 
498.515 15855169 16030844 16121389 16113380 16015045 15855554 15677694 
501.890 15527821 15444628 15451262 15551442 15732257 15969297 16234294 
505.265 16501125 16750393 16970474 17158280 17317688 17458312 17592856 
508.640 17734108 17890802 18064390 18247362 18425036 18580574 18702438 
512.015 18791142 18862580 18946270 19078116 19291006 19605338 20023986 
515.389 20533214 21107688 21718868 22341930 22959556 23561882 24144534 
518.764 24705430 25244468 25764244 26271996 26779796 27303406 27857446 
522.139 28451640 29087580 29759762 30459108 31178062 31913280 32666032 
525.514 33436704 34220732 35004060 35765180 36480348 37133260 37722096 
528.889 38262592 38783712 39318312 39891852 40514548 41179296 41866528 
532.263 42552724 43219760 43859604 44474920 45074196 45666208 46255172 
535.638 46840112 47415940 47977684 48521972 49047736 49554212 50039040 
539.013 50497172 50922244 51308560 51653640 51957908 52222932 52446944 
542.388 52623584 52740908 52785920 52750540 52637836 52464096 52256656 
545.763 52046332 51858248 51703532 51576900 51457952 51318936 51132996 
549.138 50882464 50562524 50182300 49760928 49322496 48891032 48486656 
552.512 48122444 47803952 47528788 47287872 47067236 46850876 46623508 
555.887 46373588 46093108 45779736 45434604 45062348 44669360 44263848 
559.262 43855460 43454980 43073112 42719140 42398780 42113320 41858768 
562.637 41626880 41406628 41185448 40950828 40690948 40395516 40057344 
566.012 39674104 39249916 38795120 38325812 37858692 37407552 36978616 
569.386 36570312 36174952 35784592 35395688 35012128 34644332 34304108 
572.761 33997916 33721888 33460930 33193112 32897618 32562364 32188528 
576.136 31789500 31384372 30989412 30611148 30243928 29873540 29484274 
579.511 29066786 28623544 28167958 27720608 27301884 26926118 26597906 
582.886 26313560 26063332 25836208 25621922 25412850 25202826 24987278 
586.260 24762396 24526964 24282168 24032834 23785198 23545118 23314802 
589.635 23092678 22873466 22652014 22426792 22202592 21990166 21803814 
593.010 21655800 21552478 21491342 21462606 21451848 21445736 21434444 
596.385 21414052 21383896 21343634 21289868 21215234 21109840 20965372 
599.760 20779266 20557928 20316950 20077580 19861282 19684380 19553008 
603.135 19463540 19403724 19359008 19317032 19272522 19228382 19194354 
606.509 19182994 19204964 19264820 19359088 19476424 19600216 19712368 
609.884 19797482 19845582 19854652 19829810 19782460 19727746 19681184 
613.259 19655490 19658574 19691830 19751348 19829600 19919786 20018890 
616.634 20129842 20260896 20422236 20619944 20850926 21098326 21333464 
620.009 21519370 21620500 21611506 21484186 21250238 20937754 20583954 
623.383 20226584 19895588 19609302 19373606 19185176 19035026 18912672 
626.758 18807442 18709380 18608208 18494168 18358780 18197766 18013048 
630.133 17814712 17619354 17447172 17316424 17238862 17215902 17238402 
633.508 17288724 17345864 17390652 17410230 17400344 17364968 17312886 
636.883 17254590 17198002 17146766 17099702 17053388 17004252 16951590 
640.258 16899162 16854342 16826238 16822762 16848034 16901152 16976940 
643.632 17067774 17165984 17266344 17366234 17465612 17565220 17665532 
647.007 17765952 17865436 17963280 18060122 18158360 18261002 18370312 
650.382 18486834 18608314 18730660 18849772 18963532 19073176 19183638 
653.757 19302204 19437072 19594988 19780582 19995686 20240424 20513532 
657.132 20813344 21137268 21482036 21842786 22213992 22590320 22968200 
660.506 23347348 23731428 24126694 24540810 24979774 25445638 25935464 
663.881 26441504 26952688 27458634 27951772 28430920 28901702 29375664 
667.256 29867064 30388634 30946676 31538490 32151538 32766696 33363250 
670.631 33925856 34449672 34943108 35426180 35925048 36464868 37062632 
674.006 37723092 38438248 39191400 39963292 40738268 41508600 42275660 
677.381 43048032 43837800 44657264 45515824 46420952 47378168 48394140 
680.755 49477860 50642416 51904304 53282852 54798724 56472368 58323152 
684.130 60368684 62625332 65110356 67844936 70858616 74194648 77914744 
687.505 82102848 86868072 92345120 98696256 106111152 114807680 125031544 
690.880 137051456 151148912 167598912 186638784 208426256 232983776 
693.773 260134464 289428448 320076512 350904640 380368096 406665728 
696.665 427978656 442813472 450333248 450536000 444188992 432563008 
699.558 417105024 399171680 379881856 360067680 340294560 320910816 
702.451 302106272 283966400 266516512 249752640 233661152 218227008 
705.343 203436160 189274032 175725776 162776016 150412672 138629792 
708.236 127430560 116827752 106842240 97498560 88820752 80827136 73527288 
711.611 66919336 60990876 55718948 51072564 47013340 43497296 40476600 
714.986 37901088 35720944 33889464 32364276 31108114 30087386 29270046 
718.360 28622836 28111060 27699626 27356952 27059230 26793636 26558682 
721.735 26361484 26211630 26116320 26075446 26082172 26125516 26196548 
725.110 26292692 26420460 26593352 26827380 27134736 27519606 27976952 
728.485 28495000 29060250 29662914 30300318 30978248 31708460 32506704 
731.860 33389098 34370844 35465124 36682580 38029408 39505292 41100060 
735.235 42792236 44549972 46334704 48107916 49838308 51506536 53108192 
738.609 54651108 56151576 57629152 59103172 60591468 62111432 63681952 
741.984 65323612 67056952 68900272 70864808 72953664 75161960 77480576 
745.359 79901112 82420520 85042920 87778736 90639960 93635056 96764736 
748.734 100020192 103384856 106839256 110365680 113952216 117593856 
751.627 121290872 125043464 128846704 132684440 136525408 140321392 
754.519 144008496 147510848 150746608 153635056 156104608 158098608 
757.412 159579440 160528384 160943056 160831456 160207536 159086960 
760.305 157487072 155428928 152940832 150061344 146840080 143334976 
763.197 139607712 135718368 131721272 127662552 123580728 119507264 
766.090 115468688 111487824 107583992 103772696 100065648 96470448 92990792 
769.465 89627440 86378232 83239328 80205744 77272560 74435648 71693312 
772.840 69045960 66495268 64042964 61688432 59427756 57252648 55152644 
776.214 53116460 51135808 49206348 47328864 45507408 43746960 42051512 
779.589 40422508 38859384 37361632 35931320 34574796 33302672 32128308 
782.964 31063626 30115424 29281930 28551390 27902992 27310404 26746382 
786.339 26188258 25621458 25042678 24458334 23883068 23334568 22829068 
789.714 22377036 21981088 21635462 21329126 21048432 20781938 20522328 
793.089 20267590 20019538 19781780 19556748 19344238 19141130 18943386 
796.463 18746906 18550300 18354538 18161914 17974624 17792780 17613096 
799.838 17430750 17239836 17036780 16821788 16599398 16378112 16168818 
803.213 15983025 15831770 15723705 15665395 15659239 15702790 15787035 
806.588 15896359 16009299 16102197 16154168 16152505 16095961 15995752 
809.963 15871527 15746038 15637495 15555264 15497234 15453337 15410370 
813.337 15358342 15294140 15222659 15152905 15093506 15047068 15008948 
816.712 14968162 14912405 14833199 14730454 14612777 14495051 14392460 
820.087 14316110 14268746 14244849 14233979 14224588 14208599 14183017 
823.462 14149284 14110907 14070491 14027951 13980354 13924507 13858262 
826.837 13783609 13705801 13633328 13574629 13537023 13525636 13543978 
830.212 13594722 13681254 13807382 13976734 14190647 14446774 14738409 
833.586 15055268 15386242 15721746 16055517 16386168 16715785 17048760 
836.961 17388502 17736530 18091214 18448080 18800880 19142488 19465936 
840.336 19765230 20035620 20274756 20482664 20662410 20819164 20959098 
843.711 21087144 21204480 21306720 21384176 21422780 21407652 21326082 
847.086 21171670 20945792 20657880 20323756 19963314 19596980 19242560 
850.460 18913386 18616754 18353466 18118800 17903996 17698412 17492502 
853.835 17280488 17061124 16838494 16619608 16412456 16222376 16050644 
857.210 15893852 15745901 15600354 15453697 15306544 15163966 15032554 
860.585 14918781 14825134 14749771 14686578 14627506 14565400 14496091 
863.960 14419151 14337919 14257760 14184675 14123789 14079350 14054476 
867.335 14051341 14071004 14112690 14173722 14249509 14334453 14423362 
870.709 14512884 14602068 14691929 14782771 14873209 14957620 15027611 
874.084 15073539 15088215 15070317 15025712 14966625 14908443 14865092 
877.459 14844847 14848741 14870693 14901325 14931860 14957873 14980749 
880.834 15007437 15047116 15108321 15195231 15306808 15436593 15574472 
884.209 15709519 15832070 15935518 16017860 16081097 16131358 16177738 
887.583 16230514 16299522 16392745 16514119 16663307 16836270 17026242 
890.958 17225884 17429410 17633708 17839364 18050104 18272432 18514428 
894.333 18785362 19094558 19451866 19865860 20344086 20891726 21512086 
897.708 22206472 22975700 23821684 24748364 25762878 26874772 28094612 
901.083 29432534 30897080 32494374 34228576 36102620 38117108 40270020 
904.458 42552200 44945108 47415992 49917600 52389664 54764232 56972804 
907.832 58954640 60662016 62063292 63141600 63890256 64307660 64393924 
911.207 64148992 63575312 62680656 61482832 60011500 58308624 56424828 
914.582 54415516 52334808 50230808 48142204 46097380 44114480 42204224 
917.957 40372048 38621400 36955392 35377952 33893712 32507106 31221316 
921.332 30036676 28950106 27955488 27044022 26206120 25432496 24716386 
924.706 24053666 23443008 22885070 22381620 21933732 21541630 21204064 
928.081 20918834 20684070 20498530 20361754 20273996 20234198 20238710 
931.456 20280180 20347596 20427458 20506202 20573182 20623556 20658994 
934.831 20687514 20721242 20772942 20852606 20965228 21109998 21281928 
938.206 21473520 21677742 21889610 22106910 22329562 22558328 22793142 
941.581 23033130 23276152 23519574 23761678 24002420 24243454 24488044 
944.955 24740716 25007124 25293514 25606702 25953358 26339808 26770016 
948.330 27245786 27766462 28330324 28936186 29586320 30287228 31050350 
951.705 31890732 32824472 33867164 35033244 36336208 37791248 39416376 
955.080 41233648 43267100 45539992 48070296 50867808 53932724 57256356 
958.455 60822812 64611556 68596496 72743896 77008096 81327800 85624904 
961.829 89807344 93776152 97434360 100696032 103492128 105773088 107507592 
965.204 108680144 109288184 109341152 108860424 107879568 106443008 
968.097 104603592 102418240 99943256 97231344 94330144 91283672 88134000 
971.472 84923744 81695952 78493904 75357360 72320528 69409232 66641808 
974.847 64029688 61579540 59296416 57183656 55243548 53475872 51876228 
978.221 50436212 49142560 47979240 46928888 45975108 45104192 44306552 
981.596 43576832 42913892 42319868 41798432 41353112 40985524 40694400 
984.971 40475144 40320560 40222852 40174848 40171604 40210136 40289344 
988.346 40408292 40565036 40756380 40977140 41220396 41477332 41736396 
991.721 41982996 42198544 42361780 42450764 42446672 42337704 42122032 
995.095 41809028 41418312 40977188 40517284 40070968 39670044 39342912 
998.470 39113796 38999072 39005580 39126192 39338652 39606484 39883028 
1001.845 40119172 40271760 40310848 40224672 40019660 39716812 39345840 
1005.220 38939044 38526324 38131952 37774116 37465136 37211808 37016408 
1008.595 36876916 36787956 36741800 36730272 36746160 36785224 36844712 
1011.970 36924380 37024476 37144604 37284192 37442832 37621608 37823676 
1015.344 38054200 38319168 38623652 38970576 39359876 39788956 40254536 
1018.719 40754860 41290860 41866972 42491160 43174072 43927712 44765332 
1022.094 45699664 46742392 47901612 49180132 50571684 52059720 53615188 
1025.469 55197204 56754524 58228900 59557412 60676848 61526264 62050916 
1028.844 62205920 61960436 61301404 60236880 58797180 57032988 55011092 
1032.219 52807856 50502332 48169356 45875588 43676708 41616532 39727488 
1035.595 38029876 36532836 35234168 34121668 33175952 32373786 31692810 
1038.970 31114648 30626928 30223308 29900582 29656458 29486524 29383018 
1042.345 29335506 29332524 29363720 29421680 29502436 29603996 29725202 
1045.720 29864122 30016520 30176572 30337626 30493482 30639478 30773034 
1049.096 30893744 31003002 31103206 31198288 31292896 31393346 31506538 
1052.471 31639616 31799172 31989444 32211710 32463972 32741014 33035432 
1055.846 33338808 33643420 33943100 34234904 34518992 34799536 35083668 
1059.221 35380944 35701076 36053256 36443172 36873392 37342428 37845788 
1062.597 38376988 38929160 39495908 40071692 40651540 41230884 41804544 
1065.972 42366716 42910824 43428948 43912276 44350544 44732424 45045672 
1069.347 45278980 45422744 45471292 45423704 45283360 45057128 44753680 
1072.722 44381892 43950016 43465924 42938128 42377108 41795056 41205536 
1076.098 40620412 40048512 39492800 38950960 38416220 37880876 37338676 
1079.473 36787208 36228608 35668664 35114420 34572780 34047916 33541418 
1082.848 33052266 32578096 32115926 31663682 31220852 30788734 30371030 
1086.223 29972704 29599712 29257048 28946902 28667914 28414818 28179944 
1089.599 27955776 27737496 27524638 27321264 27133306 26965902 26820200 
1092.974 26691686 26572130 26451812 26323590 26185974 26043062 25903508 
1096.349 25775410 25663422 25566126 25476548 25385210 25284024 25169708 
1099.724 25044906 24917140 24795136 24685500 24589854 24504432 24422340 
1103.100 24335866 24240222 24135502 24026358 23920758 23827214 23751932 
1106.475 23697190 23660618 23636276 23615950 23591820 23558170 23513102 
1109.850 23458492 23399976 23344732 23299524 23268494 23251402 23243488 
1113.225 23236028 23218024 23178500 23108450 23001766 22855976 22671978 
1116.601 22453284 22205938 21937668 21657968 21376864 21104132 20847276 
1119.976 20610502 20393460 20191742 19997946 19804294 19605282 19399176 
1123.351 19189260 18982626 18788600 18616628 18473222 18361298 18279010 
1126.726 18221112 18179830 18146734 18114428 18077312 18032552 17979796 
1130.102 17920472 17857214 17793202 17731440 17674914 17626316 17587790 
1133.477 17561492 17548944 17551264 17568662 17600452 17645176 17700280 
1136.852 17762766 17829486 17897278 17964228 18029988 18096898 18169976 
1140.227 18256214 18363466 18498462 18663960 18858768 19076738 19309868 
1143.603 19550968 19796716 20050788 20322940 20627774 20981274 21397834 
1146.978 21887858 22457656 23111214 23852082 24684188 25611572 26636054 
1150.353 27753294 28950264 30202884 31477958 32735560 33933292 35030552 
1153.728 35991560 36786928 37394584 37800176 37997824 37990572 37790940 
1157.104 37420492 36908152 36287456 35593408 34858888 34113068 33379826 
1160.479 32678302 32021992 31419792 30875818 30389222 29955688 29567788 
1163.854 29218032 28900796 28613432 28357280 28135510 27951996 27808782 
1167.229 27704458 27634264 27590986 27566234 27552650 27545396 27543124 
1170.604 27547878 27565124 27602616 27669044 27772568 27919000 28110078 
1173.980 28344544 28618516 28928348 29272838 29655506 30083772 30567034 
1177.355 31112380 31719842 32379176 33069316 33759956 34416076 35003608 
1180.730 35493672 35865564 36107748 36216580 36194560 36049324 35791992 
1184.105 35437184 35002252 34506576 33970552 33412862 32850474 32297060 
1187.481 31763722 31259794 30793750 30373292 30005270 29694296 29442756 
1190.856 29249256 29110074 29019474 28971092 28959318 28979052 29026186 
1194.231 29096590 29185634 29287780 29396474 29504382 29604206 29689534 
1197.606 29755988 29801718 29827672 29837400 29836310 29829564 29820990 
1200.982 29811824 29800608 29783466 29756108 29715466 29660610 29593470 
1204.357 29517698 29437654 29356624 29275748 29194474 29110054 29019236 
1207.732 28918504 28804772 28675436 28529196 28366332 28188626 28000512 
1211.107 27808292 27618782 27437994 27269136 27111158 26958978 26805286 
1214.483 26642072 26464006 26269774 26062464 25849868 25641248 25446976 
1217.858 25276074 25134934 25026656 24951132 24904188 24878432 24864650 
1221.233 24853522 24837458 24813864 24784722 24756580 24738008 24736786 
1224.608 24756564 24796252 24849960 24909840 24969122 25024140 25075496 
1227.984 25127226 25184582 25251540 25329744 25417796 25512426 25609652 
1231.359 25706534 25801614 25894546 25986008 26076994 26168400 26261166 
1234.734 26356160 26453252 26551328 26646910 26734558 26807196 26858468 
1238.109 26883850 26882846 26858742 26818332 26769082 26717638 26667704 
1241.485 26619892 26572130 26521466 26465752 26404242 26337836 26268872 
1244.860 26199552 26131574 26066100 26003348 25943234 25885596 25829910 
1248.235 25776256 25724346 25674818 25629290 25590544 25562362 25548578 
1251.610 25552164 25573576 25610398 25656896 25705518 25748338 25779288 
1254.986 25795340 25797662 25790860 25781990 25778220 25785096 25804720 
1258.361 25835070 25870162 25901510 25920262 25919850 25897486 25855782 
1261.736 25801680 25745344 25696994 25664264 25649840 25650894 25659400 
1265.111 25663956 25653132 25617722 25553396 25461766 25350634 25232360 
1268.487 25121978 25034058 24980014 24965464 24989874 25046680 25125212 
1271.862 25213868 25302728 25385920 25462368 25534858 25608114 25686550 
1275.237 25772662 25866106 25965166 26067014 26169608 26272598 26376698 
1278.612 26483242 26592940 26705004 26817914 26928874 27035832 27137800 
1281.988 27235428 27331220 27428162 27529962 27639174 27756934 27882496 
1285.363 28013630 28146672 28277770 28404450 28525996 28644768 28765532 
1288.738 28894626 29037874 29198314 29375480 29564856 29759072 29950726 
1292.113 30134404 30308812 30476422 30642922 30814386 30995124 31185610 
1295.489 31382952 31581770 31776160 31961828 32137930 32306510 32472384 
1298.864 32641508 32819100 33009100 33213268 33431508 33662508 33904152 
1302.239 34154532 34412304 34676420 34946032 35219392 35493624 35763744 
1305.614 36022688 36262824 36477088 36660992 36815116 36944960 37060700 
1308.990 37175236 37300756 37445612 37612960 37798976 37995216 38190568 
1312.365 38374304 38538376 38678580 38794296 38887080 38958760 39010092 
1315.740 39040488 39048588 39033508 38996500 38941688 38875356 38805180 
1319.115 38738132 38678936 38629012 38587616 38552408 38522124 38497864 
1322.490 38483560 38485216 38509084 38559044 38634888 38732340 38843444 
1325.866 38959284 39072352 39178444 39277424 39372656 39469268 39571860 
1329.241 39683204 39802424 39925708 40046068 40154552 40241180 40296020 
1332.616 40311364 40282524 40209800 40099120 39961996 39814468 39674360 
1335.991 39558636 39481044 39449768 39467508 39531692 39636136 39773196 
1339.367 39934660 40113280 40303180 40500576 40703744 40912772 41129172 
1342.742 41354908 41590580 41834572 42082352 42326568 42558624 42770528 
1346.117 42956812 43116460 43252224 43370848 43480300 43588408 43700788 
1349.492 43820136 43944980 44071368 44192304 44300008 44386924 44447556 
1352.868 44479504 44484708 44468672 44439696 44406916 44378316 44359372 
1356.243 44352520 44357672 44373484 44398412 44431456 44472080 44519472 
1359.618 44572032 44626628 44679448 44727232 44767364 44798932 44822104 
1362.993 44837428 44844612 44842232 44828148 44800816 44759904 44707000 
1366.369 44645352 44578696 44508868 44435904 44357132 44268384 44165464 
1369.744 44044904 43904760 43744316 43562976 43359768 43133260 42882236 
1373.119 42605944 42304716 41979060 41629188 41252820 40845292 40400216 
1376.494 39911532 39376220 38796624 38180896 37541416 36892224 36245872 
1379.870 35611340 34993388 34393784 33813016 33251964 32711956 32194018 
1383.245 31697244 31218168 30751122 30290152 29831540 29375228 28925606 
1386.620 28489360 28073312 27681094 27311672 26959832 26617962 26279618 
1389.995 25941808 25606114 25278884 24968578 24683772 24430940 24212726 
1393.371 24028060 23872440 23738702 23618980 23505446 23391516 23273152 
1396.746 23149776 23023592 22899894 22785230 22686380 22608738 22555164 
1400.121 22525862 22517872 22526346 22544602 22564890 22579066 22579928 
1403.496 22561582 22520914 22459024 22380774 22295376 22214324 22149410 
1406.872 22111234 22107352 22141282 22212396 22317302 22450578 22606260 
1410.247 22779778 22969030 23175314 23404052 23663902 23964566 24315644 
1413.622 24723082 25186748 25699680 26247826 26811212 27367728 27894116 
1416.997 28369712 28777664 29105712 29347132 29500954 29572408 29574008 
1420.373 29524856 29450438 29380608 29347792 29382702 29512064 29756080 
1423.748 30126620 30627716 31257824 32012332 32887332 33881856 34998280 
1427.123 36241292 37615592 39122212 40757476 42512376 44373204 46324856 
1430.498 48352836 50444824 52590680 54782856 57014348 59278844 61570224 
1433.874 63883088 66213324 68558160 70917112 73291112 75683528 78099648 
1437.249 80548048 83039552 85587624 88207584 90915392 93728624 96665728 
1440.624 99747872 102999808 106448192 110120608 114040432 118222696 
1443.517 122669776 127369792 132297728 137421376 142707664 148131072 
1446.410 153681440 159367824 165220656 171285296 177609104 184217488 
1449.303 191080576 198074416 204946416 211296864 216590304 220207168 
1452.196 221531376 220062704 215517120 207890240 197464720 184764576 
1455.089 170474704 155348752 140120672 125430424 111772512 99469848 88675648 
1458.465 79399296 71545952 64960316 59462620 54874556 51033632 47798860 
1461.840 45051200 42693220 40646620 38851336 37262064 35845952 34578536 
1465.215 33440132 32413468 31482946 30634516 29856722 29140410 28479640 
1468.590 27869852 27307918 26790496 26314428 25876816 25475182 25108534 
1471.966 24776738 24480940 24222952 24004480 23827200 23691620 23597554 
1475.341 23543648 23528210 23550206 23609526 23708142 23850220 24042044 
1478.716 24290672 24603656 24989154 25455738 26014216 26677516 27462446 
1482.091 28388854 29478932 30756794 32247916 33979616 35982456 38291864 
1485.467 40950892 44015052 47557444 51677100 56504476 62203360 68960976 
1488.842 76961368 86340032 97123072 109160736 122070552 135214144 147721104 
1492.217 158574864 166753136 171397408 171974560 168379664 160954480 
1495.110 150413760 137705008 123843728 109767880 96236864 83785336 72724744 
1498.485 63175604 55115940 48429644 42947848 38482460 34848460 31879574 
1501.861 29436730 27410456 25718018 24297482 23100508 22085608 21215784 
1505.236 20457048 19781964 19171486 18615796 18113356 17666720 17278078 
1508.611 16946456 16666183 16428107 16222278 16039515 15872840 15718255 
1511.986 15573253 15436914 15307847 15185500 15068793 14957573 14851383 
1515.362 14750686 14655076 14565579 14482613 14407977 14343376 14290304 
1518.737 14247994 14214356 14185013 14155085 14120300 14079364 14034849 
1522.112 13991853 13956456 13933147 13923278 13924229 13930284 13935206 
1525.487 13933830 13924292 13908395 13891089 13878059 13874946 13884801 
1528.863 13908115 13942411 13984025 14028461 14073030 14117625 14165097 
1532.238 14220589 14290696 14381303 14494825 14630205 14782069 14942795 
1535.613 15103917 15258510 15401871 15531221 15645131 15742121 15821170 
1538.988 15881842 15926307 15960351 15993366 16036073 16097588 16181542 
1542.364 16284665 16396195 16501468 16586157 16639695 16658746 16647356 
1545.739 16614752 16571991 16528310 16489904 16459204 16435631 16417300 
1549.114 16401689 16385593 16365275 16336991 16297054 16243979 16179444 
1552.489 16108181 16037460 15973924 15921099 15877845 15838098 15793258 
1555.865 15735362 15660333 15569902 15470977 15373643 15287033 15217548 
1559.240 15165879 15129032 15100725 15075038 15047858 15017906 14986455 
1562.615 14956093 14930001 14910830 14900754 14900843 14911266 14931395 
1565.990 14960602 14998158 15044335 15100838 15170340 15255778 15359086 
1569.365 15479540 15613073 15753472 15892861 16025912 16151119 16273059 
1572.741 16401496 16550433 16734753 16968366 17261746 17622144 18054288 
1576.116 18563034 19155776 19844744 20646688 21581524 22668084 23917452 
1579.491 25327178 26873350 28507376 30155286 31723116 33106766 34204976 
1582.866 34933892 35239120 35103492 34551164 33642328 32466688 31130340 
1586.242 29742234 28403066 27194474 26174568 25375872 24808122 24462882 
1589.617 24320744 24358902 24556680 24899928 25381654 26000144 26757302 
1592.992 27655902 28699312 29893772 31251018 32791256 34543704 36543184 
1596.367 38823692 41407264 44294352 47452856 50813240 54267408 57674216 
1599.743 60869620 63680656 65942636 67515496 68297624 68236848 67335496 
1603.118 65650120 63284732 60380744 57100140 53609356 50063056 46592000 
1606.493 43295384 40240304 37463760 34979732 32785136 30866446 29204176 
1609.868 27775962 26557290 25523140 24647496 23904880 23271850 22727164 
1613.244 22253760 21838584 21472162 21147728 20859640 20603138 20372984 
1616.619 20165040 19975660 19802702 19644850 19502314 19375166 19262962 
1619.994 19165214 19080382 19007208 18944092 18889170 18840124 18793588 
1623.369 18745370 18690602 18625750 18549918 18465812 18379838 18300844 
1626.745 18238016 18197834 18183582 18193564 18222262 18263434 18311950 
1630.120 18365758 18426580 18499480 18591518 18710598 18863480 19055442 
1633.495 19289938 19567942 19887424 20242842 20624578 21019292 21410208 
1636.870 21779800 22110340 22385886 22592710 22720718 22761778 22712154 
1640.246 22572576 22348686 22051588 21696630 21301616 20884898 20462190 
1643.621 20046828 19647480 19270460 18919222 18596380 18303706 18042650 
1646.996 17813426 17615472 17446380 17303138 17182276 17080168 16993854 
1650.371 16921216 16859798 16807870 16762579 16721465 16682118 16642807 
1653.747 16602127 16559852 16514972 16467374 16415874 16361037 16304260 
1657.122 16249474 16202861 16171949 16164515 16185740 16236445 16312778 
1660.497 16406270 16505340 16598338 16676355 16735081 16776137 16805878 
1663.872 16833094 16866422 16910830 16966396 17028378 17087854 17135772 
1667.248 17164828 17171884 17158680 17131030 17097078 17063164 17033306 
1670.623 17007282 16981752 16951558 16912442 16861960 16800616 16731238 
1673.998 16658138 16585508 16516479 16453093 16395411 16342353 16291825 
1677.373 16241837 16190002 16135300 16077494 16018409 15960941 15908392 
1680.749 15863501 15826551 15794422 15761020 15717801 15657177 15574299 
1684.124 15469612 15349200 15223495 15104467 15002379 14923916 14870110 
1687.499 14837162 14818855 14807220 14795745 14779978 14758261 14730468 
1690.874 14698546 14663920 14628242 14591573 14553624 14513421 14470961 
1694.250 14427107 14384314 14346770 14319342 14306052 14309142 14327771 
1697.625 14359085 14397299 14436509 14471781 14499835 14519801 14533170 
1701.000 14541316 14545495 14546569 14543901 14537374 14527675 14517107 
1704.375 14509984 14510747 14523093 14548639 14585618 14629995 14676534 
1707.750 14720676 14760339 14796674 14834413 14879690 14938920 15015886 
1711.126 15111474 15222577 15343774 15469283 15595230 15721440 15851334 
1714.501 15991710 16150303 16331961 16538350 16766198 17008554 17257114 
1717.876 17506416 17755006 18006550 18268008 18547162 18848314 19171512 
1721.251 19511410 19859264 20207112 20549974 20887654 21224612 21567546 
1724.627 21921292 22287174 22660790 23033732 23396262 23740078 24061838 
1728.002 24361962 24644610 24913772 25171502 25415760 25641656 25842334 
1731.377 26012934 26151888 26261866 26348250 26417798 26475186 26521652 
1734.752 26553672 26564924 26547224 26493108 26396594 26254916 26068190 
1738.128 25838560 25570850 25271038 24946392 24604438 24251912 23894948 
1741.503 23537364 23181362 22828722 22481056 22140910 21812802 21501484 
1744.878 21212300 20949106 20712610 20499896 20305668 20122860 19945340 
1748.253 19770086 19598224 19433856 19283166 19151216 19039080 18943608 
1751.629 18856844 18768016 18667900 18549110 18410216 18253472 18085120 
1755.004 17911718 17739326 17571762 17410868 17256650 17109706 16971160 
1758.379 16843400 16727924 16626639 16538300 16459635 16384570 16305592 
1761.754 16214892 16106145 15974872 15820403 15645843 15457868 15266495 
1765.130 15084012 14921932 14789924 14692823 14629278 14591250 14565557 
1768.505 14537702 14494719 14428473 14337637 14227047 14106069 13984984 
1771.880 13872581 13773161 13686975 13610616 13538948 13468144 13395274 
1775.255 13319914 13242965 13165141 13087281 13009327 12931995 12856126 
1778.631 12784475 12720882 12668047 12626993 12595993 12569476 12539763 
1782.006 12499471 12443676 12371347 12287093 12198783 12115657 12045888 
1785.381 11994891 11964358 11953404 11959155 11978680 12008982 12047544 
1788.756 12091964 12140143 12190578 12244355 12305094 12380701 12479457 
1792.132 12608931 12771580 12962922 13171390 13382262 13581379 13760979 
1795.507 13922179 14074226 14229898 14400781 14589687 14789972 14985489 
1798.882 15156664 15287171 15370753 15413561 15432719 15450611 15487625 
1802.257 15555055 15652383 15767569 15882649 15980599 16050901 16093165 
1805.633 16117856 16141281 16180541 16247083 16343502 16461026 16583279 
1809.008 16690182 16764447 16795444 16781778 16730038 16650876 16553219 
1812.383 16440747 16310630 16155872 15969599 15752545 15516057 15283011 
1815.758 15081796 14939214 14871352 14876647 14935829 15017577 15089793 
1819.134 15129366 15129567 15099092 15055628 15016444 14989604 14970562 
1822.509 14945971 14899453 14820719 14709626 14575767 14434102 14297069 
1825.884 14168236 14042374 13908459 13756259 13583369 13398412 13218206 
1829.259 13060681 12936806 12844439 12767381 12680242 12558474 12386534 
1832.635 12165090 11910544 11649414 11410300 11213728 11066481 10960741 
1836.010 10878330 10797917 10703837 10590038 10461943 10333430 10219187 
1839.385 10130452 10068160 10023255 9980550 9923800 9843364 9740031 9625534 
1843.242 9519334 9441465 9404055 9406576 9434459 9464149 9471202 9437892 
1847.100 9361592 9253927 9139217 9045153 8995410 9001782 9062459 9162860 
1850.957 9281376 9394510 9484244 9538945 9556461 9541610 9507484 9471164 
1854.815 9454724 9480193 9566278 9724372 9953077 10236492 10546966 10849167 
1858.672 11110301 11307120 11432467 11496568 11522810 11540369 11575519 
1862.047 11645546 11755686 11901352 12073249 12261193 12458499 12661410 
1865.423 12867173 13070581 13263266 13433830 13573309 13679586 13762697 
1868.798 13844343 13956596 14129560 14384890 14724556 15127633 15552728 
1872.173 15946694 16255589 16439863 16480835 16386295 16187303 15930025 
1875.548 15664468 15435031 15271799 15187713 15178431 15227909 15313495 
1878.924 15412454 15507030 15586998 15649740 15698597 15737064 15766649 
1882.299 15781816 15771804 15722474 15624070 15476380 15293904 15104567 
1885.674 14944572 14845613 14825604 14878356 14973297 15064663 15104010 
1889.049 15057631 14919674 14714343 14490149 14302307 14194811 14184908 
1892.425 14257423 14368143 14459777 14478082 14390106 14189671 13898742 
1895.800 13557130 13209995 12893411 12627020 12410942 12230237 12060460 
1899.175 11877989 11665718 11418096 11140739 10850700 10569039 10319301 
1902.550 10119861 9981437 9905710 9884340 9900509 9933294 9960153 9961138 
1906.408 9919228 9825063 9676191 9478675 9245108 8995634 8751798 8536551 
1910.265 8366642 8252758 8196194 8192314 8232708 8309286 8415299 8547259 
1914.123 8700323 8868301 9039284 9198770 9330115 9421021 9461486 9447608 
1917.980 9374018 9233485 9012306 8697825 8284295 7785212 7241239 6718847 
1921.837 6299488 6061799 6057351 6293699 6728112 7278079 7841426 8327859 
1925.695 8679487 8885650 8976654 9010267 9046803 9130244 9274011 9463252 
1929.552 9656440 9801179 9842847 9739859 9467891 9032356 8468634 7843789 
1933.410 7248499 6779672 6517019 6500877 6714027 7084561 7503533 7858794 
1937.267 8069915 8119505 8054546 7973219 7987006 8182483 8590367 9178034 
1941.125 9862700 10545586 11144919 11622152 11983714 12272296 12535878 
1944.500 12809681 13096202 13372351 13598076 13741639 13790349 13760382 
1947.875 13687965 13618990 13592964 13634591 13752860 13942211 14184534 
1951.250 14455585 14718953 14930721 15034635 14979065 14723947 14263194 
1954.625 13627858 12890145 12143380 11481842 10967317 10617632 10401717 
1958.001 10260141 10130798 9981316 9819438 9694818 9667179 9781207 10034367 
1961.858 10388454 10782498 11181395 11602364 12127418 12870593 13925708 
1965.233 15300045 16868156 18373212 19486164 19894790 19417952 18065554 
1968.609 16064264 13790828 11674399 10072030 9177712 8977664 9288114 9821785 
1972.466 10300350 10532009 10460649 10157199 9783768 9530462 9567931 9997685 
1976.323 10846926 12048584 13466163 14901101 16139880 16988692 17324648 
1979.699 17113522 16420927 15386691 14195167 13024585 12025500 11287948 
1983.074 10843784 10667744 10708475 10897705 11175808 11488332 11790044 
1986.449 12035808 12187410 12206998 12072156 11778979 11350074 10824995 
1989.824 10264557 9728153 9277293 8952300 8768056 8700566 8694602 8663554 
1993.682 8518611 8196249 7687937 7055847 6426111 5953338 5775154 5955947 
1997.539 6464593 7173469 7898500 8450380 8699965 8599865 8193843 7577465 
2001.397 6866247 6151531 5498480 4946507 4541731 4351105 4459143 4932032 
2005.254 5787884 6949726 8263708 9521080 10542347 11225025 11581760 11704323 
2009.112 11715095 11686729 11623119 11455738 11090360 10466183 9597465 
2012.487 8568520 7515338 6558898 5773372 5158486 4670847 4254773 3894849 
2016.344 3610030 3467449 3527197 3819742 4323442 4973224 5681368 6368244 
2020.202 6971440 7451630 7780755 7946639 7953130 7852314 7735364 7743228 
2024.059 8004096 8597284 9485107 10510953 11424973 11967592 11959274 
2027.434 11370865 10326564 9061219 7820693 6792775 6041606 5542776 5227674 
2031.292 5065363 5090262 5400477 6089481 7185459 8589439 10094685 11442021 
2035.149 12409086 12880617 12880108 12542871 12064991 11627294 11365921 
2038.524 11343230 11575108 12041800 12708046 13516428 14388464 15213462 
2041.900 15869539 16240273 16255623 15900562 15232872 14359253 13416545 
2045.275 12545186 11878818 11529760 11593550 12121177 13099123 14419036 
2048.650 15880885 17216712 18169790 18564730 18365446 17677068 16700052 
2052.025 15657017 14728095 13993024 13422652 12902228 12295183 11498929 
2055.401 10498069 9367138 8240756 7260501 6526508 6071226 5866209 5841149 
2059.258 5924450 6067984 6258761 6509980 6848571 7288607 7828376 8437083 
2063.115 9065888 9652437 10136788 10466719 10615516 10588008 10427791 
2066.491 10206311 10007216 9896651 9903670 10000705 10115472 10153818 
2069.866 10039044 9740732 9293182 8782095 8321984 8014422 7921159 8052529 
2073.723 8371132 8809907 9295071 9757093 10143328 10411603 10537367 10514328 
2077.581 10364753 10138817 9914850 9776412 9790936 9983486 10327938 10752216 
2081.438 11165434 11484852 11664948 11704071 11640911 11527030 11410798 
2084.813 11317960 11253140 11204734 11158409 11100653 11022152 10907918 
2088.189 10736304 10479513 10114385 9633984 9058767 8432611 7812961 7250308 
2092.046 6775941 6400743 6125289 5956257 5922992 6067136 6432863 7025069 
2095.904 7792173 8618190 9349727 9841143 10006284 9845666 9448469 8955097 
2099.761 8510501 8208936 8076196 8069130 8114118 8146407 8142652 8127998 
2103.618 8160663 8295623 8556015 8912305 9292854 9604702 9768498 9744416 
2107.476 9545536 9230897 8891325 8622253 8506625 8596841 8908493 9417584 
2111.333 10062968 10754266 11389136 11866798 12110624 12079964 11784094 
2114.708 11272607 10625818 9935330 9286764 8740801 8330669 8058258 7900111 
2118.566 7815610 7755929 7672928 7532317 7319854 7047008 6749548 6478318 
2122.423 6279541 6182749 6182949 6244075 6305373 6304111 6198914 5985001 
2126.281 5695545 5390951 5138623 4987954 4953071 5010779 5105260 5169351 
2130.138 5134823 4955630 4612597 4117856 3511255 2856298 2225950 1692335 
2133.996 1302366 1062542 931992 827036 646337 316387 -179319 -768248 
2137.853 -1305931 -1606645 -1500465 -891029 201933 1647678 3231692 4722569 
2141.710 5929670 6749519 7177400 7284139 7165885 6901298 6519451 6011473 
2145.568 5348454 4540409 3655019 2832360 2244539 2042320 2284151 2905680 
2149.425 3715712 4450297 4856498 4771915 4180030 3216810 2119989 1148788 
2153.283 489899 207464 241993 465585 773086 1161630 1769858 2856262 4689134 
2157.622 7417313 10938319 14851856 18543522 21396158 22997726 23293116 
2160.998 22540484 21183262 19682926 18401450 17537388 17142714 17156612 
2164.373 17464514 17930262 18431188 18861290 19139694 19212240 19070466 
2167.748 18749128 18330472 17914382 17590922 17403980 17338566 17321762 
2171.123 17259228 17065446 16708473 16211160 15643682 15081424 14574626 
2174.499 14119431 13667112 13148877 12527321 11818495 11106603 10521056 
2177.874 10203706 10254045 10707490 11522713 12591536 13771750 14912113 
2181.249 15881628 16594237 17005550 17123140 16995166 16698444 16318779 
2184.624 15939323 15613799 15370149 15195196 15052435 14896750 14687875 
2188.000 14404248 14045883 13629596 13186313 12747088 12347645 12021121 
2191.375 11808352 11741467 11849807 12138614 12587707 13144793 13736814 
2194.750 14284580 14722387 15010402 15142033 15137369 15038781 14894743 
2198.125 14765089 14710625 14796427 15078305 15588930 16313616 17181780 
2201.500 18060844 18790116 19219492 19259070 18910800 18278210 17533736 
2204.876 16870336 16433947 16283130 16370859 16571851 16727800 16711501 
2208.251 16463319 16015571 15466892 14949892 14583119 14434162 14507963 
2211.626 14754492 15093434 15440756 15732674 15936067 16044404 16073491 
2215.001 16040573 15963757 15849669 15699113 15510600 15292254 15065730 
2218.377 14876854 14783032 14843370 15100196 15554923 16157219 16809874 
2221.752 17387094 17776422 17904884 17781662 17489734 17176092 17004038 
2225.127 17112398 17578492 18404416 19531556 20876476 22364162 23959266 
2228.502 25668814 27533992 29601472 31904124 34442552 37187688 40089708 
2231.878 43090080 46128152 49139912 52047280 54757268 57155712 59123108 
2235.253 60553616 61377284 61573960 61182828 60289864 59017408 57497532 
2238.628 55850556 54169556 52513940 50900892 49314144 47714576 46054388 
2242.003 44299620 42444612 40523948 38610056 36792936 35156288 33746892 
2245.379 32555066 31513512 30519556 29465504 28279998 26949352 25522920 
2248.754 24094920 22770312 21629894 20706044 19982744 19410614 18933494 
2252.129 18514420 18145080 17845354 17639474 17541512 17535530 17580508 
2255.504 17619568 17605756 17516204 17363672 17189174 17044018 16969922 
2258.880 16984436 17072302 17197322 17312878 17384194 17395760 17359194 
2262.255 17303466 17265114 17267800 17322776 17419238 17534230 17641870 
2265.630 17723810 17774752 17801168 17815050 17825648 17832880 17826032 
2269.005 17785422 17693734 17539312 17323974 17061288 16772609 16480906 
2272.381 16206542 15963284 15760545 15606210 15507861 15472027 15503487 
2275.756 15597845 15744356 15922148 16106639 16276969 16418697 16526803 
2279.131 16606551 16666748 16718751 16770316 16826520 16890816 16965454 
2282.506 17051588 17149384 17254466 17358140 17449616 17520100 17565490 
2285.882 17590708 17608990 17635918 17684380 17759252 17853302 17950412 
2289.257 18029572 18072152 18063208 17996684 17871006 17688016 17451502 
2292.632 17166332 16841716 16494587 16147431 15826670 15557470 15356658 
2296.007 15228718 15166170 15151661 15166665 15194586 15227541 15262908 
2299.383 15303474 15352104 15409346 15473817 15541952 15611283 15681267 
2302.758 15752675 15825437 15897533 15965011 16021347 16062336 16085414 
2306.133 16093282 16092762 16092708 16102443 16131219 16184259 16265856 
2309.508 16375881 16509693 16658984 16810932 16951120 17065832 17147944 
2312.884 17197902 17224178 17240322 17258424 17287768 17328828 17377014 
2316.259 17424822 17466722 17502542 17538142 17583526 17653090 17762568 
2319.634 17929366 18171316 18501834 18923324 19417066 19935266 20402342 
2323.009 20723302 20806106 20585804 20043864 19216724 18191282 17084158 
2326.385 16018910 15098402 14386387 13900304 13615176 13479819 13435997 
2329.760 13434946 13446490 13457488 13465360 13470182 13471399 13464629 
2333.135 13448377 13426396 13408172 13406943 13434405 13495366 13586157 
2336.510 13695905 13810496 13916901 14006474 14073148 14113612 14123907 
2339.885 14101663 14046231 13962706 13862090 13762620 13681051 13630766 
2343.261 13614765 13624806 13645165 13658205 13650541 13616485 13560045 
2346.636 13489323 13413924 13341657 13276453 13219979 13173969 13140870 
2350.011 13122195 13118575 13126395 13139505 13149302 13150340 13142454 
2353.386 13129825 13120350 13119639 13125960 13130388 13116077 13066258 
2356.762 12968177 12820164 12631301 12418747 12204256 12006167 11838092 
2360.137 11706912 11613346 11555353 11527008 11518757 11516914 11504853 
2363.512 11464676 11381953 11252392 11083034 10893195 10709179 10556012 
2366.887 10452315 10402231 10398880 10424857 10463371 10500473 10533150 
2370.263 10566632 10613224 10683967 10784757 10911970 11051961 11183441 
2373.638 11283507 11334149 11327862 11269697 11179368 11083836 11010954 
2377.013 10979837 10995916 11047916 11112685 11162821 11177277 11147659 
2380.388 11081596 10998212 10921258 10869158 10850062 10860873 10890841 
2383.764 10928402 10966937 11005729 11049408 11101254 11160715 11219244 
2387.139 11264126 11282074 11265077 11213190 11134000 11040223 10945453 
2390.514 10860340 10792167 10746387 10727255 10738627 10783968 10863065 
2393.889 10972497 11103633 11244860 11384481 11513256 11623071 11707000 
2397.265 11756747 11763209 11718404 11621020 11481090 11323118 11179090 
2400.640 11081651 11052037 11090043 11174077 11265875 11325602 11327714 
2404.015 11269599 11173374 11075509 11012972 11006398 11055016 11134684 
2407.390 11213905 11266229 11283004 11278083 11280582 11322467 11423950 
2410.766 11585326 11785892 11990375 12162150 12274085 12318038 12301727 
2414.141 12245837 12175841 12111328 12064036 12035187 12017586 12001189 
2417.516 11976524 11937506 11883399 11818736 11750564 11687155 11634343 
2420.891 11594244 11563216 11534366 11500148 11457642 11411141 11373633 
2424.267 11363554 11400328 11492275 11634807 11806517 11974986 12107510 
2427.642 12180947 12192561 12162099 12124378 12118395 12173495 12297788 
2431.017 12474870 12670887 12845564 12968772 13025858 13023866 12985137 
2434.392 12937739 12902982 12889691 12891915 12897572 12890073 12861316 
2437.768 12811866 12750786 12691404 12646883 12625170 12630693 12661175 
2441.143 12712051 12775723 12843843 12905113 12949121 12968395 12962594 
2444.518 12939570 12916211 12913181 12948293 13029370 13151688 13296647 
2447.893 13442419 13567561 13663347 13731470 13782852 13829728 13877281 
2451.269 13919675 13943069 13930089 13869432 13762150 13621655 13469594 
2454.644 13327211 13208427 13117200 13048930 12997278 12958626 12936857 
2458.019 12939972 12977554 13051516 13154963 13269851 13373481 13444138 
2461.394 13468408 13442961 13377522 13289173 13200220 13132227 13103717 
2464.770 13125877 13201788 13322816 13470381 13617772 13737340 13806275 
2468.145 13815599 13772069 13697364 13618663 13560401 13533868 13535269 
2471.520 13546365 13545113 13514736 13449418 13358193 13258637 13168265 
2474.895 13100027 13053431 13021268 12990585 12952252 12903018 12847288 
2478.271 12793701 12752724 12731764 12734658 12761828 12812219 12883258 
2481.646 12969557 13061308 13146022 13208040 13236510 13227413 13190400 
2485.021 13146202 13121580 13139132 13211897 13334163 13483523 13627287 
2488.396 13731375 13771116 13739036 13645200 13516832 13388766 13297345 
2491.771 13271756 13327069 13463185 13666292 13910518 14167119 14408964 
2495.147 14615677 14777667 14894460 14970890 15013709 15028604 15019591 
2498.522 14990510 14949416 14908724 14884559 14892471 14939277 15019294 
2501.897 15113302 15193393 15233072 15215144 15139502 15020766 14882221 
2505.272 14745916 14624465 14517706 14417316 14314368 14209121 14113939 
2508.648 14052829 14051237 14127555 14283278 14501117 14749021 14989059 
2512.023 15187883 15323838 15389857 15391882 15343813 15263368 15167184 
2515.398 15070635 14983180 14911337 14856797 14817370 14789008 14770103 
2518.773 14763629 14778721 14828937 14926407 15075992 15269785 15484273 
2522.149 15687780 15846118 15934810 15944812 15885409 15778633 15651718 
2525.524 15527648 15417296 15321345 15231559 15137506 15032974 14918224 
2528.899 14800387 14689564 14596888 14531874 14500571 14506395 14550637 
2532.274 14631798 14744969 14882865 15034447 15187551 15331793 15458218 
2535.650 15563231 15645197 15705626 15744679 15762255 15756547 15725672 
2539.025 15668845 15586051 15479766 15354244 15215375 15070832 14930012 
2542.400 14803329 14701540 14631915 14597450 14596374 14621013 14660869 
2545.775 14707237 14752772 14793446 14827809 14853458 14868332 14869864 
2549.151 14858980 14843213 14837971 14864070 14941155 15079799 15275606 
2552.526 15506251 15738316 15936870 16076552 16148886 16164817 16148537 
2555.901 16127441 16121544 16137479 16170958 16209604 16243109 16268279 
2559.276 16290616 16320882 16368117 16435174 16514575 16592544 16652452 
2562.652 16682044 16676392 16640298 16583584 16520036 16461903 16418330 
2566.027 16392682 16384544 16389435 16398989 16403276 16392194 16360376 
2569.402 16308507 16245561 16187690 16153825 16158411 16206743 16291672 
2572.777 16395407 16494520 16568489 16605355 16605865 16580919 16549293 
2576.153 16528049 16531404 16566386 16633799 16731154 16854222 16997906 
2579.528 17154944 17315266 17465254 17589080 17672472 17707756 17695240 
2582.903 17645516 17576208 17507226 17455616 17430952 17433684 17455726 
2586.278 17485004 17509420 17520780 17516730 17501354 17484490 17475812 
2589.654 17484292 17514828 17566042 17630610 17697566 17754076 17788006 
2593.029 17790270 17758570 17695608 17612104 17523332 17449646 17412358 
2596.404 17431406 17519840 17682088 17909660 18182408 18469238 18734704 
2599.779 18943478 19069216 19098164 19031494 18885830 18688584 18473334 
2603.155 18273558 18117394 18025104 18006080 18058354 18171082 18326772 
2606.530 18503522 18679920 18836826 18960502 19042486 19079326 19070630 
2609.905 19020160 18933090 18818986 18691578 18567560 18466032 18402838 
2613.280 18387050 18417640 18482042 18560386 18630310 18674796 18685644 
2616.656 18667934 18635232 18606842 18598982 18620754 18671372 18742040 
2620.031 18817150 18880640 18920666 18930682 18911904 18872452 18824674 
2623.406 18784038 18763986 18773884 18816414 18886636 18973338 19062648 
2626.781 19141990 19206410 19257390 19304674 19361278 19437836 19537386 
2630.156 19656212 19782276 19901214 20001748 20078098 20132730 20172730 
2633.532 20205290 20235902 20264482 20288276 20302740 20304324 20293456 
2636.907 20273332 20248136 20220702 20192282 20161002 20126060 20087368 
2640.282 20049106 20017512 19999438 19999880 20019124 20053158 20094602 
2643.657 20134638 20166212 20184874 20190336 20183756 20168164 20147298 
2647.033 20123572 20100456 20081438 20069736 20067944 20076598 20095530 
2650.408 20122328 20153968 20188204 20222906 20257080 20288224 20313386 
2653.783 20327276 20324974 20302168 20257416 20194742 20122016 20050342 
2657.158 19988770 19943750 19915202 19897572 19881194 19854858 19809236 
2660.534 19738222 19639742 19516124 19371040 19210132 19039328 18864892 
2663.909 18694548 18536458 18400576 18296422 18231810 18211952 18236788 
2667.284 18300146 18391186 18493046 18587582 18657536 18689936 18678748 
2670.659 18625382 18539804 18436216 18330528 18236144 18162336 18111356 
2674.035 18080700 18064878 18057064 18051946 18045652 18036114 18023512 
2677.410 18007928 17990356 17972778 17958254 17951660 17957326 17978596 
2680.785 18015922 18065628 18120858 18172586 18212780 18236010 18241724 
2684.160 18233168 18215842 18195894 18177198 18160938 18146026 18130474 
2687.536 18113196 18096186 18083328 18079788 18089364 18112246 18145278 
2690.911 18181400 18211922 18229948 18231582 18218356 18195604 18171306 
2694.286 18151890 18140994 18137622 18137054 18132952 18121314 18100592 
2697.661 18074874 18051322 18039746 18045696 18071444 18112738 18161226 
2701.037 18206002 18238162 18252056 18248038 18231190 18208880 18188928 
2704.412 18176244 18172844 18176082 18181868 18185750 18183704 18174192 
2707.787 18158386 18138198 18116820 18097620 18082970 18073516 18069252 
2711.162 18069000 18071118 18074238 18078276 18084226 18093924 18110836 
2714.538 18137706 18174638 18219712 18267546 18309270 18335282 18337352 
2717.913 18311702 18258514 18185456 18104964 18031586 17979052 17956334 
2721.288 17966842 18006922 18067076 18135588 18201284 18255922 18295818 
2724.663 18321150 18335030 18342216 18345280 18345954 18344060 18339320 
2728.039 18331084 18320922 18309834 18301866 18298484 18301162 18309632 
2731.414 18323434 18340088 18358036 18375160 18389534 18398756 18401538 
2734.789 18396322 18384192 18367644 18349888 18334980 18326146 18324676 
2738.164 18330484 18342280 18359702 18383124 18413648 18450734 18492072 
2741.540 18530842 18556804 18559142 18529266 18465964 18375862 18273924 
2744.915 18177306 18101534 18054192 18033340 18028562 18025904 18013540 
2748.290 17987492 17951908 17918532 17902162 17915844 17965986 18052694 
2751.665 18168970 18304362 18446764 18582658 18700446 18788806 18839288 
2755.041 18847684 18816206 18755030 18681778 18616394 18578262 18577616 
2758.416 18615578 18681684 18759056 18829022 18878208 18901206 18901624 
2761.791 18889776 18878010 18876380 18890926 18921476 18964880 19015274 
2765.166 19066430 19113888 19153814 19184164 19204274 19215446 19220474 
2768.542 19224750 19233696 19253266 19288046 19341774 19416044 19511346 
2771.917 19626190 19757332 19898532 20040720 20172422 20281178 20357912 
2775.292 20398952 20408574 20398646 20385818 20387766 20417982 20482472 
2778.667 20578358 20696390 20822622 20942728 21044598 21120260 21165844 
2782.042 21182364 21174780 21150766 21120922 21096894 21088062 21100538 
2785.418 21134432 21184962 21243214 21299044 21346340 21383220 21414186 
2788.793 21446858 21489788 21549862 21628308 21722972 21827852 21935592 
2792.168 22039048 22131900 22211118 22275476 22326746 22369546 22412652 
2795.543 22465676 22538908 22638606 22764970 22911506 23065946 23213086 
2798.919 23340918 23442516 23519000 23577534 23627670 23677640 23731690 
2802.294 23789174 23847338 23903818 23958616 24015704 24081060 24159712 
2805.669 24254326 24362254 24477346 24592768 24702640 24804294 24899820 
2809.044 24993574 25090792 25196884 25314428 25445336 25588948 25744520 
2812.420 25910160 26083104 26261376 26443158 26628738 26821564 27028404 
2815.795 27257002 27515582 27809056 28137084 28494736 28873926 29265898 
2819.170 29664622 30068692 30480970 30907228 31353916 31827588 32333370 
2822.545 32876894 33463900 34101496 34796996 35556316 36382204 37272408 
2825.921 38221324 39220484 40262416 41342576 42460504 43619144 44823684 
2829.296 46079816 47392892 48766444 50204112 51707908 53279772 54918724 
2832.671 56621520 58380476 60186876 62030488 63903584 65802412 67727040 
2836.046 69680632 71664544 73678352 75715680 77766952 79821192 81869040 
2839.422 83905552 85930432 87945832 89954128 91953256 93935640 95887400 
2842.797 97790144 99626392 101378664 103034312 104583128 106017880 107330944 
2846.172 108514088 109556824 110448096 111177584 111736576 112119992 
2849.065 112326264 112359120 112225208 111935984 111506144 110954064 
2851.958 110298888 109561936 108762376 107916648 107035344 106124128 
2854.851 105183104 104208144 103194464 102137808 101038616 99900928 98734528 
2858.227 97551016 96364584 95187704 94030672 92902752 91809984 90757488 
2861.602 89750320 88791680 87882856 87022136 86205240 85424912 84674688 
2864.977 83949336 83248360 82575840 81940416 81352136 80819504 80348256 
2868.352 79940544 79595560 79311648 79088488 78929128 78838120 78820160 
2871.728 78878384 79012064 79215080 79479032 79794080 80152368 80549856 
2875.103 80987456 81470880 82007248 82603992 83265072 83989936 84774008 
2878.478 85607016 86476528 87369696 88275480 89187088 90104048 91030720 
2881.853 91976832 92954208 93972888 95040824 96159656 97326376 98533936 
2885.229 99773392 101036704 102318184 103614552 104926376 106254248 
2888.122 107599768 108963640 110344760 111740384 113147112 114560744 
2891.015 115977992 117396296 118816104 120240080 121674296 123128048 
2893.908 124610480 126129448 127690632 129295440 130942296 132628608 
2896.801 134352656 136117712 137929424 139798160 141734512 143745024 
2899.694 145832288 147992320 150216240 152493248 154813728 157170896 
2902.587 159561696 161983120 164433040 166906304 169396624 171898608 
2905.480 174410144 176935200 179484400 182072416 184712800 187414608 
2908.373 190178000 192993680 195845824 198716736 201591312 204460128 
2911.266 207319408 210167376 213001712 215812224 218582320 221286864 
2914.159 223898048 226387264 228730656 230909936 232913952 234736512 
2917.052 236375248 237829648 239100592 240188144 241090752 241806384 
2919.945 242330144 242656576 242782544 242708688 242444032 242006032 
2922.838 241418112 240707872 239898336 239005008 238030784 236969696 
2925.731 235809648 234539904 233156576 231666240 230084112 228431888 
2928.625 226730416 224994768 223232304 221442416 219616976 217745536 
2931.518 215818368 213829120 211774144 209656032 207483168 205267728 
2934.411 203024640 200769120 198512224 196258752 194005136 191740496 
2937.304 189453008 187131840 184772304 182378272 179959152 177526288 
2940.197 175087680 172644656 170192112 167722256 165228688 162710800 
2943.090 160176384 157638304 155111440 152607632 150133200 147688720 
2945.983 145271552 142880864 140518208 138189360 135901088 133658064 
2948.876 131460208 129302664 127175944 125071648 122984016 120912608 
2951.769 118860584 116831664 114827704 112844656 110874616 108907576 
2954.662 106934632 104952336 102963152 100976024 99004168 97062656 95165152 
2958.037 93323184 91544136 89831048 88181872 86588744 85041552 83527040 
2961.413 82033288 80552728 79085512 77639760 76230480 74876760 73598072 
2964.788 72408464 71315136 70317232 69405880 68567648 67786488 67048640 
2968.163 66341944 65661496 65005192 64378596 63788204 63243152 62751068 
2971.538 62316892 61942424 61626008 61362760 61147200 60971284 60825480 
2974.914 60697732 60572736 60433556 60265220 60057172 59806208 59518752 
2978.289 59208840 58893652 58587104 58296136 58019384 57748892 57475400 
2981.664 57194320 56910628 56638176 56396244 56202280 56064548 55977788 
2985.039 55922092 55868328 55786260 55653656 55461932 55220604 54955080 
2988.415 54700264 54493748 54367228 54341196 54422276 54603836 54869832 
2991.790 55200592 55579356 55995596 56448860 56948660 57510888 58153640 
2995.165 58893876 59741984 60702004 61770644 62938364 64192608 65515712 
2998.540 66886380 68277328 69656264 70983720 72219528 73325624 74269784 
3001.916 75031504 75602336 75983736 76185720 76218832 76095472 75823408 
3005.291 75410888 74866016 74201312 73436424 72596760 71714936 70825880 
3008.666 69966576 69171184 68469440 67883608 67430616 67118336 66950640 
3012.041 66926704 67045100 67306664 67717248 68289760 69042296 69995800 
3015.417 71171672 72588160 74259040 76192512 78392920 80863848 83608896 
3018.792 86631536 89933448 93507536 97335568 101382456 105593840 109899176 
3022.167 114213912 118445720 122498904 126279576 129700944 132681608 
3025.060 135151008 137050672 138336144 138980848 138977936 138341184 
3027.953 137102752 135311936 133027496 130315896 127244992 123880744 
3030.846 120284840 116513248 112618064 108648104 104651536 100677680 
3033.739 96777360 93003264 89403664 86019328 82875888 79981800 77327784 
3037.115 74888312 72631656 70524184 68540416 66664516 64890972 63222072 
3040.490 61662772 60217336 58887992 57674640 56576712 55594180 54727456 
3043.865 53975972 53338192 52808660 52382052 52054516 51826584 51703252 
3047.240 51693368 51804984 52040360 52393964 52854272 53404812 54034808 
3050.615 54740268 55527068 56409536 57401280 58509392 59729952 61047240 
3053.991 62438676 63881040 65357000 66856956 68376768 69911256 71447872 
3057.366 72962112 74417656 75769136 76969784 77979664 78766968 79312240 
3060.741 79605712 79644960 79434048 78981680 78301912 77414984 76344016 
3064.116 75115648 73755624 72289040 70739216 69131784 67495128 65865964 
3067.492 64284704 62793052 61429428 60221008 59179580 58300388 57563808 
3070.867 56941016 56399972 55909912 55448856 55004900 54576220 54173956 
3074.242 53817300 53531132 53341960 53273540 53341080 53549748 53893524 
3077.617 54358228 54923964 55568784 56270496 57008568 57761544 58504700 
3080.993 59207324 59833212 60341008 60688416 60836328 60756156 60432324 
3084.368 59865764 59071860 58080356 56926172 55645996 54270272 52822564 
3087.743 51316768 49760180 48160364 46527432 44880540 43247224 41660288 
3091.118 40153460 38757192 37491836 36367612 35384648 34536492 33813288 
3094.494 33204268 32698296 32286480 31959858 31710304 31530150 31412986 
3097.869 31352948 31345856 31386882 31471864 31595666 31753276 31939040 
3101.244 32146562 32367646 32590844 32800232 32976956 33101264 33157208 
3104.619 33138328 33046260 32890596 32683556 32431986 32134004 31777174 
3107.995 31344026 30820468 30206260 29519380 28794538 28076388 27406570 
3111.370 26812056 26299624 25855444 25454672 25071134 24686426 24296250 
3114.745 23907326 23531312 23178918 22854642 22556704 22281728 22026882 
3118.120 21795628 21596570 21438532 21328024 21263062 21233794 21225834 
3121.496 21224808 21220730 21211816 21202588 21200498 21211970 21238274 
3124.871 21274466 21311516 21338160 21344290 21324538 21278356 21210272 
3128.246 21130480 21051088 20984738 20940478 20921904 20925020 20939198 
3131.621 20949378 20942064 20909454 20853224 20784216 20718360 20668930 
3134.997 20641948 20632678 20626884 20607586 20562638 20490556 20402632 
3138.372 20318584 20257954 20234040 20246754 20284606 20329968 20368058 
3141.747 20393054 20410872 20434510 20476968 20542070 20619566 20685132 
3145.122 20709360 20668200 20553060 20376310 20168944 19972026 19824596 
3148.498 19752276 19761016 19837726 19955872 20086342 20204472 20297532 
3151.873 20363488 20406782 20434500 20450454 20454752 20444722 20419202 
3155.248 20381580 20342138 20315744 20317574 20358044 20439522 20554586 
3158.623 20688504 20823424 20945112 21044736 21121318 21179850 21228712 
3161.999 21275464 21324576 21375830 21426464 21470506 21502212 21514544 
3165.374 21502266 21459092 21381698 21268906 21124658 20959060 20787150 
3168.749 20628634 20501740 20419696 20387622 20400214 20443836 20499632 
3172.124 20549580 20579696 20585490 20568876 20538056 20503174 20473294 
3175.500 20451950 20439144 20431884 20425696 20418642 20411908 20409238 
3178.875 20417248 20440016 20480540 20538724 20609654 20687350 20765606 
3182.250 20839180 20905070 20962956 21012820 21055314 21090430 21116766 
3185.625 21132826 21137416 21130216 21111648 21084494 21050474 21013002 
3189.000 20974240 20936644 20902252 20873218 20851474 20839062 20836090 
3192.376 20844068 20861714 20889244 20925916 20971838 21026370 21087800 
3195.751 21153226 21218352 21277696 21326188 21359312 21374154 21369412 
3199.126 21344006 21297594 21227918 21134862 21019170 20885148 20742806 
3202.501 20604422 20485500 20399400 20356152 20359432 20406780 20491112 
3205.877 20602204 20728974 20861830 20991392 21111296 21214620 21298120 
3209.252 21360486 21404300 21433006 21453292 21470452 21486644 21502944 
3212.627 21517088 21527562 21536092 21547218 21567864 21605174 21662082 
3216.002 21734376 21810914 21876650 21916528 21919704 21884646 21818054 
3219.378 21733892 21646784 21571034 21515206 21483312 21473736 21482260 
3222.753 21503148 21529032 21551664 21562376 21552906 21518258 21459508 
3226.128 21383918 21306250 21243324 21209912 21214818 21256972 21326950 
3229.503 21409440 21490118 21559294 21615454 21663366 21712924 21773376 
3232.879 21851360 21947106 22056168 22170494 22281916 22381624 22462518 
3236.254 22519798 22548870 22548194 22518198 22464538 22396906 22328930 
3239.629 22275982 22250398 22259270 22301858 22369226 22447092 22518658 
3243.004 22568624 22587490 22571952 22526042 22459260 22384482 22315366 
3246.380 22264812 22241998 22252516 22296488 22370756 22467038 22576366 
3249.755 22688470 22794924 22890030 22970832 23037748 23091658 23131556 
3253.130 23154706 23154304 23122664 23051888 22938236 22785644 22606938 
3256.505 22421618 22255232 22131138 22066762 22069152 22132848 22241428 
3259.881 22372546 22503160 22615712 22701074 22759774 22798730 22828684 
3263.256 22859416 22896532 22940688 22988054 23033778 23072808 23102174 
3266.631 23121754 23133752 23140904 23146078 23150706 23154120 23155116 
3270.006 23151702 23143108 23130770 23117654 23108940 23110694 23127432 
3273.382 23161156 23209660 23266674 23322598 23367728 23393900 23396788 
3276.757 23376390 23334580 23274646 23199910 23111680 23012056 22904466 
3280.132 22796734 22701134 22632674 22605732 22630486 22708728 22833642 
3283.507 22991212 23162004 23326122 23465736 23565680 23614626 23604694 
3286.883 23534314 23407668 23239032 23051216 22874326 22737270 22661422 
3290.258 22652558 22699192 22774530 22847130 22889600 22891396 22859496 
3293.633 22817602 22795884 22820402 22900726 23029680 23183092 23329798 
3297.008 23441022 23498866 23499418 23452862 23377740 23295048 23224000 
3300.384 23178942 23167324 23189050 23237574 23299236 23354692 23383242 
3303.759 23368186 23302166 23192058 23058896 22933050 22844906 22818186 
3307.134 22859584 22958792 23092220 23229712 23345082 23422260 23458334 
3310.509 23461306 23444650 23421972 23402852 23390530 23384898 23382722 
3313.885 23382112 23380266 23375630 23366752 23349828 23322404 23280450 
3317.260 23223072 23151716 23070734 22987836 22912960 22858068 22834568 
3320.635 22851072 22911962 23013356 23142180 23277768 23396170 23475330 
3324.010 23502246 23476320 23410310 23326250 23246874 23189882 23161544 
3327.385 23158964 23171954 23191446 23213300 23242554 23288412 23360630 
3330.761 23461250 23582886 23707030 23813598 23885070 23915358 23912418 
3334.136 23894200 23882156 23890890 23921082 23957804 23973178 23936850 
3337.511 23826884 23638876 23390702 23119676 22872454 22694218 22614866 
3340.886 22640056 22751162 22909888 23070702 23192976 23253160 23249872 
3344.262 23199972 23132828 23077042 23051762 23061506 23096148 23138236 
3347.637 23170868 23183900 23179572 23166222 23158172 23165564 23192584 
3351.012 23235632 23288280 23342752 23394982 23444970 23493392 23540136 
3354.387 23581128 23607114 23608924 23579324 23517956 23431932 23334136 
3357.763 23238352 23154078 23082784 23019384 22954164 22880670 22797320 
3361.138 22712024 22638700 22593414 22587376 22623094 22692208 22778892 
3364.513 22863456 22930602 22972284 22989398 22991332 22991114 23000070 
3367.888 23024672 23065044 23115742 23169408 23218888 23260328 23294068 
3371.264 23323046 23349880 23375130 23396294 23407022 23400146 23368620 
3374.639 23309590 23223960 23117408 22999808 22883434 22782152 22709372 
3378.014 22677834 22694710 22761394 22871200 23006978 23146106 23262638 
3381.389 23335156 23352146 23315626 23239812 23149858 23071042 23024786 
3384.765 23021572 23060056 23128862 23209656 23283638 23333812 23347280 
3388.140 23316850 23240778 23125114 22983868 22838606 22716246 22644630 
3391.515 22642258 22714982 22849250 23016006 23176194 23293834 23345704 
3394.890 23328904 23262050 23178486 23116168 23105386 23159316 23272046 
3398.266 23419474 23568326 23684624 23743038 23731640 23654172 23526994 
3401.641 23375178 23224132 23095962 23002460 22944902 22914480 22896414 
3405.016 22875600 22841484 22791884 22732650 22675232 22630754 22606324 
3408.391 22601724 22609854 22619932 22621640 22609582 22585124 22554580 
3411.767 22526550 22508724 22505250 22515432 22535266 22560382 22586770 
3415.142 22612596 22637504 22662536 22687918 22713764 22737438 22755594 
3418.517 22762256 22751316 22716674 22656716 22574530 22479442 22388130 
3421.892 22319582 22290384 22307222 22365860 22450202 22536866 22604788 
3425.268 22642418 22653096 22653060 22665814 22711780 22799038 22918964 
3428.643 23047590 23153758 23208602 23195588 23113306 22976636 22810030 
3432.018 22636936 22477898 22342844 22234210 22148760 22083036 22034396 
3435.393 22004452 21995064 22009124 22047230 22106958 22182426 22264742 
3438.769 22343378 22408044 22449364 22460378 22437952 22383348 22302218 
3442.144 22202670 22095690 21991928 21901694 21833778 21793760 21784880 
3445.519 21804840 21846818 21898768 21944600 21968762 21960358 21916242 
3448.894 21843590 21758170 21679800 21627508 21613250 21638658 21697606 
3452.270 21776532 21860592 21936554 21992682 22021300 22015432 21969716 
3455.645 21882048 21756368 21606498 21453812 21328638 21259914 21269154 
3459.020 21363948 21534816 21756922 21996226 22218176 22395982 22515412 
3462.395 22576304 22591210 22580496 22566862 22570122 22601812 22663114 
3465.771 22743324 22822156 22872678 22870026 22797036 22651358 22446976 
3469.146 22210722 21978054 21782334 21646540 21580716 21579282 21628606 
3472.521 21708756 21802010 21893658 21973774 22033358 22065506 22063312 
3475.896 22024184 21951158 21854156 21749536 21654714 21583246 21540408 
3479.271 21523984 21524978 21533460 21544980 21560248 21587106 21630472 
3482.647 21690470 21756574 21809934 21828766 21796882 21712980 21592396 
3486.022 21465462 21367558 21327860 21360224 21457062 21592616 21732208 
3489.397 21842522 21902786 21909918 21876922 21828194 21788952 21778580 
3492.772 21805420 21865964 21947666 22034678 22113844 22174240 22211378 
3496.148 22222902 22210688 22176714 22124978 22062764 21999710 21947580 
3499.523 21919548 21923746 21963006 22032286 22118892 22207292 22281000 
3502.898 22328938 22347088 22337438 22309880 22274184 22240362 22216664 
3506.273 22206756 22212754 22233966 22269454 22317570 22375728 22438740 
3509.649 22501534 22556676 22598374 22620016 22618636 22591744 22540634 
3513.024 22468012 22379190 22281842 22185416 22101968 22043198 22019042 
3516.399 22036482 22096364 22192564 22313988 22444558 22567132 22666312 
3519.774 22730258 22754678 22741336 22701236 22648920 22601450 22574932 
3523.150 22580034 22619854 22691324 22782492 22880208 22972382 23050478 
3526.525 23112222 23160938 23201244 23238592 23273934 23305840 23329208 
3529.900 23339404 23332732 23308248 23268546 23216716 23156322 23089612 
3533.275 23019800 22951396 22890226 22845800 22827756 22842406 22889636 
3536.651 22960074 23036008 23094474 23113926 23079704 22989412 22854708 
3540.026 22696406 22541290 22413530 22328482 22287470 22283596 22299608 
3543.401 22317174 22321284 22303710 22264204 22208716 22144760 22078398 
3546.776 22012266 21944440 21870164 21785620 21688174 21580698 21469376 
3550.152 21364354 21275774 21212218 21177996 21176578 21204392 21257636 
3553.527 21330232 21415266 21505226 21592702 21668146 21722698 21747032 
3556.902 21733490 21678462 21583382 21458150 21319864 21189806 21092602 
3560.277 21047030 21062676 21135138 21246750 21368086 21468160 21519550 
3563.653 21506776 21428388 21295736 21127018 20941034 20752144 20567660 
3567.028 20389130 20217760 20057742 19917094 19806722 19736812 19712522 
3570.403 19732318 19788428 19870918 19972492 20090166 20224314 20375178 
3573.778 20536174 20693270 20823774 20902700 20910802 20842050 20707590 
3577.154 20534072 20355366 20205936 20110044 20080082 20115344 20205292 
3580.529 20334566 20486728 20644838 20790132 20903362 20965488 20962174 
3583.904 20888094 20750688 20570654 20375670 20196180 20053616 19959170 
3587.279 19911414 19901330 19917368 19952322 20003060 20069234 20147480 
3590.655 20225746 20283792 20295674 20240284 20108198 19910612 19679722 
3594.030 19459050 19294418 19216816 19233744 19326064 19453042 19566664 
3597.405 19625170 19606554 19514294 19372760 19220094 19094202 19022018 
3600.780 19013576 19062140 19149250 19255842 19368146 19480246 19595406 
3604.156 19720278 19858496 20007896 20156740 20290388 20391760 20448848 
3607.531 20457758 20421010 20347678 20249614 20138936 20025934 19919326 
3610.906 19826878 19755004 19709894 19695924 19715884 19769798 19855250 
3614.281 19967410 20099868 20241832 20381540 20505276 20601370 20661068 
3617.656 20685680 20685764 20683176 20702456 20766094 20882496 21045012 
3621.032 21228628 21399050 21520752 21569852 21539988 21443426 21306680 
3624.407 21160904 21030194 20928548 20855980 20804698 20763874 20728886 
3627.782 20702534 20694324 20715958 20773898 20864274 20971130 21069248 
3631.157 21130814 21134350 21070688 20946274 20785004 20621996 20496530 
3634.533 20439962 20472566 20593160 20785198 21019064 21264506 21494900 
3637.908 21698502 21875790 22037242 22194110 22354088 22513268 22659660 
3641.283 22774766 22843394 22857926 22821770 22749602 22661376 22578398 
3644.658 22517326 22490658 22504292 22561062 22660252 22795756 22957422 
3648.034 23127486 23283872 23404364 23472988 23484678 23450344 23391448 
3651.409 23335850 23306888 23318804 23369784 23445344 23524734 23587438 
3654.784 23620044 23619598 23591980 23548738 23498972 23448086 23395466 
3658.159 23334346 23256726 23156954 23032426 22885488 22722904 22554136 
3661.535 22391746 22246794 22131226 22054034 22019026 22024144 22060894 
3664.910 22112182 22158316 22181550 22170426 22124558 22054160 21977222 
3668.285 21912092 21870856 21853640 21845788 21823634 21762388 21643056 
3671.660 21464030 21240214 21001580 20783506 20618172 20523964 20501620 
3675.036 20536378 20600996 20666620 20709436 20716100 20686482 20629322 
3678.411 20559436 20489412 20428136 20376976 20330244 20276216 20200068 
3681.786 20090052 19939498 19751244 19539860 19327830 19141470 19004370 
3685.161 18929144 18915308 18949052 19006900 19064768 19103860 19115630 
3688.537 19102302 19074000 19043586 19022818 19019116 19038434 19084112 
3691.912 19159514 19264162 19393110 19530774 19654734 19737590 19756156 
3695.287 19700728 19579962 19418768 19253456 19116754 19029860 18994648 
3698.662 18994896 19006052 19007414 18988924 18957776 18933326 18938894 
3702.038 18991378 19093776 19236062 19398768 19557552 19695892 19801350 
3705.413 19867934 19895632 19883424 19831922 19743728 19626414 19493164 
3708.788 19364736 19263276 19207070 19207450 19263946 19365628 19494102 
3712.163 19629342 19753544 19856120 19932810 19987974 20029448 20067438 
3715.539 20110554 20162156 20219506 20274010 20312556 20323298 20298366 
3718.914 20239112 20155388 20063784 19981522 19922084 19888464 19877062 
3722.289 19878638 19883710 19885910 19884988 19882816 19882140 19879094 
3725.664 19865422 19830498 19766696 19675006 19566792 19460938 19379938 
3729.040 19339808 19347060 19396336 19474148 19563992 19652610 19732874 
3732.415 19801768 19859164 19900922 19920400 19908444 19857524 19767758 
3735.790 19648908 19520138 19404376 19321920 19285064 19294320 19341936 
3739.165 19412382 19492502 19572772 19650434 19728492 19811344 19903508 
3742.541 20005112 20108760 20202768 20271814 20300298 20278666 20205136 
3745.916 20089120 19949454 19810524 19696826 19627976 19612148 19644716 
3749.291 19707594 19777404 19829878 19849914 19836236 19801166 19768602 
3752.666 19765858 19815972 19929554 20100842 20308086 20518434 20694330 
3756.042 20800966 20815488 20731296 20558582 20322560 20057766 19799628 
3759.417 19579786 19419166 19327986 19304992 19341896 19424714 19535814 
3762.792 19657046 19768850 19852038 19892578 19882626 19824564 19731002 
3766.167 19623280 19527406 19465234 19452442 19494098 19584408 19710898 
3769.542 19859166 20015204 20167244 20307192 20428590 20527500 20603788 
3772.918 20663382 20717552 20783768 20879764 21016074 21190946 21385272 
3776.293 21564966 21689946 21725812 21653886 21478066 21227266 20944864 
3779.668 20677526 20461652 20315244 20234000 20197006 20177252 20151028 
3783.043 20108044 20051600 19998826 19969642 19980820 20038208 20135484 
3786.419 20256414 20381826 20495336 20590836 20673022 20752560 20843056 
3789.794 20950750 21074116 21200578 21311306 21388846 21420462 21404980 
3793.169 21348498 21264886 21167632 21067302 20969244 20876132 20791030 
3796.544 20717370 20663950 20638670 20648044 20691446 20761880 20846358 
3799.920 20929964 20998802 21044706 21063066 21053230 21014820 20948832 
3803.295 20858204 20751732 20643450 20555956 20513756 20537676 20636296 
3806.670 20802762 21012086 21229278 21418950 21554352 21622926 21628478 
3810.045 21584280 21507326 21410532 21300798 21179534 21046218 20903922 
3813.421 20762376 20636154 20542286 20494718 20499228 20551868 20638188 
3816.796 20740672 20840752 20924852 20985146 21021366 21036580 21035774 
3820.171 21023304 21002498 20975656 20944328 20912600 20885610 20870676 
3823.546 20874974 20903908 20958128 21033410 21119114 21200986 21263750 
3826.922 21295328 21288634 21244430 21169768 21074532 20970676 20865892 
3830.297 20766364 20673622 20587160 20506850 20433850 20371890 20324956 
3833.672 20296396 20286350 20290830 20299810 20302876 20288704 20251110 
3837.047 20192532 20126220 20073536 20061640 20113468 20242432 20446264 
3840.423 20706470 20991388 21264444 21493380 21656630 21748350 21774686 
3843.798 21748648 21684148 21588922 21465806 21315694 21142198 20957708 
3847.173 20782354 20641178 20557282 20543076 20596518 20704078 20842412 
3850.548 20986216 21117532 21225372 21308038 21366942 21406076 21426730 
3853.924 21428506 21410878 21372164 21312736 21232854 21131870 21009122 
3857.299 20867200 20713224 20563362 20440268 20368786 20367448 20440420 
3860.674 20573750 20736658 20891842 21004322 21056580 21051300 21010766 
3864.049 20964776 20941074 20953150 20998038 21056172 21103550 21119806 
3867.425 21095710 21035270 20953540 20868416 20795734 20745496 20718088 
3870.800 20707686 20705332 20699470 20680618 20641624 20579242 20496708 
3874.175 20403892 20317428 20257320 20241126 20280298 20375248 20513658 
3877.550 20676040 20838996 20985484 21105864 21202200 21284244 21365272 
3880.926 21456610 21561128 21676362 21792546 21897292 21976786 22020318 
3884.301 22019270 21970630 21876070 21743678 21588566 21429516 21287662 
3887.676 21180998 21121534 21112020 21146212 21212126 21294238 21378984 
3891.051 21457362 21525050 21581134 21625736 21657156 21671860 21664482 
3894.427 21631094 21571818 21492402 21404992 21324106 21266472 21244522 
3897.802 21265324 21327990 21424290 21539328 21655450 21753280 21816188 
3901.177 21830668 21789236 21690834 21541340 21353714 21146810 20944726 
3904.552 20771296 20649836 20597244 20621530 20719846 20879914 21081848 
3907.927 21300770 21511508 21691234 21822480 21894850 21903324 21852344 
3911.303 21753178 21623410 21485482 21365120 21285566 21264422 21308540 
3914.678 21413740 21563898 21735792 21902876 22041362 22134398 22174596 
3918.053 22162600 22107716 22022442 21920702 21814996 21713878 21623264 
3921.428 21544738 21478172 21422644 21380004 21353276 21347344 21367874 
3924.804 21416848 21492572 21584650 21679258 21759796 21811754 21827350 
3928.179 21805642 21753342 21681258 21598870 21516206 21438006 21368492 
3931.554 21313212 21277308 21267118 21286222 21332770 21399268 21473034 
3934.929 21541146 21595548 21636094 21671506 21714580 21776164 21859042 
3938.305 21955288 22046544 22111910 22134712 22109124 22043320 21956868 
3941.680 21873842 21816322 21797958 21820470 21875144 21945456 22011412 
3945.055 22053824 22057444 22010744 21912252 21766454 21589118 21402478 
3948.430 21233300 21107276 21042694 21045794 21110636 21219360 21350124 
3951.806 21481194 21595466 21684036 21744380 21777284 21784314 21765738 
3955.181 21724068 21661548 21587340 21513508 21456920 21435372 21462548 
3958.556 21545512 21683618 21868536 22088342 22325770 22565818 22790124 
3961.931 22982718 23126022 23205620 23208710 23130202 22973810 22752570 
3965.307 22490040 22215110 21959590 21749428 21601666 21521362 21501744 
3968.682 21527660 21580606 21642494 21701464 21752194 21794542 21832232 
3972.057 21868338 21905516 21944568 21987102 22035240 22092334 22161710 
3975.432 22242578 22329346 22411194 22473446 22503938 22497986 22460654 
3978.808 22407022 22358316 22333376 22343292 22386884 22451464 22516462 
3982.183 22562232 22574184 22549914 22494876 22424052 22352812 22297202 
3985.558 22268468 22273300 22314662 22391226 22496046 22618168 22743010 
3988.933 22855430 22942974 22998522 23023810 23030078 23030580 23038590 
3992.309 23062284 23101262 23148836 23194542 23226582 23236896 23220920 
3995.684 23175960 23101336 22997716 22867238 22716608 22558846 22412998 
3999.059 22299876 22237470 22234646 22288612 
##END=
