##TITLE=Tecor_PETG_White_Filament_r1_ATR-Corrected
##JCAMP-DX=5.01  $$ Nicolet v. 1
##DATATYPE=INFRARED SPECTRUM
##ORIGIN=Curtin University
##OWNER=Nicolet
##LONGDATE=2024/07/19
##TIME=09:10:16
##SPECTROMETER/DATA SYSTEM=Nicolet iS50
##DATA PROCESSING=
Ratio against background
%Transmittance->Absorbance
ATR Correction
Truncated
ElementMultiply or ElementDivide
##COMMENTS=
Number of sample scans: 32
Collection length: 47.28 sec
Sample gain: 1.0
Background collected on: Fri Jul 19 09:09:11 2024 (GMT+08:00);
Number of background scans: 32
Background gain: 1.0
Sample spacing:  1.000
Number of scan points: 16672
Resolution points: 8192
Number of FFT points: 65536
Apodization: N-B strong;
Phase correction: Mertz;
Laser frequency: 15798.3 cm-1
Number of rejected sample scans: 0
Number of rejected background scans: 0
Bench serial number: AUP1200105;
##RESOLUTION=4.000
##XUNITS=1/CM
##YUNITS=ABSORBANCE
##FIRSTX=400.163452
##LASTX=4000.187744
##FIRSTY=0.043183
##MAXX=4000.187744
##MINX=400.163452
##MAXY=1.614432
##MINY=-0.025170
##XFACTOR=1.000000
##YFACTOR=1.000000E-008
##NPOINTS=7468
##DELTAX=0.482125
##ZPD=8192
##XYDATA=(X++(Y..Y))
400.163 4318341 4283140 4244889 4207821 4176772 4156078 4149170 4157854 
404.020 4181408 4216096 4254797 4287946 4305269 4298426 4263689 4203892 
407.877 4128252 4050464 3984981 3943189 3930170 3943583 3974493 4010285 
411.734 4038338 4049301 4039166 4009412 3965832 3916506 3869885 3833278 
415.591 3812092 3809454 3826230 3861005 3910318 3969100 4031611 4092474 
419.448 4147758 4195768 4236769 4272313 4304010 4332595 4357593 4377807 
423.305 4392274 4401416 4407387 4413731 4424156 4441148 4464841 4492973 
427.162 4521474 4546002 4563305 4572060 4573011 4568233 4560235 4551129 
431.019 4542384 4535037 4530058 4528494 4531564 4539663 4551783 4565166 
434.876 4575573 4578397 4569963 4548862 4516515 4476964 4435707 4398245 
438.733 4368590 4348510 4337430 4333009 4332071 4331551 4329135 4323581 
442.590 4314812 4303700 4291846 4281246 4273919 4271484 4274751 4283366 
446.447 4295737 4309236 4320694 4327117 4326288 4317253 4300371 4277029 
450.304 4249166 4218735 4187328 4156110 4125963 4097774 4072770 4052672 
454.161 4039620 4035835 4043053 4061932 4091540 4129072 4170091 4209178 
458.017 4240968 4261387 4268519 4263077 4248134 4228332 4208654 4193129 
461.874 4183994 4181337 4183439 4187574 4191338 4193212 4193014 4191601 
465.731 4190131 4189365 4189003 4187732 4183724 4175513 4162906 4147385 
469.588 4131981 4120441 4115979 4120202 4132370 4149594 4167743 4182888 
473.445 4192683 4197223 4198916 4201640 4209315 4224419 4247184 4275504 
477.302 4305787 4334205 4358074 4376526 4390611 4402554 4414768 4428880 
481.159 4445242 4463099 4481147 4498344 4514415 4530036 4546511 4565233 
485.016 4587228 4613035 4642884 4677154 4716747 4763164 4818131 4883023 
488.873 4958056 5041961 5132024 5224709 5316667 5405726 5491562 5575809 
492.730 5661645 5752913 5853154 5964696 6088217 6222503 6364753 6511008 
496.587 6656783 6797661 6929771 7050083 7156410 7247251 7321340 7377153 
500.444 7412582 7424951 7411424 7369839 7299578 7202206 7081525 6943044 
504.301 6792982 6637171 6480299 6325740 6175788 6032258 5896931 5771699 
508.158 5658309 5557931 5470700 5395598 5330707 5273795 5222876 5176602 
512.015 5134286 5095583 5060096 5027005 4995083 4962939 4929517 4894442 
515.871 4858173 4821852 4786953 4754879 4726751 4703333 4685163 4672623 
519.728 4665851 4664578 4667799 4673611 4679342 4681974 4678843 4668185 
523.585 4649514 4623526 4591593 4555233 4515478 4472819 4427362 4379209 
527.442 4328819 4277146 4225383 4174595 4125307 4077402 4030287 3983402 
531.299 3936718 3891034 3847897 3809083 3775936 3748757 3726513 3707027 
535.156 3687492 3665287 3638593 3606859 3570766 3531978 3492598 3454692 
539.013 3419851 3389025 3362483 3339922 3320674 3303884 3288653 3274136 
542.870 3259548 3244196 3227469 3208916 3188372 3166151 3143122 3120733 
546.727 3100674 3084563 3073291 3066662 3063204 3060447 3055485 3045837 
550.584 3030084 3008320 2982084 2953850 2926380 2902015 2882235 2867469 
554.441 2857283 2850592 2846012 2842057 2837222 2830186 2819943 2805991 
558.298 2788460 2768172 2746425 2724656 2704107 2685529 2669198 2655124 
562.155 2643412 2634491 2629133 2628132 2631811 2639547 2649661 2659661 
566.012 2666909 2669436 2666567 2659138 2649129 2638974 2630702 2625296 
569.869 2622537 2621298 2620158 2618058 2614668 2610409 2606066 2602286 
573.725 2599137 2596009 2591795 2585395 2576224 2564544 2551468 2538673 
577.582 2527896 2520401 2516725 2516636 2519392 2524154 2530424 2538181 
581.439 2547886 2560135 2575267 2592997 2612227 2631202 2647857 2660335 
585.296 2667469 2669054 2665888 2659462 2651553 2643803 2637372 2632774 
589.153 2629974 2628528 2627835 2627287 2626419 2624899 2622526 2619249 
593.010 2615166 2610561 2605846 2601557 2598199 2596095 2595292 2595520 
596.867 2596252 2596920 2597113 2596765 2596277 2596345 2597814 2601294 
600.724 2606891 2614055 2621632 2628128 2632162 2632864 2630210 2625027 
604.581 2618778 2613104 2609354 2608199 2609557 2612744 2616872 2621292 
608.438 2625807 2630818 2637030 2645169 2655639 2668243 2682295 2696733 
612.295 2710458 2722573 2732557 2740310 2746121 2750619 2754694 2759445 
616.152 2766034 2775521 2788598 2805339 2825131 2846722 2868521 2889042 
620.009 2907325 2923215 2937385 2951132 2966020 2983469 3004453 3029289 
623.866 3057683 3088838 3121841 3156171 3192300 3232396 3280656 3343212 
627.723 3427180 3538916 3681722 3853527 4045293 4240918 4419071 4556865 
631.579 4634658 4640632 4573774 4444164 4270538 4075881 3882605 3708496 
635.436 3564516 3454592 3376969 3326506 3296949 3282657 3279423 3284494 
639.293 3296055 3312606 3332568 3354169 3375694 3395728 3413468 3428765 
643.150 3442067 3454195 3466176 3479039 3493806 3511364 3532480 3557692 
647.007 3587196 3620746 3657613 3696651 3736445 3775584 3812940 3847852 
650.864 3880237 3910548 3939586 3968242 3997269 4027088 4057731 4088864 
654.721 4119822 4149767 4177697 4202589 4223484 4239675 4250999 4258023 
658.578 4262204 4265829 4271689 4282533 4300524 4326726 4360987 4402068 
662.435 4448183 4497552 4549004 4602128 4657228 4714871 4775397 4838497 
666.292 4903051 4967300 5029319 5087466 5140963 5190072 5236152 5281368 
670.149 5328251 5379255 5436275 5500451 5572010 5650433 5734763 5823971 
674.006 5917316 6014528 6115755 6221272 6331009 6444148 6558814 6672108 
677.863 6780445 6880083 6967798 7041277 7099455 7142406 7171152 7187263 
681.720 7192661 7189408 7179768 7166216 7151519 7138663 7130678 7130333 
685.577 7139811 7160444 7192600 7235724 7288609 7349766 7417866 7492155 
689.433 7572624 7660042 7755775 7861414 7978421 8107836 8250240 8405844 
693.290 8574750 8757243 8954021 9166140 9394886 9641457 9906593 10190316 
697.147 10491757 10809150 11139949 11481052 11829097 12180764 12533091 
700.522 12883824 13231544 13575789 13916855 14255480 14592513 14928566 
703.897 15263852 15598311 15931882 16264820 16597980 16932882 17271572 
707.272 17616444 17970114 18335454 18715904 19116024 19541930 20001614 
710.647 20505054 21063758 21690416 22398294 23200988 24112302 25146372 
714.021 26317912 27642238 29135054 30811724 32686126 34769032 37066224 
717.396 39576544 42290224 45187688 48239176 51405464 54638768 57883496 
720.771 61075092 64136052 66969316 69451352 71431800 72746528 73248664 
724.146 72851328 71561808 69487304 66806584 63725148 60434664 57089616 
727.521 53800480 50637984 47641616 44828636 42201404 39752808 37469736 
730.896 35335376 33330890 31436964 29635132 27909162 26245964 24636040 
734.270 23073344 21554756 20079364 18647926 17262566 15926747 14645240 
737.645 13424020 12269867 11189702 10189695 9274460 8446416 7705410 7048678 
741.502 6471253 5966396 5526334 5143038 4808855 4517081 4262157 4039656 
745.359 3846002 3678097 3532936 3407469 3298634 3203584 3120003 3046366 
749.216 2981926 2926590 2880582 2844078 2816946 2798655 2788311 2784809 
753.073 2786980 2793719 2803995 2816877 2831548 2847317 2863680 2880269 
756.930 2896892 2913388 2929574 2945218 2960115 2974216 2987747 3001212 
760.787 3015344 3030805 3047995 3066871 3086968 3107672 3128555 3149663 
764.644 3171630 3195541 3222518 3253265 3287752 3325076 3363657 3401617 
768.501 3437229 3469243 3497056 3520674 3540522 3557250 3571564 3584094 
772.358 3595381 3605793 3615582 3624861 3633719 3642374 3651255 3661105 
776.214 3672941 3687883 3706956 3730877 3760052 3794648 3834876 3881222 
780.071 3934500 3995791 4066087 4145923 4235167 4332990 4438241 4549936 
783.928 4667806 4792623 4926211 5071141 5230308 5406433 5601858 5818336 
787.785 6057046 6318439 6601885 6905068 7223204 7548427 7869382 8171460 
791.642 8437685 8650158 8791957 8849195 8812961 8680819 8457653 8155637 
795.499 7793366 7394053 6983148 6585610 6223227 5912548 5663546 5479280 
799.356 5356680 5287986 5262808 5270105 5299879 5344169 5397330 5455730 
803.213 5517233 5580446 5644381 5708232 5771442 5833783 5895417 5956701 
807.070 6017926 6078957 6138980 6196467 6249483 6296108 6334984 6365794 
810.927 6389372 6407550 6422639 6436828 6451608 6467411 6483710 6499316 
814.784 6512955 6523777 6531743 6537580 6542635 6548338 6555790 6565428 
818.641 6576968 6589553 6602160 6613925 6624486 6634011 6643176 6652915 
822.498 6664207 6677909 6694697 6715239 6740276 6770739 6807753 6852434 
826.355 6905621 6967568 7037774 7115026 7197605 7283734 7372033 7461741 
830.212 7552886 7646039 7742053 7841622 7945087 8052321 8162872 8276205 
834.068 8391871 8509602 8629244 8750425 8872344 8993626 9112292 9226040 
837.925 9332675 9430498 9518708 9597453 9667809 9731365 9789764 9844267 
841.782 9895351 9942605 9984780 10020160 10047019 10064172 10071382 10069550 
845.639 10060621 10047234 10032225 10018080 10006625 9998845 9995026 9994914 
849.496 9998035 10003792 10011587 10020798 10030784 10040996 10051069 
852.871 10061030 10071374 10083064 10097352 10115577 10138983 10168640 
856.246 10205560 10250759 10305440 10370855 10448175 10538198 10641210 
859.621 10757037 10885438 11026624 11181826 11353594 11545859 11763424 
862.995 12011464 12294886 12617987 12984410 13397284 13859467 14373535 
866.370 14941423 15563698 16238576 16960882 17721268 18505770 19295960 
869.745 20069436 20800934 21463734 22031506 22480426 22791374 22951966 
873.120 22957818 22812828 22528150 22120198 21608138 21011678 20349532 
876.495 19638776 18894976 18132626 17365352 16605936 15865895 15154859 
879.870 14480187 13846724 13257073 12712039 12211191 11753385 11336982 
883.244 10959989 10620048 10314464 10040385 9795056 9576118 9381855 9211231 
887.101 9063696 8938852 8836028 8753949 8690669 8643667 8610220 8587816 
890.958 8574641 8569734 8572964 8584724 8605449 8635123 8672828 8716663 
894.815 8763920 8811499 8856482 8896598 8930526 8957758 8978342 8992434 
898.672 8999867 8999916 8991417 8972982 8943383 8901882 8848342 8783212 
902.529 8707409 8622160 8528825 8428963 8324282 8216592 8107726 7999313 
906.386 7892555 7788084 7686051 7586230 7488360 7392388 7298631 7207785 
910.243 7120784 7038551 6961866 6891247 6827030 6769380 6718375 6674056 
914.100 6636259 6604612 6578485 6557210 6540226 6527446 6519405 6517301 
917.957 6522728 6537201 6561719 6596350 6640108 6691173 6747309 6806443 
921.814 6867176 6929054 6992630 7059192 7130415 7207844 7292583 7384933 
925.671 7484348 7589412 7698003 7807517 7915225 8018591 8115684 8205407 
929.528 8287710 8363476 8434311 8502158 8568854 8635766 8703618 8772511 
933.385 8842117 8911914 8981483 9050520 9118876 9186242 9252106 9315566 
937.241 9375466 9430568 9479959 9523149 9560324 9592146 9619552 9643449 
941.098 9664580 9683494 9700791 9717408 9734928 9755670 9782565 9818824 
944.955 9867366 9930350 10008829 10102567 10210126 10329133 10456752 
948.330 10590077 10726624 10864580 11003149 11142492 11283566 11427891 
951.705 11577069 11732474 11894988 12064991 12242594 12427874 12621279 
955.080 12823759 13036825 13262227 13501702 13756648 14027780 14315236 
958.455 14618605 14937055 15269417 15614207 15969531 16333027 16701815 
961.829 17072620 17441970 17806382 18162624 18507716 18839080 19154510 
965.204 19452262 19731120 19990500 20230458 20451484 20654240 20839130 
968.579 21006056 21154306 21282726 21390148 21475754 21539490 21582038 
971.954 21604596 21608390 21594106 21561558 21509592 21436298 21339538 
975.329 21217522 21069328 20895124 20696218 20474770 20233402 19974774 
978.703 19701294 19415012 19117634 18810690 18495726 18174352 17848218 
982.078 17518976 17188070 16856714 16526002 16197024 15871176 15550311 
985.453 15236841 14933528 14643265 14368676 14111862 13874230 13656455 
988.828 13458765 13281113 13123427 12985741 12868221 12771107 12694648 
992.203 12638998 12604196 12590088 12596342 12622392 12667431 12730427 
995.578 12810348 12906246 13017540 13144143 13286434 13445041 13620523 
998.952 13813038 14022125 14246863 14486226 14739695 15007775 15292539 
1002.327 15597606 15928091 16290157 16690664 17136892 17636364 18196728 
1005.702 18825726 19531022 20320038 21199824 22177354 23259972 24456276 
1009.077 25777066 27235904 28848990 30633810 32606632 34778640 37151124 
1012.452 39709992 42419924 45218932 48014240 50681400 53068816 55010416 
1015.826 56347132 56954344 56767376 55795932 54120820 51875280 49218448 
1019.201 46310420 43294892 40290272 37387464 34651960 32127788 29841650 
1022.576 27806746 26025746 24493050 23196472 22118748 21238866 20533442 
1025.951 19978226 19549402 19224812 18984878 18813136 18696404 18624530 
1029.326 18590026 18587332 18612282 18661498 18732036 18821306 18926944 
1032.702 19046960 19179752 19324128 19479176 19644154 19818274 20000686 
1036.077 20190394 20386342 20587444 20792550 21000360 21209266 21417182 
1039.452 21621394 21818688 22005522 22178406 22334262 22470678 22586068 
1042.827 22679592 22750876 22799834 22826480 22830924 22813640 22775666 
1046.203 22718898 22646126 22560952 22467334 22369168 22269922 22172422 
1049.578 22078882 21991076 21910482 21838554 21776548 21725362 21685456 
1052.953 21656742 21638804 21631352 21634626 21649796 21679018 21725244 
1056.328 21791646 21881134 21995868 22137186 22305820 22502306 22727502 
1059.704 22982818 23270236 23591990 23950150 24346090 24780356 25252626 
1063.079 25762052 26307708 26888982 27505844 28159032 28849804 29579810 
1066.454 30350772 31164270 32021552 32923540 33870912 34864204 35904176 
1069.829 36991880 38128832 39316864 40557704 41852580 43201748 44604204 
1073.205 46057892 47560004 49107632 50698124 52329196 53998460 55702828 
1076.580 57437704 59196676 60971396 62752636 64530820 66297160 68043864 
1079.955 69764296 71452752 73103928 74713376 76277816 77795640 79267136 
1083.330 80694544 82081360 83431640 84749744 86040184 87307856 88558248 
1086.706 89796952 91028784 92256240 93478200 94689464 95881120 97041688 
1090.081 98158672 99219200 100209928 101115920 101919616 102600504 103136216 
1093.456 103505280 103689936 103678416 103465760 103052928 102444688 
1096.349 101648104 100671448 99524304 98218096 96766296 95184032 93486776 
1099.724 91689136 89804152 87843512 85818392 83740912 81625120 79487416 
1103.100 77345976 75220136 73129520 71093496 69131336 67262528 65507072 
1106.475 63885508 62418396 61125116 60022320 59122156 58430864 57947452 
1109.850 57663180 57561540 57618724 57804640 58084280 58419548 58771180 
1113.225 59100884 59373396 59558232 59631036 59574188 59377020 59035660 
1116.601 58552212 57934088 57192880 56343092 55400872 54382592 53303592 
1119.976 52177308 51014752 49824572 48613392 47386556 46148892 44905332 
1123.351 43661272 42422532 41195224 39985336 38798436 37639360 36512208 
1126.726 35420288 34366232 33351984 32378822 31447292 30557210 29707694 
1130.102 28897372 28124558 27387500 26684558 26014280 25375298 24766278 
1133.477 24185728 23631862 23102590 22595566 22108222 21637996 21182382 
1136.852 20739102 20306178 19881948 19465138 19054868 18650638 18252326 
1140.227 17860050 17474122 17094906 16722703 16357714 16000040 15649760 
1143.603 15307015 14972147 14645621 14328070 14020056 13721874 13433443 
1146.978 13154171 12883113 12619109 12361084 12108310 11860508 11617894 
1150.353 11380968 11150365 10926712 10710439 10501884 10301369 10109302 
1153.728 9926216 9752815 9589838 9437936 9297566 9168901 9051821 8946028 
1157.586 8851004 8766203 8691106 8625296 8568577 8521028 8483034 8455282 
1161.443 8438720 8434477 8443869 8468403 8509940 8570729 8653476 8761229 
1165.301 8897017 9063373 9261768 9492113 9752439 10038831 10345618 10665715 
1169.158 10991099 11313259 11623564 11913667 12175832 12403277 12590501 
1172.533 12733489 12829958 12879261 12882350 12841475 12759914 12641720 
1175.908 12491484 12314165 12114898 11898895 11671273 11436937 11200488 
1179.284 10966245 10738260 10520392 10316319 10129506 9963033 9819455 
1182.659 9700644 9607690 9540930 9500086 9484373 9492670 9523641 9575842 
1186.516 9647748 9737932 9845056 9968089 10106205 10258879 10425720 10606440 
1190.374 10800768 11008413 11229159 11462910 11709653 11969491 12242317 
1193.749 12527695 12824738 13132012 13447864 13770667 14099276 14433241 
1197.124 14772914 15119198 15473250 15835971 16207822 16588695 16978118 
1200.500 17375608 17780968 18194484 18616882 19049158 19492236 19946792 
1203.875 20413204 20891660 21382450 21886148 22403678 22936270 23485222 
1207.250 24051752 24636836 25241396 25866420 26513306 27183908 27880486 
1210.625 28605508 29361230 30149504 30971696 31828782 32721650 33651256 
1214.000 34618680 35624832 36670160 37754236 38875712 40032528 41222364 
1217.376 42443292 43694060 44974236 46283700 47622100 48988232 50379704 
1220.751 51793240 53225136 54672288 56132848 57606716 59095568 60602188 
1224.126 62129916 63681836 65260200 66866308 68500664 70163576 71855736 
1227.501 73579016 75336744 77133792 78976128 80869848 82820072 84830000 
1230.877 86900040 89027976 91208968 93436112 95700560 97991344 100294600 
1234.252 102592920 104864752 107084856 109225736 111259568 113159928 
1237.145 114903304 116468928 117838184 118993760 119919280 120600272 
1240.038 121026168 121192168 121101152 120764104 120199600 119432032 
1242.931 118489848 117403008 116201304 114912536 113561120 112167632 
1245.824 110748752 109318128 107887768 106469152 105074224 103715184 
1248.717 102404120 101151872 99967536 98858120 97828864 96883800 96026240 
1252.093 95258472 94581208 93992496 93486864 93054896 92683568 92357256 
1255.468 92059016 91771456 91477112 91158528 90797736 90376416 89876824 
1258.843 89282888 88582216 87767384 86836752 85793944 84646904 83406328 
1262.218 82084736 80695464 79252416 77769720 76261488 74741112 73220720 
1265.594 71710608 70219240 68753328 67318424 65919392 64560784 63246812 
1268.969 61981116 60766308 59603692 58493172 57433480 56422476 55457652 
1272.344 54536248 53655384 52811944 52002388 51222832 50469108 49737276 
1275.719 49023984 48326768 47644156 46975368 46319900 45676964 45045148 
1279.094 44422340 43805988 43193512 42582844 41972668 41362600 40752780 
1282.470 40143788 39535948 38929224 38323048 37716512 37108500 36498028 
1285.845 35884364 35267140 34646332 34022160 33394966 32765136 32133052 
1289.220 31499066 30863482 30226656 29589012 28951070 28313520 27677158 
1292.595 27042788 26411114 25782614 25157702 24536688 23920210 23309442 
1295.971 22706460 22114178 21536430 20977360 20441280 19932060 19452920 
1299.346 19006316 18593730 18215690 17871662 17559988 17277778 17021110 
1302.721 16785210 16564824 16354680 16149805 15945829 15739045 15526429 
1306.096 15305658 15075216 14834546 14584234 14325985 14062567 13797413 
1309.472 13534084 13275737 13024725 12782401 12549198 12324882 12108874 
1312.847 11900501 11699222 11504627 11316454 11134448 10958321 10787601 
1316.222 10621642 10459504 10300029 10141879 9983785 9824698 9664132 9502227 
1320.080 9339794 9178107 9018711 8863088 8712538 8568089 8430636 8301136 
1323.937 8180829 8071364 7974885 7893938 7831412 7790473 7774454 7786914 
1327.794 7831691 7912882 8034925 8202501 8420423 8693339 9025263 9418924 
1331.652 9875123 10391950 10964247 11583303 12236810 12909208 13582371 
1335.027 14236388 14850801 15405771 15883304 16268489 16550305 16722240 
1338.402 16782464 16733660 16582566 16339217 16016002 15626606 15185089 
1341.778 14704944 14198600 13677020 13149670 12624493 12107998 11605508 
1345.153 11121161 10658183 10219011 9805492 9418872 9059877 8728601 8424512 
1349.010 8146447 7892792 7661757 7451650 7261152 7089483 6936310 6801652 
1352.868 6685593 6588076 6508760 6447067 6402237 6373522 6360444 6362861 
1356.725 6381217 6416376 6469760 6543116 6638559 6758417 6905257 7081848 
1360.583 7291061 7535746 7818398 8140698 8503202 8904903 9343166 9813762 
1364.440 10311285 10829508 11361843 11901544 12441730 12975352 13495100 
1367.815 13993290 14462067 14893761 15281314 15618806 15901895 16128097 
1371.190 16296758 16408858 16466661 16473320 16432540 16348384 16225210 
1374.566 16067532 15879945 15666892 15432334 15179583 14911117 14628699 
1377.941 14333615 14026996 13710037 13384227 13051437 12713814 12373825 
1381.316 12034176 11697832 11368006 11048032 10741145 10450289 10177845 
1384.691 9925541 9694491 9485362 9298521 9134326 8993089 8875090 8780424 
1388.549 8708915 8660031 8633086 8627331 8642394 8678428 8736333 8817714 
1392.406 8924693 9059664 9225037 9423079 9655780 9925118 10232981 10581423 
1396.264 10972357 11407340 11887038 12410901 12976880 13581681 14221324 
1399.639 14892064 15591399 16318890 17076402 17867852 18698190 19571786 
1403.014 20490400 21450962 22443532 23449646 24441664 25383326 26231540 
1406.389 26939768 27462202 27758380 27797840 27563434 27053598 26282600 
1409.765 25279162 24083518 22743458 21309762 19832046 18355106 16916508 
1413.140 15545399 14262213 13079575 12003347 11034294 10169408 9403136 
1416.515 8728347 8136889 7620197 7169669 6777027 6434766 6136389 5876540 
1420.373 5650952 5456183 5289358 5147872 5029347 4931525 4852443 4790403 
1424.230 4744066 4712394 4694653 4690310 4699104 4721023 4756342 4805522 
1428.087 4869019 4947109 5039650 5145955 5264913 5395028 5534648 5682155 
1431.945 5836012 5994775 6157064 6321504 6486710 6651228 6813580 6972159 
1435.802 7125323 7271307 7408393 7535105 7650409 7753911 7845920 7927422 
1439.660 7999878 8064963 8124365 8179621 8232131 8283216 8334265 8386824 
1443.517 8442533 8503050 8569825 8643922 8725917 8815866 8913450 9018034 
1447.375 9128802 9244854 9365207 9488763 9614384 9740750 9866485 9989998 
1451.232 10109572 10223255 10329029 10424908 10509109 10580184 10637154 
1454.607 10679509 10707094 10720051 10718784 10703833 10675967 10636068 
1457.982 10585222 10524546 10455069 10377626 10292779 10200773 10101768 
1461.358 9995999 9884184 9767807 9649275 9531859 9419450 9316111 9225588 
1465.215 9150838 9093996 9056389 9038877 9042230 9067363 9115341 9187065 
1469.073 9282840 9401756 9541307 9697053 9862717 10030427 10191277 10335995 
1472.930 10455625 10542205 10589074 10591085 10544648 10447730 10299851 
1476.305 10102208 9857582 9570397 9246412 8892416 8515789 8124251 7725463 
1480.163 7326807 6935136 6556451 6195581 5855978 5539700 5247395 4978695 
1484.020 4732525 4507497 4302167 4115246 3945617 3792242 3654223 3530657 
1487.877 3420722 3323655 3238855 3165794 3104052 3053211 3012886 2982686 
1491.735 2962227 2951365 2950175 2959128 2979097 3011347 3057382 3118922 
1495.592 3197828 3296117 3416153 3560948 3734578 3942487 4191615 4490001 
1499.450 4845694 5265034 5750314 6297256 6892912 7514671 8130795 8702774 
1503.307 9189395 9551972 9759889 9795392 9656603 9357988 8927709 8403018 
1507.165 7824161 7228856 6648289 6105108 5613428 5179993 4805914 4488406 
1511.022 4222233 4000805 3817176 3664617 3537257 3430298 3340169 3264339 
1514.879 3201006 3148839 3106653 3073262 3047532 3028390 3014843 3006186 
1518.737 3001800 3001199 3003970 3009630 3017683 3027540 3038571 3050159 
1522.594 3061693 3072726 3082870 3091845 3099450 3105397 3109308 3110624 
1526.452 3108681 3102808 3092567 3077814 3058822 3036143 3010479 2982560 
1530.309 2952807 2921491 2888723 2854695 2819822 2784829 2750627 2718116 
1534.167 2687875 2660011 2634167 2609731 2586134 2563145 2541027 2520411 
1538.024 2502153 2486840 2474692 2465347 2458015 2451827 2446149 2440834 
1541.881 2436177 2432800 2431271 2431834 2434270 2437858 2441783 2445316 
1545.739 2448199 2450796 2453947 2458694 2465923 2476041 2488744 2503203 
1549.596 2518238 2532758 2545901 2557410 2567401 2576218 2584281 2591864 
1553.454 2599098 2606063 2612921 2619992 2627780 2636801 2647383 2659576 
1557.311 2673104 2687496 2702351 2717497 2733333 2750602 2770309 2793410 
1561.168 2820583 2852002 2887542 2926774 2969326 3015006 3063919 3116390 
1565.026 3172871 3233768 3299263 3369403 3444144 3523659 3608616 3700377 
1568.883 3801103 3913605 4040937 4185896 4350497 4535647 4740930 4964823 
1572.741 5204835 5457781 5719780 5986008 6250385 6505246 6741323 6948266 
1576.598 7115622 7234046 7296450 7298727 7240060 7122701 6951682 6734209 
1580.456 6479240 6196896 5897942 5593014 5291975 5003332 4733765 4487943 
1584.313 4268471 4076162 3910245 3768794 3649120 3548115 3462575 3389462 
1588.170 3326090 3270323 3220543 3175698 3135157 3098551 3065618 3036174 
1592.028 3009992 2986995 2967285 2951107 2938879 2931043 2927877 2929424 
1595.885 2935539 2945939 2960449 2979086 3002111 3029885 3062686 3100573 
1599.743 3143260 3190233 3240937 3295011 3352414 3413427 3478497 3548057 
1603.600 3622252 3700892 3783536 3869580 3958521 4049919 4143410 4238622 
1607.458 4335033 4431886 4528232 4622983 4714966 4802887 4885393 4960818 
1611.315 5027232 5082425 5124069 5149930 5158098 5147272 5116855 5067096 
1615.172 4999175 4915226 4818265 4712034 4600651 4488262 4378728 4275304 
1619.030 4180614 4096565 4024418 3964765 3917568 3882063 3856795 3839848 
1622.887 3829065 3822469 3818543 3816433 3815867 3816965 3819900 3824690 
1626.745 3831058 3838580 3846745 3855278 3864148 3873558 3883728 3894772 
1630.602 3906519 3918588 3930488 3941825 3952425 3962380 3971969 3981559 
1634.459 3991378 4001581 4012158 4023057 4034239 4045720 4057462 4069436 
1638.317 4081561 4093810 4106250 4119183 4133046 4148440 4165817 4185428 
1642.174 4207179 4230575 4254980 4279712 4304258 4328402 4352185 4375935 
1646.032 4400077 4425116 4451443 4479345 4508994 4540306 4573139 4607199 
1649.889 4642243 4678234 4715424 4754384 4795948 4841054 4890439 4944561 
1653.747 5003481 5067033 5134950 5207195 5283943 5365620 5452679 5545553 
1657.604 5644394 5749146 5859627 5975697 6097467 6225414 6360301 6503117 
1661.461 6654832 6816097 6987034 7167040 7354824 7548562 7746235 7946016 
1665.319 8146726 8347917 8549952 8753595 8959816 9169188 9381805 9597234 
1669.176 9814822 10033987 10254455 10476436 10700454 10927197 11157507 
1672.552 11392228 11632473 11879565 12135030 12400182 12675738 12961380 
1675.927 13255763 13556878 13862859 14172663 14486519 14805777 15132087 
1679.302 15466449 15808365 16155604 16504708 16852154 17195506 17534188 
1682.677 17869680 18204866 18543110 18887224 19238860 19598602 19966412 
1686.052 20342226 20726622 21120806 21526728 21946842 22384148 22842238 
1689.428 23325490 23838892 24387702 24976822 25610370 26291538 27022930 
1692.803 27807506 28649258 29553660 30527138 31576056 32705400 33918240 
1696.178 35216264 36601616 38079220 39658364 41353256 43181048 45159128 
1699.553 47301836 49618460 52113540 54789316 57649504 60702544 63962464 
1702.929 67447224 71174664 75158224 79403696 83908280 88661512 93647128 
1706.304 98844008 104224672 109752216 115376624 121033024 126643392 
1709.197 132120976 137375824 142318112 146859472 150912352 154392240 
1712.090 157224240 159353872 160756560 161441104 161443216 160813920 
1714.983 159607632 157876688 155673056 153054080 150086480 146845120 
1717.876 143406256 139838832 136197680 132522000 128837920 125163912 
1720.769 121515152 117905904 114349152 110855256 107430520 104077744 
1723.662 100797616 97591088 94460800 91411208 88447056 85571440 82784016 
1727.038 80080688 77454576 74898080 72404696 69970576 67594200 65275456 
1730.413 63013988 60807956 58653520 56545444 54478212 52447652 50451832 
1733.788 48491440 46568972 44687564 42849480 41055064 39302560 37588640 
1737.163 35909516 34262264 32645690 31060928 29511062 28000576 26534208 
1740.539 25116268 23749972 22437484 21180164 19978902 18834526 17747934 
1743.914 16720103 15751928 14844081 13996746 13209514 12481166 11809601 
1747.289 11191843 10624151 10102306 9622028 9179265 8770461 8392775 8043971 
1751.146 7722269 7426154 7154110 6904412 6675097 6463992 6268753 6087110 
1755.004 5917225 5757642 5607671 5467026 5335751 5213823 5100905 4996162 
1758.861 4898448 4806346 4718691 4634562 4553534 4475537 4400719 4329291 
1762.719 4261454 4197363 4137072 4080528 4027433 3977199 3928843 3881120 
1766.576 3832853 3783226 3732179 3680413 3629306 3580551 3535589 3495305 
1770.434 3459894 3428952 3401686 3377305 3355040 3334328 3314634 3295505 
1774.291 3276469 3257200 3237606 3217786 3198015 3178490 3159119 3139533 
1778.148 3119139 3097230 3073518 3047997 3021127 2993425 2965381 2937178 
1782.006 2908952 2880832 2853369 2827586 2804819 2786374 2772900 2764158 
1785.863 2758890 2755250 2751172 2745031 2735965 2723785 2708801 2691448 
1789.721 2672225 2651542 2630000 2608458 2588120 2570181 2555570 2544441 
1793.578 2536130 2529271 2522335 2514088 2503993 2492291 2479791 2467416 
1797.436 2455786 2445091 2435001 2425066 2414881 2404408 2393944 2384029 
1801.293 2375223 2367890 2362055 2357399 2353246 2348579 2342345 2333496 
1805.150 2321391 2305922 2287830 2268427 2249510 2232886 2219733 2210494 
1809.008 2204783 2201597 2199896 2198847 2198161 2197883 2198085 2198565 
1812.865 2198767 2197931 2195512 2191589 2187145 2183880 2183731 2188196 
1816.723 2197775 2211454 2227036 2241558 2252047 2256316 2253396 2243793 
1820.580 2229303 2212648 2197005 2185211 2179365 2180109 2186499 2195962 
1824.438 2204976 2209904 2207964 2197997 2180842 2158775 2134917 2112043 
1828.295 2091949 2074916 2060017 2045642 2030148 2012446 1992176 1969649 
1832.152 1945629 1920983 1896510 1872954 1851009 1831279 1814168 1799795 
1836.010 1787850 1777604 1768014 1757984 1746613 1733300 1717736 1699937 
1839.867 1679960 1658005 1634400 1609577 1584293 1559540 1536481 1516198 
1843.725 1499545 1486864 1477782 1471201 1465344 1458096 1447306 1431428 
1847.582 1410044 1384156 1356169 1329294 1306785 1290792 1281846 1278416 
1851.439 1277559 1275759 1270080 1258998 1242667 1222583 1200797 1179167 
1855.297 1158904 1140532 1124418 1111093 1101606 1097306 1099263 1107677 
1859.154 1121536 1138572 1155933 1170798 1181106 1185931 1185224 1179475 
1863.012 1169234 1154636 1135661 1112115 1084292 1053096 1020424 988764 
1866.869 961079 940244 928517 927072 935661 952438 974167 996628 1015642 
1871.209 1027701 1030855 1025008 1011708 993659 974078 955887 941523 932772 
1875.548 930875 936383 949077 967557 989060 1009533 1024564 1030204 1024364 
1879.888 1007272 981705 952186 923646 900334 885086 878969 881730 892215 
1884.228 908917 929743 951975 972157 986459 991424 985172 968069 943038 
1888.567 914794 888532 868295 856056 851306 851694 854064 855574 854195 
1892.907 848887 839197 825053 806652 784918 761682 739944 723271 715010 
1897.246 717075 729328 749287 773002 795959 814593 826875 832396 832206 
1901.586 828160 822240 816508 812837 812865 817645 827208 840296 854464 
1905.926 866638 874198 876066 873356 869093 867242 871053 882052 899160 
1910.265 919294 938348 952804 960580 961623 957192 949277 939673 929327 
1914.605 918669 908239 898715 891516 888211 890296 898329 911737 928676 
1918.944 946553 962642 974551 980924 981564 977430 970305 962224 954951 
1923.284 949332 945044 940684 934658 925604 913514 899576 886181 875555 
1927.624 869082 866279 865230 862908 856807 845587 829866 811699 793740 
1931.963 778256 767045 761258 762250 771790 792185 825290 871342 928135 
1936.303 991174 1054571 1112993 1163295 1205149 1240617 1271962 1300161 
1940.160 1323924 1339669 1343721 1333963 1312024 1282932 1253887 1232038 
1944.018 1221992 1224648 1237225 1254723 1271912 1284608 1290251 1288245 
1947.875 1279443 1265821 1250458 1236984 1228899 1228082 1233573 1240602 
1951.732 1241788 1228988 1196634 1143947 1075559 1000332 927565 863652 
1955.590 810417 765540 725359 688401 657838 640775 645013 674031 723427 
1959.929 779998 826200 845922 831843 787576 726272 665074 618572 593561 
1964.269 588660 597202 612824 633227 661878 704721 766145 844166 929278 
1968.609 1007394 1064497 1092811 1092609 1071507 1039822 1004069 963503 
1972.466 908933 827239 707160 546505 355798 158689 -13566 -128959 -163728 
1976.806 -108962 25035 210328 408043 579377 695065 742884 728143 670384 
1981.145 596533 533570 502020 511373 559556 634902 721202 802732 869110 
1985.485 916567 947546 968127 984169 998862 1010405 1012910 997136 953715 
1989.824 875643 761898 617996 457256 297817 159833 60399 9279 6070 40888 
1994.646 97209 157197 206790 239330 255767 262572 267640 277626 295152 
1998.986 320042 350252 384034 420097 456452 488865 509769 509011 477213 
2003.325 409393 309227 189426 69313 -30184 -93212 -114195 -98092 -59041 
2007.665 -12677 28295 57678 75186 83401 84234 77873 62761 38630 8206 -22014 
2012.969 -44227 -51485 -42134 -20914 1936 13883 3967 -34532 -103399 -199712 
2017.791 -318349 -452763 -596431 -741239 -878225 -996669 -1086289 -1138415 
2021.648 -1149853 -1122893 -1066500 -993331 -918393 -856333 -819549 -816381 
2025.506 -850685 -920351 -1017577 -1129144 -1238570 -1328880 -1385963 
2028.881 -1400281 -1369226 -1295119 -1184542 -1046689 -892112 -733751 
2032.256 -587263 -468664 -392916 -367380 -388754 -440196 -496568 -530045 
2036.114 -520500 -461391 -362834 -246793 -140037 -63371 -27039 -27565 -52575 
2040.453 -86924 -120317 -149871 -179740 -216141 -262061 -313928 -362067 
2044.311 -394027 -400156 -376313 -324415 -249061 -153206 -35582 108454 
2048.168 282728 483438 696102 895532 1053105 1145193 1161062 1106157 1000821 
2052.508 873862 755648 669412 626507 624118 648587 681610 707808 719595 
2056.847 718747 713665 715276 731731 765827 813990 869023 922764 969598 
2061.187 1007554 1038515 1065837 1092128 1117387 1138648 1150516 1147376 
2065.044 1124916 1082299 1021915 949427 872566 799487 737542 692329 666548 
2069.384 660535 671827 696030 728101 763520 799254 834581 870272 907818 
2073.723 947223 986219 1019464 1040099 1041572 1020572 978740 923244 865409 
2078.063 817720 790686 789924 815272 861515 919954 981587 1038685 1086128 
2082.403 1121426 1144104 1154750 1154759 1145814 1130257 1111037 1091371 
2086.260 1074373 1062442 1056726 1057397 1063696 1074515 1088374 1103516 
2090.117 1117181 1125889 1125272 1111297 1081540 1036610 980872 922080 
2093.975 869548 832126 814947 818252 837081 863158 887570 903964 910378 
2098.314 909674 907917 912073 926963 953668 988723 1025391 1055962 1074772 
2102.654 1079833 1074144 1064052 1057236 1059390 1072038 1091781 1111742 
2106.511 1124106 1123586 1109806 1087504 1064837 1050124 1048363 1059563 
2110.369 1078446 1097277 1108693 1108897 1098738 1082639 1066040 1052815 
2114.226 1043256 1034523 1022562 1004871 982264 959120 941252 933386 935839 
2118.566 943881 948664 940678 913220 865537 803112 736144 675929 631090 
2122.906 605098 595902 597029 600452 598873 587889 565889 534140 495119 
2127.245 452244 408845 368017 331987 301985 277209 255429 232746 205599 
2131.585 171422 130394 85045 39295 -3633 -42723 -80409 -121155 -169473 
2135.924 -226831 -291088 -355837 -413739 -458727 -489274 -508133 -521394 
2139.782 -535236 -553926 -577442 -602781 -625277 -641596 -650489 -653710 
2143.639 -654153 -654047 -653608 -651179 -644245 -631389 -613403 -593899 
2147.497 -578775 -575149 -590041 -630938 -704566 -817353 -973024 -1171080 
2151.354 -1403991 -1656526 -1906964 -2131481 -2310177 -2432071 -2497484 
2154.729 -2516989 -2505762 -2476814 -2434320 -2372490 -2277136 -2133725 
2158.104 -1935873 -1694101 -1434370 -1193002 -1003738 -887964 -850224 
2161.480 -880876 -959778 -1064070 -1170431 -1259062 -1313740 -1325700 
2164.855 -1294130 -1228544 -1146870 -1071866 -1025759 -1023956 -1069997 
2168.230 -1155740 -1263644 -1372890 -1465724 -1532395 -1572451 -1592472 
2171.605 -1600275 -1600764 -1591480 -1564354 -1508637 -1417957 -1294969 
2174.981 -1154946 -1022081 -925144 -887624 -921476 -1021317 -1165969 
2178.356 -1322465 -1453979 -1526963 -1519526 -1424934 -1253307 -1028868 
2181.731 -784541 -554181 -365438 -233573 -160205 -134880 -140272 -158360 
2185.589 -175837 -187204 -194483 -203680 -221739 -251501 -291026 -333198 
2189.446 -369842 -394537 -406050 -408886 -411802 -423252 -448240 -484234 
2193.303 -522067 -548361 -549992 -519215 -457076 -373038 -282411 -201143 
2197.161 -140881 -105243 -89661 -83596 -75177 -55850 -23279 17980 59072 
2201.500 90160 104085 99148 78648 50167 21857 810 -9065 -7043 5357 25829 
2206.804 52190 83297 118375 157359 199917 245609 293707 343725 394555 444993 
2211.626 492820 535127 567840 586899 588532 570779 533570 479174 412193 
2215.966 338878 266772 203640 156532 130919 128894 149036 185537 229808 
2220.305 271515 301241 312543 303572 276971 239003 197757 161262 135982 
2224.645 125841 132335 155109 192065 240387 296555 356846 417491 475268 
2228.985 527506 572096 607358 631824 644155 643871 632368 613656 594568 
2233.324 583894 589657 616742 663928 723750 783569 829556 850703 842930 
2237.664 810018 762640 714277 677161 658360 658173 670901 687959 700770 
2242.003 703569 694434 675028 649234 621521 596168 576714 565800 565225 
2246.343 575453 595558 623010 654396 686068 715857 743130 769002 794561 
2250.683 819859 842609 858563 863278 854518 834055 808761 788492 783344 
2255.022 799517 836854 888506 943181 989131 1018404 1029197 1026158 1017870 
2259.362 1013238 1017812 1032204 1051887 1069705 1078865 1075746 1061553 
2263.219 1041868 1024885 1019054 1030326 1060658 1107644 1165331 1225760 
2267.077 1281046 1324926 1354093 1368357 1370378 1364257 1354939 1346586 
2270.934 1341861 1341841 1346284 1353798 1362820 1371800 1379646 1385708 
2274.792 1389877 1392626 1395154 1399198 1406770 1419681 1438824 1463953 
2278.649 1493208 1523587 1551771 1574632 1590289 1598344 1600065 1597821 
2282.506 1594770 1594092 1598842 1611062 1631620 1659759 1693123 1727669 
2286.364 1758585 1781077 1791615 1788643 1773104 1747975 1717416 1685612 
2290.221 1655780 1629794 1608162 1590631 1576621 1565794 1557750 1552049 
2294.079 1547627 1542864 1535876 1524899 1509139 1488940 1465935 1442523 
2297.936 1421184 1403949 1391885 1385054 1382587 1383046 1384689 1385791 
2301.793 1384790 1380478 1372459 1361251 1348236 1335458 1324989 1318177 
2305.651 1315164 1314703 1314537 1312240 1306070 1295776 1282759 1269708 
2309.508 1259744 1255551 1258766 1269613 1287221 1309884 1335876 1363571 
2313.366 1391658 1419244 1445650 1470448 1493432 1514467 1533599 1550692 
2317.223 1565369 1577246 1586040 1592294 1597777 1605613 1619804 1644130 
2321.081 1680623 1728207 1781988 1833656 1873257 1891434 1881816 1842677 
2324.938 1777128 1692312 1597800 1503401 1417487 1345503 1289632 1249021 
2328.795 1220825 1201497 1187913 1178231 1171694 1168428 1168552 1171874 
2332.653 1177519 1184136 1190412 1195314 1198464 1200176 1201082 1201956 
2336.510 1203450 1205939 1209519 1214182 1219795 1226047 1232356 1238048 
2340.368 1242236 1244251 1243887 1241512 1238059 1234865 1233154 1233683 
2344.225 1236610 1241559 1247981 1255444 1263903 1273499 1284274 1295904 
2348.083 1307478 1317670 1325241 1329472 1330700 1330105 1329328 1329711 
2351.940 1331807 1335065 1338277 1340139 1340145 1338902 1338165 1339996 
2355.797 1346012 1356508 1370206 1384450 1396112 1402425 1401801 1394053 
2359.655 1380303 1362524 1343013 1323895 1306951 1293348 1283838 1278511 
2363.512 1276853 1277788 1280071 1282419 1284117 1285188 1286299 1288404 
2367.370 1292233 1297827 1304432 1310795 1315689 1318462 1319541 1320088 
2371.227 1321678 1325600 1332295 1341278 1351277 1360779 1368492 1373737 
2375.084 1376337 1376544 1374757 1371374 1366880 1361857 1357135 1353554 
2378.942 1351832 1352202 1354337 1357408 1360593 1363339 1365702 1368274 
2382.799 1371895 1376877 1382895 1388762 1392895 1393794 1390847 1384550 
2386.657 1376527 1368807 1363328 1361150 1362203 1365317 1368673 1370265 
2390.514 1368519 1362623 1352742 1339889 1325795 1312380 1301402 1293890 
2394.372 1289958 1288619 1288299 1287281 1284429 1279542 1273528 1267882 
2398.229 1264059 1262615 1263006 1263614 1262258 1257174 1247419 1233368 
2402.086 1216351 1198162 1180686 1165348 1153412 1145910 1143973 1148546 
2405.944 1160148 1178183 1200843 1225017 1247147 1263976 1273673 1276166 
2409.801 1272970 1266605 1259591 1253568 1248967 1244995 1240099 1232588 
2413.659 1221054 1204775 1183847 1159226 1132724 1106865 1084602 1068629 
2417.516 1060799 1061318 1068597 1079255 1089278 1094802 1093415 1084629 
2421.374 1070094 1052580 1035451 1021374 1011979 1007681 1008084 1012234 
2425.231 1018918 1026863 1034811 1041382 1045577 1046711 1044855 1040731 
2429.088 1035452 1029934 1024537 1018927 1012208 1003576 992932 981220 
2432.946 970171 961787 957453 957415 960560 964797 968083 968885 966869 
2437.285 962709 957658 952834 948954 945929 943392 940977 938633 936648 
2441.625 935413 935043 935023 934285 931407 925178 915165 901856 886795 
2445.965 872351 861213 855809 857956 868321 886355 910194 937018 963417 
2450.304 986294 1003167 1012875 1015452 1011871 1003513 991552 976781 959471 
2454.644 939908 918701 897186 877267 860979 849938 844877 845280 849724 
2458.983 856411 863471 869589 873951 876318 876728 875263 872111 867543 
2463.323 862003 855910 849592 842984 835617 826864 816165 803832 790903 
2467.663 779404 771369 768348 770352 775744 781402 783723 779662 767863 
2472.002 749017 726010 702825 683777 672297 670423 678335 694678 717000 
2476.342 742334 767733 790718 809514 823256 832040 836589 838201 838215 
2480.681 837790 837563 837610 837549 836808 834956 832108 828919 826624 
2485.021 826743 830505 838585 850562 865054 879836 892631 901732 906871 
2489.361 909368 911848 917517 928864 946628 969301 993136 1013367 1025413 
2493.700 1026478 1016233 996983 972857 948628 928356 914637 908173 908298 
2498.040 913465 921939 932138 942893 953168 962161 969135 973721 975974 
2502.379 976463 976150 976137 977128 979477 982981 987024 991067 994685 
2506.719 997726 1000416 1003074 1006060 1009827 1014670 1021067 1029222 
2510.576 1039118 1050229 1061463 1071130 1077456 1079008 1075119 1066225 
2514.434 1053744 1039779 1026517 1015717 1008405 1004954 1005004 1007933 
2518.291 1013018 1019648 1027173 1035021 1042570 1049304 1054844 1059162 
2522.149 1062562 1065821 1069907 1075786 1084074 1094849 1107421 1120498 
2526.006 1132161 1140700 1144656 1143716 1138577 1131075 1123638 1118840 
2529.864 1118477 1123442 1133458 1147326 1163345 1179882 1195452 1208916 
2533.721 1219510 1226755 1230411 1230891 1229248 1227162 1226503 1228810 
2537.578 1234502 1242577 1250758 1256254 1256884 1252007 1242983 1232738 
2541.436 1224832 1222186 1225715 1234449 1245634 1255997 1263022 1265718 
2545.293 1264908 1262665 1261309 1262640 1267130 1274073 1281949 1289052 
2549.151 1293893 1295676 1294211 1289762 1282943 1274548 1265535 1256878 
2553.008 1249450 1243971 1240740 1239750 1240583 1242770 1245907 1249723 
2556.865 1254079 1259038 1264521 1270563 1277071 1284183 1291941 1300182 
2560.723 1308479 1315964 1321425 1323899 1322954 1319439 1315278 1313066 
2564.580 1315299 1323287 1336680 1353581 1371138 1386800 1399094 1408179 
2568.438 1415312 1422095 1429208 1435996 1440380 1439866 1432585 1418294 
2572.295 1398727 1377196 1357422 1342538 1334149 1332241 1335616 1342629 
2576.153 1351951 1362876 1375301 1389366 1405073 1422008 1439375 1456146 
2580.010 1471106 1483068 1490702 1492922 1488832 1478263 1462135 1442534 
2583.867 1422583 1405706 1394764 1391148 1394400 1402425 1412146 1420587 
2587.725 1425697 1426944 1425046 1421585 1418226 1416161 1415756 1416749 
2591.582 1418439 1420155 1421446 1422372 1423158 1424293 1426247 1429394 
2595.440 1433770 1439089 1444575 1449253 1452007 1452041 1449206 1444251 
2599.297 1438579 1434108 1432472 1434675 1440632 1449360 1459217 1468328 
2603.155 1475390 1479718 1481216 1480388 1477724 1473878 1469279 1464450 
2607.012 1459952 1456565 1454917 1455554 1458607 1463790 1470429 1477675 
2610.869 1484740 1491072 1496327 1500392 1503318 1505271 1506532 1507644 
2614.727 1509265 1512125 1516909 1523944 1533161 1544193 1556452 1569446 
2618.584 1582826 1596448 1610166 1623538 1635629 1645189 1650771 1651339 
2622.442 1646697 1637725 1626422 1615328 1607124 1603856 1606462 1614671 
2626.299 1627148 1641890 1656702 1669842 1680018 1686929 1690908 1692863 
2630.156 1693951 1695261 1697483 1700945 1705231 1709713 1713382 1715308 
2634.014 1714913 1711975 1706821 1700247 1693246 1686951 1682276 1679835 
2637.871 1679575 1681088 1683418 1685350 1685898 1684368 1680805 1675899 
2641.729 1670760 1666731 1664592 1664584 1666115 1668036 1668980 1667933 
2645.586 1664449 1658828 1651925 1644824 1638379 1633053 1628811 1625360 
2649.444 1622309 1619425 1616745 1614447 1612736 1611676 1611077 1610639 
2653.301 1609898 1608594 1606648 1604166 1601425 1598816 1596652 1595175 
2657.158 1594465 1594388 1594597 1594484 1593237 1589961 1583906 1574640 
2661.016 1562333 1547619 1531615 1515598 1500650 1487396 1475963 1465886 
2664.873 1456539 1447315 1437838 1428161 1418678 1409962 1402702 1397399 
2668.731 1394376 1393804 1395533 1399268 1404384 1410156 1415706 1420344 
2672.588 1423450 1424953 1425049 1424311 1423338 1422572 1422102 1421604 
2676.446 1420496 1418193 1414354 1409139 1403132 1397366 1392874 1390618 
2680.303 1391093 1394345 1399820 1406654 1413743 1420089 1424762 1427277 
2684.160 1427516 1425818 1422905 1419719 1417236 1416283 1417240 1420027 
2688.018 1424068 1428399 1431974 1433972 1433985 1432104 1428949 1425504 
2691.875 1422789 1421500 1421989 1424041 1427043 1430099 1432452 1433577 
2695.733 1433263 1431648 1429010 1425601 1421568 1416873 1411624 1406029 
2699.590 1400713 1396645 1394912 1396383 1401361 1409411 1419405 1429684 
2703.448 1438643 1445212 1449071 1450718 1451222 1451798 1453355 1456283 
2707.305 1460330 1464841 1469154 1472632 1474994 1476238 1476492 1475900 
2711.162 1474525 1472513 1469990 1467349 1465143 1464048 1464763 1467718 
2715.020 1473043 1480557 1489841 1500342 1511476 1522588 1532938 1541760 
2718.877 1548230 1551700 1551838 1548990 1544177 1538925 1535095 1534490 
2722.735 1538427 1547438 1561208 1578761 1598630 1619057 1638323 1654943 
2726.592 1667732 1675898 1679256 1678251 1673835 1667602 1661330 1656844 
2730.449 1655531 1658127 1664587 1674143 1685512 1697097 1707456 1715357 
2734.307 1720117 1721477 1719740 1715546 1709705 1703208 1696830 1691111 
2738.164 1686357 1682595 1679808 1677922 1677030 1677297 1678845 1681581 
2742.022 1685194 1689103 1692617 1695155 1696597 1697144 1697497 1698312 
2745.879 1700023 1702499 1705106 1706874 1706887 1704692 1700622 1695617 
2749.737 1691026 1688078 1687543 1689401 1693017 1697346 1701482 1704852 
2753.594 1707417 1709549 1711626 1713898 1716069 1717527 1717605 1715756 
2757.451 1712117 1707402 1703047 1700581 1701352 1706036 1714460 1725477 
2761.309 1737409 1748399 1756811 1761688 1762841 1760825 1756672 1751475 
2765.166 1746212 1741460 1737449 1734218 1731748 1730124 1729644 1730643 
2769.024 1733476 1738237 1744750 1752515 1760905 1769179 1776775 1783274 
2772.881 1788386 1791980 1793924 1794226 1793026 1790669 1787750 1785027 
2776.739 1783329 1783200 1784911 1788275 1792865 1798036 1803330 1808393 
2780.596 1813214 1817906 1822619 1827314 1831824 1835848 1839041 1841270 
2784.453 1842648 1843566 1844663 1846529 1849698 1854368 1860550 1867832 
2788.311 1875811 1883972 1891910 1899409 1906406 1912897 1918846 1924214 
2792.168 1928823 1932503 1935130 1936828 1937934 1939096 1940889 1943841 
2796.026 1948073 1953286 1958925 1964293 1968974 1973036 1976967 1981578 
2799.883 1987567 1995219 2004251 2013730 2022401 2029244 2033653 2035656 
2803.740 2035855 2035109 2034155 2033541 2033294 2033361 2033540 2033860 
2807.598 2034617 2036186 2038883 2042687 2047363 2052364 2057043 2060948 
2811.455 2063803 2065540 2066396 2066618 2066603 2066900 2068164 2071089 
2815.313 2076282 2083974 2093850 2104946 2115829 2124949 2131118 2133858 
2819.170 2133605 2131679 2129866 2129993 2133562 2141356 2153531 2169518 
2823.028 2188311 2208524 2228708 2247368 2263291 2275664 2284379 2289854 
2826.885 2293126 2295455 2297975 2301518 2306389 2312418 2319452 2327300 
2830.742 2336156 2346450 2358573 2372769 2388846 2406185 2424039 2441758 
2834.600 2459140 2476559 2494725 2514587 2536665 2561077 2587229 2614088 
2838.457 2640394 2665127 2687596 2707643 2725640 2742299 2758551 2775389 
2842.315 2793775 2814512 2838199 2865244 2895844 2929859 2966955 3006538 
2846.172 3047683 3089388 3130355 3169297 3205127 3237094 3265126 3289691 
2850.030 3311796 3332700 3353517 3374897 3396949 3419147 3440628 3460495 
2853.887 3478048 3493022 3505579 3516263 3525802 3535200 3545536 3557931 
2857.744 3573382 3592631 3615946 3642960 3672828 3704383 3736562 3768738 
2861.602 3800916 3833736 3868269 3905613 3946494 3991352 4040083 4092478 
2865.459 4148368 4207650 4270340 4336337 4405382 4476952 4550466 4625489 
2869.317 4702002 4780405 4861314 4945291 5032462 5122080 5212684 5302242 
2873.174 5388561 5469775 5544549 5612286 5673006 5727109 5775245 5818303 
2877.031 5857143 5892789 5926157 5958083 5989018 6019088 6048114 6075752 
2880.889 6101861 6126731 6151112 6176258 6203523 6234146 6268756 6307272 
2884.746 6348819 6391953 6435074 6476503 6515065 6550023 6581200 6608794 
2888.604 6633194 6654678 6673082 6687759 6697723 6701640 6698169 6686511 
2892.461 6666524 6638934 6605249 6567620 6528274 6489342 6452398 6418320 
2896.319 6387280 6358841 6332288 6306973 6282573 6259391 6238245 6220356 
2900.176 6207025 6199132 6196861 6199668 6206335 6215467 6225665 6236160 
2904.033 6246638 6257039 6267252 6276820 6284754 6289652 6290281 6285806 
2907.891 6276429 6263000 6247186 6230611 6214711 6200113 6186840 6174413 
2911.748 6162125 6149257 6135160 6119319 6101183 6080410 6056768 6030427 
2915.606 6002139 5972925 5944064 5916476 5890767 5866768 5844061 5822130 
2919.463 5800814 5780628 5762595 5748175 5738824 5735639 5739290 5749801 
2923.321 5766844 5789785 5817627 5849235 5883217 5918204 5953140 5987406 
2927.178 6021202 6055373 6091081 6129498 6171259 6216461 6264773 6315730 
2931.035 6369295 6425780 6485825 6550068 6618417 6689968 6763036 6835668 
2934.893 6906350 6974505 7040865 7107147 7175544 7248014 7325785 7409373 
2938.750 7498369 7592209 7690046 7791125 7894606 7999478 8104645 8208891 
2942.608 8311567 8412734 8513499 8615878 8722380 8835243 8955935 9084582 
2946.465 9219977 9359714 9500908 9640785 9777197 9909245 10037603 10164148 
2950.323 10291884 10424058 10563394 10711356 10867537 11029596 11193787 
2953.698 11355989 11512397 11660905 11801073 11934170 12062666 12189133 
2957.073 12315749 12443726 12573303 12703839 12834245 12963247 13089460 
2960.448 13211575 13328323 13438612 13541752 13637300 13725346 13805968 
2963.823 13879290 13945012 14002419 14050500 14088231 14114764 14129759 
2967.199 14133263 14125411 14106365 14076060 14034200 13980620 13915461 
2970.574 13839279 13753328 13658974 13557667 13450588 13338560 13221848 
2973.949 13100533 12974465 12843443 12707077 12565108 12417196 12263141 
2977.324 12102973 11936843 11765093 11587930 11405275 11216902 11022455 
2980.700 10822015 10616315 10406971 10196298 9986537 9779713 9576619 9377340 
2984.557 9181099 8987376 8796263 8608737 8426323 8250458 8081795 7919675 
2988.415 7762481 7607980 7454381 7300855 7147807 6996451 6848349 6704481 
2992.272 6565162 6430260 6299464 6172942 6051574 5936525 5828971 5729189 
2996.129 5636596 5549572 5466183 5384757 5304431 5225321 5148208 5073989 
2999.987 5003125 4935642 4870982 4808387 4747339 4687579 4629064 4571764 
3003.844 4515366 4459243 4402561 4344547 4284863 4223511 4160985 4097915 
3007.702 4035071 3973060 3912548 3854160 3798747 3746962 3699267 3655624 
3011.559 3615388 3577399 3540382 3503200 3465412 3427110 3388860 3351365 
3015.417 3315070 3279991 3245823 3212114 3178598 3145273 3112317 3080227 
3019.274 3049180 3019082 2989627 2960129 2930023 2898840 2866591 2833540 
3023.131 2800386 2767986 2737293 2709154 2684112 2662259 2643235 2626255 
3026.989 2610427 2595035 2579662 2564469 2549866 2536632 2525236 2515906 
3030.846 2508465 2502466 2497511 2493116 2489099 2484978 2480262 2474213 
3034.704 2466093 2455717 2443473 2430827 2419992 2413243 2412365 2418028 
3038.561 2429424 2444774 2461751 2478223 2492977 2505642 2516752 2527290 
3042.418 2538428 2551410 2567512 2588230 2615190 2649842 2693029 2744651 
3046.276 2803391 2866940 2932645 2998073 3061600 3122580 3181156 3237662 
3050.133 3292149 3344124 3392558 3436210 3474003 3505402 3530324 3549075 
3053.991 3562056 3569572 3571831 3568973 3561258 3549068 3533099 3514184 
3057.848 3493309 3471756 3450980 3432706 3418767 3410661 3409170 3414036 
3061.706 3423795 3436223 3448864 3459594 3467327 3471874 3473806 3474030 
3065.563 3473127 3471505 3469047 3465796 3461898 3457851 3454264 3451342 
3069.420 3449045 3446728 3443636 3439123 3433399 3427223 3421996 3419086 
3073.278 3419466 3423398 3430393 3439545 3449932 3460763 3471399 3481391 
3077.135 3490120 3496832 3501012 3502451 3501564 3499411 3497266 3496137 
3080.993 3496318 3496991 3496594 3493064 3484552 3469852 3448555 3421006 
3084.850 3388035 3350555 3309657 3266391 3221994 3177756 3134932 3094580 
3088.708 3057264 3023264 2992675 2965601 2942595 2924296 2911416 2904155 
3092.565 2901802 2902924 2905649 2908281 2909908 2910623 2911244 2913018 
3096.422 2916732 2922409 2929481 2937039 2944421 2951711 2959623 2969018 
3100.280 2980621 2994173 3008633 3022342 3033513 3040935 3043889 3042364 
3104.137 3036482 3026161 3011207 2991317 2966563 2937693 2906170 2873908 
3107.995 2842749 2814057 2788381 2765710 2745727 2728107 2712629 2699093 
3111.852 2686964 2675210 2662339 2646794 2627679 2605142 2580646 2556610 
3115.709 2535642 2519898 2510378 2506663 2507556 2511217 2515857 2520132 
3119.567 2522995 2523743 2521943 2517465 2510711 2502606 2494700 2488783 
3123.424 2486184 2487474 2492340 2499578 2507927 2516375 2524582 2532824 
3127.282 2541237 2549453 2556046 2558784 2555428 2544496 2526228 2502696 
3131.139 2477406 2454069 2435439 2422533 2414136 2407807 2400452 2389924 
3134.997 2375419 2357826 2339224 2322005 2308228 2298888 2293849 2292065 
3138.854 2292037 2292167 2291154 2288067 2282408 2274017 2263020 2249714 
3142.711 2234584 2218181 2201267 2184625 2169261 2156307 2146866 2141922 
3146.569 2142070 2147207 2156572 2168558 2181227 2192545 2200949 2205561 
3150.426 2206407 2204103 2199602 2193773 2187158 2179850 2171681 2162608 
3154.284 2152842 2143032 2134365 2128012 2125151 2126272 2131293 2139460 
3158.141 2149522 2160141 2170189 2178774 2185521 2190270 2193180 2194514 
3161.999 2194689 2194236 2194070 2195108 2198350 2204363 2213139 2223835 
3165.856 2234931 2244580 2251192 2253946 2253030 2249553 2245158 2241337 
3169.713 2238806 2237300 2235708 2232428 2226285 2216786 2204487 2190882 
3173.571 2177755 2166740 2158811 2154138 2152082 2151650 2151805 2151737 
3177.428 2151101 2149897 2148448 2147212 2146746 2147436 2149795 2153985 
3181.286 2160039 2167776 2176748 2186312 2195944 2204969 2213042 2219993 
3185.143 2225980 2231305 2236556 2242227 2248684 2255861 2263171 2269451 
3189.000 2273339 2273468 2269138 2260531 2248934 2236271 2224626 2215461 
3192.858 2209207 2205069 2201488 2196874 2190302 2182061 2173549 2166972 
3196.715 2164383 2167152 2175496 2188493 2204381 2221050 2236552 2249173 
3200.573 2257638 2260985 2258954 2251801 2240796 2228085 2216374 2208252 
3204.430 2205337 2207687 2213608 2220049 2223729 2222174 2214734 2202780 
3208.288 2189397 2178160 2172234 2173068 2180201 2191474 2203768 2214001 
3212.145 2219805 2220149 2215247 2206266 2194914 2182996 2172158 2163611 
3216.002 2158352 2156868 2159497 2166154 2176527 2189948 2205584 2222235 
3219.860 2238675 2253550 2265675 2274042 2278299 2278444 2275291 2269976 
3223.717 2264150 2259332 2256999 2258075 2263028 2271677 2283381 2297199 
3227.575 2312022 2326536 2339782 2350880 2359240 2364620 2366954 2366523 
3231.432 2363893 2359781 2355330 2351684 2350107 2351438 2356016 2363386 
3235.290 2372264 2380708 2386679 2388343 2384706 2375581 2361925 2345342 
3239.147 2327862 2311655 2298577 2290003 2286785 2288807 2295195 2304153 
3243.004 2313430 2320755 2324727 2325149 2323396 2321992 2323693 2330315 
3246.862 2341981 2356485 2370162 2378766 2379153 2370320 2353986 2333916 
3250.719 2314860 2300882 2294357 2295300 2302037 2311723 2321786 2330459 
3254.577 2337108 2342016 2345894 2349236 2352293 2354989 2357335 2359528 
3258.434 2362029 2365552 2370557 2377191 2385001 2392968 2399872 2404315 
3262.292 2405243 2401959 2394441 2383269 2369896 2356333 2345011 2338329 
3266.149 2338014 2344664 2357512 2374350 2392164 2407716 2418471 2423136 
3270.006 2422006 2416697 2409757 2403762 2400864 2402056 2407141 2414621 
3273.864 2422259 2427681 2429120 2426011 2419314 2411356 2405252 2403972 
3277.721 2409450 2421780 2439208 2458544 2476175 2489168 2496138 2497401 
3281.579 2494813 2490787 2487622 2486504 2487578 2489936 2492351 2493647 
3285.436 2493193 2491022 2487531 2483409 2479462 2476400 2475012 2476040 
3289.293 2480085 2487391 2497684 2510011 2522975 2535023 2544887 2551834 
3293.151 2555918 2557714 2558144 2558085 2558203 2558833 2560197 2562473 
3297.008 2565906 2570575 2576480 2583110 2589664 2594996 2598102 2598237 
3300.866 2595265 2589652 2582289 2574155 2566298 2559230 2553542 2549446 
3304.723 2547221 2546947 2548667 2551993 2556202 2560189 2562816 2563234 
3308.581 2561197 2557061 2552032 2547168 2543565 2541534 2540565 2539527 
3312.438 2537104 2532324 2525061 2516066 2506911 2499252 2494351 2492456 
3316.295 2492886 2494210 2494896 2493940 2491382 2488299 2486400 2487422 
3320.153 2492372 2501151 2512554 2524723 2535831 2544737 2551392 2556806 
3324.010 2562704 2570957 2583027 2599453 2619881 2643090 2667274 2690347 
3327.868 2710260 2725328 2734512 2737639 2735361 2729190 2721140 2713088 
3331.725 2706462 2701769 2698606 2695778 2692016 2686205 2677904 2667374 
3335.583 2655344 2642816 2630725 2619858 2610858 2604332 2600745 2600320 
3339.440 2602847 2607414 2612557 2616496 2617741 2615504 2610041 2602535 
3343.297 2594611 2587677 2582365 2578440 2575032 2571071 2565889 2559488 
3347.155 2552250 2544750 2537248 2529327 2520377 2509697 2497344 2484231 
3351.012 2472132 2462922 2458092 2457847 2461183 2466136 2470593 2472938 
3354.870 2472581 2469985 2466269 2462382 2458811 2455126 2450546 2444245 
3358.727 2435860 2425900 2415655 2406653 2400331 2397540 2398291 2401897 
3362.584 2407213 2412871 2417590 2420316 2420312 2417088 2410587 2401183 
3366.442 2389781 2377583 2366176 2356932 2350976 2348545 2349289 2352042 
3370.299 2355147 2356857 2355742 2351050 2342848 2332215 2320876 2311044 
3374.157 2304686 2303209 2307071 2315592 2327321 2340202 2352395 2362487 
3378.014 2369740 2374276 2376776 2378083 2379059 2380321 2382197 2384711 
3381.872 2387716 2390734 2393171 2394184 2392827 2388245 2379866 2367575 
3385.729 2352045 2334563 2316941 2301220 2289406 2282937 2282749 2288787 
3389.586 2300166 2315131 2331552 2346974 2359376 2367374 2370577 2369601 
3393.444 2365927 2361350 2357652 2356146 2357773 2362841 2371455 2383549 
3397.301 2398839 2416847 2436693 2456925 2475975 2492294 2505034 2514133 
3401.159 2520576 2525920 2531828 2539343 2548753 2559360 2570074 2579872 
3405.016 2588309 2595576 2602489 2609854 2618311 2627990 2638717 2650253 
3408.874 2662794 2676914 2693594 2713468 2736792 2762752 2789886 2816306 
3412.731 2840503 2861701 2880267 2897191 2914029 2932097 2952192 2974628 
3416.588 2999291 3025883 3054267 3084294 3115712 3147886 3179717 3209815 
3420.446 3236707 3259324 3277328 3291142 3302005 3311399 3321015 3332063 
3424.303 3345469 3361655 3380562 3401591 3423918 3446184 3467007 3485071 
3428.161 3499468 3509904 3516737 3520687 3522684 3523248 3522568 3520467 
3432.018 3516596 3510884 3503854 3496404 3489884 3485388 3483606 3484561 
3435.875 3487684 3491774 3495598 3497744 3496940 3491752 3480940 3463433 
3439.733 3438820 3407697 3371897 3334242 3298194 3266796 3241877 3223703 
3443.590 3210632 3199890 3188248 3172919 3152236 3125850 3094412 3059255 
3447.448 3022010 2984006 2946549 2910675 2877375 2847510 2821742 2800387 
3451.305 2783280 2769805 2758995 2749558 2740248 2729723 2716958 2701173 
3455.163 2682343 2661074 2638998 2618295 2601248 2589513 2583463 2581935 
3459.020 2582294 2581419 2576612 2566603 2552089 2535217 2518902 2505453 
3462.877 2495910 2489398 2483817 2476427 2465137 2449002 2428441 2404984 
3466.735 2380415 2356286 2333812 2313785 2297093 2284785 2277972 2277378 
3470.592 2282819 2292653 2304101 2313754 2318783 2317656 2310849 2300698 
3474.450 2290440 2283266 2281362 2285244 2293969 2305515 2317627 2328152 
3478.307 2335544 2338688 2336906 2329947 2318139 2302523 2285054 2268262 
3482.165 2254933 2247071 2245472 2249286 2256416 2264170 2270191 2273190 
3486.022 2273258 2271426 2269172 2267375 2266081 2264365 2261005 2255028 
3489.879 2246561 2236755 2227709 2221444 2219473 2221916 2227649 2234745 
3493.737 2241009 2244690 2245200 2242783 2238579 2233927 2230214 2228370 
3497.594 2229030 2232290 2238079 2245882 2254946 2264073 2271954 2277223 
3501.452 2279044 2277179 2272393 2266097 2260212 2256553 2256568 2260933 
3505.309 2269684 2282234 2297632 2314603 2331699 2347279 2359665 2367605 
3509.167 2370339 2368114 2362368 2355168 2348947 2345595 2345988 2349619 
3513.024 2355119 2360727 2365130 2367890 2369788 2372219 2376721 2384277 
3516.881 2395078 2408429 2423312 2438614 2453508 2467447 2479992 2490562 
3520.739 2498420 2503032 2504240 2502697 2499991 2498090 2498812 2503225 
3524.596 2511141 2521279 2531860 2541305 2548792 2554333 2558652 2562388 
3528.454 2565734 2568130 2568683 2566667 2562129 2556258 2550933 2548283 
3532.311 2549773 2555774 2565800 2578449 2592614 2607596 2623415 2640266 
3536.168 2658160 2676156 2692585 2705131 2711823 2711679 2705222 2694337 
3540.026 2681944 2670731 2662906 2659413 2660002 2663516 2668405 2673212 
3543.883 2676873 2678971 2679765 2680082 2681307 2684888 2691938 2702852 
3547.741 2717096 2732973 2748245 2760494 2768005 2769949 2766625 2759047 
3551.598 2748317 2735225 2720142 2703080 2684529 2665400 2647491 2632825 
3555.456 2623058 2618465 2617957 2618887 2618331 2613926 2604856 2592151 
3559.313 2578280 2566086 2557679 2553575 2552602 2552348 2550365 2545035 
3563.170 2536330 2525632 2515304 2507458 2503487 2503238 2505281 2507433 
3567.028 2507580 2504363 2497482 2487691 2476396 2464991 2454292 2444433 
3570.885 2434823 2424467 2412654 2399060 2384093 2368714 2354115 2341256 
3574.743 2330702 2322384 2315927 2310647 2306003 2301430 2296555 2290813 
3578.600 2283590 2274355 2262880 2249610 2235892 2223555 2214598 2210250 
3582.458 2210608 2214217 2218525 2220799 2218965 2212336 2201983 2190158 
3586.315 2179644 2172525 2169889 2171398 2175813 2181495 2187046 2191621 
3590.172 2194895 2196758 2197343 2196576 2194481 2191287 2187609 2184244 
3594.030 2182086 2181654 2183070 2185852 2189467 2193205 2196762 2200079 
3597.887 2203226 2206097 2208424 2209748 2209730 2208405 2206353 2204591 
3601.745 2204185 2205920 2210004 2215967 2223190 2231022 2239170 2247709 
3605.602 2256663 2265898 2274687 2281770 2285944 2286480 2283498 2278185 
3609.459 2272471 2268310 2267120 2269462 2275155 2283229 2293104 2304159 
3613.317 2316203 2329283 2343377 2358047 2372807 2387183 2400908 2414053 
3617.174 2426910 2439540 2451749 2462573 2470855 2475497 2476009 2472866 
3621.032 2467297 2460897 2455399 2451800 2450602 2451721 2455121 2460765 
3624.889 2468937 2479881 2493635 2509628 2526690 2543146 2557325 2567867 
3628.747 2574061 2575882 2573816 2568633 2561430 2553187 2545027 2537917 
3632.604 2532653 2529234 2527013 2524363 2519253 2509663 2494345 2473615 
3636.461 2449113 2423740 2401031 2383948 2374622 2373529 2380123 2392828 
3640.319 2409786 2429054 2449162 2468653 2486190 2500287 2509399 2512111 
3644.176 2507512 2495429 2476768 2453357 2427698 2402442 2379685 2360556 
3648.034 2344847 2331282 2317997 2303225 2286242 2267587 2249004 2233031 
3651.891 2221841 2216624 2217089 2221260 2226341 2229459 2228390 2222224 
3655.749 2211316 2196757 2180034 2162216 2144075 2125735 2107294 2088801 
3659.606 2070392 2052360 2034854 2017984 2001960 1987198 1974632 1965443 
3663.463 1960922 1961782 1967694 1977137 1987627 1996547 2002000 2003482 
3667.321 2002084 1999849 1999189 2001249 2005907 2011145 2014044 2011587 
3671.178 2002120 1985717 1964323 1941239 1919938 1903006 1891701 1885482 
3675.036 1882587 1880703 1878029 1873530 1867551 1861263 1856132 1853034 
3678.893 1852081 1852027 1851333 1848109 1841677 1832381 1822047 1813241 
3682.750 1808530 1809310 1815694 1826092 1837840 1848048 1854429 1855512 
3686.608 1851047 1841501 1828000 1811728 1794242 1777210 1762599 1752199 
3690.465 1747298 1748046 1753047 1759719 1764649 1764743 1758132 1744727 
3694.323 1726185 1705141 1684354 1665816 1650344 1637715 1627163 1618056 
3698.180 1610160 1603712 1599180 1596751 1596278 1597217 1598985 1601126 
3702.038 1603441 1605743 1607638 1608206 1606247 1600505 1590498 1576832 
3705.895 1561105 1545723 1532855 1523668 1518161 1515295 1513656 1512414 
3709.752 1511680 1512497 1516069 1522969 1532267 1541592 1547902 1548476 
3713.610 1542391 1530814 1517198 1505940 1501389 1506306 1521416 1545086 
3717.467 1574051 1604310 1632019 1654088 1668683 1674989 1673487 1665683 
3721.325 1653666 1640202 1628069 1619646 1616380 1618633 1625485 1635144 
3725.182 1645306 1653562 1658141 1657757 1652133 1641779 1628129 1613005 
3729.040 1598801 1587765 1581706 1581436 1586733 1596015 1607097 1617471 
3732.897 1624988 1628471 1627857 1624143 1619091 1614750 1613121 1615780 
3736.754 1623504 1636258 1653169 1672389 1691454 1707734 1718948 1723527 
3740.612 1721232 1712873 1700429 1686304 1672890 1662017 1654864 1651656 
3744.469 1651919 1654551 1658148 1661145 1662074 1659905 1654349 1645794 
3748.327 1635506 1625077 1616304 1610288 1607533 1607765 1610394 1615070 
3752.184 1621908 1631585 1645008 1662393 1683114 1705340 1726417 1743729 
3756.042 1755362 1760695 1760581 1756679 1750952 1744846 1739141 1734039 
3759.899 1729603 1726098 1724443 1725445 1729420 1735789 1742790 1747954 
3763.756 1749123 1744998 1736258 1724983 1714424 1707494 1706073 1710252 
3767.614 1718430 1728024 1736220 1740822 1740767 1735826 1726744 1714604 
3771.471 1700719 1686555 1673726 1663888 1658518 1658377 1663250 1671599 
3775.329 1680924 1688191 1690859 1687244 1677521 1663460 1648132 1635267 
3779.186 1628293 1629803 1640763 1660356 1686411 1715426 1743643 1767730 
3783.043 1785389 1795780 1799571 1798228 1793437 1786185 1776484 1763357 
3786.901 1745612 1722590 1695267 1666102 1638990 1617757 1605486 1602990 
3790.758 1609002 1620395 1633555 1645285 1654112 1660098 1664550 1669053 
3794.616 1674434 1680439 1685709 1688528 1687637 1682857 1675266 1666860 
3798.473 1660042 1656655 1657857 1663739 1673808 1686971 1702098 1717879 
3802.331 1732953 1745587 1754074 1756754 1752671 1742026 1726525 1708971 
3806.188 1693045 1682021 1678208 1682142 1692590 1706955 1722358 1736236 
3810.045 1747108 1754576 1758997 1761159 1761497 1760073 1756593 1750814 
3813.903 1743003 1734041 1725537 1719113 1715932 1716149 1718909 1722499 
3817.760 1725094 1725415 1723012 1718550 1713038 1707576 1702791 1698722 
3821.618 1695086 1691589 1688630 1687103 1688262 1692904 1700888 1710833 
3825.475 1720153 1725916 1725890 1719241 1707209 1692600 1679129 1670319 
3829.333 1668466 1674111 1685974 1701534 1717497 1730835 1739418 1742306 
3833.190 1739946 1733914 1726623 1720537 1717865 1719596 1725450 1733771 
3837.047 1741966 1747376 1748007 1743137 1733717 1721711 1709497 1699184 
3840.905 1691813 1687294 1684819 1683024 1680895 1677697 1673212 1667504 
3844.762 1660869 1653666 1646590 1640748 1637607 1638636 1644866 1656043 
3848.620 1670571 1685594 1697839 1704650 1705095 1700436 1694010 1690084 
3852.477 1692346 1702706 1720409 1742028 1762867 1778255 1785190 1783231 
3856.334 1774519 1763105 1753575 1749661 1753070 1763199 1777193 1790844 
3860.192 1799910 1801324 1794244 1779920 1761728 1743636 1729344 1720792 
3864.049 1717915 1718479 1719133 1716268 1707502 1692264 1671964 1649643 
3867.907 1629040 1613856 1606952 1609896 1622926 1644752 1673126 1704934 
3871.764 1736560 1764467 1785732 1798405 1802028 1797621 1787478 1774517 
3875.622 1761515 1750691 1743187 1739342 1738844 1741150 1745768 1752115 
3879.479 1759527 1766878 1772918 1776049 1775217 1770043 1761451 1751283 
3883.336 1742089 1736415 1736137 1741866 1752748 1766690 1780987 1792869 
3887.194 1800511 1803260 1802091 1799215 1797367 1799362 1806814 1819833 
3891.051 1836622 1853951 1868144 1875900 1875597 1867443 1853495 1836793 
3894.909 1820271 1806004 1794682 1785693 1777929 1770503 1763544 1758255 
3898.766 1756463 1759800 1768934 1782929 1799319 1814761 1826131 1831336 
3902.624 1830046 1823893 1815778 1809020 1806433 1809441 1817865 1830019 
3906.481 1843290 1854889 1862539 1864720 1861232 1852649 1840360 1826039 
3910.338 1811585 1798804 1789335 1784395 1784510 1789315 1797555 1807054 
3914.196 1815521 1820792 1821921 1819143 1814147 1809242 1806803 1808074 
3918.053 1813256 1821169 1830173 1838800 1846351 1853170 1859991 1867339 
3921.911 1874899 1881161 1883968 1881347 1872377 1857859 1840170 1822400 
3925.768 1807362 1796606 1790004 1786095 1783158 1779931 1776480 1774107 
3929.625 1774746 1780016 1790591 1805670 1823454 1841467 1857656 1870478 
3933.483 1879272 1883891 1884728 1882217 1877293 1871234 1865952 1863675 
3937.340 1866343 1874961 1889121 1906626 1924307 1938562 1946682 1947449 
3941.198 1941533 1931204 1919460 1909351 1903046 1901614 1904938 1912056 
3945.055 1921569 1931824 1941369 1948655 1952504 1951909 1946459 1936165 
3948.913 1921834 1904642 1886310 1868452 1852682 1840112 1831589 1827419 
3952.770 1827814 1832551 1841301 1853285 1867365 1881742 1894400 1902994 
3956.627 1905559 1900886 1889093 1871783 1851872 1833006 1818896 1812196 
3960.485 1814114 1823898 1839402 1857444 1874737 1888691 1897843 1901898 
3964.342 1901598 1898349 1893957 1890083 1888200 1889147 1892978 1898831 
3968.200 1904937 1909024 1908923 1903224 1891912 1876421 1859452 1843877 
3972.057 1832197 1825662 1824326 1827209 1833312 1842026 1853604 1868687 
3975.915 1887890 1910870 1935870 1959854 1979380 1991247 1993634 1986474 
3979.772 1971297 1950862 1928318 1906612 1888183 1874674 1866898 1864723 
3983.629 1867150 1872126 1876943 1878599 1874928 1864849 1849027 1829706 
3987.487 1810021 1793151 1781512 1776199 1777109 1783413 1793928 1807745 
3991.344 1824040 1841957 1860361 1877689 1892026 1901913 1906451 1905905 
3995.202 1901531 1895269 1889167 1884924 1883625 1885807 1891351 1899842 
3999.059 1910467 1921831 1932461 1940374 
##END=
